# Version 1.00
#
freq[Hz];re:Trc1_S11;im:Trc1_S11;re:Trc2_S21;im:Trc2_S21;
2.400000000000000E+009;1.574866026639938E-001;6.304141879081726E-002;2.704024082049727E-004;2.666465239599347E-003;
2.400166666666667E+009;1.574030220508575E-001;6.146329641342163E-002;4.055805620737374E-004;2.721663564443588E-003;
2.400333333333334E+009;1.572976261377335E-001;5.936479568481445E-002;4.621712141670287E-004;2.798259258270264E-003;
2.400500000000000E+009;1.572601348161697E-001;5.740043893456459E-002;6.239442154765129E-004;2.872306387871504E-003;
2.400666666666667E+009;1.571787595748901E-001;5.533252283930779E-002;7.905735983513296E-004;2.807525917887688E-003;
2.400833333333334E+009;1.573876291513443E-001;5.337842553853989E-002;7.941187359392643E-004;2.766489516943693E-003;
2.401000000000000E+009;1.575618982315064E-001;5.130985751748085E-002;8.143917075358331E-004;2.869335236027837E-003;
2.401166666666667E+009;1.576521992683411E-001;4.899115860462189E-002;9.138646419160068E-004;2.839570399373770E-003;
2.401333333333334E+009;1.577367335557938E-001;4.685702547430992E-002;1.201976090669632E-003;2.633932046592236E-003;
2.401500000000000E+009;1.583693176507950E-001;4.476904124021530E-002;1.248042099177837E-003;2.779678208753467E-003;
2.401666666666667E+009;1.585897654294968E-001;4.303365945816040E-002;1.262319507077336E-003;2.584552392363548E-003;
2.401833333333334E+009;1.592146605253220E-001;4.073041304945946E-002;1.390847726725042E-003;2.672762144356966E-003;
2.402000000000000E+009;1.594189703464508E-001;3.872727602720261E-002;1.483075204305351E-003;2.544555813074112E-003;
2.402166666666667E+009;1.600612252950668E-001;3.677088022232056E-002;1.710911863483489E-003;2.532664686441422E-003;
2.402333333333334E+009;1.605487763881683E-001;3.479016944766045E-002;1.828046166338027E-003;2.471002517268062E-003;
2.402500000000000E+009;1.616100221872330E-001;3.315822035074234E-002;2.045010449364781E-003;2.492406405508518E-003;
2.402666666666667E+009;1.620877534151077E-001;3.115664422512054E-002;2.132281195372343E-003;2.417061943560839E-003;
2.402833333333334E+009;1.627165973186493E-001;2.948972210288048E-002;2.190833911299706E-003;2.371494425460696E-003;
2.403000000000000E+009;1.636687815189362E-001;2.789264172315598E-002;2.179811708629131E-003;2.106799045577645E-003;
2.403166666666667E+009;1.646642535924912E-001;2.630743011832237E-002;2.359439386054874E-003;2.248683944344521E-003;
2.403333333333334E+009;1.656903922557831E-001;2.489399351179600E-002;2.366288099437952E-003;2.107086358591914E-003;
2.403500000000000E+009;1.663589030504227E-001;2.356750145554543E-002;2.551461104303598E-003;2.132405061274767E-003;
2.403666666666667E+009;1.675741225481033E-001;2.195365540683270E-002;2.548958640545607E-003;1.927797333337367E-003;
2.403833333333334E+009;1.685200184583664E-001;2.082769200205803E-002;2.459612442180514E-003;1.880465773865581E-003;
2.404000000000000E+009;1.696341186761856E-001;1.967098750174046E-002;2.754702465608716E-003;1.633389270864427E-003;
2.404166666666667E+009;1.705742776393890E-001;1.857541128993034E-002;2.796224085614085E-003;1.594385830685496E-003;
2.404333333333334E+009;1.716093868017197E-001;1.780827902257443E-002;2.863176865503192E-003;1.475974568165839E-003;
2.404500000000000E+009;1.723930835723877E-001;1.669114455580711E-002;2.866745926439762E-003;1.327420002780855E-003;
2.404666666666667E+009;1.734963357448578E-001;1.593876071274281E-002;2.784280804917216E-003;1.357789267785847E-003;
2.404833333333334E+009;1.745236814022064E-001;1.517380494624376E-002;3.105627838522196E-003;1.207963097840548E-003;
2.405000000000000E+009;1.753136217594147E-001;1.456293277442455E-002;2.957449993118644E-003;9.770304895937443E-004;
2.405166666666667E+009;1.760928928852081E-001;1.389609277248383E-002;3.038092050701380E-003;8.667302899993956E-004;
2.405333333333334E+009;1.769357770681381E-001;1.323445700109005E-002;2.844434930011630E-003;8.726434316486120E-004;
2.405500000000000E+009;1.776949018239975E-001;1.291752234101296E-002;2.956409705802798E-003;7.407642551697791E-004;
2.405666666666667E+009;1.783257722854614E-001;1.248128525912762E-002;3.166340757161379E-003;6.926793139427900E-004;
2.405833333333334E+009;1.788376420736313E-001;1.214211340993643E-002;2.957328921183944E-003;5.218008882366121E-004;
2.406000000000000E+009;1.794408559799194E-001;1.178504899144173E-002;2.918521873652935E-003;4.979938385076821E-004;
2.406166666666667E+009;1.797902882099152E-001;1.147290505468845E-002;3.123561618849635E-003;2.264147915411741E-004;
2.406333333333334E+009;1.803245991468430E-001;1.125393342226744E-002;2.978243632242084E-003;3.280335222370923E-004;
2.406500000000000E+009;1.806027144193649E-001;1.084429025650024E-002;2.951825736090541E-003;2.275634469697252E-004;
2.406666666666667E+009;1.805230826139450E-001;1.071008294820786E-002;3.113270737230778E-003;-1.185640430776402E-004;
2.406833333333334E+009;1.808536499738693E-001;1.039982959628105E-002;3.081950126215816E-003;-8.496388909406960E-005;
2.407000000000000E+009;1.810935884714127E-001;1.009189803153276E-002;2.916348166763783E-003;-3.990753975813277E-005;
2.407166666666667E+009;1.810310781002045E-001;9.760573506355286E-003;2.937680343165994E-003;-1.821554615162313E-004;
2.407333333333334E+009;1.807655841112137E-001;9.281445294618607E-003;2.932647941634059E-003;-3.772476920858026E-004;
2.407500000000000E+009;1.804380565881729E-001;8.891947567462921E-003;3.025273093953729E-003;-4.452632565516979E-004;
2.407666666666667E+009;1.803646385669708E-001;8.594546467065811E-003;2.818939741700888E-003;-5.922596901655197E-004;
2.407833333333334E+009;1.797810494899750E-001;7.857573218643665E-003;2.961662365123630E-003;-5.277598393149674E-004;
2.408000000000000E+009;1.794078946113586E-001;7.275140844285488E-003;2.963253529742360E-003;-4.486980033107102E-004;
2.408166666666667E+009;1.789599359035492E-001;6.870629265904427E-003;2.863263711333275E-003;-8.123424486257136E-004;
2.408333333333334E+009;1.786576211452484E-001;6.062414497137070E-003;2.911511342972517E-003;-8.366244728676975E-004;
2.408500000000000E+009;1.778948903083801E-001;5.317148752510548E-003;2.807866316288710E-003;-8.614455582574010E-004;
2.408666666666667E+009;1.772399842739105E-001;4.331289790570736E-003;2.731292508542538E-003;-1.001205062493682E-003;
2.408833333333334E+009;1.766645163297653E-001;3.381112590432167E-003;2.912953030318022E-003;-1.094578765332699E-003;
2.409000000000000E+009;1.757152676582336E-001;2.331540687009692E-003;2.759221009910107E-003;-1.229702262207866E-003;
2.409166666666667E+009;1.750919371843338E-001;1.001156168058515E-003;2.704942598938942E-003;-1.160503132268786E-003;
2.409333333333334E+009;1.745349466800690E-001;-1.014991139527410E-004;2.866959432139993E-003;-1.372784492559731E-003;
2.409500000000000E+009;1.737950146198273E-001;-1.541888923384249E-003;2.935763448476791E-003;-1.388995093293488E-003;
2.409666666666667E+009;1.729958504438400E-001;-2.845583483576775E-003;2.781238639727235E-003;-1.418510568328202E-003;
2.409833333333334E+009;1.723563820123673E-001;-4.336851183325052E-003;2.842892194166780E-003;-1.686195377260447E-003;
2.410000000000000E+009;1.716088801622391E-001;-5.958436988294125E-003;2.746108686551452E-003;-1.772432238794863E-003;
2.410166666666667E+009;1.711874902248383E-001;-7.473102305084467E-003;2.627910114824772E-003;-1.763079897500575E-003;
2.410333333333334E+009;1.704274117946625E-001;-9.242885746061802E-003;2.679259050637484E-003;-1.980926841497421E-003;
2.410500000000000E+009;1.699094623327255E-001;-1.088077668100596E-002;2.790119498968124E-003;-2.070495858788490E-003;
2.410666666666667E+009;1.693346202373505E-001;-1.295887865126133E-002;2.696918323636055E-003;-2.171839587390423E-003;
2.410833333333334E+009;1.689526289701462E-001;-1.444193162024021E-002;2.572961151599884E-003;-2.338247839361429E-003;
2.411000000000000E+009;1.685772091150284E-001;-1.647603325545788E-002;2.500665839761496E-003;-2.290786709636450E-003;
2.411166666666667E+009;1.682625114917755E-001;-1.850086823105812E-002;2.333266194909811E-003;-2.499280963093042E-003;
2.411333333333334E+009;1.679328978061676E-001;-2.035162411630154E-002;2.467587357386947E-003;-2.565544098615646E-003;
2.411500000000000E+009;1.677855998277664E-001;-2.247890457510948E-002;2.280275104567409E-003;-2.682402497157455E-003;
2.411666666666667E+009;1.680372059345245E-001;-2.436419203877449E-002;2.253984333947301E-003;-2.886463887989521E-003;
2.411833333333334E+009;1.677348911762238E-001;-2.627027407288551E-002;2.218028297647834E-003;-2.912051742896438E-003;
2.412000000000000E+009;1.678865849971771E-001;-2.833157964050770E-002;1.954865176230669E-003;-3.117653541266918E-003;
2.412166666666667E+009;1.679409593343735E-001;-3.054962493479252E-002;1.914472319185734E-003;-2.959143370389938E-003;
2.412333333333334E+009;1.682955920696259E-001;-3.216455504298210E-002;1.810375601053238E-003;-3.284976817667484E-003;
2.412500000000000E+009;1.685120612382889E-001;-3.421911224722862E-002;1.690231147222221E-003;-3.402085509151220E-003;
2.412666666666667E+009;1.688490211963654E-001;-3.609985113143921E-002;1.427756506018341E-003;-3.425590461120009E-003;
2.412833333333334E+009;1.693764477968216E-001;-3.812900185585022E-002;1.319647883065045E-003;-3.458062652498484E-003;
2.413000000000000E+009;1.697257906198502E-001;-3.977327048778534E-002;1.142324181273580E-003;-3.604402299970388E-003;
2.413166666666667E+009;1.700791716575623E-001;-4.159964248538017E-002;1.120947068557143E-003;-3.646580036729574E-003;
2.413333333333334E+009;1.705894321203232E-001;-4.312672838568687E-002;8.183351601473987E-004;-3.650158178061247E-003;
2.413500000000000E+009;1.713177412748337E-001;-4.476922005414963E-002;6.158912437967956E-004;-3.834676463156939E-003;
2.413666666666667E+009;1.718946546316147E-001;-4.644861072301865E-002;4.757246642839164E-004;-3.751964308321476E-003;
2.413833333333334E+009;1.724812388420105E-001;-4.792627692222595E-002;2.688000386115164E-004;-3.839690238237381E-003;
2.414000000000000E+009;1.729110479354858E-001;-4.941475018858910E-002;1.891151623567566E-005;-3.764967201277614E-003;
2.414166666666667E+009;1.736378222703934E-001;-5.062614753842354E-002;2.376581142016221E-005;-3.767394693568349E-003;
2.414333333333334E+009;1.741921603679657E-001;-5.180370062589645E-002;-1.480761711718515E-004;-3.658133558928967E-003;
2.414500000000000E+009;1.748587787151337E-001;-5.281920731067658E-002;-3.197827027179301E-004;-3.749174298718572E-003;
2.414666666666667E+009;1.753832846879959E-001;-5.373395979404450E-002;-4.526504781097174E-004;-3.742411499843001E-003;
2.414833333333334E+009;1.757467389106751E-001;-5.486501380801201E-002;-6.286061252467334E-004;-3.602606477215886E-003;
2.415000000000000E+009;1.762163937091827E-001;-5.574930459260941E-002;-8.700669277459383E-004;-3.590910229831934E-003;
2.415166666666667E+009;1.767470091581345E-001;-5.639203265309334E-002;-1.065031974576414E-003;-3.497682744637132E-003;
2.415333333333334E+009;1.773530542850494E-001;-5.717922374606133E-002;-9.736936190165579E-004;-3.376934910193086E-003;
2.415500000000000E+009;1.776117980480194E-001;-5.760476365685463E-002;-1.368989818729460E-003;-3.373741172254086E-003;
2.415666666666667E+009;1.777965128421783E-001;-5.809866264462471E-002;-1.471992582082748E-003;-3.317523747682571E-003;
2.415833333333334E+009;1.780451089143753E-001;-5.860916525125504E-002;-1.542711746878922E-003;-3.028724109753966E-003;
2.416000000000000E+009;1.780824512243271E-001;-5.910472199320793E-002;-1.717054634355009E-003;-3.071934683248401E-003;
2.416166666666667E+009;1.783411055803299E-001;-5.937953665852547E-002;-1.884507597424090E-003;-2.857341431081295E-003;
2.416333333333334E+009;1.781150698661804E-001;-5.961930006742477E-002;-1.902641612105072E-003;-2.965570893138647E-003;
2.416500000000000E+009;1.781253516674042E-001;-5.998731404542923E-002;-1.982514979317784E-003;-2.834877232089639E-003;
2.416666666666667E+009;1.779140979051590E-001;-6.015677377581596E-002;-1.982438843697310E-003;-2.604139968752861E-003;
2.416833333333334E+009;1.777344644069672E-001;-6.038889288902283E-002;-1.937627210281789E-003;-2.523980103433132E-003;
2.417000000000000E+009;1.771187186241150E-001;-6.062822043895721E-002;-2.098136348649859E-003;-2.427208237349987E-003;
2.417166666666667E+009;1.766918897628784E-001;-6.072093173861504E-002;-2.235212363302708E-003;-2.305698813870549E-003;
2.417333333333334E+009;1.762294769287109E-001;-6.088551133871079E-002;-2.329767914488912E-003;-2.119843382388353E-003;
2.417500000000000E+009;1.756061911582947E-001;-6.126793473958969E-002;-2.234212355688214E-003;-2.095930743962526E-003;
2.417666666666667E+009;1.748197674751282E-001;-6.140078231692314E-002;-2.285028342157602E-003;-2.016522455960512E-003;
2.417833333333334E+009;1.740965992212296E-001;-6.150015816092491E-002;-2.286017639562488E-003;-1.974772661924362E-003;
2.418000000000000E+009;1.730389297008514E-001;-6.199571490287781E-002;-2.343017607927322E-003;-1.697356929071248E-003;
2.418166666666667E+009;1.719837188720703E-001;-6.218376755714417E-002;-2.326305024325848E-003;-1.741762040182948E-003;
2.418333333333334E+009;1.712813377380371E-001;-6.243622303009033E-002;-2.579311141744256E-003;-1.637239009141922E-003;
2.418500000000000E+009;1.700357496738434E-001;-6.298758089542389E-002;-2.361711347475648E-003;-1.561791985295713E-003;
2.418666666666667E+009;1.690476089715958E-001;-6.350298970937729E-002;-2.438269322738051E-003;-1.389475539326668E-003;
2.418833333333334E+009;1.677203923463821E-001;-6.403865665197372E-002;-2.257510786876082E-003;-1.353319734334946E-003;
2.419000000000000E+009;1.665230095386505E-001;-6.456544995307922E-002;-2.279213629662991E-003;-1.253822818398476E-003;
2.419166666666667E+009;1.653600186109543E-001;-6.516253948211670E-002;-2.375199692323804E-003;-1.173441763967276E-003;
2.419333333333334E+009;1.639639437198639E-001;-6.580744683742523E-002;-2.405670005828142E-003;-1.005375874228776E-003;
2.419500000000000E+009;1.627210229635239E-001;-6.685302406549454E-002;-2.310488140210509E-003;-1.165673718787730E-003;
2.419666666666667E+009;1.616906672716141E-001;-6.775777786970139E-002;-2.383851213380694E-003;-1.026836456730962E-003;
2.419833333333334E+009;1.602981686592102E-001;-6.856829673051834E-002;-2.419040072709322E-003;-1.075285952538252E-003;
2.420000000000000E+009;1.592751145362854E-001;-6.966596841812134E-002;-2.457704860717058E-003;-9.887529304251075E-004;
2.420166666666667E+009;1.581089794635773E-001;-7.074294239282608E-002;-2.487096702679992E-003;-9.254310280084610E-004;
2.420333333333334E+009;1.569967120885849E-001;-7.217890024185181E-002;-2.418618882074952E-003;-8.744301158003509E-004;
2.420500000000000E+009;1.560444384813309E-001;-7.316770404577255E-002;-2.366307191550732E-003;-9.531753021292388E-004;
2.420666666666667E+009;1.549561321735382E-001;-7.450890541076660E-002;-2.474957844242454E-003;-7.916711037978530E-004;
2.420833333333334E+009;1.541370302438736E-001;-7.605018466711044E-002;-2.465885365381837E-003;-7.529771537519991E-004;
2.421000000000000E+009;1.531386822462082E-001;-7.764218747615814E-002;-2.506235847249627E-003;-7.338813156820834E-004;
2.421166666666667E+009;1.524613350629807E-001;-7.910557836294174E-002;-2.506677294149995E-003;-6.437394185923040E-004;
2.421333333333334E+009;1.518493890762329E-001;-8.076515048742294E-002;-2.497224835678935E-003;-5.865585990250111E-004;
2.421500000000000E+009;1.509866565465927E-001;-8.220016211271286E-002;-2.514058491215110E-003;-6.298852385953069E-004;
2.421666666666667E+009;1.506735235452652E-001;-8.390109241008759E-002;-2.740913303568959E-003;-4.648363392334431E-004;
2.421833333333334E+009;1.503192633390427E-001;-8.564674854278565E-002;-2.704983344301581E-003;-3.288218285888434E-004;
2.422000000000000E+009;1.498813033103943E-001;-8.731597661972046E-002;-2.630639122799039E-003;-2.611199161037803E-004;
2.422166666666667E+009;1.495994776487351E-001;-8.915185928344727E-002;-2.716431859880686E-003;-1.193700154544786E-004;
2.422333333333334E+009;1.494818329811096E-001;-9.079872071743012E-002;-2.835771767422557E-003;-1.879450428532437E-004;
2.422500000000000E+009;1.495317369699478E-001;-9.248851984739304E-002;-2.884505549445748E-003;2.816055166476872E-005;
2.422666666666667E+009;1.492697894573212E-001;-9.424240142107010E-002;-2.837926149368286E-003;8.446480933343992E-005;
2.422833333333334E+009;1.494336128234863E-001;-9.614648669958115E-002;-2.995773684233427E-003;2.161210431950167E-004;
2.423000000000000E+009;1.494407504796982E-001;-9.759788960218430E-002;-2.990311477333307E-003;2.360619691899046E-004;
2.423166666666667E+009;1.499302834272385E-001;-9.926660358905792E-002;-3.021290292963386E-003;4.071288858540356E-004;
2.423333333333334E+009;1.500863879919052E-001;-1.008923649787903E-001;-3.176568308845162E-003;4.428158281370997E-004;
2.423500000000000E+009;1.502688378095627E-001;-1.024386510252953E-001;-2.946785651147366E-003;6.677986821159720E-004;
2.423666666666667E+009;1.507380455732346E-001;-1.039944067597389E-001;-2.973374444991350E-003;8.550277561880648E-004;
2.423833333333334E+009;1.511331051588059E-001;-1.055095493793488E-001;-2.996898256242275E-003;9.880638681352139E-004;
2.424000000000000E+009;1.515931338071823E-001;-1.067436933517456E-001;-2.908177673816681E-003;1.283262623474002E-003;
2.424166666666667E+009;1.519362628459930E-001;-1.081554740667343E-001;-2.877374645322561E-003;1.412422512657940E-003;
2.424333333333334E+009;1.527021378278732E-001;-1.092074364423752E-001;-2.993609989061952E-003;1.416200655512512E-003;
2.424500000000000E+009;1.531101167201996E-001;-1.104277297854424E-001;-2.826986368745565E-003;1.661944901570678E-003;
2.424666666666667E+009;1.538608968257904E-001;-1.112880036234856E-001;-2.722664503380656E-003;1.841594930738211E-003;
2.424833333333334E+009;1.541833728551865E-001;-1.123841777443886E-001;-2.479555783793330E-003;2.063618740066886E-003;
2.425000000000000E+009;1.546782255172730E-001;-1.133560985326767E-001;-2.476186724379659E-003;2.128816908225417E-003;
2.425166666666667E+009;1.550078988075256E-001;-1.142198592424393E-001;-2.406122395768762E-003;2.187482779845595E-003;
2.425333333333334E+009;1.555157452821732E-001;-1.147412657737732E-001;-2.214487409219146E-003;2.328492701053619E-003;
2.425500000000000E+009;1.558563262224197E-001;-1.155044957995415E-001;-2.127578947693110E-003;2.386793494224548E-003;
2.425666666666667E+009;1.559983491897583E-001;-1.160693839192390E-001;-1.867704559117556E-003;2.556465333327651E-003;
2.425833333333334E+009;1.563237011432648E-001;-1.165677532553673E-001;-1.810463378205895E-003;2.526694443076849E-003;
2.426000000000000E+009;1.565956622362137E-001;-1.169225201010704E-001;-1.645177602767944E-003;2.520664595067501E-003;
2.426166666666667E+009;1.569028198719025E-001;-1.174530014395714E-001;-1.380374771542847E-003;2.712786197662354E-003;
2.426333333333334E+009;1.568701714277268E-001;-1.176198571920395E-001;-1.202211366035044E-003;2.666970947757363E-003;
2.426500000000000E+009;1.569040864706039E-001;-1.180104762315750E-001;-1.086784526705742E-003;2.797288121655583E-003;
2.426666666666667E+009;1.570042669773102E-001;-1.179886087775230E-001;-9.034259128384292E-004;2.845939714461565E-003;
2.426833333333334E+009;1.566708534955978E-001;-1.181603744626045E-001;-7.546244887635112E-004;2.753943204879761E-003;
2.427000000000000E+009;1.563732624053955E-001;-1.183733418583870E-001;-5.711650592274964E-004;2.764886012300849E-003;
2.427166666666667E+009;1.560241580009460E-001;-1.184148192405701E-001;-5.542010185308754E-004;2.635193057358265E-003;
2.427333333333334E+009;1.554690599441528E-001;-1.185042709112167E-001;-3.698858781717718E-004;2.671799622476101E-003;
2.427500000000000E+009;1.550733000040054E-001;-1.185139268636704E-001;-2.645106869749725E-004;2.463748445734382E-003;
2.427666666666667E+009;1.542646735906601E-001;-1.187445148825645E-001;-5.684268035111018E-005;2.547265728935599E-003;
