# Version 1.00
#
freq[Hz];re:Trc1_S11;im:Trc1_S11;re:Trc2_S21;im:Trc2_S21;
2.400000000000000E+009;1.574035733938217E-001;6.298272311687470E-002;3.353036590851843E-004;2.844515722244978E-003;
2.400166666666667E+009;1.574213504791260E-001;6.136467307806015E-002;4.236275854054838E-004;2.798425033688545E-003;
2.400333333333334E+009;1.572578251361847E-001;5.936988443136215E-002;3.879230353049934E-004;2.803812734782696E-003;
2.400500000000000E+009;1.573772132396698E-001;5.737048387527466E-002;7.127786520868540E-004;2.670668065547943E-003;
2.400666666666667E+009;1.572631895542145E-001;5.529547482728958E-002;7.875220617279410E-004;2.725056372582912E-003;
2.400833333333334E+009;1.573263108730316E-001;5.322486534714699E-002;7.418150780722499E-004;2.752324333414435E-003;
2.401000000000000E+009;1.575234085321426E-001;5.116028711199760E-002;8.221609750762582E-004;2.790719037875533E-003;
2.401166666666667E+009;1.577543020248413E-001;4.910845309495926E-002;1.082563539966941E-003;2.731415908783674E-003;
2.401333333333334E+009;1.578390300273895E-001;4.698353260755539E-002;1.100041554309428E-003;2.836914267390966E-003;
2.401500000000000E+009;1.583815515041351E-001;4.485830664634705E-002;1.179898157715797E-003;2.658608835190535E-003;
2.401666666666667E+009;1.586334258317947E-001;4.279021546244621E-002;1.406079274602234E-003;2.693856367841363E-003;
2.401833333333334E+009;1.591573208570480E-001;4.060052335262299E-002;1.610425882972777E-003;2.543451730161905E-003;
2.402000000000000E+009;1.594135910272598E-001;3.882220387458801E-002;1.526045030914247E-003;2.514610765501857E-003;
2.402166666666667E+009;1.600768864154816E-001;3.668597340583801E-002;1.732234843075275E-003;2.516970504075289E-003;
2.402333333333334E+009;1.606266349554062E-001;3.486366197466850E-002;1.795789692550898E-003;2.525433665141463E-003;
2.402500000000000E+009;1.615632921457291E-001;3.294276446104050E-002;1.963048242032528E-003;2.543074544519186E-003;
2.402666666666667E+009;1.621167212724686E-001;3.135097771883011E-002;1.949421246536076E-003;2.279574517160654E-003;
2.402833333333334E+009;1.627847403287888E-001;2.958475612103939E-002;2.153552137315273E-003;2.240593079477549E-003;
2.403000000000000E+009;1.636246293783188E-001;2.803078293800354E-002;2.091323258355260E-003;2.232717117294669E-003;
2.403166666666667E+009;1.648672223091126E-001;2.632199600338936E-002;2.262602560222149E-003;2.155176829546690E-003;
2.403333333333334E+009;1.656808406114578E-001;2.516018971800804E-002;2.404897008091211E-003;1.895857043564320E-003;
2.403500000000000E+009;1.664742380380631E-001;2.344821393489838E-002;2.491385908797383E-003;2.053362317383289E-003;
2.403666666666667E+009;1.674690097570419E-001;2.211110666394234E-002;2.547196811065078E-003;1.851491397246718E-003;
2.403833333333334E+009;1.685253381729126E-001;2.077931724488735E-002;2.547855488955975E-003;1.789985573850572E-003;
2.404000000000000E+009;1.695978790521622E-001;1.977742463350296E-002;2.632672432810068E-003;1.606785343028605E-003;
2.404166666666667E+009;1.705874204635620E-001;1.859229430556297E-002;2.827029442414641E-003;1.611177343875170E-003;
2.404333333333334E+009;1.715475320816040E-001;1.778997853398323E-002;2.623630920425057E-003;1.581322983838618E-003;
2.404500000000000E+009;1.723603904247284E-001;1.672708615660667E-002;2.680921228602529E-003;1.385943149216473E-003;
2.404666666666667E+009;1.735965460538864E-001;1.583466306328774E-002;2.773121464997530E-003;1.183332176879048E-003;
2.404833333333334E+009;1.743476390838623E-001;1.519976835697889E-002;2.798396861180663E-003;1.152858603745699E-003;
2.405000000000000E+009;1.751633435487747E-001;1.453622151166201E-002;2.987726358696818E-003;9.593168506398797E-004;
2.405166666666667E+009;1.761683821678162E-001;1.399314310401678E-002;3.022883553057909E-003;1.042993040755391E-003;
2.405333333333334E+009;1.769696474075317E-001;1.327438559383154E-002;2.907520858570933E-003;9.133933926932514E-004;
2.405500000000000E+009;1.776681691408157E-001;1.294605061411858E-002;2.993558067828417E-003;6.550594116561115E-004;
2.405666666666667E+009;1.783925890922546E-001;1.251490507274866E-002;3.068854799494147E-003;6.505350465886295E-004;
2.405833333333334E+009;1.787704378366470E-001;1.223975326865912E-002;2.909007249400020E-003;6.615360034629703E-004;
2.406000000000000E+009;1.794729977846146E-001;1.173297502100468E-002;2.957327058538795E-003;4.730288346763700E-004;
2.406166666666667E+009;1.797033846378326E-001;1.157412584871054E-002;3.007613820955157E-003;2.230100508313626E-004;
2.406333333333334E+009;1.803004294633865E-001;1.121872197836638E-002;3.004136495292187E-003;3.120560140814632E-004;
2.406500000000000E+009;1.805101484060288E-001;1.093862205743790E-002;3.137662308290601E-003;5.820009755552746E-005;
2.406666666666667E+009;1.806418001651764E-001;1.078231353312731E-002;3.016312606632710E-003;5.549403431359679E-005;
2.406833333333334E+009;1.808511614799500E-001;1.039290614426136E-002;3.133623395115137E-003;8.370875002583489E-005;
2.407000000000000E+009;1.808921098709106E-001;1.009543240070343E-002;3.028193023055792E-003;-1.270368666155264E-004;
2.407166666666667E+009;1.809837967157364E-001;9.778475388884544E-003;2.962396014481783E-003;-1.881087664514780E-004;
2.407333333333334E+009;1.806975752115250E-001;9.432043880224228E-003;3.034401452168822E-003;-2.392224268987775E-004;
2.407500000000000E+009;1.806056201457977E-001;9.055417962372303E-003;2.983575221151114E-003;-4.090506699867547E-004;
2.407666666666667E+009;1.803246289491653E-001;8.573322556912899E-003;3.101656446233392E-003;-4.659016558434814E-004;
2.407833333333334E+009;1.798665523529053E-001;8.000359870493412E-003;2.972844988107681E-003;-4.998636431992054E-004;
2.408000000000000E+009;1.794820576906204E-001;7.371446117758751E-003;2.902900101616979E-003;-6.955199060030282E-004;
2.408166666666667E+009;1.789482682943344E-001;6.907127331942320E-003;2.911407966166735E-003;-7.337639108300209E-004;
2.408333333333334E+009;1.786116212606430E-001;6.142894737422466E-003;2.946520689874888E-003;-6.740181124769151E-004;
2.408500000000000E+009;1.779487282037735E-001;5.270240828394890E-003;2.930841641500592E-003;-8.706359658390284E-004;
2.408666666666667E+009;1.773585826158524E-001;4.289830103516579E-003;2.934115007519722E-003;-8.659873274154961E-004;
2.408833333333334E+009;1.766005307435989E-001;3.378485329449177E-003;2.883855486288667E-003;-1.109722070395947E-003;
2.409000000000000E+009;1.758536249399185E-001;2.262548077851534E-003;2.833916107192636E-003;-1.142927911132574E-003;
2.409166666666667E+009;1.752633601427078E-001;1.093723694793880E-003;2.892226446419954E-003;-1.157646533101797E-003;
2.409333333333334E+009;1.746297627687454E-001;-2.063242573058233E-004;2.965687541291118E-003;-1.380589208565652E-003;
2.409500000000000E+009;1.738629639148712E-001;-1.613966887816787E-003;2.726592589169741E-003;-1.392081612721086E-003;
2.409666666666667E+009;1.730350703001022E-001;-3.051923122256994E-003;2.742889570072293E-003;-1.578753930516541E-003;
2.409833333333334E+009;1.722881048917770E-001;-4.442842211574316E-003;2.806833013892174E-003;-1.558141084387898E-003;
2.410000000000000E+009;1.715426892042160E-001;-5.940964911133051E-003;2.661841921508312E-003;-1.798475044779480E-003;
2.410166666666667E+009;1.709925383329392E-001;-7.634492591023445E-003;2.806143835186958E-003;-1.802676357328892E-003;
2.410333333333334E+009;1.703775376081467E-001;-9.323557838797569E-003;2.760867122560740E-003;-1.832256559282541E-003;
2.410500000000000E+009;1.697919219732285E-001;-1.095089036971331E-002;2.615816658362746E-003;-1.900706789456308E-003;
2.410666666666667E+009;1.692570447921753E-001;-1.309473160654306E-002;2.585212001577020E-003;-2.198419533669949E-003;
2.410833333333334E+009;1.689862906932831E-001;-1.451988145709038E-002;2.474367851391435E-003;-2.155262744054198E-003;
2.411000000000000E+009;1.684814840555191E-001;-1.648637466132641E-002;2.558678388595581E-003;-2.440861193463206E-003;
2.411166666666667E+009;1.682157665491104E-001;-1.864441670477390E-002;2.508147386834025E-003;-2.479417016729713E-003;
2.411333333333334E+009;1.679036468267441E-001;-2.043699473142624E-002;2.321698935702443E-003;-2.513165352866054E-003;
2.411500000000000E+009;1.677906960248947E-001;-2.259722538292408E-002;2.430854830890894E-003;-2.804432297125459E-003;
2.411666666666667E+009;1.679640710353851E-001;-2.454610541462898E-002;2.250970341265202E-003;-2.908142516389489E-003;
2.411833333333334E+009;1.678667217493057E-001;-2.642506174743176E-002;1.970418496057391E-003;-2.881936496123672E-003;
2.412000000000000E+009;1.678865998983383E-001;-2.846790850162506E-002;1.862450619228184E-003;-3.077458823099732E-003;
2.412166666666667E+009;1.679866462945938E-001;-3.038597851991653E-002;1.655342057347298E-003;-3.091239370405674E-003;
2.412333333333334E+009;1.685194969177246E-001;-3.222288563847542E-002;1.673444872722030E-003;-3.199413418769836E-003;
2.412500000000000E+009;1.685696840286255E-001;-3.411975502967835E-002;1.559194060973823E-003;-3.283450845628977E-003;
2.412666666666667E+009;1.689609736204147E-001;-3.619859367609024E-002;1.463103224523366E-003;-3.432065015658736E-003;
2.412833333333334E+009;1.692718565464020E-001;-3.812643885612488E-002;1.354531268589199E-003;-3.597964067012072E-003;
2.413000000000000E+009;1.697633415460587E-001;-3.971076756715775E-002;1.016190159134567E-003;-3.473702818155289E-003;
2.413166666666667E+009;1.701327711343765E-001;-4.154971614480019E-002;8.058027015067637E-004;-3.657561494037509E-003;
2.413333333333334E+009;1.707178205251694E-001;-4.327267780900002E-002;7.900489144958556E-004;-3.785252338275313E-003;
2.413500000000000E+009;1.711728721857071E-001;-4.485863819718361E-002;7.038697949610651E-004;-3.755585523322225E-003;
2.413666666666667E+009;1.719861477613449E-001;-4.643545672297478E-002;4.583916161209345E-004;-3.666767384856939E-003;
2.413833333333334E+009;1.723319739103317E-001;-4.787817224860191E-002;2.712702553253621E-004;-3.718129824846983E-003;
2.414000000000000E+009;1.729277372360230E-001;-4.933912307024002E-002;1.527476852061227E-004;-3.825572086498141E-003;
2.414166666666667E+009;1.736040562391281E-001;-5.065123736858368E-002;1.724977300909814E-005;-3.764822147786617E-003;
2.414333333333334E+009;1.740977168083191E-001;-5.180937796831131E-002;-1.353961415588856E-004;-3.774622688069940E-003;
2.414500000000000E+009;1.748749464750290E-001;-5.288749933242798E-002;-3.987824311479926E-004;-3.636064007878304E-003;
2.414666666666667E+009;1.753857284784317E-001;-5.387009307742119E-002;-5.942144780419767E-004;-3.573417197912931E-003;
2.414833333333334E+009;1.759629845619202E-001;-5.488128960132599E-002;-7.152334437705576E-004;-3.608326194807887E-003;
2.415000000000000E+009;1.762208789587021E-001;-5.569217726588249E-002;-8.301379275508225E-004;-3.552000736817718E-003;
2.415166666666667E+009;1.767979711294174E-001;-5.643206089735031E-002;-1.043683732859790E-003;-3.387252334505320E-003;
2.415333333333334E+009;1.773101240396500E-001;-5.719605460762978E-002;-1.203056424856186E-003;-3.337992355227470E-003;
2.415500000000000E+009;1.775212436914444E-001;-5.777690932154656E-002;-1.165377558209002E-003;-3.345815697684884E-003;
2.415666666666667E+009;1.777665019035339E-001;-5.817385017871857E-002;-1.557448413223028E-003;-3.180583240464330E-003;
2.415833333333334E+009;1.780933290719986E-001;-5.866581574082375E-002;-1.567396335303783E-003;-3.173970617353916E-003;
2.416000000000000E+009;1.781325638294220E-001;-5.902785435318947E-002;-1.556640723720193E-003;-3.158791922032833E-003;
2.416166666666667E+009;1.783300787210465E-001;-5.939789861440659E-002;-1.778123318217695E-003;-2.907133894041181E-003;
2.416333333333334E+009;1.782254576683044E-001;-5.971642956137657E-002;-2.031158655881882E-003;-2.871835371479392E-003;
2.416500000000000E+009;1.780189871788025E-001;-5.995406955480576E-002;-1.945040188729763E-003;-2.802704693749547E-003;
2.416666666666667E+009;1.777928173542023E-001;-6.006039679050446E-002;-2.126882551237941E-003;-2.667644293978810E-003;
2.416833333333334E+009;1.776664108037949E-001;-6.040026992559433E-002;-2.058077370747924E-003;-2.531583653762937E-003;
2.417000000000000E+009;1.772148460149765E-001;-6.056685373187065E-002;-2.118408447131515E-003;-2.410920569673181E-003;
2.417166666666667E+009;1.766928136348724E-001;-6.068092212080956E-002;-2.167441882193089E-003;-2.342065563425422E-003;
2.417333333333334E+009;1.762004792690277E-001;-6.088419258594513E-002;-2.246271120384336E-003;-2.109336433932185E-003;
2.417500000000000E+009;1.754001677036285E-001;-6.128055602312088E-002;-2.345448359847069E-003;-2.133338944986463E-003;
2.417666666666667E+009;1.748802363872528E-001;-6.127948313951492E-002;-2.299956511706114E-003;-1.987897092476487E-003;
2.417833333333334E+009;1.739466488361359E-001;-6.147834658622742E-002;-2.453675493597984E-003;-1.701256609521806E-003;
2.418000000000000E+009;1.730344891548157E-001;-6.196378916501999E-002;-2.396271098405123E-003;-1.738726394250989E-003;
2.418166666666667E+009;1.720773875713348E-001;-6.215063855051994E-002;-2.279973821714521E-003;-1.689072232693434E-003;
2.418333333333334E+009;1.712867766618729E-001;-6.253925710916519E-002;-2.438771771267057E-003;-1.468209433369339E-003;
2.418500000000000E+009;1.700710207223892E-001;-6.300452351570129E-002;-2.384992549195886E-003;-1.410459168255329E-003;
2.418666666666667E+009;1.690207868814468E-001;-6.351724267005920E-002;-2.386416075751185E-003;-1.451874151825905E-003;
2.418833333333334E+009;1.677252799272537E-001;-6.411456316709518E-002;-2.338902791962028E-003;-1.389914075843990E-003;
2.419000000000000E+009;1.665160953998566E-001;-6.447575986385346E-002;-2.290152478963137E-003;-1.282173208892345E-003;
2.419166666666667E+009;1.651754528284073E-001;-6.530079990625382E-002;-2.267055911943317E-003;-1.278183772228658E-003;
2.419333333333334E+009;1.639645248651505E-001;-6.579928100109100E-002;-2.587624825537205E-003;-1.114625134505332E-003;
2.419500000000000E+009;1.627148240804672E-001;-6.691706925630570E-002;-2.232393482699990E-003;-1.090763951651752E-003;
2.419666666666667E+009;1.616612672805786E-001;-6.779445707798004E-002;-2.474187174811959E-003;-1.077238935977221E-003;
2.419833333333334E+009;1.604282259941101E-001;-6.856536120176315E-002;-2.368576591834426E-003;-1.063877018168569E-003;
2.420000000000000E+009;1.591302603483200E-001;-6.961755454540253E-002;-2.525027142837644E-003;-8.755942690186203E-004;
2.420166666666667E+009;1.580210626125336E-001;-7.085714489221573E-002;-2.412875648587942E-003;-9.648968698456883E-004;
2.420333333333334E+009;1.570120453834534E-001;-7.204955816268921E-002;-2.400979399681091E-003;-9.414860978722572E-004;
2.420500000000000E+009;1.560423523187637E-001;-7.332241535186768E-002;-2.421971177682281E-003;-8.282518829219043E-004;
2.420666666666667E+009;1.550223082304001E-001;-7.451607286930084E-002;-2.529823919758201E-003;-7.432265556417406E-004;
2.420833333333334E+009;1.541382670402527E-001;-7.611289620399475E-002;-2.583796856924892E-003;-7.551483577117324E-004;
2.421000000000000E+009;1.530516445636749E-001;-7.759150862693787E-002;-2.373794559389353E-003;-7.060758653096855E-004;
2.421166666666667E+009;1.523745357990265E-001;-7.903022319078445E-002;-2.607899252325296E-003;-5.794847384095192E-004;
2.421333333333334E+009;1.518382579088211E-001;-8.075582981109619E-002;-2.648591296747327E-003;-6.807131576351821E-004;
2.421500000000000E+009;1.510800719261169E-001;-8.228971064090729E-002;-2.791148843243718E-003;-6.188313127495349E-004;
2.421666666666667E+009;1.507471352815628E-001;-8.384940028190613E-002;-2.778497524559498E-003;-4.924132372252643E-004;
2.421833333333334E+009;1.501540690660477E-001;-8.564379811286926E-002;-2.785532502457500E-003;-3.621316573116928E-004;
2.422000000000000E+009;1.498491615056992E-001;-8.732212334871292E-002;-2.774964552372694E-003;-2.534372324589640E-004;
2.422166666666667E+009;1.496403217315674E-001;-8.908943831920624E-002;-2.842913847416639E-003;-2.787311677820981E-004;
2.422333333333334E+009;1.492980569601059E-001;-9.078873693943024E-002;-2.886463189497590E-003;-9.521166066406295E-005;
2.422500000000000E+009;1.492583155632019E-001;-9.244859963655472E-002;-2.861561486497521E-003;-2.828317155945115E-005;
2.422666666666667E+009;1.491782218217850E-001;-9.417806565761566E-002;-2.941621234640479E-003;9.177040919894353E-005;
2.422833333333334E+009;1.493308991193771E-001;-9.612882137298584E-002;-2.958453493192792E-003;1.700309076113626E-004;
2.423000000000000E+009;1.494474560022354E-001;-9.756784886121750E-002;-3.110695863142610E-003;2.901095140259713E-004;
2.423166666666667E+009;1.499085724353790E-001;-9.927024692296982E-002;-3.126611933112145E-003;4.188377934042364E-004;
2.423333333333334E+009;1.501949280500412E-001;-1.007598638534546E-001;-2.939970465376973E-003;5.364930257201195E-004;
2.423500000000000E+009;1.504308134317398E-001;-1.023585796356201E-001;-3.119818400591612E-003;7.006194209679961E-004;
2.423666666666667E+009;1.507050246000290E-001;-1.040824130177498E-001;-3.017954761162400E-003;1.016289344988763E-003;
2.423833333333334E+009;1.512368470430374E-001;-1.055421531200409E-001;-2.965561347082257E-003;1.012754510156810E-003;
2.424000000000000E+009;1.516287028789520E-001;-1.067885532975197E-001;-2.830202924087644E-003;1.306734629906714E-003;
2.424166666666667E+009;1.521486490964890E-001;-1.080669239163399E-001;-2.864565700292587E-003;1.371412305161357E-003;
2.424333333333334E+009;1.526472568511963E-001;-1.091003715991974E-001;-2.886644331738353E-003;1.494480413384736E-003;
2.424500000000000E+009;1.532260030508041E-001;-1.103682070970535E-001;-2.716951770707965E-003;1.640890841372311E-003;
2.424666666666667E+009;1.539126634597778E-001;-1.113201901316643E-001;-2.717551076784730E-003;1.769208698533475E-003;
2.424833333333334E+009;1.540967524051666E-001;-1.124502345919609E-001;-2.697478281334043E-003;1.951682730577886E-003;
2.425000000000000E+009;1.547331064939499E-001;-1.132568195462227E-001;-2.388971857726574E-003;1.988725271075964E-003;
2.425166666666667E+009;1.549070030450821E-001;-1.140613034367561E-001;-2.527963370084763E-003;2.272119279950857E-003;
2.425333333333334E+009;1.554774641990662E-001;-1.148015111684799E-001;-2.149146050214768E-003;2.294389531016350E-003;
2.425500000000000E+009;1.558835953474045E-001;-1.155259907245636E-001;-2.183898817747831E-003;2.374068135395646E-003;
2.425666666666667E+009;1.560465544462204E-001;-1.159641817212105E-001;-1.877805218100548E-003;2.486520446836948E-003;
2.425833333333334E+009;1.564180403947830E-001;-1.165389269590378E-001;-1.781144528649747E-003;2.530413679778576E-003;
2.426000000000000E+009;1.564720273017883E-001;-1.171261742711067E-001;-1.463058404624462E-003;2.679862780496478E-003;
2.426166666666667E+009;1.568581163883209E-001;-1.174075677990913E-001;-1.344340387731791E-003;2.744994591921568E-003;
2.426333333333334E+009;1.568713039159775E-001;-1.176505833864212E-001;-1.253644702956080E-003;2.659262390807271E-003;
2.426500000000000E+009;1.569092273712158E-001;-1.179198622703552E-001;-1.058448571711779E-003;2.713507274165750E-003;
2.426666666666667E+009;1.569063067436218E-001;-1.179583221673966E-001;-1.023698365315795E-003;2.722636330872774E-003;
2.426833333333334E+009;1.565781682729721E-001;-1.181570440530777E-001;-6.959983729757369E-004;2.654547803103924E-003;
2.427000000000000E+009;1.562913954257965E-001;-1.184293627738953E-001;-6.588370888493955E-004;2.791397972032428E-003;
2.427166666666667E+009;1.558697223663330E-001;-1.183406040072441E-001;-5.484388093464077E-004;2.594973193481565E-003;
2.427333333333334E+009;1.553517729043961E-001;-1.185581460595131E-001;-2.035990619333461E-004;2.772119129076600E-003;
2.427500000000000E+009;1.549966633319855E-001;-1.186128258705139E-001;-2.588025527074933E-004;2.640137681737542E-003;
2.427666666666667E+009;1.543115675449371E-001;-1.187233775854111E-001;-8.999080455396324E-005;2.369169145822525E-003;
