# Version 1.00
#
freq[Hz];re:Trc1_S11;im:Trc1_S11;re:Trc2_S21;im:Trc2_S21;
2.400000000000000E+009;1.572501659393311E-001;6.298878043889999E-002;3.767852322198451E-004;2.694738795980811E-003;
2.400166666666667E+009;1.573646515607834E-001;6.131934747099876E-002;3.203834930900484E-004;2.625459339469671E-003;
2.400333333333334E+009;1.570825427770615E-001;5.934518948197365E-002;5.670889513567090E-004;2.769985469058156E-003;
2.400500000000000E+009;1.571004688739777E-001;5.738572403788567E-002;6.090094684623182E-004;2.748368773609400E-003;
2.400666666666667E+009;1.569351553916931E-001;5.548122897744179E-002;7.609135936945677E-004;2.640507416799665E-003;
2.400833333333334E+009;1.573494076728821E-001;5.350730568170548E-002;1.006977399811149E-003;2.741981297731400E-003;
2.401000000000000E+009;1.574286371469498E-001;5.126314237713814E-002;7.837598677724600E-004;2.641862258315086E-003;
2.401166666666667E+009;1.575498729944229E-001;4.917341470718384E-002;9.695114567875862E-004;2.791094593703747E-003;
2.401333333333334E+009;1.575900167226791E-001;4.703934863209724E-002;1.074250438250601E-003;2.717142226174474E-003;
2.401500000000000E+009;1.582362949848175E-001;4.499014839529991E-002;1.260125311091542E-003;2.706188708543778E-003;
2.401666666666667E+009;1.585632264614105E-001;4.287640005350113E-002;1.393842976540327E-003;2.630885923281312E-003;
2.401833333333334E+009;1.589610278606415E-001;4.072226956486702E-002;1.521566766314209E-003;2.564097987487912E-003;
2.402000000000000E+009;1.592410802841187E-001;3.874181210994721E-002;1.512514660134912E-003;2.445377642288804E-003;
2.402166666666667E+009;1.597782820463181E-001;3.665649518370628E-002;1.768522663041949E-003;2.430980093777180E-003;
2.402333333333334E+009;1.605802327394486E-001;3.489628806710243E-002;1.739358762279153E-003;2.475822344422340E-003;
2.402500000000000E+009;1.614097654819489E-001;3.296643495559692E-002;1.710145501419902E-003;2.431937260553241E-003;
2.402666666666667E+009;1.622078418731690E-001;3.124465420842171E-002;1.909271930344403E-003;2.382688457146287E-003;
2.402833333333334E+009;1.626788377761841E-001;2.962334454059601E-002;2.137143164873123E-003;2.398590324446559E-003;
2.403000000000000E+009;1.638303250074387E-001;2.792882546782494E-002;2.269141376018524E-003;2.233395585790277E-003;
2.403166666666667E+009;1.646055728197098E-001;2.646522782742977E-002;2.196186687797308E-003;1.974538899958134E-003;
2.403333333333334E+009;1.655412167310715E-001;2.489325776696205E-002;2.495522843673825E-003;1.946467207744718E-003;
2.403500000000000E+009;1.665153205394745E-001;2.355019748210907E-002;2.412305679172278E-003;2.109974855557084E-003;
2.403666666666667E+009;1.675633639097214E-001;2.208282425999641E-002;2.614978700876236E-003;1.755962963216007E-003;
2.403833333333334E+009;1.685793846845627E-001;2.085963077843189E-002;2.501257229596376E-003;1.719490275718272E-003;
2.404000000000000E+009;1.695216149091721E-001;1.979048922657967E-002;2.639140235260129E-003;1.601668889634311E-003;
2.404166666666667E+009;1.705502569675446E-001;1.869620569050312E-002;2.790104132145643E-003;1.485256012529135E-003;
2.404333333333334E+009;1.715620309114456E-001;1.776355877518654E-002;2.872279845178127E-003;1.530552050098777E-003;
2.404500000000000E+009;1.724976599216461E-001;1.663814857602119E-002;2.864029491320252E-003;1.230277470313013E-003;
2.404666666666667E+009;1.734270155429840E-001;1.601561903953552E-002;2.838042564690113E-003;1.241917256265879E-003;
2.404833333333334E+009;1.744760125875473E-001;1.518087089061737E-002;2.875505248084664E-003;1.101636094972491E-003;
2.405000000000000E+009;1.753628998994827E-001;1.448484696447849E-002;2.823214512318373E-003;8.945436566136777E-004;
2.405166666666667E+009;1.761276423931122E-001;1.381546910852194E-002;2.975990530103445E-003;8.463164558634162E-004;
2.405333333333334E+009;1.770366281270981E-001;1.316798757761717E-002;2.908182097598910E-003;6.785296718589962E-004;
2.405500000000000E+009;1.777859330177307E-001;1.288735866546631E-002;2.856836654245853E-003;7.718331762589514E-004;
2.405666666666667E+009;1.783590912818909E-001;1.249662227928639E-002;2.929159440100193E-003;6.882247398607433E-004;
2.405833333333334E+009;1.788279116153717E-001;1.222791802138090E-002;2.886284608393908E-003;6.014180835336447E-004;
2.406000000000000E+009;1.794221997261047E-001;1.181771513074637E-002;3.048080485314131E-003;3.160256601404399E-004;
2.406166666666667E+009;1.797443926334381E-001;1.156476046890020E-002;2.918999874964356E-003;1.782352337613702E-004;
2.406333333333334E+009;1.802547276020050E-001;1.129096839576960E-002;2.937855198979378E-003;1.906736724777147E-004;
2.406500000000000E+009;1.805996447801590E-001;1.102532539516687E-002;3.051201812922955E-003;1.169692695839331E-004;
2.406666666666667E+009;1.806337088346481E-001;1.079737953841686E-002;2.985628088936210E-003;4.723275924334303E-005;
2.406833333333334E+009;1.808299422264099E-001;1.050707977265120E-002;3.028425388038158E-003;-1.113294274546206E-004;
2.407000000000000E+009;1.809031814336777E-001;1.010156795382500E-002;2.852282719686627E-003;-8.647580398246646E-005;
2.407166666666667E+009;1.808864623308182E-001;9.906254708766937E-003;2.939025405794382E-003;-1.554039481561631E-004;
2.407333333333334E+009;1.806977838277817E-001;9.422141127288342E-003;2.998843323439360E-003;-3.911744279321283E-004;
2.407500000000000E+009;1.805909723043442E-001;9.019857272505760E-003;2.894547302275896E-003;-4.745656915474683E-004;
2.407666666666667E+009;1.803407520055771E-001;8.644663728773594E-003;3.152308287099004E-003;-4.848137905355543E-004;
2.407833333333334E+009;1.797876209020615E-001;8.057606406509876E-003;3.076225286349654E-003;-6.811709026806057E-004;
2.408000000000000E+009;1.794925034046173E-001;7.390582934021950E-003;2.960034413263202E-003;-8.182675810530782E-004;
2.408166666666667E+009;1.790160983800888E-001;7.006579544395208E-003;2.904151100665331E-003;-6.604361115023494E-004;
2.408333333333334E+009;1.786076277494431E-001;6.133093032985926E-003;2.914566546678543E-003;-7.755049155093730E-004;
2.408500000000000E+009;1.779317408800125E-001;5.322985816746950E-003;2.972741844132543E-003;-8.847069111652672E-004;
2.408666666666667E+009;1.772419661283493E-001;4.336388316005468E-003;2.881930442526937E-003;-1.044594799168408E-003;
2.408833333333334E+009;1.766024529933929E-001;3.591261571273208E-003;2.907853806391358E-003;-1.077592372894287E-003;
2.409000000000000E+009;1.758242398500443E-001;2.448864281177521E-003;2.919651102274656E-003;-1.092987018637359E-003;
2.409166666666667E+009;1.752126961946487E-001;1.231575617566705E-003;2.918194048106670E-003;-1.162400469183922E-003;
2.409333333333334E+009;1.746810525655747E-001;-3.793843279709108E-005;2.901445608586073E-003;-1.328356796875596E-003;
2.409500000000000E+009;1.739514172077179E-001;-1.463640946894884E-003;2.822473645210266E-003;-1.303721917793155E-003;
2.409666666666667E+009;1.730578094720841E-001;-2.851625671610236E-003;2.761018928140402E-003;-1.433894503861666E-003;
2.409833333333334E+009;1.723188906908035E-001;-4.216463770717382E-003;2.707959851250053E-003;-1.569777377881110E-003;
2.410000000000000E+009;1.717581599950790E-001;-5.835816264152527E-003;2.631980227306485E-003;-1.661582617089152E-003;
2.410166666666667E+009;1.710885316133499E-001;-7.318316958844662E-003;2.659235382452607E-003;-1.811754889786243E-003;
2.410333333333334E+009;1.705559641122818E-001;-9.126365184783936E-003;2.769263228401542E-003;-1.830033026635647E-003;
2.410500000000000E+009;1.699661761522293E-001;-1.092132553458214E-002;2.613185904920101E-003;-1.861639902926981E-003;
2.410666666666667E+009;1.693828850984573E-001;-1.288382895290852E-002;2.707190113142133E-003;-2.114772796630859E-003;
2.410833333333334E+009;1.690136641263962E-001;-1.455987617373467E-002;2.575655700638890E-003;-2.434875350445509E-003;
2.411000000000000E+009;1.685713529586792E-001;-1.645202189683914E-002;2.462670439854264E-003;-2.373851137235761E-003;
2.411166666666667E+009;1.683630347251892E-001;-1.828020252287388E-002;2.475243527442217E-003;-2.426063874736428E-003;
2.411333333333334E+009;1.679870337247849E-001;-2.040685154497623E-002;2.475462155416608E-003;-2.551625249907374E-003;
2.411500000000000E+009;1.678703278303146E-001;-2.248903736472130E-002;2.307260408997536E-003;-2.621262799948454E-003;
2.411666666666667E+009;1.678476035594940E-001;-2.429742924869061E-002;2.168358536437154E-003;-2.782025374472141E-003;
2.411833333333334E+009;1.677541881799698E-001;-2.635024860501289E-002;2.124088583514094E-003;-2.908046590164304E-003;
2.412000000000000E+009;1.679818779230118E-001;-2.830216102302074E-002;1.951772137545049E-003;-2.974376082420349E-003;
2.412166666666667E+009;1.679761409759522E-001;-3.034016489982605E-002;1.897760666906834E-003;-3.159466199576855E-003;
2.412333333333334E+009;1.684821993112564E-001;-3.213919699192047E-002;1.779823214747012E-003;-3.156655933707953E-003;
2.412500000000000E+009;1.684108823537827E-001;-3.420785441994667E-002;1.651248312555254E-003;-3.266478888690472E-003;
2.412666666666667E+009;1.689130663871765E-001;-3.622029721736908E-002;1.432228367775679E-003;-3.491998650133610E-003;
2.412833333333334E+009;1.693168729543686E-001;-3.795734420418739E-002;1.195951597765088E-003;-3.362709656357765E-003;
2.413000000000000E+009;1.697503626346588E-001;-3.983763977885246E-002;1.170380506664515E-003;-3.460802370682359E-003;
2.413166666666667E+009;1.700402796268463E-001;-4.168155044317246E-002;1.010960433632135E-003;-3.536569187417626E-003;
2.413333333333334E+009;1.704043745994568E-001;-4.327664151787758E-002;9.238949278369546E-004;-3.607485676184297E-003;
2.413500000000000E+009;1.711661219596863E-001;-4.471326246857643E-002;5.990494973957539E-004;-3.640139708295465E-003;
2.413666666666667E+009;1.719122081995010E-001;-4.641282930970192E-002;5.452907644212246E-004;-3.683104412630200E-003;
2.413833333333334E+009;1.722892969846726E-001;-4.781612753868103E-002;2.535224775783718E-004;-3.785363631322980E-003;
2.414000000000000E+009;1.727106273174286E-001;-4.936978593468666E-002;2.065663720713928E-004;-3.739619394764304E-003;
2.414166666666667E+009;1.733878552913666E-001;-5.054808780550957E-002;1.258633856195957E-004;-3.727613715454936E-003;
2.414333333333334E+009;1.740113645792007E-001;-5.191688612103462E-002;-7.918218761915341E-005;-3.704482922330499E-003;
2.414500000000000E+009;1.749863326549530E-001;-5.293365567922592E-002;-3.476022102404386E-004;-3.671740181744099E-003;
2.414666666666667E+009;1.753313392400742E-001;-5.384952202439308E-002;-5.302574136294425E-004;-3.814873518422246E-003;
2.414833333333334E+009;1.757537573575974E-001;-5.478889867663384E-002;-7.736516417935491E-004;-3.559349570423365E-003;
2.415000000000000E+009;1.761522740125656E-001;-5.562727153301239E-002;-7.778264698572457E-004;-3.416190156713128E-003;
2.415166666666667E+009;1.767150610685349E-001;-5.631153285503388E-002;-9.774345671758056E-004;-3.508751280605793E-003;
2.415333333333334E+009;1.771712452173233E-001;-5.710211768746376E-002;-1.147769507952035E-003;-3.357534296810627E-003;
2.415500000000000E+009;1.775758713483810E-001;-5.762416869401932E-002;-1.211830298416317E-003;-3.404974006116390E-003;
2.415666666666667E+009;1.778055131435394E-001;-5.811908468604088E-002;-1.572925131767988E-003;-3.161663189530373E-003;
2.415833333333334E+009;1.779865175485611E-001;-5.854571610689163E-002;-1.515823998488486E-003;-3.151792800053954E-003;
2.416000000000000E+009;1.780729889869690E-001;-5.890097469091415E-002;-1.694501261226833E-003;-3.014476969838142E-003;
2.416166666666667E+009;1.783591657876968E-001;-5.930581688880920E-002;-1.639799796976149E-003;-2.987394109368324E-003;
2.416333333333334E+009;1.782670617103577E-001;-5.956548824906349E-002;-1.859732554294169E-003;-2.813479164615274E-003;
2.416500000000000E+009;1.781140863895416E-001;-5.988680943846703E-002;-1.900560688227415E-003;-2.649650443345308E-003;
2.416666666666667E+009;1.777755022048950E-001;-6.012527272105217E-002;-1.923952018842101E-003;-2.442725468426943E-003;
2.416833333333334E+009;1.777351945638657E-001;-6.036866456270218E-002;-2.082529244944453E-003;-2.499001566320658E-003;
2.417000000000000E+009;1.771454513072968E-001;-6.052453443408012E-002;-2.175097353756428E-003;-2.325294772163034E-003;
2.417166666666667E+009;1.766995042562485E-001;-6.080055236816406E-002;-2.296264749020338E-003;-2.267375122755766E-003;
2.417333333333334E+009;1.761600375175476E-001;-6.082805991172791E-002;-2.113549970090389E-003;-2.002022927626967E-003;
2.417500000000000E+009;1.755428612232208E-001;-6.111585348844528E-002;-2.334051765501499E-003;-1.893303240649402E-003;
2.417666666666667E+009;1.749118715524674E-001;-6.116542592644692E-002;-2.350419992581010E-003;-1.772377640008926E-003;
2.417833333333334E+009;1.740146428346634E-001;-6.147327646613121E-002;-2.257519168779254E-003;-1.924237352795899E-003;
2.418000000000000E+009;1.730668246746063E-001;-6.186748296022415E-002;-2.236704807728529E-003;-1.691938145086169E-003;
2.418166666666667E+009;1.720466017723084E-001;-6.195624917745590E-002;-2.298763254657388E-003;-1.695127575658262E-003;
2.418333333333334E+009;1.712326556444168E-001;-6.245097517967224E-002;-2.484034048393369E-003;-1.510129892267287E-003;
2.418500000000000E+009;1.700909733772278E-001;-6.294386833906174E-002;-2.325667999684811E-003;-1.388545148074627E-003;
2.418666666666667E+009;1.690586656332016E-001;-6.329408288002014E-002;-2.406318206340075E-003;-1.243785605765879E-003;
2.418833333333334E+009;1.677503883838654E-001;-6.394913792610169E-002;-2.411248628050089E-003;-1.305992598645389E-003;
2.419000000000000E+009;1.665254086256027E-001;-6.444345414638519E-002;-2.403368707746267E-003;-1.213303767144680E-003;
2.419166666666667E+009;1.653164029121399E-001;-6.513288617134094E-002;-2.408225322142243E-003;-1.069716992788017E-003;
2.419333333333334E+009;1.638897955417633E-001;-6.576578319072723E-002;-2.371959621086717E-003;-1.120153232477605E-003;
2.419500000000000E+009;1.626598685979843E-001;-6.681045144796372E-002;-2.353559946641326E-003;-1.020829542540014E-003;
2.419666666666667E+009;1.617183089256287E-001;-6.767594069242477E-002;-2.289996249601245E-003;-1.052384846843779E-003;
2.419833333333334E+009;1.603010892868042E-001;-6.864254176616669E-002;-2.418208634480834E-003;-7.916523609310389E-004;
2.420000000000000E+009;1.593167930841446E-001;-6.975551694631577E-002;-2.324963454157114E-003;-9.784635622054339E-004;
2.420166666666667E+009;1.580515801906586E-001;-7.082714885473251E-002;-2.421203302219510E-003;-8.476135553792119E-004;
2.420333333333334E+009;1.569873690605164E-001;-7.203039526939392E-002;-2.444349927827716E-003;-8.365823305211961E-004;
2.420500000000000E+009;1.561325490474701E-001;-7.329449802637100E-002;-2.478759037330747E-003;-9.098609443753958E-004;
2.420666666666667E+009;1.549394130706787E-001;-7.457180321216583E-002;-2.493383362889290E-003;-7.442140486091375E-004;
2.420833333333334E+009;1.540011316537857E-001;-7.609165459871292E-002;-2.461824798956513E-003;-7.887948886491358E-004;
2.421000000000000E+009;1.531590074300766E-001;-7.754494249820709E-002;-2.599205588921905E-003;-6.765591679140925E-004;
2.421166666666667E+009;1.524358093738556E-001;-7.921542227268219E-002;-2.439252566546202E-003;-6.279801018536091E-004;
2.421333333333334E+009;1.518691927194595E-001;-8.059985190629959E-002;-2.606457099318504E-003;-5.928331520408392E-004;
2.421500000000000E+009;1.511096656322479E-001;-8.223684132099152E-002;-2.579250140115619E-003;-5.778938648290932E-004;
2.421666666666667E+009;1.504481583833695E-001;-8.411631733179092E-002;-2.589517040178180E-003;-3.742272383533418E-004;
2.421833333333334E+009;1.502213329076767E-001;-8.566910028457642E-002;-2.776567358523607E-003;-3.864090249408037E-004;
2.422000000000000E+009;1.498301774263382E-001;-8.731868118047714E-002;-2.813494997099042E-003;-2.107252366840839E-004;
2.422166666666667E+009;1.495850533246994E-001;-8.932042121887207E-002;-2.887548180297017E-003;-2.186355995945633E-004;
2.422333333333334E+009;1.494838297367096E-001;-9.088295698165894E-002;-2.821779111400247E-003;-1.390913093928248E-004;
2.422500000000000E+009;1.492966115474701E-001;-9.241435676813126E-002;-2.952898154035211E-003;-2.808085082506295E-005;
2.422666666666667E+009;1.491934657096863E-001;-9.431650489568710E-002;-2.987953601405025E-003;6.170393317006528E-005;
2.422833333333334E+009;1.494292318820953E-001;-9.601747244596481E-002;-3.009389154613018E-003;2.558562555350363E-004;
2.423000000000000E+009;1.495880186557770E-001;-9.758732467889786E-002;-3.048568731173873E-003;2.477616071701050E-004;
2.423166666666667E+009;1.498614549636841E-001;-9.941916167736054E-002;-2.987914718687534E-003;4.846829397138208E-004;
2.423333333333334E+009;1.503008306026459E-001;-1.005559563636780E-001;-3.091119695454836E-003;5.342682707123458E-004;
2.423500000000000E+009;1.504631340503693E-001;-1.025265604257584E-001;-3.069354686886072E-003;9.101968025788665E-004;
2.423666666666667E+009;1.506029069423676E-001;-1.038562580943108E-001;-3.062086179852486E-003;9.106788784265518E-004;
2.423833333333334E+009;1.513682156801224E-001;-1.055590286850929E-001;-2.948028268292546E-003;1.022871932946146E-003;
2.424000000000000E+009;1.517420113086700E-001;-1.066012382507324E-001;-3.042247844859958E-003;1.200760365463793E-003;
2.424166666666667E+009;1.520241647958756E-001;-1.080879420042038E-001;-2.936675678938627E-003;1.369333011098206E-003;
2.424333333333334E+009;1.526792049407959E-001;-1.091071367263794E-001;-2.949234563857317E-003;1.552350702695549E-003;
2.424500000000000E+009;1.530832350254059E-001;-1.103943288326263E-001;-2.808659803122282E-003;1.787419314496219E-003;
2.424666666666667E+009;1.538576334714890E-001;-1.112798675894737E-001;-2.595074474811554E-003;1.705204020254314E-003;
2.424833333333334E+009;1.541843414306641E-001;-1.123871356248856E-001;-2.600238658487797E-003;2.014341764152050E-003;
2.425000000000000E+009;1.546931266784668E-001;-1.132990643382072E-001;-2.400026656687260E-003;2.155757276341319E-003;
2.425166666666667E+009;1.550216227769852E-001;-1.140384525060654E-001;-2.374920761212707E-003;2.326664747670293E-003;
2.425333333333334E+009;1.553347706794739E-001;-1.147326976060867E-001;-2.268155571073294E-003;2.282817149534822E-003;
2.425500000000000E+009;1.559377461671829E-001;-1.154640167951584E-001;-1.970101380720735E-003;2.301287138834596E-003;
2.425666666666667E+009;1.560783386230469E-001;-1.160363554954529E-001;-1.933146268129349E-003;2.571051474660635E-003;
2.425833333333334E+009;1.564793437719345E-001;-1.165344417095184E-001;-1.648042001761496E-003;2.659313147887588E-003;
2.426000000000000E+009;1.566594541072846E-001;-1.169324293732643E-001;-1.497926656156778E-003;2.654629293829203E-003;
2.426166666666667E+009;1.569295078516007E-001;-1.173788309097290E-001;-1.401442103087902E-003;2.819729968905449E-003;
2.426333333333334E+009;1.568588316440582E-001;-1.175958439707756E-001;-1.127134542912245E-003;2.759020775556564E-003;
2.426500000000000E+009;1.569744497537613E-001;-1.179310828447342E-001;-1.107298885472119E-003;2.721448428928852E-003;
2.426666666666667E+009;1.569362431764603E-001;-1.179974898695946E-001;-9.397832327522337E-004;2.774797147139907E-003;
2.426833333333334E+009;1.567009687423706E-001;-1.181386411190033E-001;-7.621301920153201E-004;2.784924115985632E-003;
2.427000000000000E+009;1.563734114170075E-001;-1.183624640107155E-001;-6.338527309708297E-004;2.588188974186778E-003;
2.427166666666667E+009;1.560046374797821E-001;-1.182896420359612E-001;-5.739425541833043E-004;2.619654173031449E-003;
2.427333333333334E+009;1.553952395915985E-001;-1.184457987546921E-001;-2.995954419020563E-004;2.840933389961720E-003;
2.427500000000000E+009;1.549844145774841E-001;-1.184839233756065E-001;-6.540653703268617E-005;2.642331644892693E-003;
2.427666666666667E+009;1.542944312095642E-001;-1.186759397387505E-001;2.019211569859181E-005;2.413140144199133E-003;
