# Version 1.00
#
freq[Hz];re:Trc1_S11;im:Trc1_S11;re:Trc2_S21;im:Trc2_S21;
2.400000000000000E+009;1.629726588726044E-001;5.256780236959457E-002;-2.962118480354548E-003;2.856906736269593E-003;
2.400166666666667E+009;1.629050225019455E-001;5.107608437538147E-002;-2.882795641198754E-003;3.028233535587788E-003;
2.400333333333334E+009;1.626538187265396E-001;4.926664382219315E-002;-2.953792689368129E-003;3.107522381469607E-003;
2.400500000000000E+009;1.626897156238556E-001;4.737023264169693E-002;-2.819699933752418E-003;3.362734103575349E-003;
2.400666666666667E+009;1.626134365797043E-001;4.542436450719833E-002;-2.708052983507514E-003;3.471320727840066E-003;
2.400833333333334E+009;1.626355797052383E-001;4.359002411365509E-002;-2.697667805477977E-003;3.661576425656676E-003;
2.401000000000000E+009;1.628215610980988E-001;4.143118858337402E-002;-2.771928673610091E-003;3.916911315172911E-003;
2.401166666666667E+009;1.627208441495895E-001;3.948818147182465E-002;-2.663536462932825E-003;3.957386594265699E-003;
2.401333333333334E+009;1.629796326160431E-001;3.746855631470680E-002;-2.364127663895488E-003;4.110140725970268E-003;
2.401500000000000E+009;1.632239073514938E-001;3.553532063961029E-002;-2.168002072721720E-003;4.171025007963181E-003;
2.401666666666667E+009;1.633139550685883E-001;3.371340036392212E-002;-2.089333022013307E-003;4.489747341722250E-003;
2.401833333333334E+009;1.635660529136658E-001;3.139765933156014E-002;-1.859584241174161E-003;4.606379661709070E-003;
2.402000000000000E+009;1.638126373291016E-001;2.958631142973900E-002;-1.489589340053499E-003;4.897488281130791E-003;
2.402166666666667E+009;1.641895323991776E-001;2.743685804307461E-002;-1.434031524695456E-003;4.848469980061054E-003;
2.402333333333334E+009;1.645998954772949E-001;2.557981200516224E-002;-1.273955567739904E-003;4.871563520282507E-003;
2.402500000000000E+009;1.653838008642197E-001;2.374136075377464E-002;-9.873975068330765E-004;5.188525188714266E-003;
2.402666666666667E+009;1.658025532960892E-001;2.207105979323387E-002;-7.446701056323946E-004;5.068109836429358E-003;
2.402833333333334E+009;1.662852615118027E-001;2.030464075505734E-002;-5.008453736081719E-004;5.093757063150406E-003;
2.403000000000000E+009;1.669800132513046E-001;1.866603828966618E-002;-2.691512054298073E-004;5.263906903564930E-003;
2.403166666666667E+009;1.678010523319244E-001;1.700371876358986E-002;-1.652474165894091E-004;5.211915820837021E-003;
2.403333333333334E+009;1.685681939125061E-001;1.554281357675791E-002;3.283459227532148E-004;5.199560895562172E-003;
2.403500000000000E+009;1.692423820495606E-001;1.409451663494110E-002;4.935913602821529E-004;5.252239294350147E-003;
2.403666666666667E+009;1.698992103338242E-001;1.263330504298210E-002;5.422660615295172E-004;5.188635084778070E-003;
2.403833333333334E+009;1.709349155426025E-001;1.116367802023888E-002;9.649519925005734E-004;5.219751503318548E-003;
2.404000000000000E+009;1.716953814029694E-001;1.008945610374212E-002;1.198544166982174E-003;5.165125243365765E-003;
2.404166666666667E+009;1.721773594617844E-001;8.794366382062435E-003;1.500188838690519E-003;5.035104230046272E-003;
2.404333333333334E+009;1.731211543083191E-001;7.785087451338768E-003;1.787492074072361E-003;4.976697731763125E-003;
2.404500000000000E+009;1.738311052322388E-001;6.623458117246628E-003;1.970498822629452E-003;4.618817009031773E-003;
2.404666666666667E+009;1.745768338441849E-001;5.764880217611790E-003;2.293351339176297E-003;4.457556642591953E-003;
2.404833333333334E+009;1.753390580415726E-001;4.768568556755781E-003;2.527724020183086E-003;4.551527090370655E-003;
2.405000000000000E+009;1.761648505926132E-001;4.057927522808313E-003;2.719535492360592E-003;4.353499040007591E-003;
2.405166666666667E+009;1.768686920404434E-001;3.235139651224017E-003;2.854061312973499E-003;4.202599171549082E-003;
2.405333333333334E+009;1.775714308023453E-001;2.695595845580101E-003;3.064305055886507E-003;3.967903554439545E-003;
2.405500000000000E+009;1.782407760620117E-001;2.282397355884314E-003;3.177345497533679E-003;3.766515292227268E-003;
2.405666666666667E+009;1.788191795349121E-001;1.671381760388613E-003;3.459020750597119E-003;3.488964634016156E-003;
2.405833333333334E+009;1.791452020406723E-001;1.277434406802058E-003;3.729599295184016E-003;3.292577574029565E-003;
2.406000000000000E+009;1.796680837869644E-001;6.366673624143004E-004;3.512653056532145E-003;3.015727270394564E-003;
2.406166666666667E+009;1.799366176128388E-001;5.512250354513526E-004;3.609244246035814E-003;2.902537351474166E-003;
2.406333333333334E+009;1.804182082414627E-001;9.270285227103159E-005;3.762710373848677E-003;2.672099741175771E-003;
2.406500000000000E+009;1.804443001747131E-001;-2.093722432618961E-004;3.807206172496080E-003;2.453888067975640E-003;
2.406666666666667E+009;1.805926263332367E-001;-4.652260395232588E-004;3.860749304294586E-003;2.235897351056337E-003;
2.406833333333334E+009;1.806514114141464E-001;-7.666047313250601E-004;4.152274224907160E-003;2.119955839589238E-003;
2.407000000000000E+009;1.808678656816483E-001;-1.137470942921937E-003;3.935667220503092E-003;1.771420706063509E-003;
2.407166666666667E+009;1.807622164487839E-001;-1.271497923880816E-003;4.089092835783958E-003;1.868652878329158E-003;
2.407333333333334E+009;1.805052310228348E-001;-1.696440740488470E-003;3.957415930926800E-003;1.452081487514079E-003;
2.407500000000000E+009;1.803242117166519E-001;-2.054319018498063E-003;4.083124920725822E-003;9.995502186939120E-004;
2.407666666666667E+009;1.801084876060486E-001;-2.381274243816733E-003;4.087106790393591E-003;9.080996969714761E-004;
2.407833333333334E+009;1.796159148216248E-001;-3.035556059330702E-003;4.002676811069250E-003;7.997395005077124E-004;
2.408000000000000E+009;1.792690902948380E-001;-3.452724777162075E-003;3.990071825683117E-003;5.344476667232812E-004;
2.408166666666667E+009;1.788759827613831E-001;-4.001756198704243E-003;3.914132714271545E-003;4.305111651774496E-004;
2.408333333333334E+009;1.784294843673706E-001;-4.589733202010393E-003;3.949481062591076E-003;1.727537746774033E-004;
2.408500000000000E+009;1.778191030025482E-001;-5.362015683203936E-003;3.894057124853134E-003;4.418606840772554E-005;
2.408666666666667E+009;1.771840900182724E-001;-6.002389360219240E-003;3.807953791692853E-003;-1.111936435336247E-004;
2.408833333333334E+009;1.764326393604279E-001;-6.973620038479567E-003;3.632865147665143E-003;-1.587684819241986E-004;
2.409000000000000E+009;1.756046116352081E-001;-7.828000932931900E-003;3.529834793880582E-003;-4.278673732187599E-004;
2.409166666666667E+009;1.750826388597488E-001;-8.844660595059395E-003;3.451609518378973E-003;-6.178226321935654E-004;
2.409333333333334E+009;1.743714213371277E-001;-9.946360252797604E-003;3.310370957478881E-003;-6.663212552666664E-004;
2.409500000000000E+009;1.734304577112198E-001;-1.125082653015852E-002;3.283792175352573E-003;-8.321875939145684E-004;
2.409666666666667E+009;1.727908849716187E-001;-1.238175109028816E-002;3.041490446776152E-003;-8.181782905012369E-004;
2.409833333333334E+009;1.719838380813599E-001;-1.355059538036585E-002;3.004883881658316E-003;-9.674405446276069E-004;
2.410000000000000E+009;1.713739037513733E-001;-1.493492349982262E-002;2.915165387094021E-003;-1.035240362398326E-003;
2.410166666666667E+009;1.705951094627380E-001;-1.653694547712803E-002;2.764777280390263E-003;-1.174193690530956E-003;
2.410333333333334E+009;1.699030846357346E-001;-1.811948046088219E-002;2.692924812436104E-003;-1.165488269180059E-003;
2.410500000000000E+009;1.691917777061462E-001;-1.961039379239082E-002;2.559678861871362E-003;-1.217833952978253E-003;
2.410666666666667E+009;1.686300784349442E-001;-2.160277962684631E-002;2.527750562876463E-003;-1.238201628439128E-003;
2.410833333333334E+009;1.680943667888641E-001;-2.308347076177597E-002;2.319355262443423E-003;-1.369786215946078E-003;
2.411000000000000E+009;1.676116287708283E-001;-2.484833449125290E-002;2.266401425004005E-003;-1.428609597496688E-003;
2.411166666666667E+009;1.671469509601593E-001;-2.681886404752731E-002;2.296573482453823E-003;-1.349620870314539E-003;
2.411333333333334E+009;1.667986065149307E-001;-2.862945385277271E-002;2.193773631006479E-003;-1.341567374765873E-003;
2.411500000000000E+009;1.664896756410599E-001;-3.090255893766880E-002;2.047546207904816E-003;-1.451107789762318E-003;
2.411666666666667E+009;1.661439836025238E-001;-3.262855112552643E-002;1.892307773232460E-003;-1.441410975530744E-003;
2.411833333333334E+009;1.661176979541779E-001;-3.436740115284920E-002;1.901999115943909E-003;-1.391104189679027E-003;
2.412000000000000E+009;1.661076098680496E-001;-3.657331317663193E-002;2.011774573475123E-003;-1.549742766655982E-003;
2.412166666666667E+009;1.659347414970398E-001;-3.848942369222641E-002;1.840868149884045E-003;-1.622341456823051E-003;
2.412333333333334E+009;1.661260575056076E-001;-4.025442898273468E-002;1.748200855217874E-003;-1.755467965267599E-003;
2.412500000000000E+009;1.660196185112000E-001;-4.210783913731575E-002;1.711699180305004E-003;-1.677468651905656E-003;
2.412666666666667E+009;1.661733686923981E-001;-4.431332647800446E-002;1.607317826710641E-003;-1.549051841720939E-003;
2.412833333333334E+009;1.664801836013794E-001;-4.609096795320511E-002;1.631221617572010E-003;-1.783667015843093E-003;
2.413000000000000E+009;1.667944341897965E-001;-4.796051979064941E-002;1.546400017105043E-003;-1.741202198900282E-003;
2.413166666666667E+009;1.667586117982864E-001;-4.980699345469475E-002;1.540520112030208E-003;-1.729675685055554E-003;
2.413333333333334E+009;1.670731902122498E-001;-5.149829760193825E-002;1.456053345464170E-003;-1.967852003872395E-003;
2.413500000000000E+009;1.676516532897949E-001;-5.324388667941093E-002;1.425581634975970E-003;-1.936778775416315E-003;
2.413666666666667E+009;1.682035177946091E-001;-5.485837906599045E-002;1.265371334739029E-003;-1.995785161852837E-003;
2.413833333333334E+009;1.684332638978958E-001;-5.641463398933411E-002;1.172822783701122E-003;-1.998943043872714E-003;
2.414000000000000E+009;1.688636988401413E-001;-5.804783478379250E-002;9.551417315378785E-004;-2.120735356584191E-003;
2.414166666666667E+009;1.694113910198212E-001;-5.924757570028305E-002;9.581262129358947E-004;-2.162174787372351E-003;
2.414333333333334E+009;1.698522716760635E-001;-6.055489182472229E-002;7.802748004905880E-004;-2.269778167828918E-003;
2.414500000000000E+009;1.704950183629990E-001;-6.157454848289490E-002;6.299317465163767E-004;-2.232633531093597E-003;
2.414666666666667E+009;1.708387881517410E-001;-6.276880204677582E-002;5.430522141978145E-004;-2.169345971196890E-003;
2.414833333333334E+009;1.712929755449295E-001;-6.380346417427063E-002;4.563251568470150E-004;-2.263352507725358E-003;
2.415000000000000E+009;1.717427521944046E-001;-6.473547220230103E-002;2.814359613694251E-004;-2.231098245829344E-003;
2.415166666666667E+009;1.721276342868805E-001;-6.561393290758133E-002;-4.783390249940567E-005;-2.232120605185628E-003;
2.415333333333334E+009;1.725999861955643E-001;-6.637051701545715E-002;-7.034526061033830E-005;-2.195563865825534E-003;
2.415500000000000E+009;1.729093044996262E-001;-6.692656874656677E-002;-1.055241955327801E-004;-2.077490324154496E-003;
2.415666666666667E+009;1.731390208005905E-001;-6.761821359395981E-002;-2.359386999160051E-004;-1.996882958337665E-003;
2.415833333333334E+009;1.735778748989105E-001;-6.806672364473343E-002;-3.388260956853628E-004;-1.954036531969905E-003;
2.416000000000000E+009;1.735327094793320E-001;-6.862560659646988E-002;-4.452667781151831E-004;-1.905800076201558E-003;
2.416166666666667E+009;1.737802177667618E-001;-6.894994527101517E-002;-6.227354169823229E-004;-1.840759883634746E-003;
2.416333333333334E+009;1.737894266843796E-001;-6.944145262241364E-002;-6.597581086680293E-004;-1.728752045892179E-003;
2.416500000000000E+009;1.736742407083511E-001;-6.957474350929260E-002;-8.258634479716420E-004;-1.571986242197454E-003;
2.416666666666667E+009;1.734609901905060E-001;-6.982710957527161E-002;-1.005902769975364E-003;-1.619651680812240E-003;
2.416833333333334E+009;1.733622997999191E-001;-7.013173401355743E-002;-1.027860096655786E-003;-1.629685866646469E-003;
2.417000000000000E+009;1.728758513927460E-001;-7.034330070018768E-002;-9.882451267912984E-004;-1.405036658979952E-003;
2.417166666666667E+009;1.725270450115204E-001;-7.038417458534241E-002;-1.101439469493926E-003;-1.269967178814113E-003;
2.417333333333334E+009;1.720656454563141E-001;-7.054015994071960E-002;-1.095503219403327E-003;-1.251510693691671E-003;
2.417500000000000E+009;1.713239699602127E-001;-7.102867215871811E-002;-1.180431223474443E-003;-1.191290095448494E-003;
2.417666666666667E+009;1.707606315612793E-001;-7.088839262723923E-002;-1.220285310409963E-003;-1.093426020815969E-003;
2.417833333333334E+009;1.699743568897247E-001;-7.114236801862717E-002;-1.274068723432720E-003;-7.906249957159162E-004;
2.418000000000000E+009;1.691432148218155E-001;-7.143690437078476E-002;-1.333523541688919E-003;-8.650367381051183E-004;
2.418166666666667E+009;1.682408750057221E-001;-7.146308571100235E-002;-1.322233933024108E-003;-6.834469386376441E-004;
2.418333333333334E+009;1.674761772155762E-001;-7.178853452205658E-002;-1.361061818897724E-003;-4.425063380040228E-004;
2.418500000000000E+009;1.663413941860199E-001;-7.214473187923431E-002;-1.449546893127263E-003;-2.909779723268002E-004;
2.418666666666667E+009;1.653542667627335E-001;-7.254889607429504E-002;-1.426208298653364E-003;-3.317755763418973E-004;
2.418833333333334E+009;1.641157269477844E-001;-7.296074926853180E-002;-1.372266677208245E-003;-2.779685019049794E-004;
2.419000000000000E+009;1.627963036298752E-001;-7.340764254331589E-002;-1.371626625768840E-003;5.845316263730638E-005;
2.419166666666667E+009;1.617075800895691E-001;-7.389311492443085E-002;-1.181786879897118E-003;8.727252134121954E-005;
2.419333333333334E+009;1.603449881076813E-001;-7.444004714488983E-002;-1.298028742894530E-003;1.607380982022733E-004;
2.419500000000000E+009;1.591547131538391E-001;-7.511127740144730E-002;-1.068778685294092E-003;2.035660290857777E-004;
2.419666666666667E+009;1.579509824514389E-001;-7.601267844438553E-002;-1.155281555838883E-003;4.626497102435678E-004;
2.419833333333334E+009;1.565211862325668E-001;-7.682263851165772E-002;-9.856470860540867E-004;3.899888251908124E-004;
2.420000000000000E+009;1.555448323488236E-001;-7.768522202968597E-002;-1.048880512826145E-003;7.239936967380345E-004;
2.420166666666667E+009;1.541681587696075E-001;-7.864632457494736E-002;-9.795932564884424E-004;4.931189469061792E-004;
2.420333333333334E+009;1.531140357255936E-001;-7.992311567068100E-002;-8.911849581636488E-004;7.521033985540271E-004;
2.420500000000000E+009;1.519810110330582E-001;-8.079119771718979E-002;-8.197443676181138E-004;8.231577812694013E-004;
2.420666666666667E+009;1.507514119148254E-001;-8.198647201061249E-002;-8.171272929757834E-004;8.159657591022551E-004;
2.420833333333334E+009;1.498950868844986E-001;-8.358374983072281E-002;-6.096411379985511E-004;1.044216682203114E-003;
2.421000000000000E+009;1.487613171339035E-001;-8.502773940563202E-002;-4.772327374666929E-004;1.038548303768039E-003;
2.421166666666667E+009;1.477939337491989E-001;-8.626496791839600E-002;-4.481790820136666E-004;1.106375479139388E-003;
2.421333333333334E+009;1.470013260841370E-001;-8.794911205768585E-002;-2.771719882730395E-004;1.263322192244232E-003;
2.421500000000000E+009;1.463940590620041E-001;-8.945953845977783E-002;-9.275210322812200E-005;1.288665109314024E-003;
2.421666666666667E+009;1.454521864652634E-001;-9.101547300815582E-002;1.637861532799434E-005;1.262137317098677E-003;
2.421833333333334E+009;1.449271738529205E-001;-9.268479049205780E-002;1.383210037602112E-004;1.378071377985179E-003;
2.422000000000000E+009;1.442985683679581E-001;-9.444618970155716E-002;1.343865151284263E-004;1.352386316284537E-003;
2.422166666666667E+009;1.437947303056717E-001;-9.628318995237351E-002;4.133333859499544E-004;1.283025601878762E-003;
2.422333333333334E+009;1.435213834047318E-001;-9.792049974203110E-002;5.743074580095708E-004;1.436580554582179E-003;
2.422500000000000E+009;1.431162804365158E-001;-9.958770126104355E-002;7.488866685889661E-004;1.187822199426591E-003;
2.422666666666667E+009;1.427236199378967E-001;-1.014465689659119E-001;1.019343268126249E-003;1.335743581876159E-003;
2.422833333333334E+009;1.428114771842957E-001;-1.032653674483299E-001;1.060837879776955E-003;1.221885322593153E-003;
2.423000000000000E+009;1.428308635950089E-001;-1.048533618450165E-001;1.055057509802282E-003;1.242163823917508E-003;
2.423166666666667E+009;1.428908258676529E-001;-1.067013144493103E-001;1.133267767727375E-003;1.031670719385147E-003;
2.423333333333334E+009;1.429777145385742E-001;-1.081491485238075E-001;1.275120419450104E-003;8.703572093509138E-004;
2.423500000000000E+009;1.432368159294128E-001;-1.099558398127556E-001;1.330821309238672E-003;9.831907227635384E-004;
2.423666666666667E+009;1.431950330734253E-001;-1.114931851625443E-001;1.537575386464596E-003;8.486894075758755E-004;
2.423833333333334E+009;1.436808705329895E-001;-1.130366772413254E-001;1.575202099047601E-003;7.516071200370789E-004;
2.424000000000000E+009;1.438548415899277E-001;-1.143719479441643E-001;1.560879522003233E-003;5.287570529617369E-004;
2.424166666666667E+009;1.441518813371658E-001;-1.159897744655609E-001;1.762465108186007E-003;5.635935813188553E-004;
2.424333333333334E+009;1.445765793323517E-001;-1.170714423060417E-001;1.784308231435716E-003;3.727761795744300E-004;
2.424500000000000E+009;1.449484080076218E-001;-1.183342039585114E-001;1.856079557910562E-003;2.263435599161312E-004;
2.424666666666667E+009;1.456043422222138E-001;-1.193240061402321E-001;2.002584980800748E-003;2.690315595827997E-004;
2.424833333333334E+009;1.458351612091065E-001;-1.205297857522965E-001;1.902459538541734E-003;-1.354588894173503E-004;
2.425000000000000E+009;1.461920589208603E-001;-1.215235888957977E-001;1.929003628902137E-003;-9.377727110404521E-005;
2.425166666666667E+009;1.464891135692596E-001;-1.224723681807518E-001;1.965450355783105E-003;-2.608216309454292E-004;
2.425333333333334E+009;1.469733566045761E-001;-1.232086420059204E-001;1.954011851921678E-003;-3.500517050269991E-004;
2.425500000000000E+009;1.472818702459335E-001;-1.239142641425133E-001;1.866513746790588E-003;-4.440330958459526E-004;
2.425666666666667E+009;1.475039124488831E-001;-1.245097070932388E-001;1.862019300460815E-003;-6.383694708347321E-004;
2.425833333333334E+009;1.477758288383484E-001;-1.250829845666885E-001;2.065851585939527E-003;-7.346718921326101E-004;
2.426000000000000E+009;1.480702906847000E-001;-1.256772130727768E-001;1.887652324512601E-003;-8.677614969201386E-004;
2.426166666666667E+009;1.483224332332611E-001;-1.259927153587341E-001;1.895065186545253E-003;-7.793978438712657E-004;
2.426333333333334E+009;1.483207643032074E-001;-1.262453347444534E-001;1.965844305232167E-003;-9.281005477532744E-004;
2.426500000000000E+009;1.483917832374573E-001;-1.264897882938385E-001;1.852304092608392E-003;-1.084626885131002E-003;
2.426666666666667E+009;1.484610438346863E-001;-1.265177130699158E-001;1.834517694078386E-003;-1.098872977308929E-003;
2.426833333333334E+009;1.483217775821686E-001;-1.266742050647736E-001;1.824808772653341E-003;-1.164282555691898E-003;
2.427000000000000E+009;1.480124294757843E-001;-1.268798112869263E-001;1.921742223203182E-003;-1.327580306679010E-003;
2.427166666666667E+009;1.477911472320557E-001;-1.268549263477325E-001;1.753411605022848E-003;-1.387231401167810E-003;
2.427333333333334E+009;1.473457515239716E-001;-1.267347782850266E-001;1.670514699071646E-003;-1.501360442489386E-003;
2.427500000000000E+009;1.468921005725861E-001;-1.267331838607788E-001;1.686120056547225E-003;-1.354745007120073E-003;
2.427666666666667E+009;1.462567746639252E-001;-1.267006248235703E-001;1.650278456509113E-003;-1.592341461218894E-003;
