# Version 1.00
#
freq[Hz];re:Trc1_S11;im:Trc1_S11;re:Trc2_S21;im:Trc2_S21;
2.400000000000000E+009;1.628221422433853E-001;5.267776176333427E-002;-3.058300353586674E-003;2.894536126405001E-003;
2.400166666666667E+009;1.627856642007828E-001;5.117943137884140E-002;-2.978113247081637E-003;3.119015134871006E-003;
2.400333333333334E+009;1.627095192670822E-001;4.925476014614105E-002;-2.958144992589951E-003;3.166024573147297E-003;
2.400500000000000E+009;1.627070009708405E-001;4.754433408379555E-002;-2.973969327285886E-003;3.290503518655896E-003;
2.400666666666667E+009;1.625997275114059E-001;4.545702412724495E-002;-2.770024817436934E-003;3.639070782810450E-003;
2.400833333333334E+009;1.626246273517609E-001;4.358466342091560E-002;-2.653333591297269E-003;3.564616665244103E-003;
2.401000000000000E+009;1.626586019992828E-001;4.158575087785721E-002;-2.522760303691030E-003;3.776971250772476E-003;
2.401166666666667E+009;1.628460139036179E-001;3.957878053188324E-002;-2.478412585332990E-003;3.919036593288183E-003;
2.401333333333334E+009;1.629159450531006E-001;3.756037354469299E-002;-2.455589594319463E-003;4.234978463500738E-003;
2.401500000000000E+009;1.632132828235626E-001;3.552397340536118E-002;-2.263015368953347E-003;4.263428505510092E-003;
2.401666666666667E+009;1.633293628692627E-001;3.361592814326286E-002;-2.066149143502116E-003;4.442363977432251E-003;
2.401833333333334E+009;1.634836792945862E-001;3.163792192935944E-002;-1.756317331455648E-003;4.564497154206038E-003;
2.402000000000000E+009;1.638462394475937E-001;2.978278137743473E-002;-1.724681700579822E-003;4.735469818115234E-003;
2.402166666666667E+009;1.641988158226013E-001;2.753943763673306E-002;-1.431572716683149E-003;4.844939801841974E-003;
2.402333333333334E+009;1.644786745309830E-001;2.570519596338272E-002;-1.424131798557937E-003;5.053811706602573E-003;
2.402500000000000E+009;1.652418822050095E-001;2.391638606786728E-002;-1.099745160900056E-003;4.967835731804371E-003;
2.402666666666667E+009;1.658390611410141E-001;2.209502458572388E-002;-7.121943053789437E-004;5.026896949857473E-003;
2.402833333333334E+009;1.663826406002045E-001;2.051703073084354E-002;-4.535514744929969E-004;5.132175981998444E-003;
2.403000000000000E+009;1.669238060712814E-001;1.853511109948158E-002;-3.120690234936774E-004;5.181114654988051E-003;
2.403166666666667E+009;1.677508354187012E-001;1.709668338298798E-002;-1.634848740650341E-004;5.211555864661932E-003;
2.403333333333334E+009;1.684966534376144E-001;1.551951095461845E-002;1.990769669646397E-004;5.321244243532419E-003;
2.403500000000000E+009;1.692959815263748E-001;1.392136514186859E-002;4.735400725621730E-004;5.219552665948868E-003;
2.403666666666667E+009;1.697735339403153E-001;1.238575670868158E-002;8.385499240830541E-004;5.256979260593653E-003;
2.403833333333334E+009;1.707793027162552E-001;1.111398357897997E-002;9.814710356295109E-004;5.302702542394400E-003;
2.404000000000000E+009;1.716137379407883E-001;1.006623823195696E-002;1.133839483372867E-003;5.190364550799131E-003;
2.404166666666667E+009;1.723288148641586E-001;8.724866434931755E-003;1.435922342352569E-003;5.206180270761251E-003;
2.404333333333334E+009;1.732214391231537E-001;7.594524882733822E-003;1.782524748705328E-003;4.985195584595203E-003;
2.404500000000000E+009;1.738415658473969E-001;6.658502854406834E-003;1.989775337278843E-003;4.905958659946919E-003;
2.404666666666667E+009;1.747558712959290E-001;5.703819449990988E-003;2.264534821733832E-003;4.600794054567814E-003;
2.404833333333334E+009;1.752214878797531E-001;4.781071562319994E-003;2.289555268362165E-003;4.459497518837452E-003;
2.405000000000000E+009;1.761246770620346E-001;4.011000040918589E-003;2.671631984412670E-003;4.496593028306961E-003;
2.405166666666667E+009;1.768156290054321E-001;3.235515905544162E-003;2.795511158183217E-003;4.160741344094276E-003;
2.405333333333334E+009;1.774914264678955E-001;2.563086571171880E-003;3.106630872935057E-003;3.927790559828281E-003;
2.405500000000000E+009;1.780894249677658E-001;2.158262534067035E-003;3.290987573564053E-003;3.766667097806931E-003;
2.405666666666667E+009;1.787829399108887E-001;1.578710274770856E-003;3.377401037141681E-003;3.760808613151312E-003;
2.405833333333334E+009;1.790236234664917E-001;1.175757613964379E-003;3.574227681383491E-003;3.497286001220346E-003;
2.406000000000000E+009;1.795911341905594E-001;7.988146971911192E-004;3.513143863528967E-003;3.419717773795128E-003;
2.406166666666667E+009;1.798151433467865E-001;4.158972587902099E-004;3.629630664363504E-003;2.901976229622960E-003;
2.406333333333334E+009;1.802754104137421E-001;2.155020338250324E-004;3.851068206131458E-003;2.809336641803384E-003;
2.406500000000000E+009;1.805518716573715E-001;-1.633540086913854E-004;3.925292752683163E-003;2.589770359918475E-003;
2.406666666666667E+009;1.803709715604782E-001;-3.132246492896229E-004;3.812962211668491E-003;2.381427213549614E-003;
2.406833333333334E+009;1.806944906711578E-001;-7.194479112513363E-004;4.018167965114117E-003;2.171881962567568E-003;
2.407000000000000E+009;1.807237416505814E-001;-1.004178309813142E-003;3.987704869359732E-003;1.813354203477502E-003;
2.407166666666667E+009;1.808236241340637E-001;-1.242306665517390E-003;4.172036889940500E-003;1.823854749090970E-003;
2.407333333333334E+009;1.805373281240463E-001;-1.788921537809074E-003;4.068390931934118E-003;1.391883241012693E-003;
2.407500000000000E+009;1.802740842103958E-001;-2.058973535895348E-003;4.058673512190580E-003;1.158233615569770E-003;
2.407666666666667E+009;1.801275610923767E-001;-2.459622453898192E-003;4.023320507258177E-003;1.069791382178664E-003;
2.407833333333334E+009;1.796115189790726E-001;-2.902007428929210E-003;4.152195062488318E-003;9.219947387464345E-004;
2.408000000000000E+009;1.792943775653839E-001;-3.555862000212073E-003;3.999092616140842E-003;6.810612976551056E-004;
2.408166666666667E+009;1.786890774965286E-001;-3.863729070872068E-003;3.986089956015348E-003;4.093385650776327E-004;
2.408333333333334E+009;1.784735918045044E-001;-4.561739973723888E-003;3.808519104495645E-003;3.697996435221285E-004;
2.408500000000000E+009;1.777489632368088E-001;-5.294085014611483E-003;3.937299363315105E-003;5.858632357558236E-005;
2.408666666666667E+009;1.770412772893906E-001;-6.017541978508234E-003;3.668419783934951E-003;-2.404154074611142E-004;
2.408833333333334E+009;1.762861311435700E-001;-6.884360220283270E-003;3.611357184126973E-003;-1.042004732880741E-004;
2.409000000000000E+009;1.757446676492691E-001;-7.737372070550919E-003;3.603113349527121E-003;-3.562143247108907E-004;
2.409166666666667E+009;1.750228404998779E-001;-8.804132230579853E-003;3.470196388661861E-003;-4.686132015194744E-004;
2.409333333333334E+009;1.743442416191101E-001;-9.942577220499516E-003;3.424247959628701E-003;-7.104298565536737E-004;
2.409500000000000E+009;1.735087633132935E-001;-1.117214746773243E-002;3.250623121857643E-003;-8.480395772494376E-004;
2.409666666666667E+009;1.727411299943924E-001;-1.241491641849279E-002;3.149463329464197E-003;-8.785266545601189E-004;
2.409833333333334E+009;1.718392670154572E-001;-1.366252079606056E-002;3.138733794912696E-003;-8.818386704660952E-004;
2.410000000000000E+009;1.713140010833740E-001;-1.502213254570961E-002;2.926938468590379E-003;-9.771749610081315E-004;
2.410166666666667E+009;1.705085039138794E-001;-1.641453057527542E-002;2.860351232811809E-003;-1.090526231564581E-003;
2.410333333333334E+009;1.699084043502808E-001;-1.818394102156162E-002;2.543237293139100E-003;-1.095199026167393E-003;
2.410500000000000E+009;1.691005080938339E-001;-1.962900720536709E-002;2.564384602010250E-003;-1.184323453344405E-003;
2.410666666666667E+009;1.687491089105606E-001;-2.145088650286198E-002;2.406769664958119E-003;-1.267628977075219E-003;
2.410833333333334E+009;1.681214123964310E-001;-2.303901500999928E-002;2.333968644961715E-003;-1.253677997738123E-003;
2.411000000000000E+009;1.675394922494888E-001;-2.480385266244412E-002;2.286288887262344E-003;-1.363339135423303E-003;
2.411166666666667E+009;1.670215278863907E-001;-2.668098546564579E-002;2.254449296742678E-003;-1.276656752452254E-003;
2.411333333333334E+009;1.669097840785980E-001;-2.856365032494068E-002;2.199717098847032E-003;-1.419961103238165E-003;
2.411500000000000E+009;1.663023084402084E-001;-3.065228834748268E-002;2.056769561022520E-003;-1.396785490214825E-003;
2.411666666666667E+009;1.662563085556030E-001;-3.268830850720406E-002;2.164402510970831E-003;-1.462014042772353E-003;
2.411833333333334E+009;1.660406887531281E-001;-3.453032299876213E-002;1.993041252717376E-003;-1.400753972120583E-003;
2.412000000000000E+009;1.660452783107758E-001;-3.648625686764717E-002;1.953253522515297E-003;-1.478253863751888E-003;
2.412166666666667E+009;1.657748371362686E-001;-3.844774886965752E-002;1.729783019982278E-003;-1.492424285970628E-003;
2.412333333333334E+009;1.659298390150070E-001;-4.027357697486877E-002;1.895679859444499E-003;-1.607164973393083E-003;
2.412500000000000E+009;1.659706979990006E-001;-4.229598864912987E-002;1.776750315912068E-003;-1.618013135157526E-003;
2.412666666666667E+009;1.661813408136368E-001;-4.423141479492188E-002;1.735851634293795E-003;-1.707403338514268E-003;
2.412833333333334E+009;1.665181517601013E-001;-4.619695246219635E-002;1.639834372326732E-003;-1.695166341960430E-003;
2.413000000000000E+009;1.665953993797302E-001;-4.785801097750664E-002;1.610933570191264E-003;-1.746374298818409E-003;
2.413166666666667E+009;1.670111566781998E-001;-4.990272969007492E-002;1.365695497952402E-003;-1.894118264317513E-003;
2.413333333333334E+009;1.671431064605713E-001;-5.160372331738472E-002;1.366719370707870E-003;-1.821558806113899E-003;
2.413500000000000E+009;1.676812916994095E-001;-5.329437926411629E-002;1.425050897523761E-003;-2.003422938287258E-003;
2.413666666666667E+009;1.681406050920487E-001;-5.482029542326927E-002;1.162456232123077E-003;-1.966041512787342E-003;
2.413833333333334E+009;1.683925837278366E-001;-5.639686062932015E-002;1.068705227226019E-003;-2.061950275674462E-003;
2.414000000000000E+009;1.687960922718048E-001;-5.795739963650703E-002;9.276491473428905E-004;-2.208285499364138E-003;
2.414166666666667E+009;1.694053858518601E-001;-5.926188454031944E-002;9.975931607186794E-004;-2.179959788918495E-003;
2.414333333333334E+009;1.697439998388290E-001;-6.055289506912231E-002;7.564558181911707E-004;-2.102575963363051E-003;
2.414500000000000E+009;1.705090552568436E-001;-6.160362437367439E-002;7.394455606117845E-004;-2.291343174874783E-003;
2.414666666666667E+009;1.709183752536774E-001;-6.267929822206497E-002;4.128352447878569E-004;-2.096001291647553E-003;
2.414833333333334E+009;1.712077856063843E-001;-6.384947896003723E-002;3.799693076871336E-004;-2.254561521112919E-003;
2.415000000000000E+009;1.717891246080399E-001;-6.475494056940079E-002;4.457657341845334E-004;-2.267702016979456E-003;
2.415166666666667E+009;1.722039878368378E-001;-6.558525562286377E-002;1.659231493249536E-004;-2.231748541817069E-003;
2.415333333333334E+009;1.726087629795075E-001;-6.633402407169342E-002;8.519936818629503E-005;-2.098706318065524E-003;
2.415500000000000E+009;1.729034632444382E-001;-6.705044209957123E-002;-9.701887756818906E-005;-2.035521902143955E-003;
2.415666666666667E+009;1.732132583856583E-001;-6.765737384557724E-002;-1.908622798509896E-004;-2.064767293632031E-003;
2.415833333333334E+009;1.734344512224197E-001;-6.809066236019135E-002;-3.291319299023598E-004;-2.116127870976925E-003;
2.416000000000000E+009;1.734907627105713E-001;-6.856255978345871E-002;-3.138160100206733E-004;-1.820733072236180E-003;
2.416166666666667E+009;1.737928092479706E-001;-6.882350891828537E-002;-5.690419930033386E-004;-1.875075628049672E-003;
2.416333333333334E+009;1.737924069166184E-001;-6.927052885293961E-002;-6.126228836365044E-004;-1.751989009790123E-003;
2.416500000000000E+009;1.736313402652741E-001;-6.957554072141647E-002;-6.941581377759576E-004;-1.786971348337829E-003;
2.416666666666667E+009;1.733976453542709E-001;-6.976333260536194E-002;-8.377588819712400E-004;-1.611151965335012E-003;
2.416833333333334E+009;1.733321547508240E-001;-7.009631395339966E-002;-7.858342141844332E-004;-1.523817190900445E-003;
2.417000000000000E+009;1.728577464818955E-001;-7.019391655921936E-002;-1.031438005156815E-003;-1.474354998208582E-003;
2.417166666666667E+009;1.724903732538223E-001;-7.033251971006393E-002;-9.985124925151467E-004;-1.437611412256956E-003;
2.417333333333334E+009;1.720689237117767E-001;-7.053904980421066E-002;-1.109484001062810E-003;-1.344251679256558E-003;
2.417500000000000E+009;1.714187115430832E-001;-7.072696834802628E-002;-1.172955031506717E-003;-1.182335545308888E-003;
2.417666666666667E+009;1.708677858114243E-001;-7.081611454486847E-002;-1.234949217177928E-003;-1.090465695597231E-003;
2.417833333333334E+009;1.700391322374344E-001;-7.103772461414337E-002;-1.389529206790030E-003;-1.007181126624346E-003;
2.418000000000000E+009;1.691934317350388E-001;-7.141853868961334E-002;-1.286743907257915E-003;-7.660156697966158E-004;
2.418166666666667E+009;1.681519597768784E-001;-7.151178270578384E-002;-1.229009358212352E-003;-6.927490467205644E-004;
2.418333333333334E+009;1.675369143486023E-001;-7.170760631561279E-002;-1.318228081800044E-003;-6.252657622098923E-004;
2.418500000000000E+009;1.663222312927246E-001;-7.201251387596130E-002;-1.363145536743105E-003;-4.770893137902021E-004;
2.418666666666667E+009;1.653381288051605E-001;-7.247260957956314E-002;-1.393836806528270E-003;-2.901911502704024E-004;
2.418833333333334E+009;1.641128212213516E-001;-7.291207462549210E-002;-1.411190954968333E-003;-1.687849871814251E-004;
2.419000000000000E+009;1.627401858568192E-001;-7.336875796318054E-002;-1.229568966664374E-003;-6.622490764129907E-005;
2.419166666666667E+009;1.615964770317078E-001;-7.384034246206284E-002;-1.333803520537913E-003;4.902841465082020E-005;
2.419333333333334E+009;1.603633314371109E-001;-7.444658875465393E-002;-1.288623898290098E-003;1.977798674488440E-004;
2.419500000000000E+009;1.590814292430878E-001;-7.527316361665726E-002;-1.182875130325556E-003;3.638894122559577E-004;
2.419666666666667E+009;1.578660905361176E-001;-7.594970613718033E-002;-1.134978258050978E-003;3.366668242961168E-004;
2.419833333333334E+009;1.566890776157379E-001;-7.679747045040131E-002;-1.242291880771518E-003;5.498316022567451E-004;
2.420000000000000E+009;1.553813070058823E-001;-7.775034010410309E-002;-1.101686502806842E-003;5.583278834819794E-004;
2.420166666666667E+009;1.541270613670349E-001;-7.874230295419693E-002;-1.066318713128567E-003;6.847021286375821E-004;
2.420333333333334E+009;1.531981974840164E-001;-7.993953675031662E-002;-9.195496095344424E-004;9.082117467187345E-004;
2.420500000000000E+009;1.518392115831375E-001;-8.090200275182724E-002;-8.599759312346578E-004;9.016786934807897E-004;
2.420666666666667E+009;1.508050560951233E-001;-8.218702673912048E-002;-6.081142346374691E-004;8.869043085724115E-004;
2.420833333333334E+009;1.497410237789154E-001;-8.352845162153244E-002;-6.296262145042419E-004;9.765678551048040E-004;
2.421000000000000E+009;1.485347747802734E-001;-8.513069152832031E-002;-4.691743815783411E-004;1.106603886000812E-003;
2.421166666666667E+009;1.475670635700226E-001;-8.628979325294495E-002;-3.928927180822939E-004;1.230949885211885E-003;
2.421333333333334E+009;1.469925045967102E-001;-8.786968886852264E-002;-4.210798942949623E-004;1.275762915611267E-003;
2.421500000000000E+009;1.460897177457809E-001;-8.926109969615936E-002;-2.674708375707269E-004;1.199261168949306E-003;
2.421666666666667E+009;1.454442888498306E-001;-9.114488214254379E-002;3.409661076148041E-005;1.294732326641679E-003;
2.421833333333334E+009;1.448411941528320E-001;-9.284040331840515E-002;2.377563796471804E-004;1.456050085835159E-003;
2.422000000000000E+009;1.439811587333679E-001;-9.438462555408478E-002;3.537460288498551E-004;1.407022820785642E-003;
2.422166666666667E+009;1.437102258205414E-001;-9.634822607040405E-002;5.490661715157330E-004;1.296871923841536E-003;
2.422333333333334E+009;1.433488130569458E-001;-9.795169532299042E-002;6.311743636615574E-004;1.366706797853112E-003;
2.422500000000000E+009;1.431439071893692E-001;-9.956784546375275E-002;6.582511705346406E-004;1.240757293999195E-003;
2.422666666666667E+009;1.428417116403580E-001;-1.013567894697189E-001;8.974589291028678E-004;1.353600644506514E-003;
2.422833333333334E+009;1.427518725395203E-001;-1.032074540853500E-001;1.051868544891477E-003;1.227909815497696E-003;
2.423000000000000E+009;1.427122652530670E-001;-1.048760414123535E-001;1.046709483489394E-003;1.240544486790896E-003;
2.423166666666667E+009;1.429295688867569E-001;-1.067397147417069E-001;1.180196879431605E-003;1.087145414203405E-003;
2.423333333333334E+009;1.431178003549576E-001;-1.081770360469818E-001;1.344146789051592E-003;9.709504083730280E-004;
2.423500000000000E+009;1.430318653583527E-001;-1.098398193717003E-001;1.599634531885386E-003;8.314073784276843E-004;
2.423666666666667E+009;1.431346684694290E-001;-1.114907935261726E-001;1.641609589569271E-003;9.047806961461902E-004;
2.423833333333334E+009;1.436451226472855E-001;-1.129622533917427E-001;1.762207830324769E-003;8.946031448431313E-004;
2.424000000000000E+009;1.437632292509079E-001;-1.143356859683991E-001;1.766059198416770E-003;5.742257926613092E-004;
2.424166666666667E+009;1.440082937479019E-001;-1.158562824130058E-001;1.814610906876624E-003;4.887138493359089E-004;
2.424333333333334E+009;1.444672197103500E-001;-1.170275434851646E-001;1.951297395862639E-003;2.247737720608711E-004;
2.424500000000000E+009;1.449302136898041E-001;-1.184367686510086E-001;1.745805027894676E-003;2.827498537953943E-004;
2.424666666666667E+009;1.455712467432022E-001;-1.193573921918869E-001;1.934988074935973E-003;5.678280649590306E-005;
2.424833333333334E+009;1.456760764122009E-001;-1.205136403441429E-001;1.991183962672949E-003;1.605035067768768E-004;
2.425000000000000E+009;1.462103724479675E-001;-1.215495020151138E-001;2.061285777017474E-003;-1.794009294826537E-004;
2.425166666666667E+009;1.463636904954910E-001;-1.222597733139992E-001;2.053599106147885E-003;-2.632169343996793E-004;
2.425333333333334E+009;1.468768864870071E-001;-1.231250166893005E-001;1.957061234861612E-003;-3.940771275665611E-004;
2.425500000000000E+009;1.473873704671860E-001;-1.238726601004601E-001;2.089897636324167E-003;-4.710359789896756E-004;
2.425666666666667E+009;1.475032120943070E-001;-1.245585009455681E-001;2.072212519124150E-003;-5.113610532134771E-004;
2.425833333333334E+009;1.477390229701996E-001;-1.251144856214523E-001;1.969451317563653E-003;-6.693145260214806E-004;
2.426000000000000E+009;1.479269117116928E-001;-1.255749613046646E-001;2.047095913439989E-003;-7.492959266528487E-004;
2.426166666666667E+009;1.483308672904968E-001;-1.260500550270081E-001;1.889774925075471E-003;-9.324527345597744E-004;
2.426333333333334E+009;1.482702195644379E-001;-1.263033300638199E-001;1.829726155847311E-003;-1.142560504376888E-003;
2.426500000000000E+009;1.483785957098007E-001;-1.264439672231674E-001;1.680675894021988E-003;-1.199392136186361E-003;
2.426666666666667E+009;1.485374420881271E-001;-1.264453381299973E-001;1.715629710815847E-003;-1.245639403350651E-003;
2.426833333333334E+009;1.483267098665237E-001;-1.267374753952026E-001;1.756856567226350E-003;-1.202485174871981E-003;
2.427000000000000E+009;1.479884982109070E-001;-1.268240511417389E-001;1.695603365078569E-003;-1.393465907312930E-003;
2.427166666666667E+009;1.477777510881424E-001;-1.267368644475937E-001;1.764231245033443E-003;-1.507969107478857E-003;
2.427333333333334E+009;1.472378522157669E-001;-1.268059313297272E-001;1.711519202217460E-003;-1.452664611861110E-003;
2.427500000000000E+009;1.468873322010040E-001;-1.267088651657105E-001;1.676872489042580E-003;-1.598480273969472E-003;
2.427666666666667E+009;1.461875587701798E-001;-1.267173141241074E-001;1.650384510867298E-003;-1.680351444520056E-003;
