# Version 1.00
#
freq[Hz];re:Trc1_S11;im:Trc1_S11;re:Trc2_S21;im:Trc2_S21;
2.400000000000000E+009;1.693161278963089E-001;4.595435783267021E-002;-3.972787410020828E-003;-3.057645866647363E-003;
2.400166666666667E+009;1.703621000051498E-001;4.494196921586990E-002;-4.183023236691952E-003;-2.976201707497239E-003;
2.400333333333334E+009;1.713585108518601E-001;4.403216019272804E-002;-4.151357803493738E-003;-2.653921721503139E-003;
2.400500000000000E+009;1.723304390907288E-001;4.271755740046501E-002;-4.156119190156460E-003;-2.675531664863229E-003;
2.400666666666667E+009;1.730699986219406E-001;4.198341444134712E-002;-4.203282296657562E-003;-2.505756681784987E-003;
2.400833333333334E+009;1.741552054882050E-001;4.116650298237801E-002;-4.022994544357061E-003;-2.202701987698674E-003;
2.401000000000000E+009;1.749614626169205E-001;4.051720350980759E-002;-4.033950623124838E-003;-2.149833831936121E-003;
2.401166666666667E+009;1.757364273071289E-001;3.960727155208588E-002;-4.252949263900518E-003;-1.973574282601476E-003;
2.401333333333334E+009;1.765213161706924E-001;3.898592293262482E-002;-4.138668067753315E-003;-1.732037984766066E-003;
2.401500000000000E+009;1.772626489400864E-001;3.847339376807213E-002;-4.227422643452883E-003;-1.711842254735529E-003;
2.401666666666667E+009;1.776762753725052E-001;3.785492852330208E-002;-4.165889695286751E-003;-1.645700889639556E-003;
2.401833333333334E+009;1.783898174762726E-001;3.718386963009834E-002;-4.122920800000429E-003;-1.492215786129236E-003;
2.402000000000000E+009;1.788712888956070E-001;3.676834329962730E-002;-4.283483140170574E-003;-1.394263934344053E-003;
2.402166666666667E+009;1.791648864746094E-001;3.607171773910523E-002;-4.265330731868744E-003;-1.320520765148103E-003;
2.402333333333334E+009;1.795403957366943E-001;3.556011617183685E-002;-4.266436211764813E-003;-1.267588697373867E-003;
2.402500000000000E+009;1.798662990331650E-001;3.498382121324539E-002;-4.316381178796291E-003;-1.057783025316894E-003;
2.402666666666667E+009;1.800652891397476E-001;3.434772044420242E-002;-4.300753120332956E-003;-8.284835494123399E-004;
2.402833333333334E+009;1.802290081977844E-001;3.357574716210365E-002;-4.253109451383352E-003;-1.021175179630518E-003;
2.403000000000000E+009;1.802950501441956E-001;3.315093740820885E-002;-4.402655642479658E-003;-6.106650689616799E-004;
2.403166666666667E+009;1.802045106887817E-001;3.220746293663979E-002;-4.311518277972937E-003;-5.971386563032866E-004;
2.403333333333334E+009;1.800696700811386E-001;3.135831281542778E-002;-4.334112163633108E-003;-4.168621962890029E-004;
2.403500000000000E+009;1.795920580625534E-001;3.050566650927067E-002;-4.315969999879599E-003;-1.660862326389179E-004;
2.403666666666667E+009;1.794220507144928E-001;2.932898886501789E-002;-4.300378728657961E-003;-2.203391341026872E-004;
2.403833333333334E+009;1.792231351137161E-001;2.854971773922443E-002;-4.288432188332081E-003;-5.957840767223388E-005;
2.404000000000000E+009;1.786577999591827E-001;2.738149836659432E-002;-4.211888648569584E-003;4.538260691333562E-005;
2.404166666666667E+009;1.783449202775955E-001;2.615938335657120E-002;-4.184981808066368E-003;2.606030611786991E-004;
2.404333333333334E+009;1.778057366609573E-001;2.500326558947563E-002;-4.128944594413042E-003;2.792489249259234E-004;
2.404500000000000E+009;1.772476881742477E-001;2.359175682067871E-002;-4.033181816339493E-003;3.717946819961071E-004;
2.404666666666667E+009;1.766689419746399E-001;2.235417999327183E-002;-4.049874842166901E-003;6.399040576070547E-004;
2.404833333333334E+009;1.760006397962570E-001;2.087527140974999E-002;-3.886945778504014E-003;5.056209629401565E-004;
2.405000000000000E+009;1.755829751491547E-001;1.938758417963982E-002;-3.790620481595397E-003;7.793834083713591E-004;
2.405166666666667E+009;1.752277463674545E-001;1.770840957760811E-002;-3.854850772768259E-003;6.846516043879092E-004;
2.405333333333334E+009;1.747221499681473E-001;1.587975956499577E-002;-3.756521269679070E-003;8.773610461503267E-004;
2.405500000000000E+009;1.742074936628342E-001;1.433795131742954E-002;-3.705286653712392E-003;9.131615515798330E-004;
2.405666666666667E+009;1.737906634807587E-001;1.270454842597246E-002;-3.924247808754444E-003;8.391598239541054E-004;
2.405833333333334E+009;1.732723116874695E-001;1.081437990069389E-002;-3.861914156004787E-003;1.006881124339998E-003;
2.406000000000000E+009;1.730933338403702E-001;8.876533247530460E-003;-3.866740968078375E-003;1.077088294550777E-003;
2.406166666666667E+009;1.726717501878738E-001;7.098457776010037E-003;-3.904428798705339E-003;1.023604534566402E-003;
2.406333333333334E+009;1.725655645132065E-001;5.084608215838671E-003;-3.727617673575878E-003;1.216419273987413E-003;
2.406500000000000E+009;1.724125295877457E-001;3.015219001099467E-003;-3.923207521438599E-003;1.154781086370349E-003;
2.406666666666667E+009;1.722819209098816E-001;1.052881940267980E-003;-3.813031362369657E-003;1.254587783478200E-003;
2.406833333333334E+009;1.723033785820007E-001;-1.169848721474409E-003;-3.886614460498095E-003;1.439546351321042E-003;
2.407000000000000E+009;1.723184287548065E-001;-3.166028996929526E-003;-4.066511057317257E-003;1.546989195048809E-003;
2.407166666666667E+009;1.725664883852005E-001;-5.205851979553700E-003;-3.990380559116602E-003;1.655125990509987E-003;
2.407333333333334E+009;1.725394278764725E-001;-7.486122660338879E-003;-4.022852052003145E-003;1.841145218349993E-003;
2.407500000000000E+009;1.728384643793106E-001;-9.573057293891907E-003;-4.113129340112209E-003;1.945946249179542E-003;
2.407666666666667E+009;1.732080876827240E-001;-1.147536560893059E-002;-3.973747137933970E-003;2.121512778103352E-003;
2.407833333333334E+009;1.733033508062363E-001;-1.376974768936634E-002;-4.117325879633427E-003;2.430472755804658E-003;
2.408000000000000E+009;1.738530099391937E-001;-1.601573266088963E-002;-4.030589479953051E-003;2.576324855908752E-003;
2.408166666666667E+009;1.742751449346542E-001;-1.786373928189278E-002;-3.879586467519403E-003;2.901397878304124E-003;
2.408333333333334E+009;1.747424304485321E-001;-1.996179856359959E-002;-3.870085813105106E-003;3.183170687407255E-003;
2.408500000000000E+009;1.749644279479981E-001;-2.198549546301365E-002;-3.838200354948640E-003;3.316370537504554E-003;
2.408666666666667E+009;1.755403429269791E-001;-2.377458103001118E-002;-3.576951567083597E-003;3.521739039570093E-003;
2.408833333333334E+009;1.758827567100525E-001;-2.553141675889492E-002;-3.359250491485000E-003;3.664363175630570E-003;
2.409000000000000E+009;1.762583404779434E-001;-2.702897228300571E-002;-3.250693669542670E-003;3.713453188538551E-003;
2.409166666666667E+009;1.767916828393936E-001;-2.867002785205841E-002;-3.073802217841148E-003;4.209661390632391E-003;
2.409333333333334E+009;1.773710995912552E-001;-3.018796816468239E-002;-2.894472330808640E-003;4.026253242045641E-003;
2.409500000000000E+009;1.777320951223373E-001;-3.138846158981323E-002;-2.700068056583405E-003;4.206264391541481E-003;
2.409666666666667E+009;1.780810505151749E-001;-3.273724019527435E-002;-2.314628800377250E-003;4.438496194779873E-003;
2.409833333333334E+009;1.785734593868256E-001;-3.360435366630554E-002;-2.168855164200068E-003;4.447073210030794E-003;
2.410000000000000E+009;1.792118698358536E-001;-3.468360751867294E-002;-1.916949055157602E-003;4.616328049451113E-003;
2.410166666666667E+009;1.797467172145844E-001;-3.542398288846016E-002;-1.605982077307999E-003;4.621916450560093E-003;
2.410333333333334E+009;1.801196485757828E-001;-3.624179214239121E-002;-1.415481558069587E-003;4.619399085640907E-003;
2.410500000000000E+009;1.805960088968277E-001;-3.696365654468536E-002;-1.172130694612861E-003;4.563738591969013E-003;
2.410666666666667E+009;1.809463500976563E-001;-3.773693740367889E-002;-9.390964987687767E-004;4.612538963556290E-003;
2.410833333333334E+009;1.814121901988983E-001;-3.818443790078163E-002;-6.635349127463996E-004;4.683345090597868E-003;
2.411000000000000E+009;1.816259324550629E-001;-3.886880353093147E-002;-6.451968802139163E-004;4.558642394840717E-003;
2.411166666666667E+009;1.819934695959091E-001;-3.929378092288971E-002;-5.104285082779825E-004;4.409357905387878E-003;
2.411333333333334E+009;1.821469217538834E-001;-3.991841152310371E-002;-3.197290352545679E-004;4.315557423979044E-003;
2.411500000000000E+009;1.822548955678940E-001;-4.029023274779320E-002;-4.234018342685886E-005;4.329112358391285E-003;
2.411666666666667E+009;1.823811978101730E-001;-4.056495055556297E-002;1.638896173972171E-005;4.187719430774450E-003;
2.411833333333334E+009;1.822130084037781E-001;-4.086323454976082E-002;1.081835798686370E-004;4.195837303996086E-003;
2.412000000000000E+009;1.822421550750732E-001;-4.116622731089592E-002;3.028792853001505E-004;4.072040785104036E-003;
2.412166666666667E+009;1.818952113389969E-001;-4.165666177868843E-002;3.102335322182626E-004;4.088161513209343E-003;
2.412333333333334E+009;1.817810088396072E-001;-4.174134507775307E-002;2.962988510262221E-004;4.168693907558918E-003;
2.412500000000000E+009;1.810799092054367E-001;-4.212925210595131E-002;4.534836625680327E-004;3.926921635866165E-003;
2.412666666666667E+009;1.806157082319260E-001;-4.270234704017639E-002;6.633475422859192E-004;3.904144512489438E-003;
2.412833333333334E+009;1.798650473356247E-001;-4.286226630210877E-002;6.152168498374522E-004;4.003006033599377E-003;
2.413000000000000E+009;1.791966408491135E-001;-4.324616119265556E-002;7.547433488070965E-004;3.867317922413349E-003;
2.413166666666667E+009;1.781777888536453E-001;-4.353813827037811E-002;6.900378502905369E-004;3.881218610331416E-003;
2.413333333333334E+009;1.773850172758102E-001;-4.405537247657776E-002;8.969148620963097E-004;3.882761811837554E-003;
2.413500000000000E+009;1.763803660869598E-001;-4.467757791280747E-002;1.143987639807165E-003;3.806864144280553E-003;
2.413666666666667E+009;1.755023747682571E-001;-4.527737572789192E-002;1.209082896821201E-003;3.881205106154084E-003;
2.413833333333334E+009;1.742037683725357E-001;-4.577026516199112E-002;1.218817429617047E-003;3.809738671407104E-003;
2.414000000000000E+009;1.729946285486221E-001;-4.642528668045998E-002;1.464481814764440E-003;3.723480971530080E-003;
2.414166666666667E+009;1.719408929347992E-001;-4.709061235189438E-002;1.435170415788889E-003;3.539928002282977E-003;
2.414333333333334E+009;1.707694977521896E-001;-4.794314876198769E-002;1.514900126494467E-003;3.460524603724480E-003;
2.414500000000000E+009;1.695719808340073E-001;-4.883693531155586E-002;1.755696488544345E-003;3.412666963413358E-003;
2.414666666666667E+009;1.683555245399475E-001;-4.976535961031914E-002;1.872317399829626E-003;3.396828658878803E-003;
2.414833333333334E+009;1.671534627676010E-001;-5.087687820196152E-002;1.918762340210378E-003;3.279068041592836E-003;
2.415000000000000E+009;1.656987667083740E-001;-5.191403254866600E-002;1.996836392208934E-003;3.216331126168370E-003;
2.415166666666667E+009;1.646539270877838E-001;-5.323312059044838E-002;1.916510169394314E-003;3.150322008877993E-003;
2.415333333333334E+009;1.633563935756683E-001;-5.468005686998367E-002;2.102253027260304E-003;3.152699675410986E-003;
2.415500000000000E+009;1.623097956180573E-001;-5.602220818400383E-002;2.308423398062587E-003;3.224896732717753E-003;
2.415666666666667E+009;1.610473394393921E-001;-5.741103366017342E-002;2.290382748469710E-003;3.122058929875493E-003;
2.415833333333334E+009;1.600151956081390E-001;-5.908364802598953E-002;2.185988239943981E-003;2.883045235648751E-003;
2.416000000000000E+009;1.586527377367020E-001;-6.085373461246491E-002;2.316933358088136E-003;2.902123844251037E-003;
2.416166666666667E+009;1.580087691545487E-001;-6.255043298006058E-002;2.368746092543006E-003;2.742047887295485E-003;
2.416333333333334E+009;1.567689478397369E-001;-6.446281820535660E-002;2.504394389688969E-003;2.879703883081675E-003;
2.416500000000000E+009;1.558356732130051E-001;-6.643377244472504E-002;2.501919865608215E-003;2.905115718021989E-003;
2.416666666666667E+009;1.550140827894211E-001;-6.827241182327271E-002;2.627747366204858E-003;2.784715266898274E-003;
2.416833333333334E+009;1.541709899902344E-001;-7.024645805358887E-002;2.753694541752338E-003;2.771513070911169E-003;
2.417000000000000E+009;1.531829982995987E-001;-7.227052003145218E-002;2.842699643224478E-003;2.692419802770019E-003;
2.417166666666667E+009;1.526183485984802E-001;-7.404361665248871E-002;2.914079930633307E-003;2.724068006500602E-003;
2.417333333333334E+009;1.520736366510391E-001;-7.602573186159134E-002;3.018290735781193E-003;2.634139033034444E-003;
2.417500000000000E+009;1.514602601528168E-001;-7.813545316457748E-002;3.169481176882982E-003;2.594404155388475E-003;
2.417666666666667E+009;1.510116159915924E-001;-7.984481751918793E-002;3.235198324546218E-003;2.442016499117017E-003;
2.417833333333334E+009;1.505006998777390E-001;-8.183952420949936E-002;3.427196294069290E-003;2.419798867776990E-003;
2.418000000000000E+009;1.500704288482666E-001;-8.365902304649353E-002;3.497367724776268E-003;2.282754518091679E-003;
2.418166666666667E+009;1.498287618160248E-001;-8.528254181146622E-002;3.633799962699413E-003;2.214152598753572E-003;
2.418333333333334E+009;1.499272733926773E-001;-8.715818822383881E-002;3.809168701991439E-003;2.245346782729030E-003;
2.418500000000000E+009;1.496440917253494E-001;-8.868887275457382E-002;4.094605334103108E-003;2.097128890454769E-003;
2.418666666666667E+009;1.496670395135880E-001;-9.027218818664551E-002;4.098121076822281E-003;1.928090234287083E-003;
2.418833333333334E+009;1.496000736951828E-001;-9.167925268411636E-002;4.389923531562090E-003;1.841608667746186E-003;
2.419000000000000E+009;1.494622528553009E-001;-9.299971163272858E-002;4.473894834518433E-003;1.527647720649838E-003;
2.419166666666667E+009;1.497616320848465E-001;-9.422589093446732E-002;4.601045977324247E-003;1.218008459545672E-003;
2.419333333333334E+009;1.496765911579132E-001;-9.515978395938873E-002;4.697192460298538E-003;1.077889464795589E-003;
2.419500000000000E+009;1.499360054731369E-001;-9.633902460336685E-002;4.834061022847891E-003;7.801848696544766E-004;
2.419666666666667E+009;1.504470556974411E-001;-9.727810323238373E-002;4.809374921023846E-003;5.387988639995456E-004;
2.419833333333334E+009;1.505648195743561E-001;-9.794139117002487E-002;4.828545264899731E-003;2.044756693067029E-004;
2.420000000000000E+009;1.508575975894928E-001;-9.881044924259186E-002;4.889664705842733E-003;-1.675369276199490E-005;
2.420166666666667E+009;1.512187868356705E-001;-9.921319782733917E-002;4.904416389763355E-003;-3.763019340112805E-004;
2.420333333333334E+009;1.514252871274948E-001;-9.980987757444382E-002;4.913999233394861E-003;-7.521538645960391E-004;
2.420500000000000E+009;1.518647074699402E-001;-9.997820854187012E-002;4.629126749932766E-003;-8.551439386792481E-004;
2.420666666666667E+009;1.521679461002350E-001;-1.002345979213715E-001;4.634258802980185E-003;-1.044102129526436E-003;
2.420833333333334E+009;1.522954553365707E-001;-1.004501581192017E-001;4.489795304834843E-003;-1.374113839119673E-003;
2.421000000000000E+009;1.525170058012009E-001;-1.004623547196388E-001;4.336180165410042E-003;-1.566465478390455E-003;
2.421166666666667E+009;1.529552787542343E-001;-1.004370152950287E-001;4.323313478380442E-003;-1.784151419997215E-003;
2.421333333333334E+009;1.531522572040558E-001;-1.004919484257698E-001;4.040873143821955E-003;-1.869987929239869E-003;
2.421500000000000E+009;1.530935019254684E-001;-1.002342477440834E-001;3.991047386080027E-003;-2.035858109593391E-003;
2.421666666666667E+009;1.531776636838913E-001;-1.001205891370773E-001;3.964026458561420E-003;-2.270510420203209E-003;
2.421833333333334E+009;1.530820429325104E-001;-9.993873536586762E-002;3.735572565346956E-003;-2.374825766310096E-003;
2.422000000000000E+009;1.528689563274384E-001;-9.971734881401062E-002;3.549301298335195E-003;-2.569234231486917E-003;
2.422166666666667E+009;1.526479572057724E-001;-9.960197657346726E-002;3.280985401943326E-003;-2.631202340126038E-003;
2.422333333333334E+009;1.524443328380585E-001;-9.921638667583466E-002;3.181951353326440E-003;-2.725498285144568E-003;
2.422500000000000E+009;1.517044901847839E-001;-9.863490611314774E-002;3.084258176386356E-003;-2.917532809078693E-003;
2.422666666666667E+009;1.511720865964890E-001;-9.854753315448761E-002;2.868941053748131E-003;-2.835536608472467E-003;
2.422833333333334E+009;1.504377424716950E-001;-9.815466403961182E-002;2.710916334763169E-003;-2.981376368552446E-003;
2.423000000000000E+009;1.495216190814972E-001;-9.770053625106812E-002;2.554954262450337E-003;-3.094369545578957E-003;
2.423166666666667E+009;1.487431824207306E-001;-9.749820083379746E-002;2.286361064761877E-003;-2.893314929679036E-003;
2.423333333333334E+009;1.476246118545532E-001;-9.699693322181702E-002;2.167146420106292E-003;-3.178503364324570E-003;
2.423500000000000E+009;1.466075032949448E-001;-9.670870751142502E-002;1.957271946594119E-003;-3.231756621971726E-003;
2.423666666666667E+009;1.453301906585693E-001;-9.649993479251862E-002;1.762598869390786E-003;-3.051046049222350E-003;
2.423833333333334E+009;1.441935449838638E-001;-9.614074230194092E-002;1.690995995886624E-003;-3.099918831139803E-003;
2.424000000000000E+009;1.426327228546143E-001;-9.578409790992737E-002;1.627725898288190E-003;-3.175816265866160E-003;
2.424166666666667E+009;1.411978602409363E-001;-9.560343623161316E-002;1.398101332597435E-003;-3.100948641076684E-003;
2.424333333333334E+009;1.399691551923752E-001;-9.545562416315079E-002;1.367797376587987E-003;-3.140805987641215E-003;
2.424500000000000E+009;1.385200470685959E-001;-9.554369002580643E-002;1.180389546789229E-003;-3.092566970735788E-003;
2.424666666666667E+009;1.371032148599625E-001;-9.530469030141830E-002;1.041293027810752E-003;-3.144910791888833E-003;
2.424833333333334E+009;1.354369670152664E-001;-9.569001197814941E-002;9.250754956156015E-004;-3.118910361081362E-003;
2.425000000000000E+009;1.340146064758301E-001;-9.603630751371384E-002;8.483454002998769E-004;-3.180951112881303E-003;
2.425166666666667E+009;1.323970258235931E-001;-9.632332623004913E-002;7.777658174745739E-004;-3.075650660321116E-003;
2.425333333333334E+009;1.310218572616577E-001;-9.697854518890381E-002;5.151533987373114E-004;-2.908012131229043E-003;
2.425500000000000E+009;1.295730024576187E-001;-9.758689254522324E-002;4.757149145007134E-004;-3.002636367455125E-003;
2.425666666666667E+009;1.278483420610428E-001;-9.837850183248520E-002;2.620392187964171E-004;-2.859797794371843E-003;
2.425833333333334E+009;1.265299320220947E-001;-9.922686964273453E-002;1.113861944759265E-004;-2.685782965272665E-003;
2.426000000000000E+009;1.251684427261353E-001;-1.002995893359184E-001;-2.534485611249693E-005;-2.594152698293328E-003;
2.426166666666667E+009;1.239859983325005E-001;-1.014872938394547E-001;5.555034658755176E-005;-2.639906713739038E-003;
2.426333333333334E+009;1.224237829446793E-001;-1.026656702160835E-001;-1.434113219147548E-004;-2.493108855560422E-003;
2.426500000000000E+009;1.211524009704590E-001;-1.037884578108788E-001;-1.529100245534210E-006;-2.539719920605421E-003;
2.426666666666667E+009;1.202257275581360E-001;-1.051596328616142E-001;-3.416506660869345E-005;-2.514293882995844E-003;
2.426833333333334E+009;1.189305186271668E-001;-1.068018674850464E-001;-2.165342011721805E-004;-2.313427161425352E-003;
2.427000000000000E+009;1.178105100989342E-001;-1.083927080035210E-001;-6.247855344554409E-005;-2.284455345943570E-003;
2.427166666666667E+009;1.168872639536858E-001;-1.099320054054260E-001;-2.331083815079182E-004;-2.166532911360264E-003;
2.427333333333334E+009;1.159651130437851E-001;-1.116978526115418E-001;-1.905944227473810E-004;-2.276034327223897E-003;
2.427500000000000E+009;1.152690052986145E-001;-1.133210733532906E-001;-2.512394275981933E-004;-2.218614099547267E-003;
2.427666666666667E+009;1.146083697676659E-001;-1.151812672615051E-001;-1.940926013048738E-004;-2.197462366893888E-003;
