# Version 1.00
#
freq[Hz];re:Trc1_S11;im:Trc1_S11;re:Trc2_S21;im:Trc2_S21;
2.400000000000000E+009;1.693526059389114E-001;4.600831493735313E-002;-4.067198839038611E-003;-3.117953194305301E-003;
2.400166666666667E+009;1.703618466854096E-001;4.497148841619492E-002;-4.245267715305090E-003;-2.824718831107020E-003;
2.400333333333334E+009;1.711978614330292E-001;4.386777058243752E-002;-4.199783317744732E-003;-2.687043976038694E-003;
2.400500000000000E+009;1.722915321588516E-001;4.292837157845497E-002;-4.162616096436977E-003;-2.474451437592506E-003;
2.400666666666667E+009;1.732173413038254E-001;4.195096343755722E-002;-4.170722793787718E-003;-2.383889863267541E-003;
2.400833333333334E+009;1.742492169141769E-001;4.118437319993973E-002;-4.307682625949383E-003;-2.269119955599308E-003;
2.401000000000000E+009;1.750858426094055E-001;4.056924581527710E-002;-4.161772318184376E-003;-2.032387536019087E-003;
2.401166666666667E+009;1.757217794656754E-001;3.983053937554359E-002;-4.298636689782143E-003;-1.896932022646070E-003;
2.401333333333334E+009;1.765765398740768E-001;3.898417949676514E-002;-4.060901235789061E-003;-1.814714167267084E-003;
2.401500000000000E+009;1.771131604909897E-001;3.844116255640984E-002;-4.235832486301661E-003;-1.751861767843366E-003;
2.401666666666667E+009;1.778563708066940E-001;3.790012374520302E-002;-4.247534554451704E-003;-1.549469889141619E-003;
2.401833333333334E+009;1.784369349479675E-001;3.717195987701416E-002;-4.056127276271582E-003;-1.497152727097273E-003;
2.402000000000000E+009;1.786396950483322E-001;3.671785071492195E-002;-4.117882344871759E-003;-1.349046244286001E-003;
2.402166666666667E+009;1.791826933622360E-001;3.594055026769638E-002;-4.181033000349999E-003;-1.162700355052948E-003;
2.402333333333334E+009;1.794920265674591E-001;3.559484332799912E-002;-4.276273306459189E-003;-1.180137041956186E-003;
2.402500000000000E+009;1.799573004245758E-001;3.480867296457291E-002;-4.255806095898151E-003;-1.027594786137343E-003;
2.402666666666667E+009;1.799933314323425E-001;3.428409621119499E-002;-4.382262937724590E-003;-1.001256983727217E-003;
2.402833333333334E+009;1.799901276826859E-001;3.392054885625839E-002;-4.288318101316690E-003;-6.949080852791667E-004;
2.403000000000000E+009;1.800929307937622E-001;3.307540714740753E-002;-4.477728158235550E-003;-6.314443307928741E-004;
2.403166666666667E+009;1.801623255014420E-001;3.225886449217796E-002;-4.563181195408106E-003;-4.999567754566670E-004;
2.403333333333334E+009;1.800292134284973E-001;3.132473677396774E-002;-4.384865984320641E-003;-3.242786333430558E-004;
2.403500000000000E+009;1.797490119934082E-001;3.049820847809315E-002;-4.318488296121359E-003;-3.080283931922168E-004;
2.403666666666667E+009;1.792639791965485E-001;2.935133688151836E-002;-4.231397993862629E-003;-1.550261804368347E-004;
2.403833333333334E+009;1.791923493146896E-001;2.851875126361847E-002;-4.378814250230789E-003;2.233206760138273E-004;
2.404000000000000E+009;1.787679493427277E-001;2.744893170893192E-002;-4.359051585197449E-003;1.671790814725682E-004;
2.404166666666667E+009;1.781758666038513E-001;2.617665939033032E-002;-4.177523311227560E-003;2.413816982880235E-004;
2.404333333333334E+009;1.777823120355606E-001;2.491657808423042E-002;-4.189285449683666E-003;1.684493763605133E-004;
2.404500000000000E+009;1.770755499601364E-001;2.349518612027168E-002;-4.083723295480013E-003;4.035383171867579E-004;
2.404666666666667E+009;1.765528470277786E-001;2.228489145636559E-002;-4.078051541000605E-003;5.351759609766305E-004;
2.404833333333334E+009;1.760983020067215E-001;2.087647281587124E-002;-3.916118294000626E-003;5.788250709883869E-004;
2.405000000000000E+009;1.757392436265945E-001;1.939213462173939E-002;-3.878865856677294E-003;6.741621182300150E-004;
2.405166666666667E+009;1.751097291707993E-001;1.776686497032642E-002;-3.943060524761677E-003;8.431072928942740E-004;
2.405333333333334E+009;1.746135652065277E-001;1.598999090492725E-002;-3.920920658856630E-003;9.650950087234378E-004;
2.405500000000000E+009;1.740939617156982E-001;1.439673732966185E-002;-3.917313180863857E-003;1.041446230374277E-003;
2.405666666666667E+009;1.738125681877136E-001;1.274361182004213E-002;-3.816365497186780E-003;8.703797939233482E-004;
2.405833333333334E+009;1.732675731182098E-001;1.095104869455099E-002;-3.855601884424686E-003;1.023022341541946E-003;
2.406000000000000E+009;1.732174158096314E-001;8.885923773050308E-003;-3.850760404020548E-003;9.215491008944809E-004;
2.406166666666667E+009;1.726488322019577E-001;7.167160976678133E-003;-3.962540067732334E-003;1.247932901605964E-003;
2.406333333333334E+009;1.726264655590057E-001;5.188012961298227E-003;-4.019923508167267E-003;1.254849019460380E-003;
2.406500000000000E+009;1.724304407835007E-001;3.039916045963764E-003;-3.874287242069840E-003;1.362506882287562E-003;
2.406666666666667E+009;1.721529811620712E-001;1.076665124855936E-003;-3.969631623476744E-003;1.517865573987365E-003;
2.406833333333334E+009;1.723274886608124E-001;-1.153481658548117E-003;-3.758863080292940E-003;1.463912311010063E-003;
2.407000000000000E+009;1.723132580518723E-001;-3.208315232768655E-003;-3.908603452146053E-003;1.686783274635673E-003;
2.407166666666667E+009;1.725247055292130E-001;-5.156474653631449E-003;-4.017571453005076E-003;1.751715899445117E-003;
2.407333333333334E+009;1.726230382919312E-001;-7.397968322038651E-003;-4.181694239377976E-003;1.907640253193677E-003;
2.407500000000000E+009;1.729418337345123E-001;-9.496741928160191E-003;-4.028847906738520E-003;2.164188539609313E-003;
2.407666666666667E+009;1.732521802186966E-001;-1.153215393424034E-002;-4.023145884275436E-003;2.377073513343930E-003;
2.407833333333334E+009;1.734259426593781E-001;-1.378413662314415E-002;-4.038315266370773E-003;2.452729502692819E-003;
2.408000000000000E+009;1.738791018724442E-001;-1.597854308784008E-002;-4.014237318187952E-003;2.669526729732752E-003;
2.408166666666667E+009;1.741831898689270E-001;-1.784281060099602E-002;-3.996125888079405E-003;2.996337367221713E-003;
2.408333333333334E+009;1.748632788658142E-001;-1.985234953463078E-002;-3.923084586858749E-003;3.253913717344403E-003;
2.408500000000000E+009;1.751639991998673E-001;-2.187801338732243E-002;-3.741295775398612E-003;3.519273595884442E-003;
2.408666666666667E+009;1.756006926298142E-001;-2.364516071975231E-002;-3.449990414083004E-003;3.681070404127240E-003;
2.408833333333334E+009;1.759491562843323E-001;-2.551028318703175E-002;-3.328280290588737E-003;3.824743675068021E-003;
2.409000000000000E+009;1.763935387134552E-001;-2.711551822721958E-002;-3.192001255229116E-003;4.103098530322313E-003;
2.409166666666667E+009;1.767300814390183E-001;-2.863256819546223E-002;-2.987197367474437E-003;4.135898780077696E-003;
2.409333333333334E+009;1.773716062307358E-001;-3.013064712285996E-002;-2.772706793621182E-003;4.300371278077364E-003;
2.409500000000000E+009;1.777584403753281E-001;-3.152585774660111E-002;-2.442908007651568E-003;4.460640251636505E-003;
2.409666666666667E+009;1.781506687402725E-001;-3.272139653563500E-002;-2.146654296666384E-003;4.490013699978590E-003;
2.409833333333334E+009;1.786693334579468E-001;-3.372037038207054E-002;-2.041601808741689E-003;4.555443767458201E-003;
2.410000000000000E+009;1.793346554040909E-001;-3.465336933732033E-002;-1.847412437200546E-003;4.606668837368488E-003;
2.410166666666667E+009;1.797362416982651E-001;-3.554718568921089E-002;-1.580239506438375E-003;4.669414833188057E-003;
2.410333333333334E+009;1.800377368927002E-001;-3.621186688542366E-002;-1.368996687233448E-003;4.731704480946064E-003;
2.410500000000000E+009;1.805741637945175E-001;-3.704561665654182E-002;-1.068210927769542E-003;4.630490671843290E-003;
2.410666666666667E+009;1.809408962726593E-001;-3.784212842583656E-002;-8.611240773461759E-004;4.558889660984278E-003;
2.410833333333334E+009;1.815833300352097E-001;-3.831014409661293E-002;-6.474318797700107E-004;4.702479112893343E-003;
2.411000000000000E+009;1.817936748266220E-001;-3.871208429336548E-002;-4.381448961794376E-004;4.648264497518539E-003;
2.411166666666667E+009;1.820361912250519E-001;-3.926983103156090E-002;-3.927185025531799E-004;4.431897774338722E-003;
2.411333333333334E+009;1.820928305387497E-001;-3.980910405516625E-002;-2.132107474608347E-004;4.469385370612145E-003;
2.411500000000000E+009;1.823045462369919E-001;-4.037163034081459E-002;-1.883730146801099E-005;4.317897371947765E-003;
2.411666666666667E+009;1.824015080928803E-001;-4.060853645205498E-002;1.831125846365467E-004;4.259086679667234E-003;
2.411833333333334E+009;1.823630481958389E-001;-4.109009355306625E-002;2.162877790397033E-004;4.163164645433426E-003;
2.412000000000000E+009;1.822208762168884E-001;-4.138195887207985E-002;3.016552072949708E-004;4.192905966192484E-003;
2.412166666666667E+009;1.817060410976410E-001;-4.162548854947090E-002;4.976317286491394E-004;4.076247103512287E-003;
2.412333333333334E+009;1.816918104887009E-001;-4.201325029134750E-002;5.349576822482050E-004;4.017410799860954E-003;
2.412500000000000E+009;1.811101287603378E-001;-4.220217838883400E-002;4.484500677790493E-004;4.082278814166784E-003;
2.412666666666667E+009;1.807078123092651E-001;-4.264956340193749E-002;6.555464933626354E-004;3.879213007166982E-003;
2.412833333333334E+009;1.798498630523682E-001;-4.304935783147812E-002;5.623721517622471E-004;3.990915603935719E-003;
2.413000000000000E+009;1.790895462036133E-001;-4.334843903779984E-002;7.905995589680970E-004;3.976651933044195E-003;
2.413166666666667E+009;1.782433837652206E-001;-4.370342940092087E-002;9.507318027317524E-004;3.956072032451630E-003;
2.413333333333334E+009;1.773898452520371E-001;-4.410703107714653E-002;9.241358493454754E-004;4.011061973869801E-003;
2.413500000000000E+009;1.763914078474045E-001;-4.459575191140175E-002;1.186132663860917E-003;3.843023674562573E-003;
2.413666666666667E+009;1.754861325025559E-001;-4.519214108586311E-002;1.424094778485596E-003;4.043429624289274E-003;
2.413833333333334E+009;1.742579340934753E-001;-4.578163102269173E-002;1.526506501249969E-003;3.829805878922343E-003;
2.414000000000000E+009;1.729593575000763E-001;-4.651009663939476E-002;1.448736176826060E-003;3.852412803098559E-003;
2.414166666666667E+009;1.719332486391068E-001;-4.709429293870926E-002;1.534937648102641E-003;3.621267387643457E-003;
2.414333333333334E+009;1.706419885158539E-001;-4.802756011486054E-002;1.693359925411642E-003;3.617760026827455E-003;
2.414500000000000E+009;1.695978790521622E-001;-4.880965128540993E-002;1.792829832993448E-003;3.620725357905030E-003;
2.414666666666667E+009;1.682955771684647E-001;-4.978756234049797E-002;1.809449633583427E-003;3.556635696440935E-003;
2.414833333333334E+009;1.668197214603424E-001;-5.085918307304382E-002;1.863903482444584E-003;3.536616684868932E-003;
2.415000000000000E+009;1.656888276338577E-001;-5.205576494336128E-002;1.999903004616499E-003;3.359288442879915E-003;
2.415166666666667E+009;1.645246744155884E-001;-5.335054546594620E-002;2.127452054992318E-003;3.310323227196932E-003;
2.415333333333334E+009;1.635192483663559E-001;-5.467257276177406E-002;2.077550394460559E-003;3.298443974927068E-003;
2.415500000000000E+009;1.622460186481476E-001;-5.608807876706123E-002;2.093489281833172E-003;3.154859645292163E-003;
2.415666666666667E+009;1.610847264528275E-001;-5.750605091452599E-002;2.425065729767084E-003;3.107160096988082E-003;
2.415833333333334E+009;1.599052548408508E-001;-5.923184007406235E-002;2.310677897185087E-003;3.005811711773276E-003;
2.416000000000000E+009;1.587066799402237E-001;-6.082638353109360E-002;2.436083042994142E-003;2.869440009817481E-003;
2.416166666666667E+009;1.579354107379913E-001;-6.254131346940994E-002;2.416950417682529E-003;2.956488635390997E-003;
2.416333333333334E+009;1.568802148103714E-001;-6.445739418268204E-002;2.555711194872856E-003;2.818293869495392E-003;
2.416500000000000E+009;1.559253931045532E-001;-6.643737852573395E-002;2.701349323615432E-003;2.901125000789762E-003;
2.416666666666667E+009;1.549878418445587E-001;-6.824267655611038E-002;2.634231466799974E-003;2.613958902657032E-003;
2.416833333333334E+009;1.542006582021713E-001;-7.026283442974091E-002;2.785600023344159E-003;2.692552283406258E-003;
2.417000000000000E+009;1.532103568315506E-001;-7.227613031864166E-002;2.854490187019110E-003;2.603488042950630E-003;
2.417166666666667E+009;1.525322049856186E-001;-7.401382923126221E-002;2.999766496941447E-003;2.605708781629801E-003;
2.417333333333334E+009;1.519790142774582E-001;-7.601385563611984E-002;3.125684801489115E-003;2.621792256832123E-003;
2.417500000000000E+009;1.513199657201767E-001;-7.815980911254883E-002;3.133270191028714E-003;2.547379815950990E-003;
2.417666666666667E+009;1.509162038564682E-001;-7.994520664215088E-002;3.409225726500154E-003;2.565274015069008E-003;
2.417833333333334E+009;1.505077779293060E-001;-8.182578533887863E-002;3.396269632503390E-003;2.302154665812850E-003;
2.418000000000000E+009;1.499611437320709E-001;-8.376204967498779E-002;3.589635016396642E-003;2.366430591791868E-003;
2.418166666666667E+009;1.498001068830490E-001;-8.534458279609680E-002;3.766592592000961E-003;2.324511064216495E-003;
2.418333333333334E+009;1.498722285032272E-001;-8.717744797468185E-002;4.019673448055983E-003;2.128666732460260E-003;
2.418500000000000E+009;1.495451927185059E-001;-8.870964497327805E-002;4.099660087376833E-003;1.907892641611397E-003;
2.418666666666667E+009;1.496534496545792E-001;-9.026104211807251E-002;4.255906213074923E-003;1.921558636240661E-003;
2.418833333333334E+009;1.495713442564011E-001;-9.163031727075577E-002;4.424501676112413E-003;1.565517159178853E-003;
2.419000000000000E+009;1.494466364383698E-001;-9.293296188116074E-002;4.590108990669251E-003;1.383130555041134E-003;
2.419166666666667E+009;1.496961116790772E-001;-9.425566345453262E-002;4.732982721179724E-003;1.177466474473476E-003;
2.419333333333334E+009;1.497038006782532E-001;-9.513820707798004E-002;4.784292541444302E-003;9.965768549591303E-004;
2.419500000000000E+009;1.499259620904923E-001;-9.639235585927963E-002;4.912436008453369E-003;5.939651746302843E-004;
2.419666666666667E+009;1.503499448299408E-001;-9.731683135032654E-002;4.884657915681601E-003;5.333106964826584E-004;
2.419833333333334E+009;1.504265367984772E-001;-9.783939272165299E-002;4.808100406080484E-003;1.006752281682566E-004;
2.420000000000000E+009;1.508775651454926E-001;-9.864819794893265E-002;4.920301958918572E-003;-1.457851612940431E-004;
2.420166666666667E+009;1.511564701795578E-001;-9.939147531986237E-002;4.806964192539454E-003;-3.987736417911947E-004;
2.420333333333334E+009;1.515159308910370E-001;-9.983526915311813E-002;4.724372178316116E-003;-5.454318015836179E-004;
2.420500000000000E+009;1.517078280448914E-001;-9.998323768377304E-002;4.742474295198917E-003;-8.574028615839779E-004;
2.420666666666667E+009;1.519541293382645E-001;-1.002287268638611E-001;4.678705241531134E-003;-1.107337535358965E-003;
2.420833333333334E+009;1.524337083101273E-001;-1.003574356436729E-001;4.497813992202282E-003;-1.316809793934226E-003;
2.421000000000000E+009;1.525575816631317E-001;-1.005845069885254E-001;4.341945983469486E-003;-1.607479294762015E-003;
2.421166666666667E+009;1.528023183345795E-001;-1.006092503666878E-001;4.116346128284931E-003;-1.821168581955135E-003;
2.421333333333334E+009;1.531305760145187E-001;-1.004673242568970E-001;4.141360521316528E-003;-2.057771431282163E-003;
2.421500000000000E+009;1.531712263822556E-001;-1.002109423279762E-001;3.981430083513260E-003;-2.078498248010874E-003;
2.421666666666667E+009;1.531145721673966E-001;-1.002077236771584E-001;3.841920755803585E-003;-2.317841164767742E-003;
2.421833333333334E+009;1.530209481716156E-001;-9.995357692241669E-002;3.791248193010688E-003;-2.353606745600700E-003;
2.422000000000000E+009;1.528318524360657E-001;-9.973133355379105E-002;3.545648418366909E-003;-2.481693401932716E-003;
2.422166666666667E+009;1.526180356740952E-001;-9.970054030418396E-002;3.193951910361648E-003;-2.681832993403077E-003;
2.422333333333334E+009;1.523018330335617E-001;-9.909193962812424E-002;3.113380866125226E-003;-2.898432780057192E-003;
2.422500000000000E+009;1.517341881990433E-001;-9.872067719697952E-002;2.817142056301236E-003;-2.781298011541367E-003;
2.422666666666667E+009;1.512114554643631E-001;-9.846183657646179E-002;2.905336208641529E-003;-2.876911545172334E-003;
2.422833333333334E+009;1.504594683647156E-001;-9.812433272600174E-002;2.738379873335362E-003;-3.005411243066192E-003;
2.423000000000000E+009;1.495304852724075E-001;-9.787753969430924E-002;2.417330397292972E-003;-3.071574727073312E-003;
2.423166666666667E+009;1.486816406250000E-001;-9.749989956617355E-002;2.277854597195983E-003;-3.018706804141402E-003;
2.423333333333334E+009;1.475609391927719E-001;-9.689110517501831E-002;2.136465860530734E-003;-3.171283984556794E-003;
2.423500000000000E+009;1.465042084455490E-001;-9.667926281690598E-002;1.899141236208379E-003;-3.072623163461685E-003;
2.423666666666667E+009;1.452937573194504E-001;-9.633021056652069E-002;1.723252702504396E-003;-3.206175053492189E-003;
2.423833333333334E+009;1.441355794668198E-001;-9.605977684259415E-002;1.718126237392426E-003;-3.070881823077798E-003;
2.424000000000000E+009;1.426365077495575E-001;-9.581871330738068E-002;1.613809959962964E-003;-3.172876546159387E-003;
2.424166666666667E+009;1.412647813558579E-001;-9.553278237581253E-002;1.487579778768122E-003;-3.162536071613431E-003;
2.424333333333334E+009;1.399847269058228E-001;-9.543006867170334E-002;1.236347598023713E-003;-3.241145052015781E-003;
2.424500000000000E+009;1.384530663490295E-001;-9.549669921398163E-002;1.178474980406463E-003;-3.094459418207407E-003;
2.424666666666667E+009;1.370972096920013E-001;-9.537526220083237E-002;1.089992234483361E-003;-3.259597811847925E-003;
2.424833333333334E+009;1.354115456342697E-001;-9.553931653499603E-002;7.671781932003796E-004;-3.035768866539002E-003;
2.425000000000000E+009;1.339991539716721E-001;-9.600908309221268E-002;8.195575792342424E-004;-3.092668019235134E-003;
2.425166666666667E+009;1.323393136262894E-001;-9.635898470878601E-002;7.470922428183258E-004;-2.999737858772278E-003;
2.425333333333334E+009;1.308636963367462E-001;-9.682836383581162E-002;5.229082307778299E-004;-2.987936604768038E-003;
2.425500000000000E+009;1.295930743217468E-001;-9.752891212701798E-002;5.286281229928136E-004;-2.987685613334179E-003;
2.425666666666667E+009;1.279527544975281E-001;-9.836614131927490E-002;2.311072748852894E-004;-2.798347501084209E-003;
2.425833333333334E+009;1.265085041522980E-001;-9.921002388000488E-002;2.352641167817637E-004;-2.714985283091664E-003;
2.426000000000000E+009;1.250651031732559E-001;-1.002771630883217E-001;1.513769384473562E-004;-2.718545263633132E-003;
2.426166666666667E+009;1.239161789417267E-001;-1.013387665152550E-001;8.038724627112970E-005;-2.809892874211073E-003;
2.426333333333334E+009;1.224230006337166E-001;-1.026330515742302E-001;-2.700692857615650E-005;-2.626161091029644E-003;
2.426500000000000E+009;1.213116645812988E-001;-1.038456112146378E-001;-7.480524072889239E-005;-2.455268055200577E-003;
2.426666666666667E+009;1.202291548252106E-001;-1.052107661962509E-001;-2.409803892078344E-005;-2.505438635125756E-003;
2.426833333333334E+009;1.189228817820549E-001;-1.067358627915382E-001;1.648791294428520E-005;-2.463211538270116E-003;
2.427000000000000E+009;1.179549470543861E-001;-1.083710864186287E-001;-1.274283567909151E-004;-2.398117678239942E-003;
2.427166666666667E+009;1.169739589095116E-001;-1.098181679844856E-001;-1.517632626928389E-004;-2.317883074283600E-003;
2.427333333333334E+009;1.160577088594437E-001;-1.114699244499207E-001;-2.277642488479614E-004;-2.232506638392806E-003;
2.427500000000000E+009;1.152967140078545E-001;-1.133239567279816E-001;-2.552543301135302E-004;-2.165046287700534E-003;
2.427666666666667E+009;1.146404966711998E-001;-1.150973737239838E-001;-2.600796869955957E-004;-2.121711848303676E-003;
