# Version 1.00
#
freq[Hz];re:Trc1_S11;im:Trc1_S11;re:Trc2_S21;im:Trc2_S21;
2.400000000000000E+009;1.688531786203384E-001;4.546551033854485E-002;-4.181838594377041E-003;-7.310522254556418E-003;
2.400166666666667E+009;1.699485629796982E-001;4.451140016317368E-002;-4.444786347448826E-003;-7.182677742093802E-003;
2.400333333333334E+009;1.709158718585968E-001;4.332485049962997E-002;-4.790217150002718E-003;-7.088356651365757E-003;
2.400500000000000E+009;1.719760298728943E-001;4.227736964821816E-002;-5.009084474295378E-003;-6.905613467097282E-003;
2.400666666666667E+009;1.727768331766129E-001;4.143358021974564E-002;-5.226754117757082E-003;-6.704355590045452E-003;
2.400833333333334E+009;1.737176477909088E-001;4.063010960817337E-002;-5.635184701532126E-003;-6.662786472588778E-003;
2.401000000000000E+009;1.743856519460678E-001;3.994360566139221E-002;-5.978332366794348E-003;-6.537084467709065E-003;
2.401166666666667E+009;1.751782000064850E-001;3.898706287145615E-002;-6.519712507724762E-003;-6.283716298639774E-003;
2.401333333333334E+009;1.755485236644745E-001;3.832463547587395E-002;-6.622385699301958E-003;-6.142320111393929E-003;
2.401500000000000E+009;1.765423268079758E-001;3.766411170363426E-002;-6.805821787565947E-003;-5.834237206727266E-003;
2.401666666666667E+009;1.772417724132538E-001;3.712105751037598E-002;-7.175634615123272E-003;-5.518011283129454E-003;
2.401833333333334E+009;1.777032166719437E-001;3.649122267961502E-002;-7.579459343105555E-003;-5.225117783993483E-003;
2.402000000000000E+009;1.780436336994171E-001;3.604865446686745E-002;-7.722150534391403E-003;-5.110765341669321E-003;
2.402166666666667E+009;1.784260123968124E-001;3.523849323391914E-002;-8.129720576107502E-003;-4.685742314904928E-003;
2.402333333333334E+009;1.787047088146210E-001;3.469744324684143E-002;-8.464626967906952E-003;-4.289393313229084E-003;
2.402500000000000E+009;1.794495582580566E-001;3.419454395771027E-002;-8.805474266409874E-003;-4.067304078489542E-003;
2.402666666666667E+009;1.794619858264923E-001;3.352044895291328E-002;-8.919605985283852E-003;-3.529457142576575E-003;
2.402833333333334E+009;1.793120056390762E-001;3.293338790535927E-002;-9.180519729852676E-003;-3.075510030612350E-003;
2.403000000000000E+009;1.795281916856766E-001;3.227852657437325E-002;-9.161600843071938E-003;-2.691492671146989E-003;
2.403166666666667E+009;1.795587837696075E-001;3.151186928153038E-002;-9.493612684309483E-003;-2.394430106505752E-003;
2.403333333333334E+009;1.794258207082748E-001;3.072182647883892E-002;-9.617097675800324E-003;-1.839362201280892E-003;
2.403500000000000E+009;1.791885942220688E-001;2.979980967938900E-002;-9.755245409905911E-003;-1.283076009713113E-003;
2.403666666666667E+009;1.788786202669144E-001;2.873897738754749E-002;-9.862691164016724E-003;-8.124100859276950E-004;
2.403833333333334E+009;1.787201166152954E-001;2.797804959118366E-002;-9.818896651268005E-003;-3.337358939461410E-004;
2.404000000000000E+009;1.784136295318604E-001;2.688109688460827E-002;-9.936978109180927E-003;1.620651019038633E-004;
2.404166666666667E+009;1.780039072036743E-001;2.563447318971157E-002;-9.714233689010143E-003;8.273634011857212E-004;
2.404333333333334E+009;1.775923222303391E-001;2.455066330730915E-002;-9.608799591660500E-003;1.164665678516030E-003;
2.404500000000000E+009;1.769841164350510E-001;2.319972962141037E-002;-9.592268615961075E-003;1.755420933477581E-003;
2.404666666666667E+009;1.766899228096008E-001;2.199596911668778E-002;-9.358500130474567E-003;2.494530519470573E-003;
2.404833333333334E+009;1.759574413299561E-001;2.058456465601921E-002;-9.126920253038406E-003;2.627853536978364E-003;
2.405000000000000E+009;1.756044179201126E-001;1.914074644446373E-002;-8.849654346704483E-003;3.201727755367756E-003;
2.405166666666667E+009;1.752438992261887E-001;1.752126775681973E-002;-8.731807582080364E-003;3.703532274812460E-003;
2.405333333333334E+009;1.748165339231491E-001;1.600411534309387E-002;-8.285702206194401E-003;4.142709542065859E-003;
2.405500000000000E+009;1.743022650480270E-001;1.441779546439648E-002;-8.174550719559193E-003;4.370118491351605E-003;
2.405666666666667E+009;1.740379780530930E-001;1.268893573433161E-002;-7.628356106579304E-003;4.897546488791704E-003;
2.405833333333334E+009;1.735973358154297E-001;1.097133010625839E-002;-7.353058550506830E-003;5.240423604846001E-003;
2.406000000000000E+009;1.732888221740723E-001;8.995254524052143E-003;-6.853768136352301E-003;5.273014772683382E-003;
2.406166666666667E+009;1.730667948722839E-001;7.214179262518883E-003;-6.452628877013922E-003;5.613815039396286E-003;
2.406333333333334E+009;1.731250584125519E-001;5.359468981623650E-003;-6.160548888146877E-003;5.808725953102112E-003;
2.406500000000000E+009;1.727900654077530E-001;3.179267980158329E-003;-5.896350368857384E-003;5.944308359175921E-003;
2.406666666666667E+009;1.727167814970017E-001;1.115501625463367E-003;-5.391792859882116E-003;6.119619123637676E-003;
2.406833333333334E+009;1.728690415620804E-001;-8.711111149750650E-004;-5.094942636787891E-003;6.142809055745602E-003;
2.407000000000000E+009;1.730284094810486E-001;-3.056212328374386E-003;-4.571406170725822E-003;6.349346600472927E-003;
2.407166666666667E+009;1.731023043394089E-001;-5.112235900014639E-003;-4.466756246984005E-003;6.351147778332233E-003;
2.407333333333334E+009;1.731937527656555E-001;-7.332825101912022E-003;-4.006772302091122E-003;6.225625984370709E-003;
2.407500000000000E+009;1.734286546707153E-001;-9.487340226769447E-003;-3.460519714280963E-003;6.500594317913055E-003;
2.407666666666667E+009;1.736039817333221E-001;-1.150298677384853E-002;-3.163044573739171E-003;6.322722882032394E-003;
2.407833333333334E+009;1.739491820335388E-001;-1.370744500309229E-002;-2.808735007420182E-003;6.222298368811607E-003;
2.408000000000000E+009;1.743272095918655E-001;-1.589341275393963E-002;-2.563638612627983E-003;6.187994033098221E-003;
2.408166666666667E+009;1.746919006109238E-001;-1.781841553747654E-002;-2.389536006376147E-003;6.334077566862106E-003;
2.408333333333334E+009;1.752217262983322E-001;-1.987703889608383E-002;-2.007234375923872E-003;6.077092606574297E-003;
2.408500000000000E+009;1.755958497524262E-001;-2.191113494336605E-002;-1.886404934339225E-003;6.185789592564106E-003;
2.408666666666667E+009;1.757464110851288E-001;-2.383296936750412E-002;-1.587747130542994E-003;5.956388544291258E-003;
2.408833333333334E+009;1.760512590408325E-001;-2.559461072087288E-002;-1.381123671308160E-003;5.875272210687399E-003;
2.409000000000000E+009;1.763880550861359E-001;-2.717624977231026E-002;-1.029732404276729E-003;5.868068896234036E-003;
2.409166666666667E+009;1.769606620073319E-001;-2.870433218777180E-002;-9.695099433884025E-004;5.953658837825060E-003;
2.409333333333334E+009;1.773624867200851E-001;-3.034089878201485E-002;-6.575860315933824E-004;5.664854776114225E-003;
2.409500000000000E+009;1.776319295167923E-001;-3.182922676205635E-002;-6.131308618932962E-004;5.626873578876257E-003;
2.409666666666667E+009;1.779575943946838E-001;-3.293118625879288E-002;-3.638125490397215E-004;5.497019272297621E-003;
2.409833333333334E+009;1.783999949693680E-001;-3.382720798254013E-002;-2.872274490073323E-004;5.391515791416168E-003;
2.410000000000000E+009;1.790192872285843E-001;-3.488929942250252E-002;-6.139282049844042E-005;5.358553957194090E-003;
2.410166666666667E+009;1.793399006128311E-001;-3.586380928754807E-002;2.067409659503028E-004;5.215926095843315E-003;
2.410333333333334E+009;1.797721534967423E-001;-3.667164593935013E-002;2.033319906331599E-004;5.087575875222683E-003;
2.410500000000000E+009;1.803556382656097E-001;-3.740179538726807E-002;3.403182199690491E-004;4.954790230840445E-003;
2.410666666666667E+009;1.805494129657745E-001;-3.818956762552261E-002;5.294274888001382E-004;4.972859751433134E-003;
2.410833333333334E+009;1.809704899787903E-001;-3.879208490252495E-002;6.289678858593106E-004;4.713609348982573E-003;
2.411000000000000E+009;1.811379045248032E-001;-3.942162543535233E-002;8.251029648818076E-004;4.624356515705586E-003;
2.411166666666667E+009;1.815630644559860E-001;-3.988512232899666E-002;8.175704861059785E-004;4.506699275225401E-003;
2.411333333333334E+009;1.815534830093384E-001;-4.035826772451401E-002;7.655062945559621E-004;4.424774087965488E-003;
2.411500000000000E+009;1.815817207098007E-001;-4.090206325054169E-002;1.053200685419142E-003;4.140785429626703E-003;
2.411666666666667E+009;1.819036453962326E-001;-4.132720455527306E-002;1.021787058562040E-003;4.043634980916977E-003;
2.411833333333334E+009;1.816535294055939E-001;-4.154393449425697E-002;1.062299939803779E-003;4.081412684172392E-003;
2.412000000000000E+009;1.816816478967667E-001;-4.207355901598930E-002;1.083213137462735E-003;3.864012658596039E-003;
2.412166666666667E+009;1.810858994722366E-001;-4.254684597253799E-002;1.226071850396693E-003;3.811941249296069E-003;
2.412333333333334E+009;1.809571832418442E-001;-4.265996813774109E-002;1.100681256502867E-003;3.721586428582668E-003;
2.412500000000000E+009;1.803623735904694E-001;-4.285882785916328E-002;1.294766319915652E-003;3.587221959605813E-003;
2.412666666666667E+009;1.800941526889801E-001;-4.351330548524857E-002;1.221198588609695E-003;3.623563330620527E-003;
2.412833333333334E+009;1.792772412300110E-001;-4.375039786100388E-002;1.206567278131843E-003;3.390308236703277E-003;
2.413000000000000E+009;1.783205419778824E-001;-4.416647925972939E-002;1.244406448677182E-003;3.475708654150367E-003;
2.413166666666667E+009;1.776893138885498E-001;-4.449431970715523E-002;1.239249948412180E-003;3.374849446117878E-003;
2.413333333333334E+009;1.767364740371704E-001;-4.513659328222275E-002;1.307641738094389E-003;3.235178068280220E-003;
2.413500000000000E+009;1.758333295583725E-001;-4.552461951971054E-002;1.101750996895134E-003;3.230235073715448E-003;
2.413666666666667E+009;1.748770624399185E-001;-4.613929614424706E-002;1.254100468941033E-003;3.191125346347690E-003;
2.413833333333334E+009;1.737675666809082E-001;-4.658503830432892E-002;1.163766486570239E-003;3.229904687032104E-003;
2.414000000000000E+009;1.726369559764862E-001;-4.736624285578728E-002;1.178452279418707E-003;3.122840542346239E-003;
2.414166666666667E+009;1.714759021997452E-001;-4.801979660987854E-002;1.051664352416992E-003;3.129686228930950E-003;
2.414333333333334E+009;1.704177856445313E-001;-4.890113696455956E-002;1.118029234930873E-003;3.177381353452802E-003;
2.414500000000000E+009;1.692937165498734E-001;-4.957804456353188E-002;1.148237381130457E-003;3.281024517491460E-003;
2.414666666666667E+009;1.680476516485214E-001;-5.043945088982582E-002;1.071634120307863E-003;3.243606071919203E-003;
2.414833333333334E+009;1.668558418750763E-001;-5.152736231684685E-002;9.617240284569562E-004;3.193794516846538E-003;
2.415000000000000E+009;1.656213104724884E-001;-5.263652279973030E-002;1.269418979063630E-003;3.413100494071841E-003;
2.415166666666667E+009;1.644176989793778E-001;-5.389977619051933E-002;1.263485872186720E-003;3.378340275958180E-003;
2.415333333333334E+009;1.633388251066208E-001;-5.520769581198692E-002;1.137589802965522E-003;3.446399001404643E-003;
2.415500000000000E+009;1.622240841388702E-001;-5.657026171684265E-002;1.218836638145149E-003;3.372399834915996E-003;
2.415666666666667E+009;1.610006839036942E-001;-5.794828012585640E-002;1.373103936202824E-003;3.562412224709988E-003;
2.415833333333334E+009;1.599589139223099E-001;-5.970834568142891E-002;1.342560863122344E-003;3.621880197897553E-003;
2.416000000000000E+009;1.587671041488648E-001;-6.132055819034576E-002;1.447168295271695E-003;3.628165926784277E-003;
2.416166666666667E+009;1.580064147710800E-001;-6.304416060447693E-002;1.576373935677111E-003;3.777989884838462E-003;
2.416333333333334E+009;1.569407284259796E-001;-6.477563828229904E-002;1.499466365203261E-003;3.927272744476795E-003;
2.416500000000000E+009;1.559850573539734E-001;-6.656858325004578E-002;1.798516605049372E-003;3.886723192408681E-003;
2.416666666666667E+009;1.550642400979996E-001;-6.846343725919724E-002;1.770852715708315E-003;3.987492062151432E-003;
2.416833333333334E+009;1.543088108301163E-001;-7.047484070062637E-002;1.858805422671139E-003;3.896474838256836E-003;
2.417000000000000E+009;1.533972620964050E-001;-7.244174182415009E-002;2.057180507108569E-003;3.840733086690307E-003;
2.417166666666667E+009;1.527437716722488E-001;-7.416414469480515E-002;2.240584231913090E-003;4.067676607519388E-003;
2.417333333333334E+009;1.521407216787338E-001;-7.613452523946762E-002;2.291068434715271E-003;3.949305973947048E-003;
2.417500000000000E+009;1.513858437538147E-001;-7.807879149913788E-002;2.635659649968147E-003;4.007229581475258E-003;
2.417666666666667E+009;1.510033309459686E-001;-7.989145070314407E-002;2.746708225458860E-003;3.962770104408264E-003;
2.417833333333334E+009;1.506301611661911E-001;-8.175224065780640E-002;2.971271285787225E-003;3.991801757365465E-003;
2.418000000000000E+009;1.501387953758240E-001;-8.376510441303253E-002;3.153517143800855E-003;4.049276001751423E-003;
2.418166666666667E+009;1.498436331748962E-001;-8.534558117389679E-002;3.281266428530216E-003;3.955002408474684E-003;
2.418333333333334E+009;1.497928202152252E-001;-8.698948472738266E-002;3.597164060920477E-003;4.101217724382877E-003;
2.418500000000000E+009;1.494851112365723E-001;-8.866854012012482E-002;3.888034261763096E-003;3.869633423164487E-003;
2.418666666666667E+009;1.494757682085037E-001;-9.030355513095856E-002;4.039697814732790E-003;3.713245736435056E-003;
2.418833333333334E+009;1.492855995893478E-001;-9.163931757211685E-002;4.234163090586662E-003;3.532802453264594E-003;
2.419000000000000E+009;1.491507589817047E-001;-9.297298640012741E-002;4.386553075164557E-003;3.601144300773740E-003;
2.419166666666667E+009;1.493408232927322E-001;-9.415620565414429E-002;4.701082129031420E-003;3.290341235697269E-003;
2.419333333333334E+009;1.493635624647141E-001;-9.503014385700226E-002;4.789850208908320E-003;3.085925243794918E-003;
2.419500000000000E+009;1.495776474475861E-001;-9.633085131645203E-002;4.879014566540718E-003;2.881411695852876E-003;
2.419666666666667E+009;1.499059349298477E-001;-9.730053693056107E-002;5.165789276361466E-003;2.756280824542046E-003;
2.419833333333334E+009;1.499492526054382E-001;-9.782455116510391E-002;5.190595984458923E-003;2.573682460933924E-003;
2.420000000000000E+009;1.502348780632019E-001;-9.836786985397339E-002;5.360908806324005E-003;2.463228069245815E-003;
2.420166666666667E+009;1.503974497318268E-001;-9.918554872274399E-002;5.421050824224949E-003;2.153004752472043E-003;
2.420333333333334E+009;1.506962925195694E-001;-9.957226365804672E-002;5.519611760973930E-003;1.996778417378664E-003;
2.420500000000000E+009;1.511259675025940E-001;-9.984292089939117E-002;5.756725091487169E-003;1.820320496335626E-003;
2.420666666666667E+009;1.512376666069031E-001;-1.000583395361900E-001;5.750602111220360E-003;1.815437688492239E-003;
2.420833333333334E+009;1.517447084188461E-001;-1.002423986792564E-001;5.794910248368979E-003;1.504421699792147E-003;
2.421000000000000E+009;1.517941206693649E-001;-1.003592759370804E-001;5.949242506176233E-003;1.271408749744296E-003;
2.421166666666667E+009;1.520033031702042E-001;-1.004382893443108E-001;5.972248036414385E-003;1.201581093482673E-003;
2.421333333333334E+009;1.522407382726669E-001;-1.004270538687706E-001;6.141935475170612E-003;1.055030268616974E-003;
2.421500000000000E+009;1.520898789167404E-001;-1.001387089490891E-001;6.132474169135094E-003;7.980429218150675E-004;
2.421666666666667E+009;1.522349268198013E-001;-1.001036465167999E-001;6.398227065801621E-003;5.777574842795730E-004;
2.421833333333334E+009;1.522666960954666E-001;-9.987396746873856E-002;6.486416794359684E-003;5.482197157107294E-004;
2.422000000000000E+009;1.519251465797424E-001;-9.959879517555237E-002;6.594815291464329E-003;8.353805606020615E-005;
2.422166666666667E+009;1.517644375562668E-001;-9.975340962409973E-002;6.765076424926519E-003;-1.181205443572253E-004;
2.422333333333334E+009;1.513885259628296E-001;-9.927035868167877E-002;6.874195765703917E-003;-4.722044104710221E-004;
2.422500000000000E+009;1.508905589580536E-001;-9.882733225822449E-002;6.976851262152195E-003;-6.976751028560102E-004;
2.422666666666667E+009;1.502057462930679E-001;-9.872956573963165E-002;6.971367634832859E-003;-1.208805828355253E-003;
2.422833333333334E+009;1.496303379535675E-001;-9.837742149829865E-002;6.885397713631392E-003;-1.477194717153907E-003;
2.423000000000000E+009;1.487264037132263E-001;-9.791508316993713E-002;7.007889449596405E-003;-1.794773736037314E-003;
2.423166666666667E+009;1.480278372764587E-001;-9.763921052217484E-002;6.880287546664476E-003;-2.239248948171735E-003;
2.423333333333334E+009;1.470005065202713E-001;-9.712462872266769E-002;6.791478022933006E-003;-2.554401056841016E-003;
2.423500000000000E+009;1.459902226924896E-001;-9.694853425025940E-002;6.713097915053368E-003;-2.965128282085061E-003;
2.423666666666667E+009;1.445310264825821E-001;-9.671811014413834E-002;6.698551587760449E-003;-3.300523851066828E-003;
2.423833333333334E+009;1.436597257852554E-001;-9.634529799222946E-002;6.414220668375492E-003;-3.728371812030673E-003;
2.424000000000000E+009;1.422170400619507E-001;-9.597615152597427E-002;6.222428288310766E-003;-3.964107017964125E-003;
2.424166666666667E+009;1.409583240747452E-001;-9.602773189544678E-002;5.948071833699942E-003;-4.338569007813931E-003;
2.424333333333334E+009;1.395448893308640E-001;-9.573018550872803E-002;5.716736894100905E-003;-4.686941392719746E-003;
2.424500000000000E+009;1.381107866764069E-001;-9.588082879781723E-002;5.358587019145489E-003;-4.972991533577442E-003;
2.424666666666667E+009;1.369173675775528E-001;-9.582880139350891E-002;5.152789875864983E-003;-5.085852928459644E-003;
2.424833333333334E+009;1.352707594633102E-001;-9.608374536037445E-002;4.968217574059963E-003;-5.252602044492960E-003;
2.425000000000000E+009;1.340789049863815E-001;-9.646192193031311E-002;4.438059870153666E-003;-5.468777846544981E-003;
2.425166666666667E+009;1.323204934597015E-001;-9.679100662469864E-002;4.170950502157211E-003;-5.555943120270968E-003;
2.425333333333334E+009;1.310908794403076E-001;-9.730889648199081E-002;3.887209575623274E-003;-5.693358834832907E-003;
2.425500000000000E+009;1.297336965799332E-001;-9.799467027187347E-002;3.380666486918926E-003;-5.721440073102713E-003;
2.425666666666667E+009;1.281378716230393E-001;-9.875220060348511E-002;3.140713786706328E-003;-5.857450421899557E-003;
2.425833333333334E+009;1.267056763172150E-001;-9.966577589511871E-002;2.965087769553065E-003;-5.803943146020174E-003;
2.426000000000000E+009;1.254302859306335E-001;-1.006860882043839E-001;2.578014042228460E-003;-5.683411378413439E-003;
2.426166666666667E+009;1.242883428931236E-001;-1.017910614609718E-001;2.267661737278104E-003;-5.749389529228210E-003;
2.426333333333334E+009;1.227597147226334E-001;-1.030424237251282E-001;2.017844235524535E-003;-5.679178051650524E-003;
2.426500000000000E+009;1.216175332665443E-001;-1.042503491044045E-001;1.787915010936558E-003;-5.579879973083735E-003;
2.426666666666667E+009;1.206133812665939E-001;-1.055076196789742E-001;1.635752967558801E-003;-5.564260296523571E-003;
2.426833333333334E+009;1.192629858851433E-001;-1.070496141910553E-001;1.477638492360711E-003;-5.367415957152844E-003;
2.427000000000000E+009;1.182322427630425E-001;-1.087019890546799E-001;1.165682799182832E-003;-5.261773243546486E-003;
2.427166666666667E+009;1.172715723514557E-001;-1.101146340370178E-001;1.120198634453118E-003;-5.357344634830952E-003;
2.427333333333334E+009;1.164290159940720E-001;-1.118312329053879E-001;1.046076300553978E-003;-5.168279632925987E-003;
2.427500000000000E+009;1.156353279948235E-001;-1.134652420878410E-001;1.087652402929962E-003;-5.054900422692299E-003;
2.427666666666667E+009;1.149514466524124E-001;-1.152882725000382E-001;7.909034029580653E-004;-4.959912039339542E-003;
2.427833333333334E+009;1.142494156956673E-001;-1.170220077037811E-001;7.470492273569107E-004;-4.922879394143820E-003;
