# Version 1.00
#
freq[Hz];re:Trc1_S11;im:Trc1_S11;re:Trc2_S21;im:Trc2_S21;
2.400000000000000E+009;1.689606606960297E-001;4.547440633177757E-002;-4.156267736107111E-003;-7.172406185418367E-003;
2.400166666666667E+009;1.698967516422272E-001;4.436153918504715E-002;-4.454288631677628E-003;-7.092693820595741E-003;
2.400333333333334E+009;1.709140241146088E-001;4.333603382110596E-002;-4.713360685855150E-003;-7.057869806885719E-003;
2.400500000000000E+009;1.717132180929184E-001;4.232225567102432E-002;-5.007649306207895E-003;-7.018839009106159E-003;
2.400666666666667E+009;1.726316511631012E-001;4.134140908718109E-002;-5.290125962346792E-003;-6.785415112972260E-003;
2.400833333333334E+009;1.736230403184891E-001;4.058234393596649E-002;-5.560690071433783E-003;-6.697557866573334E-003;
2.401000000000000E+009;1.742383837699890E-001;3.961664438247681E-002;-6.056268699467182E-003;-6.403925828635693E-003;
2.401166666666667E+009;1.752889007329941E-001;3.890818357467651E-002;-6.308725103735924E-003;-6.313494872301817E-003;
2.401333333333334E+009;1.758362948894501E-001;3.830173611640930E-002;-6.533459294587374E-003;-6.202522665262222E-003;
2.401500000000000E+009;1.766929775476456E-001;3.781852498650551E-002;-6.982560269534588E-003;-5.873485933989286E-003;
2.401666666666667E+009;1.772316545248032E-001;3.720081225037575E-002;-7.145695853978396E-003;-5.643408279865980E-003;
2.401833333333334E+009;1.774679422378540E-001;3.648915514349937E-002;-7.594787515699863E-003;-5.382343195378780E-003;
2.402000000000000E+009;1.778499931097031E-001;3.606545552611351E-002;-7.897749543190002E-003;-5.094053689390421E-003;
2.402166666666667E+009;1.783794015645981E-001;3.526524826884270E-002;-8.185669779777527E-003;-4.696302115917206E-003;
2.402333333333334E+009;1.787907928228378E-001;3.476777300238609E-002;-8.395532146096230E-003;-4.235450644046068E-003;
2.402500000000000E+009;1.791149973869324E-001;3.401418775320053E-002;-8.668907918035984E-003;-3.963414113968611E-003;
2.402666666666667E+009;1.792801022529602E-001;3.362128511071205E-002;-8.890370838344097E-003;-3.677658736705780E-003;
2.402833333333334E+009;1.792267113924027E-001;3.293242678046227E-002;-9.156664833426476E-003;-3.269478678703308E-003;
2.403000000000000E+009;1.793690621852875E-001;3.228381648659706E-002;-9.281253442168236E-003;-2.656402299180627E-003;
2.403166666666667E+009;1.792691051959992E-001;3.153720125555992E-002;-9.526696056127548E-003;-2.344953129068017E-003;
2.403333333333334E+009;1.792172193527222E-001;3.104444965720177E-002;-9.609428234398365E-003;-1.756278681568801E-003;
2.403500000000000E+009;1.789652109146118E-001;2.992858551442623E-002;-9.726841934025288E-003;-1.272147055715323E-003;
2.403666666666667E+009;1.789060831069946E-001;2.900111675262451E-002;-9.773855097591877E-003;-7.864778744988143E-004;
2.403833333333334E+009;1.786495149135590E-001;2.803511172533035E-002;-9.712216444313526E-003;-2.370474539930001E-004;
2.404000000000000E+009;1.783947646617889E-001;2.710279636085033E-002;-9.784338064491749E-003;8.810334838926792E-005;
2.404166666666667E+009;1.778271794319153E-001;2.576408535242081E-002;-9.755940176546574E-003;6.912159151397646E-004;
2.404333333333334E+009;1.774212568998337E-001;2.467702329158783E-002;-9.550951421260834E-003;1.376166590489447E-003;
2.404500000000000E+009;1.769150346517563E-001;2.329285256564617E-002;-9.581102989614010E-003;1.754875294864178E-003;
2.404666666666667E+009;1.766632348299027E-001;2.203139103949070E-002;-9.472337551414967E-003;2.369734691455960E-003;
2.404833333333334E+009;1.760081648826599E-001;2.071621827781200E-002;-9.168097749352455E-003;2.642855746671557E-003;
2.405000000000000E+009;1.755885481834412E-001;1.916303299367428E-002;-8.977598510682583E-003;3.238518256694078E-003;
2.405166666666667E+009;1.751856803894043E-001;1.778460107743740E-002;-8.855780586600304E-003;3.540897974744439E-003;
2.405333333333334E+009;1.748666465282440E-001;1.598411425948143E-002;-8.471963927149773E-003;3.979170694947243E-003;
2.405500000000000E+009;1.744626611471176E-001;1.448392309248447E-002;-7.941117510199547E-003;4.468279425054789E-003;
2.405666666666667E+009;1.741268932819367E-001;1.269187685102224E-002;-7.873872295022011E-003;4.864353220909834E-003;
2.405833333333334E+009;1.735979169607163E-001;1.115573104470968E-002;-7.354719098657370E-003;4.975635092705488E-003;
2.406000000000000E+009;1.733921766281128E-001;8.966958150267601E-003;-6.988999433815479E-003;5.040169227868319E-003;
2.406166666666667E+009;1.729501485824585E-001;7.349183317273855E-003;-6.644474808126688E-003;5.571937654167414E-003;
2.406333333333334E+009;1.732103377580643E-001;5.207928363233805E-003;-6.291644182056189E-003;5.642319098114967E-003;
2.406500000000000E+009;1.728790849447250E-001;3.217278979718685E-003;-5.873768124729395E-003;5.932538770139217E-003;
2.406666666666667E+009;1.727419346570969E-001;1.240576268173754E-003;-5.376382730901241E-003;5.985802970826626E-003;
2.406833333333334E+009;1.728818714618683E-001;-9.040377917699516E-004;-5.070000886917114E-003;6.332918535917997E-003;
2.407000000000000E+009;1.729051470756531E-001;-2.994230482727289E-003;-4.710734821856022E-003;6.221288815140724E-003;
2.407166666666667E+009;1.732410490512848E-001;-5.022045690566301E-003;-4.182790406048298E-003;6.196902133524418E-003;
2.407333333333334E+009;1.731838285923004E-001;-7.269081193953753E-003;-3.875979222357273E-003;6.241247523576021E-003;
2.407500000000000E+009;1.733684986829758E-001;-9.426267817616463E-003;-3.623852273449302E-003;6.373503245413303E-003;
2.407666666666667E+009;1.737483143806458E-001;-1.152998022735119E-002;-3.220080165192485E-003;6.236993707716465E-003;
2.407833333333334E+009;1.738214045763016E-001;-1.367218606173992E-002;-2.948487410321832E-003;6.335178855806589E-003;
2.408000000000000E+009;1.742483824491501E-001;-1.587800495326519E-002;-2.568123629316688E-003;6.175034213811159E-003;
2.408166666666667E+009;1.747155487537384E-001;-1.766060292720795E-002;-2.358844038099051E-003;6.334963254630566E-003;
2.408333333333334E+009;1.751300692558289E-001;-1.980402320623398E-002;-2.134182723239064E-003;6.090062670409679E-003;
2.408500000000000E+009;1.754872053861618E-001;-2.182903327047825E-002;-1.833546557463706E-003;5.898662377148867E-003;
2.408666666666667E+009;1.757522672414780E-001;-2.378390170633793E-002;-1.528972759842873E-003;5.876377224922180E-003;
2.408833333333334E+009;1.760272532701492E-001;-2.553654462099075E-002;-1.361880335025489E-003;5.935790482908487E-003;
2.409000000000000E+009;1.763613522052765E-001;-2.729526720941067E-002;-1.230527646839619E-003;5.849882960319519E-003;
2.409166666666667E+009;1.767787486314774E-001;-2.882774919271469E-002;-9.247793932445347E-004;5.677910055965185E-003;
2.409333333333334E+009;1.772365123033524E-001;-3.028576448559761E-002;-7.971194572746754E-004;5.647153593599796E-003;
2.409500000000000E+009;1.775548607110977E-001;-3.163054585456848E-002;-5.556744872592390E-004;5.625645630061626E-003;
2.409666666666667E+009;1.779719740152359E-001;-3.271913900971413E-002;-4.295525141060352E-004;5.438599269837141E-003;
2.409833333333334E+009;1.782690733671188E-001;-3.395636379718781E-002;-1.906812540255487E-004;5.394200794398785E-003;
2.410000000000000E+009;1.789291501045227E-001;-3.478125855326653E-002;-4.602384797181003E-005;5.302770994603634E-003;
2.410166666666667E+009;1.794879287481308E-001;-3.565745800733566E-002;9.244090324500576E-005;5.133458413183689E-003;
2.410333333333334E+009;1.798687726259232E-001;-3.646032512187958E-002;2.337132173124701E-004;5.147913470864296E-003;
2.410500000000000E+009;1.802971512079239E-001;-3.733294829726219E-002;3.888120700139552E-004;4.877489060163498E-003;
2.410666666666667E+009;1.805500388145447E-001;-3.824250027537346E-002;4.177115915808827E-004;4.793955478817225E-003;
2.410833333333334E+009;1.811023801565170E-001;-3.877173364162445E-002;5.646909703500569E-004;4.667718429118395E-003;
2.411000000000000E+009;1.812230944633484E-001;-3.927547857165337E-002;7.381521281786263E-004;4.504317883402109E-003;
2.411166666666667E+009;1.814677417278290E-001;-3.989072889089584E-002;8.566135657019913E-004;4.442205186933279E-003;
2.411333333333334E+009;1.816504001617432E-001;-4.027649760246277E-002;8.614682592451572E-004;4.433654248714447E-003;
2.411500000000000E+009;1.816698461771011E-001;-4.073533415794373E-002;9.858246194198728E-004;4.200815688818693E-003;
2.411666666666667E+009;1.818247288465500E-001;-4.129342734813690E-002;1.016158261336386E-003;4.026148468255997E-003;
2.411833333333334E+009;1.816969513893127E-001;-4.150524362921715E-002;1.071145059540868E-003;4.010249860584736E-003;
2.412000000000000E+009;1.816410720348358E-001;-4.195113107562065E-002;1.130759599618614E-003;3.975301049649715E-003;
2.412166666666667E+009;1.812899708747864E-001;-4.228756576776505E-002;1.059628673829138E-003;3.809825284406543E-003;
2.412333333333334E+009;1.808721274137497E-001;-4.268550127744675E-002;1.188820926472545E-003;3.653468098491430E-003;
2.412500000000000E+009;1.803494542837143E-001;-4.309675842523575E-002;1.093920087441802E-003;3.611412830650806E-003;
2.412666666666667E+009;1.800226867198944E-001;-4.348652064800263E-002;1.019444316625595E-003;3.591707209125161E-003;
2.412833333333334E+009;1.795495897531509E-001;-4.375489801168442E-002;1.253425027243793E-003;3.509243251755834E-003;
2.413000000000000E+009;1.785280555486679E-001;-4.415313526988030E-002;1.099356217309833E-003;3.370719728991389E-003;
2.413166666666667E+009;1.777032613754273E-001;-4.453211277723312E-002;1.226529362611473E-003;3.310193773359060E-003;
2.413333333333334E+009;1.767684370279312E-001;-4.491356760263443E-002;1.158864703029394E-003;3.371487604454160E-003;
2.413500000000000E+009;1.758466958999634E-001;-4.563107341527939E-002;1.092889695428312E-003;3.247083863243461E-003;
2.413666666666667E+009;1.748964637517929E-001;-4.615490511059761E-002;1.117859268561006E-003;3.197361482307315E-003;
2.413833333333334E+009;1.737728267908096E-001;-4.650942236185074E-002;1.227819477207959E-003;3.167059738188982E-003;
2.414000000000000E+009;1.725440323352814E-001;-4.739809781312943E-002;1.089100725948811E-003;3.210615599527955E-003;
2.414166666666667E+009;1.716386526823044E-001;-4.799129813909531E-002;1.002960605546832E-003;3.164866706356406E-003;
2.414333333333334E+009;1.703620553016663E-001;-4.878402873873711E-002;9.406506433151662E-004;3.174748970195651E-003;
2.414500000000000E+009;1.694085747003555E-001;-4.958662763237953E-002;1.087538665160537E-003;3.376136999577284E-003;
2.414666666666667E+009;1.681018173694611E-001;-5.058177560567856E-002;1.098598353564739E-003;3.057493828237057E-003;
2.414833333333334E+009;1.667806357145309E-001;-5.179077014327049E-002;1.045544049702585E-003;3.315459005534649E-003;
2.415000000000000E+009;1.655542701482773E-001;-5.263595283031464E-002;9.845348540693522E-004;3.444889560341835E-003;
2.415166666666667E+009;1.645042449235916E-001;-5.387393385171890E-002;1.095541752874851E-003;3.434919053688645E-003;
2.415333333333334E+009;1.633592993021011E-001;-5.533370748162270E-002;1.224618288688362E-003;3.486079396679997E-003;
2.415500000000000E+009;1.621286869049072E-001;-5.672060698270798E-002;1.247787266038358E-003;3.467355854809284E-003;
2.415666666666667E+009;1.611013710498810E-001;-5.814602226018906E-002;1.254228875041008E-003;3.735521342605352E-003;
2.415833333333334E+009;1.600595414638519E-001;-5.969205126166344E-002;1.265173079445958E-003;3.752238582819700E-003;
2.416000000000000E+009;1.589298546314240E-001;-6.140803918242455E-002;1.345301745459437E-003;3.764240769669414E-003;
2.416166666666667E+009;1.580629497766495E-001;-6.301378458738327E-002;1.605739584192634E-003;3.878126852214336E-003;
2.416333333333334E+009;1.569762378931046E-001;-6.475079804658890E-002;1.497757155448198E-003;3.935113549232483E-003;
2.416500000000000E+009;1.560390740633011E-001;-6.667759269475937E-002;1.814505551010370E-003;3.969625569880009E-003;
2.416666666666667E+009;1.550205349922180E-001;-6.851909309625626E-002;1.854624599218369E-003;4.092591349035502E-003;
2.416833333333334E+009;1.543767750263214E-001;-7.065214961767197E-002;2.005194546654820E-003;3.960905130952597E-003;
2.417000000000000E+009;1.533549427986145E-001;-7.249918580055237E-002;2.128872554749250E-003;4.037891980260611E-003;
2.417166666666667E+009;1.526625007390976E-001;-7.425905764102936E-002;2.387873595580459E-003;3.898107446730137E-003;
2.417333333333334E+009;1.521006673574448E-001;-7.625057548284531E-002;2.563424641266465E-003;4.011008422821760E-003;
2.417500000000000E+009;1.513370126485825E-001;-7.827137410640717E-002;2.736094407737255E-003;4.135497845709324E-003;
2.417666666666667E+009;1.510365903377533E-001;-8.003251999616623E-002;2.802892820909619E-003;4.229458048939705E-003;
2.417833333333334E+009;1.505018025636673E-001;-8.188082277774811E-002;3.085738513618708E-003;4.013646394014359E-003;
2.418000000000000E+009;1.500327438116074E-001;-8.377197384834290E-002;3.284958656877279E-003;4.044802393764257E-003;
2.418166666666667E+009;1.496426761150360E-001;-8.524914830923080E-002;3.487233072519302E-003;4.058642312884331E-003;
2.418333333333334E+009;1.497546583414078E-001;-8.705765008926392E-002;3.599142655730248E-003;4.063867963850498E-003;
2.418500000000000E+009;1.494194716215134E-001;-8.869989216327667E-002;3.838059492409229E-003;3.707006806507707E-003;
2.418666666666667E+009;1.493934988975525E-001;-9.017923474311829E-002;4.015687387436628E-003;3.730281488969922E-003;
2.418833333333334E+009;1.492841839790344E-001;-9.164337068796158E-002;4.546037875115871E-003;3.599108196794987E-003;
2.419000000000000E+009;1.491007655858994E-001;-9.282862395048142E-002;4.536862950772047E-003;3.276714822277427E-003;
2.419166666666667E+009;1.492747813463211E-001;-9.407609701156616E-002;4.534201230853796E-003;3.296662820503116E-003;
2.419333333333334E+009;1.492127776145935E-001;-9.504100680351257E-002;4.989519249647856E-003;3.060305258259177E-003;
2.419500000000000E+009;1.494502872228622E-001;-9.625571966171265E-002;4.920152947306633E-003;2.864185487851501E-003;
2.419666666666667E+009;1.497360765933991E-001;-9.716392308473587E-002;5.136892665177584E-003;2.682280726730824E-003;
2.419833333333334E+009;1.497081220149994E-001;-9.771461039781570E-002;5.247383844107390E-003;2.547332085669041E-003;
2.420000000000000E+009;1.501040011644363E-001;-9.852422773838043E-002;5.373824387788773E-003;2.508671022951603E-003;
2.420166666666667E+009;1.504017114639282E-001;-9.908153116703033E-002;5.563921295106411E-003;2.122718375176191E-003;
2.420333333333334E+009;1.507116258144379E-001;-9.959198534488678E-002;5.533596035093069E-003;1.919505069963634E-003;
2.420500000000000E+009;1.509976536035538E-001;-9.986135363578796E-002;5.705120973289013E-003;1.950125093571842E-003;
2.420666666666667E+009;1.513290405273438E-001;-1.000554710626602E-001;5.866560153663158E-003;1.590787083841860E-003;
2.420833333333334E+009;1.517083793878555E-001;-1.002502664923668E-001;5.988484248518944E-003;1.555275986902416E-003;
2.421000000000000E+009;1.516773998737335E-001;-1.003551036119461E-001;6.118653807789087E-003;1.393902930431068E-003;
2.421166666666667E+009;1.518898159265518E-001;-1.004446446895599E-001;6.072838790714741E-003;1.145519781857729E-003;
2.421333333333334E+009;1.522518247365952E-001;-1.003855466842651E-001;6.064380984753370E-003;8.833435131236911E-004;
2.421500000000000E+009;1.521049588918686E-001;-1.002053245902062E-001;6.203299853950739E-003;6.239237845875323E-004;
2.421666666666667E+009;1.522162258625031E-001;-1.000089719891548E-001;6.550790276378393E-003;6.218175985850394E-004;
2.421833333333334E+009;1.522775441408157E-001;-9.999530762434006E-002;6.616849917918444E-003;2.586639311630279E-004;
2.422000000000000E+009;1.519485414028168E-001;-9.959162026643753E-002;6.669451016932726E-003;9.864202002063394E-005;
2.422166666666667E+009;1.517098844051361E-001;-9.961312264204025E-002;6.785148754715920E-003;-2.475832880008966E-004;
2.422333333333334E+009;1.513508856296539E-001;-9.915658086538315E-002;6.766992621123791E-003;-4.831431433558464E-004;
2.422500000000000E+009;1.507767140865326E-001;-9.887758642435074E-002;6.935260258615017E-003;-8.603896712884307E-004;
2.422666666666667E+009;1.500470191240311E-001;-9.854185581207275E-002;7.022137288004160E-003;-1.022204989567399E-003;
2.422833333333334E+009;1.496257185935974E-001;-9.824800491333008E-002;7.102591916918755E-003;-1.564732869155705E-003;
2.423000000000000E+009;1.487405002117157E-001;-9.801175445318222E-002;6.952299736440182E-003;-1.834505121223629E-003;
2.423166666666667E+009;1.478839069604874E-001;-9.758513420820236E-002;7.021177094429731E-003;-2.287372946739197E-003;
2.423333333333334E+009;1.470160335302353E-001;-9.710118919610977E-002;6.806617602705956E-003;-2.728080609813333E-003;
2.423500000000000E+009;1.457593142986298E-001;-9.690659493207932E-002;6.811117753386498E-003;-2.970448229461908E-003;
2.423666666666667E+009;1.446669250726700E-001;-9.654246270656586E-002;6.637377664446831E-003;-3.438328392803669E-003;
2.423833333333334E+009;1.435901969671249E-001;-9.635864943265915E-002;6.516500376164913E-003;-3.882395569235086E-003;
2.424000000000000E+009;1.421285867691040E-001;-9.593840688467026E-002;6.454251706600189E-003;-4.055652301758528E-003;
2.424166666666667E+009;1.407554745674133E-001;-9.589865803718567E-002;6.139023695141077E-003;-4.328250419348478E-003;
2.424333333333334E+009;1.396520733833313E-001;-9.570852667093277E-002;5.824844818562269E-003;-4.774936940521002E-003;
2.424500000000000E+009;1.383828520774841E-001;-9.585943073034287E-002;5.210816394537687E-003;-5.036226473748684E-003;
2.424666666666667E+009;1.369839459657669E-001;-9.581762552261353E-002;5.123326554894447E-003;-5.261917598545551E-003;
2.424833333333334E+009;1.353909671306610E-001;-9.599036723375320E-002;4.755367990583181E-003;-5.447322502732277E-003;
2.425000000000000E+009;1.341488808393478E-001;-9.638997912406921E-002;4.385943058878183E-003;-5.750871729105711E-003;
2.425166666666667E+009;1.324448883533478E-001;-9.662385284900665E-002;4.046709742397070E-003;-5.779707804322243E-003;
2.425333333333334E+009;1.311809569597244E-001;-9.729847311973572E-002;3.884157165884972E-003;-5.736178718507290E-003;
2.425500000000000E+009;1.297341138124466E-001;-9.783563017845154E-002;3.486903617158532E-003;-5.836858879774809E-003;
2.425666666666667E+009;1.281732767820358E-001;-9.874773025512695E-002;3.078035311773419E-003;-5.824198480695486E-003;
2.425833333333334E+009;1.267907172441483E-001;-9.951292723417282E-002;2.665456850081682E-003;-5.758197046816349E-003;
2.426000000000000E+009;1.254931688308716E-001;-1.007551774382591E-001;2.395782154053450E-003;-5.860084202140570E-003;
2.426166666666667E+009;1.242784857749939E-001;-1.017246693372726E-001;2.139030257239938E-003;-5.737745668739080E-003;
2.426333333333334E+009;1.228169947862625E-001;-1.029770299792290E-001;2.084149047732353E-003;-5.753807723522186E-003;
2.426500000000000E+009;1.216795444488525E-001;-1.041092947125435E-001;1.980133820325136E-003;-5.569154862314463E-003;
2.426666666666667E+009;1.205853596329689E-001;-1.055207327008247E-001;1.585053862072527E-003;-5.415114108473063E-003;
2.426833333333334E+009;1.195365786552429E-001;-1.070624738931656E-001;1.338173402473331E-003;-5.395592655986548E-003;
2.427000000000000E+009;1.183734089136124E-001;-1.085296571254730E-001;1.280364114791155E-003;-5.263260100036860E-003;
2.427166666666667E+009;1.174229681491852E-001;-1.101651042699814E-001;1.028767903335393E-003;-5.241286009550095E-003;
2.427333333333334E+009;1.163858249783516E-001;-1.117644682526588E-001;9.620585478842259E-004;-5.165275651961565E-003;
2.427500000000000E+009;1.156999841332436E-001;-1.135881021618843E-001;1.099229557439685E-003;-5.015959963202477E-003;
2.427666666666667E+009;1.150735691189766E-001;-1.152743920683861E-001;8.033338235691190E-004;-4.918421152979136E-003;
2.427833333333334E+009;1.143152415752411E-001;-1.169214248657227E-001;7.286330219358206E-004;-4.944215528666973E-003;
