# Version 1.00
#
freq[Hz];re:Trc1_S11;im:Trc1_S11;re:Trc2_S21;im:Trc2_S21;
2.400000000000000E+009;1.551067382097244E-001;6.184455007314682E-002;-2.734512556344271E-003;2.361845836276189E-004;
2.400166666666667E+009;1.551404595375061E-001;5.994151532649994E-002;-2.628927817568183E-003;1.696564577287063E-004;
2.400333333333334E+009;1.551879793405533E-001;5.774564668536186E-002;-2.769859274849296E-003;2.830596058629453E-004;
2.400500000000000E+009;1.553530097007752E-001;5.576273426413536E-002;-2.534918952733278E-003;4.818380111828446E-004;
2.400666666666667E+009;1.554835736751556E-001;5.346840620040894E-002;-2.735798014327884E-003;4.631032061297447E-004;
2.400833333333334E+009;1.556802541017532E-001;5.128849297761917E-002;-2.587933558970690E-003;8.560939459130168E-004;
2.401000000000000E+009;1.558807939291000E-001;4.909908398985863E-002;-2.524097217246890E-003;8.421256789006293E-004;
2.401166666666667E+009;1.563372462987900E-001;4.686675220727921E-002;-2.370782895013690E-003;9.228005656041205E-004;
2.401333333333334E+009;1.569098532199860E-001;4.472451284527779E-002;-2.417407464236021E-003;1.154798897914589E-003;
2.401500000000000E+009;1.572431176900864E-001;4.257029667496681E-002;-2.245335839688778E-003;1.166177215054631E-003;
2.401666666666667E+009;1.578236669301987E-001;4.049809277057648E-002;-2.072538947686553E-003;1.331925275735557E-003;
2.401833333333334E+009;1.585102379322052E-001;3.834149986505508E-002;-1.957571832463145E-003;1.423168811015785E-003;
2.402000000000000E+009;1.591150015592575E-001;3.628896176815033E-002;-1.968540018424392E-003;1.406417111866176E-003;
2.402166666666667E+009;1.599584966897965E-001;3.428576141595841E-002;-1.790020614862442E-003;1.580549869686365E-003;
2.402333333333334E+009;1.608139872550964E-001;3.243424370884895E-002;-1.565260346978903E-003;1.557096606120467E-003;
2.402500000000000E+009;1.619067490100861E-001;3.076796606183052E-002;-1.597445691004396E-003;1.708583207800984E-003;
2.402666666666667E+009;1.626951694488525E-001;2.902607992291451E-002;-1.382942195050418E-003;1.760695478878915E-003;
2.402833333333334E+009;1.637194305658341E-001;2.729389257729054E-002;-1.266679144464433E-003;1.506101107224822E-003;
2.403000000000000E+009;1.646582484245300E-001;2.564879693090916E-002;-1.176231191493571E-003;1.693866099230945E-003;
2.403166666666667E+009;1.658302396535873E-001;2.436208911240101E-002;-1.115849125199020E-003;1.611156621947885E-003;
2.403333333333334E+009;1.668435484170914E-001;2.300258353352547E-002;-9.537453297525644E-004;1.601719413883984E-003;
2.403500000000000E+009;1.679400652647018E-001;2.172238007187843E-002;-7.938964408822358E-004;1.690699486061931E-003;
2.403666666666667E+009;1.690198630094528E-001;2.031717076897621E-002;-7.321323500946164E-004;1.777676981873810E-003;
2.403833333333334E+009;1.702728271484375E-001;1.941542327404022E-002;-7.929283892735839E-004;1.516920048743486E-003;
2.404000000000000E+009;1.713797450065613E-001;1.825870573520660E-002;-6.879504071548581E-004;1.638454152271152E-003;
2.404166666666667E+009;1.723321080207825E-001;1.748460717499256E-002;-4.121559031773359E-004;1.576735288836062E-003;
2.404333333333334E+009;1.734497249126434E-001;1.687358506023884E-002;-3.476698766462505E-004;1.594226225279272E-003;
2.404500000000000E+009;1.744206547737122E-001;1.576351933181286E-002;-3.988518437836319E-004;1.453935750760138E-003;
2.404666666666667E+009;1.753232479095459E-001;1.518374774605036E-002;-2.242422051494941E-004;1.424910384230316E-003;
2.404833333333334E+009;1.761753857135773E-001;1.477843616157770E-002;-1.281604781979695E-004;1.442933105863631E-003;
2.405000000000000E+009;1.771166622638702E-001;1.433169841766357E-002;-1.313716347794980E-004;1.323846168816090E-003;
2.405166666666667E+009;1.779113411903381E-001;1.382108498364687E-002;1.057489862432703E-004;1.370641752146184E-003;
2.405333333333334E+009;1.789208799600601E-001;1.335151121020317E-002;2.347411282244138E-005;1.005348865874112E-003;
2.405500000000000E+009;1.794179677963257E-001;1.336621399968863E-002;1.328629441559315E-004;1.244543818756938E-003;
2.405666666666667E+009;1.798480004072189E-001;1.302718278020620E-002;8.269001409644261E-005;1.089506666176021E-003;
2.405833333333334E+009;1.801431477069855E-001;1.287554390728474E-002;-1.038178743328899E-004;9.907424682751298E-004;
2.406000000000000E+009;1.807577759027481E-001;1.258664205670357E-002;2.311737189302221E-004;9.176216553896666E-004;
2.406166666666667E+009;1.807958334684372E-001;1.258936338126659E-002;1.581829710630700E-004;8.120363927446306E-004;
2.406333333333334E+009;1.813861578702927E-001;1.251543313264847E-002;1.511849986854941E-004;7.815002463757992E-004;
2.406500000000000E+009;1.812476664781570E-001;1.219986006617546E-002;2.129373315256089E-004;7.205556030385196E-004;
2.406666666666667E+009;1.810929775238037E-001;1.201580651104450E-002;3.333792847115547E-004;7.283867453224957E-004;
2.406833333333334E+009;1.812379807233810E-001;1.195319462567568E-002;1.694841921562329E-004;6.329110474325717E-004;
2.407000000000000E+009;1.811532527208328E-001;1.151530724018812E-002;3.559457254596055E-004;6.707776919938624E-004;
2.407166666666667E+009;1.810205578804016E-001;1.139332726597786E-002;2.322704822290689E-004;4.906466347165406E-004;
2.407333333333334E+009;1.805521696805954E-001;1.089126616716385E-002;1.512604358140379E-004;4.356193821877241E-004;
2.407500000000000E+009;1.801400482654572E-001;1.056293305009604E-002;1.977345382329077E-004;5.341689684428275E-004;
2.407666666666667E+009;1.797877699136734E-001;1.016835682094097E-002;2.150187647202984E-004;3.899626317434013E-004;
2.407833333333334E+009;1.789797097444534E-001;9.512614458799362E-003;2.688227104954422E-004;4.579783417284489E-004;
2.408000000000000E+009;1.784414201974869E-001;8.749506436288357E-003;2.930789778474718E-004;3.290492168162018E-004;
2.408166666666667E+009;1.777674108743668E-001;8.257755078375340E-003;3.429107018746436E-004;3.608969273045659E-004;
2.408333333333334E+009;1.772821992635727E-001;7.305103354156017E-003;2.705040096770972E-004;2.646093198563904E-004;
2.408500000000000E+009;1.763988882303238E-001;6.499791052192450E-003;4.249985213391483E-004;1.723454624880105E-004;
2.408666666666667E+009;1.755698770284653E-001;5.265492480248213E-003;2.525123709347099E-004;2.104941086145118E-004;
2.408833333333334E+009;1.748148649930954E-001;4.234669264405966E-003;1.446914247935638E-004;1.833259011618793E-004;
2.409000000000000E+009;1.739326119422913E-001;3.059041453525424E-003;2.941409184131771E-004;1.351832634099992E-005;
2.409166666666667E+009;1.730789840221405E-001;1.723759458400309E-003;2.125563041772693E-004;-9.579015340932529E-007;
2.409333333333334E+009;1.724375486373901E-001;3.471012169029564E-004;2.350918512092903E-004;-7.782963803038001E-005;
2.409500000000000E+009;1.714853942394257E-001;-1.383692258968949E-003;1.239184493897483E-004;-5.441435496322811E-005;
2.409666666666667E+009;1.706678718328476E-001;-2.844533883035183E-003;7.670518971281126E-005;-1.808807865018025E-004;
2.409833333333334E+009;1.698666065931320E-001;-4.462924785912037E-003;7.446854579029605E-005;-3.291114408057183E-004;
2.410000000000000E+009;1.693887412548065E-001;-6.188982632011175E-003;1.647287717787549E-004;-1.263797894353047E-004;
2.410166666666667E+009;1.686772853136063E-001;-8.054368197917938E-003;1.339464652119204E-004;-2.179253206122667E-004;
2.410333333333334E+009;1.682058572769165E-001;-9.904948063194752E-003;4.274612820154289E-006;-3.408130723983049E-004;
2.410500000000000E+009;1.676216721534729E-001;-1.190069410949945E-002;-9.013798262458295E-005;-2.917162200901657E-004;
2.410666666666667E+009;1.670285314321518E-001;-1.392310485243797E-002;-2.236031286884099E-005;-4.530808073468506E-004;
2.410833333333334E+009;1.667284518480301E-001;-1.588088832795620E-002;-1.516816555522382E-004;-4.712055961135775E-004;
2.411000000000000E+009;1.664890646934509E-001;-1.781246811151505E-002;-2.765912213362753E-004;-3.960747562814504E-004;
2.411166666666667E+009;1.660647243261337E-001;-1.998590305447578E-002;-1.450299168936908E-004;-3.505923086777329E-004;
2.411333333333334E+009;1.661390215158463E-001;-2.195980772376061E-002;-2.832003228832036E-004;-5.516606033779681E-004;
2.411500000000000E+009;1.661775410175324E-001;-2.430768869817257E-002;-2.910430775955319E-004;-3.632356238085777E-004;
2.411666666666667E+009;1.663848608732224E-001;-2.618520893156529E-002;-3.330858889967203E-004;-4.955500480718911E-004;
2.411833333333334E+009;1.665316075086594E-001;-2.814487926661968E-002;-4.169789608567953E-004;-5.457981606014073E-004;
2.412000000000000E+009;1.668267548084259E-001;-3.036925010383129E-002;-6.383754080161452E-004;-6.316285580396652E-004;
2.412166666666667E+009;1.668757498264313E-001;-3.255753219127655E-002;-7.371887913905084E-004;-5.801274674013257E-004;
2.412333333333334E+009;1.674779951572418E-001;-3.431728482246399E-002;-6.047438946552575E-004;-4.856354207731783E-004;
2.412500000000000E+009;1.678831577301025E-001;-3.620619699358940E-002;-8.062277338467538E-004;-5.515913944691420E-004;
2.412666666666667E+009;1.685108840465546E-001;-3.820949420332909E-002;-8.361049112863839E-004;-6.664407555945218E-004;
2.412833333333334E+009;1.690265238285065E-001;-4.014096781611443E-002;-9.586181840859354E-004;-6.074464763514698E-004;
2.413000000000000E+009;1.694305837154388E-001;-4.184668883681297E-002;-1.024070661514998E-003;-4.265047609806061E-004;
2.413166666666667E+009;1.701706051826477E-001;-4.344698786735535E-002;-1.021106843836606E-003;-4.964828840456903E-004;
2.413333333333334E+009;1.707789152860642E-001;-4.512275382876396E-002;-1.210979884490371E-003;-4.418650642037392E-004;
2.413500000000000E+009;1.715601086616516E-001;-4.661624133586884E-002;-1.208533183671534E-003;-3.414124366827309E-004;
2.413666666666667E+009;1.724842786788940E-001;-4.811765253543854E-002;-1.345033873803914E-003;-3.732824989128858E-004;
2.413833333333334E+009;1.731136441230774E-001;-4.943616688251495E-002;-1.366186887025833E-003;-3.559250617399812E-004;
2.414000000000000E+009;1.736675947904587E-001;-5.074875801801682E-002;-1.434076693840325E-003;-2.265641669509932E-004;
2.414166666666667E+009;1.746052652597427E-001;-5.188454315066338E-002;-1.392691745422781E-003;-2.700731856748462E-004;
2.414333333333334E+009;1.751372069120407E-001;-5.291552096605301E-002;-1.486855908297002E-003;-8.265765063697472E-005;
2.414500000000000E+009;1.760015040636063E-001;-5.393227189779282E-002;-1.721513690426946E-003;7.127718708943576E-005;
2.414666666666667E+009;1.765727847814560E-001;-5.485725030303001E-002;-1.779091195203364E-003;1.101128291338682E-004;
2.414833333333334E+009;1.772283613681793E-001;-5.547900125384331E-002;-1.804934116080403E-003;1.272600202355534E-004;
2.415000000000000E+009;1.775730848312378E-001;-5.616578832268715E-002;-1.767142559401691E-003;1.916840992635116E-004;
2.415166666666667E+009;1.781766414642334E-001;-5.673564597964287E-002;-1.905619748868048E-003;4.533213214017451E-004;
2.415333333333334E+009;1.785609126091003E-001;-5.738419294357300E-002;-1.824365928769112E-003;5.831915186718106E-004;
2.415500000000000E+009;1.788986921310425E-001;-5.769466608762741E-002;-1.708882860839367E-003;6.470637745223939E-004;
2.415666666666667E+009;1.791701316833496E-001;-5.794389918446541E-002;-1.885183854028583E-003;6.654682219959796E-004;
2.415833333333334E+009;1.793195009231567E-001;-5.823409557342529E-002;-1.909389160573483E-003;9.091730462387204E-004;
2.416000000000000E+009;1.791460961103439E-001;-5.839808657765389E-002;-1.822427962906659E-003;7.452216232195497E-004;
2.416166666666667E+009;1.794025152921677E-001;-5.873093008995056E-002;-1.863589393906295E-003;9.898490970954299E-004;
2.416333333333334E+009;1.791999042034149E-001;-5.870939046144486E-002;-1.858168514445424E-003;1.095408340916038E-003;
2.416500000000000E+009;1.790198981761932E-001;-5.890683829784393E-002;-1.801992650143802E-003;1.066802884452045E-003;
2.416666666666667E+009;1.784945428371429E-001;-5.880332365632057E-002;-1.730353455059230E-003;1.110533601604402E-003;
2.416833333333334E+009;1.782914698123932E-001;-5.918543040752411E-002;-1.704301568679512E-003;1.289906213060021E-003;
2.417000000000000E+009;1.775961667299271E-001;-5.917151644825935E-002;-1.728347153402865E-003;1.247486681677401E-003;
2.417166666666667E+009;1.769090145826340E-001;-5.924410000443459E-002;-1.492267125286162E-003;1.282340730540454E-003;
2.417333333333334E+009;1.763376295566559E-001;-5.921374633908272E-002;-1.653506769798696E-003;1.593191525898874E-003;
2.417500000000000E+009;1.754887700080872E-001;-5.955390632152557E-002;-1.490177004598081E-003;1.609128667041659E-003;
2.417666666666667E+009;1.745880246162415E-001;-5.944894626736641E-002;-1.525118830613792E-003;1.655969070270658E-003;
2.417833333333334E+009;1.735504865646362E-001;-5.979237705469132E-002;-1.399399479851127E-003;1.553622889332473E-003;
2.418000000000000E+009;1.723571121692658E-001;-6.021821498870850E-002;-1.259722514078021E-003;1.746661728248000E-003;
2.418166666666667E+009;1.712767630815506E-001;-6.032860279083252E-002;-1.389850862324238E-003;1.755479257553816E-003;
2.418333333333334E+009;1.703957766294479E-001;-6.071401759982109E-002;-1.188258058391511E-003;1.898120041005313E-003;
2.418500000000000E+009;1.689580827951431E-001;-6.128363683819771E-002;-1.174909528344870E-003;1.858634292148054E-003;
2.418666666666667E+009;1.677632927894592E-001;-6.186492741107941E-002;-1.276071765460074E-003;1.980348490178585E-003;
2.418833333333334E+009;1.663950681686401E-001;-6.251239776611328E-002;-1.050177845172584E-003;1.957212341949344E-003;
2.419000000000000E+009;1.648952811956406E-001;-6.316557526588440E-002;-1.012805616483092E-003;2.046937355771661E-003;
2.419166666666667E+009;1.636368930339813E-001;-6.398976594209671E-002;-1.041758921928704E-003;2.037263009697199E-003;
2.419333333333334E+009;1.622759252786636E-001;-6.464347988367081E-002;-9.568042587488890E-004;2.039540326222777E-003;
2.419500000000000E+009;1.609502285718918E-001;-6.581838428974152E-002;-8.455791394226253E-004;2.057684585452080E-003;
2.419666666666667E+009;1.597096472978592E-001;-6.697253882884979E-002;-8.436643984168768E-004;2.061507198959589E-003;
2.419833333333334E+009;1.582923680543900E-001;-6.797049939632416E-002;-7.559868972748518E-004;2.120187971740961E-003;
2.420000000000000E+009;1.571546941995621E-001;-6.929350644350052E-002;-7.687148172408342E-004;2.266133204102516E-003;
2.420166666666667E+009;1.560335308313370E-001;-7.059411704540253E-002;-7.299662102013826E-004;2.266959054395556E-003;
2.420333333333334E+009;1.549818366765976E-001;-7.204002887010574E-002;-5.959112313576043E-004;2.116657560691237E-003;
2.420500000000000E+009;1.540518254041672E-001;-7.342443615198135E-002;-5.797311896458268E-004;2.210767241194844E-003;
2.420666666666667E+009;1.528234630823135E-001;-7.492341101169586E-002;-4.090216534677893E-004;2.199323847889900E-003;
2.420833333333334E+009;1.519209891557694E-001;-7.640616595745087E-002;-3.818623663391918E-004;2.292964607477188E-003;
2.421000000000000E+009;1.510030627250671E-001;-7.833747565746307E-002;-4.128152795601636E-004;2.237302251160145E-003;
2.421166666666667E+009;1.504518985748291E-001;-7.997357845306397E-002;-4.162793338764459E-004;2.247787080705166E-003;
2.421333333333334E+009;1.499057412147522E-001;-8.163230121135712E-002;-1.300783478654921E-004;2.362546278163791E-003;
2.421500000000000E+009;1.491461843252182E-001;-8.333232253789902E-002;-3.174427838530392E-004;2.404338214546442E-003;
2.421666666666667E+009;1.487651616334915E-001;-8.527196198701859E-002;-3.026162448804826E-004;2.424343721941114E-003;
2.421833333333334E+009;1.486336290836334E-001;-8.688788861036301E-002;-1.968946016859263E-004;2.395738614723086E-003;
2.422000000000000E+009;1.481759101152420E-001;-8.881645649671555E-002;-1.163767446996644E-004;2.324374159798026E-003;
2.422166666666667E+009;1.481002420186997E-001;-9.083469957113266E-002;-1.884379453258589E-004;2.481274073943496E-003;
2.422333333333334E+009;1.480545848608017E-001;-9.248206764459610E-002;2.362944178457838E-005;2.691743895411491E-003;
2.422500000000000E+009;1.480196714401245E-001;-9.417833387851715E-002;-9.560213220538572E-005;2.569811884313822E-003;
2.422666666666667E+009;1.480611711740494E-001;-9.617104381322861E-002;-3.745586582226679E-005;2.541156020015478E-003;
2.422833333333334E+009;1.483923196792603E-001;-9.784145653247833E-002;2.814923354890198E-004;2.730366308242083E-003;
2.423000000000000E+009;1.487196832895279E-001;-9.931258112192154E-002;1.816323492676020E-004;2.656222553923726E-003;
2.423166666666667E+009;1.490169018507004E-001;-1.012399941682816E-001;2.083744911942631E-004;2.778934314846993E-003;
2.423333333333334E+009;1.495539844036102E-001;-1.025196760892868E-001;3.537581942509860E-004;2.763944678008556E-003;
2.423500000000000E+009;1.500408798456192E-001;-1.041422933340073E-001;4.892844008281827E-004;2.790805883705616E-003;
2.423666666666667E+009;1.503017544746399E-001;-1.056672260165215E-001;4.528544086497277E-004;2.970620058476925E-003;
2.423833333333334E+009;1.511281132698059E-001;-1.069540530443192E-001;5.664976779371500E-004;2.958651399239898E-003;
2.424000000000000E+009;1.516350656747818E-001;-1.081716269254684E-001;6.767615559510887E-004;2.868712414056063E-003;
2.424166666666667E+009;1.521188467741013E-001;-1.093304678797722E-001;8.023489499464631E-004;2.935445168986917E-003;
2.424333333333334E+009;1.528716087341309E-001;-1.103438213467598E-001;9.585880907252431E-004;3.003813326358795E-003;
2.424500000000000E+009;1.534998118877411E-001;-1.114821806550026E-001;1.077937660738826E-003;3.108010627329350E-003;
2.424666666666667E+009;1.543028801679611E-001;-1.121842712163925E-001;1.270116190426052E-003;3.048930084332824E-003;
2.424833333333334E+009;1.546230018138886E-001;-1.131159365177155E-001;1.356360851787031E-003;3.086295444518328E-003;
2.425000000000000E+009;1.552641838788986E-001;-1.138470694422722E-001;1.371162594296038E-003;2.993758535012603E-003;
2.425166666666667E+009;1.556340903043747E-001;-1.145309060811997E-001;1.567184343002737E-003;2.947410801425576E-003;
2.425333333333334E+009;1.562243998050690E-001;-1.150011569261551E-001;1.947925193235278E-003;2.918949816375971E-003;
2.425500000000000E+009;1.567021906375885E-001;-1.156021952629089E-001;1.869053812697530E-003;3.004736267030239E-003;
2.425666666666667E+009;1.568825393915176E-001;-1.161315217614174E-001;1.959016779437661E-003;2.876636339351535E-003;
2.425833333333334E+009;1.571854054927826E-001;-1.164271086454392E-001;1.988979522138834E-003;2.706492552533746E-003;
2.426000000000000E+009;1.573812812566757E-001;-1.166348755359650E-001;2.349851187318564E-003;2.495319582521915E-003;
2.426166666666667E+009;1.576711237430573E-001;-1.168720349669457E-001;2.336703008040786E-003;2.603447763249278E-003;
2.426333333333334E+009;1.575239002704620E-001;-1.171253547072411E-001;2.510355785489082E-003;2.682393649592996E-003;
2.426500000000000E+009;1.575221717357636E-001;-1.171114891767502E-001;2.646601758897305E-003;2.421785844489932E-003;
2.426666666666667E+009;1.574610620737076E-001;-1.170039698481560E-001;2.550200093537569E-003;2.431958448141813E-003;
2.426833333333334E+009;1.571997851133347E-001;-1.172080039978027E-001;2.532859332859516E-003;2.311085816472769E-003;
2.427000000000000E+009;1.566863954067230E-001;-1.172495558857918E-001;2.841576468199492E-003;2.250337507575750E-003;
2.427166666666667E+009;1.562765240669251E-001;-1.171233952045441E-001;2.792721847072244E-003;2.135453512892127E-003;
2.427333333333334E+009;1.556421816349030E-001;-1.170960068702698E-001;3.066539997234941E-003;2.051850315183401E-003;
2.427500000000000E+009;1.550988852977753E-001;-1.171096712350845E-001;3.069012193009257E-003;1.860563294030726E-003;
2.427666666666667E+009;1.542069762945175E-001;-1.172248646616936E-001;3.091977443546057E-003;1.734330668114126E-003;
2.427833333333334E+009;1.531171202659607E-001;-1.172444671392441E-001;3.111547091975808E-003;1.774323638528585E-003;
