# Version 1.00
#
freq[Hz];re:Trc1_S11;im:Trc1_S11;re:Trc2_S21;im:Trc2_S21;
2.400000000000000E+009;1.552540808916092E-001;6.177075579762459E-002;-2.624372718855739E-003;9.326676808996126E-005;
2.400166666666667E+009;1.551775634288788E-001;5.986901000142098E-002;-2.574157435446978E-003;1.868607942014933E-004;
2.400333333333334E+009;1.551077216863632E-001;5.779486149549484E-002;-2.594919176772237E-003;3.487536741886288E-004;
2.400500000000000E+009;1.555491685867310E-001;5.561557784676552E-002;-2.637442899867892E-003;4.622039850801230E-004;
2.400666666666667E+009;1.554387658834457E-001;5.344906076788902E-002;-2.547317184507847E-003;5.179098225198686E-004;
2.400833333333334E+009;1.557593047618866E-001;5.123772099614143E-002;-2.549775643274188E-003;7.862259517423809E-004;
2.401000000000000E+009;1.560000181198120E-001;4.902404174208641E-002;-2.457899739965797E-003;9.939931333065033E-004;
2.401166666666667E+009;1.563158631324768E-001;4.697619751095772E-002;-2.566119888797402E-003;8.659571176394820E-004;
2.401333333333334E+009;1.566398441791534E-001;4.463296756148338E-002;-2.418958116322756E-003;9.969981620088220E-004;
2.401500000000000E+009;1.574612557888031E-001;4.264421015977860E-002;-2.138167619705200E-003;1.132217352278531E-003;
2.401666666666667E+009;1.578927934169769E-001;4.046182334423065E-002;-2.128844847902656E-003;1.262141857296228E-003;
2.401833333333334E+009;1.585621237754822E-001;3.841401264071465E-002;-2.066035522148013E-003;1.407064148224890E-003;
2.402000000000000E+009;1.590729057788849E-001;3.631993755698204E-002;-1.867554150521755E-003;1.474837539717555E-003;
2.402166666666667E+009;1.599252372980118E-001;3.410042449831963E-002;-1.657199463807046E-003;1.552437664940953E-003;
2.402333333333334E+009;1.607694327831268E-001;3.226764500141144E-002;-1.483354601077735E-003;1.673034741543233E-003;
2.402500000000000E+009;1.617789566516876E-001;3.058409318327904E-002;-1.576147391460836E-003;1.668372075073421E-003;
2.402666666666667E+009;1.626420915126801E-001;2.883139252662659E-002;-1.379016903229058E-003;1.437777187675238E-003;
2.402833333333334E+009;1.636262834072113E-001;2.728310227394104E-002;-1.352164312265813E-003;1.748894457705319E-003;
2.403000000000000E+009;1.649084985256195E-001;2.585141360759735E-002;-1.337698893621564E-003;1.662506721913815E-003;
2.403166666666667E+009;1.657588332891464E-001;2.415349148213863E-002;-1.075398526154459E-003;1.682533416897059E-003;
2.403333333333334E+009;1.668127626180649E-001;2.302547730505467E-002;-8.667099173180759E-004;1.781532540917397E-003;
2.403500000000000E+009;1.678096801042557E-001;2.157150581479073E-002;-8.240938768722117E-004;1.463833381421864E-003;
2.403666666666667E+009;1.690010428428650E-001;2.053655311465263E-002;-8.900978718884289E-004;1.549002132378519E-003;
2.403833333333334E+009;1.702103763818741E-001;1.935199089348316E-002;-8.446609135717154E-004;1.641958835534751E-003;
2.404000000000000E+009;1.711181402206421E-001;1.835644058883190E-002;-5.374906468205154E-004;1.448817085474730E-003;
2.404166666666667E+009;1.722594648599625E-001;1.745392754673958E-002;-4.858549218624830E-004;1.461338368244469E-003;
2.404333333333334E+009;1.734315603971481E-001;1.680101826786995E-002;-5.254132556729019E-004;1.456688973121345E-003;
2.404500000000000E+009;1.744104027748108E-001;1.583253778517246E-002;-3.201985091436654E-004;1.384254195727408E-003;
2.404666666666667E+009;1.753238439559937E-001;1.539193373173475E-002;-3.286178980488330E-004;1.393745420500636E-003;
2.404833333333334E+009;1.763425171375275E-001;1.479327958077192E-002;-1.360929600195959E-004;1.258219359442592E-003;
2.405000000000000E+009;1.771294027566910E-001;1.426926162093878E-002;-8.983486623037607E-005;1.186370383948088E-003;
2.405166666666667E+009;1.778400987386704E-001;1.388174481689930E-002;5.493466960615479E-005;1.144440611824393E-003;
2.405333333333334E+009;1.787065416574478E-001;1.341855991631746E-002;1.269921485800296E-004;1.150803407654166E-003;
2.405500000000000E+009;1.792952567338944E-001;1.322915870696306E-002;9.298987424699590E-005;1.161021413281560E-003;
2.405666666666667E+009;1.799440830945969E-001;1.295620016753674E-002;1.222900027642027E-004;1.012428081594408E-003;
2.405833333333334E+009;1.803066879510880E-001;1.288548298180103E-002;1.647292519919574E-004;8.634273544885218E-004;
2.406000000000000E+009;1.806814670562744E-001;1.250381302088499E-002;2.930245827883482E-004;1.034616027027369E-003;
2.406166666666667E+009;1.809387505054474E-001;1.259394083172083E-002;2.910708717536181E-004;7.827203371562064E-004;
2.406333333333334E+009;1.812512576580048E-001;1.245595328509808E-002;2.649201196618378E-004;8.790761930868030E-004;
2.406500000000000E+009;1.813404709100723E-001;1.224444992840290E-002;2.219384332420304E-004;7.869500550441444E-004;
2.406666666666667E+009;1.812559813261032E-001;1.217134296894074E-002;2.228139492217451E-004;4.575189086608589E-004;
2.406833333333334E+009;1.812363266944885E-001;1.186029799282551E-002;2.234758139820769E-004;7.483027875423431E-004;
2.407000000000000E+009;1.812536269426346E-001;1.164497248828411E-002;1.043347365339287E-004;5.092667415738106E-004;
2.407166666666667E+009;1.809629350900650E-001;1.135040167719126E-002;3.642793744802475E-004;4.747014027088881E-004;
2.407333333333334E+009;1.804985851049423E-001;1.095436327159405E-002;2.559265994932503E-004;4.803095071110874E-004;
2.407500000000000E+009;1.802158653736115E-001;1.067447848618031E-002;3.569992841221392E-004;3.575369773898274E-004;
2.407666666666667E+009;1.798384338617325E-001;1.009712275117636E-002;3.673289611469954E-004;4.167281149420887E-004;
2.407833333333334E+009;1.790076494216919E-001;9.501884691417217E-003;2.104373124893755E-004;3.708961303345859E-004;
2.408000000000000E+009;1.785047203302383E-001;8.826050907373428E-003;4.400892357807607E-004;3.206529363524169E-004;
2.408166666666667E+009;1.778871566057205E-001;8.269578218460083E-003;3.622602962423116E-004;2.742036303970963E-004;
2.408333333333334E+009;1.774192303419113E-001;7.333985064178705E-003;2.740297641139478E-004;1.443592482246459E-004;
2.408500000000000E+009;1.765342801809311E-001;6.381322164088488E-003;3.264207334723324E-004;1.450946729164571E-004;
2.408666666666667E+009;1.756319552659988E-001;5.343953613191843E-003;2.333515876671299E-004;4.820315371034667E-005;
2.408833333333334E+009;1.748592704534531E-001;4.170032218098640E-003;2.282121276948601E-004;7.012587593635544E-005;
2.409000000000000E+009;1.739087402820587E-001;2.944834297522903E-003;2.745815145317465E-004;-1.169023289548932E-005;
2.409166666666667E+009;1.731928288936615E-001;1.695087412372232E-003;2.187386853620410E-004;-5.987563781673089E-005;
2.409333333333334E+009;1.724136024713516E-001;3.056062269024551E-004;1.424880465492606E-004;-8.905948925530538E-005;
2.409500000000000E+009;1.717085689306259E-001;-1.342792180366814E-003;4.702437217929401E-005;-6.507935904664919E-005;
2.409666666666667E+009;1.707204580307007E-001;-2.996808150783181E-003;-6.861093879706459E-006;-3.037255664821714E-004;
2.409833333333334E+009;1.697738468647003E-001;-4.629787988960743E-003;6.929147639311850E-005;-2.882097032852471E-004;
2.410000000000000E+009;1.693593561649323E-001;-6.290168501436710E-003;1.260981889572577E-006;-2.400851371930912E-004;
2.410166666666667E+009;1.687564402818680E-001;-8.118079975247383E-003;-3.272868343628943E-005;-1.887482212623581E-004;
2.410333333333334E+009;1.680040806531906E-001;-1.000531390309334E-002;-1.048588310368359E-004;-2.631910319905728E-004;
2.410500000000000E+009;1.677756607532501E-001;-1.194484531879425E-002;-1.573726622154936E-004;-3.506827342789620E-004;
2.410666666666667E+009;1.671123206615448E-001;-1.408299524337053E-002;-2.581331063993275E-004;-4.603161651175469E-004;
2.410833333333334E+009;1.667575687170029E-001;-1.588660106062889E-002;-1.926368422573432E-004;-3.353275533299893E-004;
2.411000000000000E+009;1.665565073490143E-001;-1.783575676381588E-002;-2.209567901445553E-004;-5.647267680615187E-004;
2.411166666666667E+009;1.662143468856812E-001;-2.021374367177486E-002;-4.564325208775699E-004;-5.281892954371870E-004;
2.411333333333334E+009;1.661404073238373E-001;-2.217769250273705E-002;-5.216849967837334E-004;-4.881029599346221E-004;
2.411500000000000E+009;1.660607010126114E-001;-2.424765191972256E-002;-4.274079692550004E-004;-3.339261747896671E-004;
2.411666666666667E+009;1.661534756422043E-001;-2.628413215279579E-002;-4.217909881845117E-004;-4.731695808004588E-004;
2.411833333333334E+009;1.663675159215927E-001;-2.833877503871918E-002;-5.035284557379782E-004;-4.931722651235759E-004;
2.412000000000000E+009;1.667230278253555E-001;-3.043635934591293E-002;-7.666775491088629E-004;-5.123343435116112E-004;
2.412166666666667E+009;1.669792830944061E-001;-3.240942582488060E-002;-7.240161648951471E-004;-6.726159481331706E-004;
2.412333333333334E+009;1.675114482641220E-001;-3.429808095097542E-002;-7.273350493051112E-004;-6.657954654656351E-004;
2.412500000000000E+009;1.677481234073639E-001;-3.634129464626312E-002;-8.284037467092276E-004;-4.696377436630428E-004;
2.412666666666667E+009;1.683659255504608E-001;-3.838708996772766E-002;-9.876091498881578E-004;-4.389282548800111E-004;
2.412833333333334E+009;1.690213829278946E-001;-4.010938107967377E-002;-8.657220168970525E-004;-4.757036513183266E-004;
2.413000000000000E+009;1.696990877389908E-001;-4.188714548945427E-002;-1.136976876296103E-003;-4.741490993183106E-004;
2.413166666666667E+009;1.701307892799377E-001;-4.364331066608429E-002;-1.081844209693372E-003;-5.239944439381361E-004;
2.413333333333334E+009;1.708879619836807E-001;-4.509266465902329E-002;-1.223397441208363E-003;-4.826350195799023E-004;
2.413500000000000E+009;1.717067807912827E-001;-4.677626490592957E-002;-1.295778900384903E-003;-3.380352281965315E-004;
2.413666666666667E+009;1.724064797163010E-001;-4.825066402554512E-002;-1.317786169238389E-003;-3.708738076966256E-004;
2.413833333333334E+009;1.731649339199066E-001;-4.958658292889595E-002;-1.434542704373598E-003;-4.732194938696921E-004;
2.414000000000000E+009;1.735978871583939E-001;-5.093496665358543E-002;-1.556029310449958E-003;-1.403942151227966E-004;
2.414166666666667E+009;1.744647175073624E-001;-5.186012387275696E-002;-1.438216655515134E-003;-1.828216045396403E-004;
2.414333333333334E+009;1.752087324857712E-001;-5.307143926620483E-002;-1.574072171933949E-003;1.216605051013175E-005;
2.414500000000000E+009;1.760230213403702E-001;-5.403507500886917E-002;-1.567129744216800E-003;8.781457290751860E-005;
2.414666666666667E+009;1.765597611665726E-001;-5.478715151548386E-002;-1.818030839785934E-003;1.053074593073688E-004;
2.414833333333334E+009;1.771513223648071E-001;-5.558466538786888E-002;-1.703767105937004E-003;5.997770858812146E-005;
2.415000000000000E+009;1.776314675807953E-001;-5.625315383076668E-002;-1.744603156112135E-003;1.894041779451072E-004;
2.415166666666667E+009;1.779928356409073E-001;-5.675978586077690E-002;-1.786328502930701E-003;4.069393035024405E-004;
2.415333333333334E+009;1.785327643156052E-001;-5.744242295622826E-002;-1.891318941488862E-003;3.876740811392665E-004;
2.415500000000000E+009;1.788124442100525E-001;-5.769959464669228E-002;-1.737854210659862E-003;5.261134356260300E-004;
2.415666666666667E+009;1.790069192647934E-001;-5.790832266211510E-002;-1.837511896155775E-003;5.762731889262795E-004;
2.415833333333334E+009;1.792664676904678E-001;-5.826872959733009E-002;-1.752294832840562E-003;6.577753229066730E-004;
2.416000000000000E+009;1.792454123497009E-001;-5.854530259966850E-002;-1.731032272800803E-003;8.104055305011571E-004;
2.416166666666667E+009;1.793980896472931E-001;-5.873643234372139E-002;-1.852178014814854E-003;8.239081362262368E-004;
2.416333333333334E+009;1.791594475507736E-001;-5.881861969828606E-002;-1.842321245931089E-003;1.003600191324949E-003;
2.416500000000000E+009;1.789612621068955E-001;-5.903299152851105E-002;-1.779065933078528E-003;1.143957138992846E-003;
2.416666666666667E+009;1.785651296377182E-001;-5.898978933691979E-002;-1.697126193903387E-003;1.165386172942817E-003;
2.416833333333334E+009;1.782752126455307E-001;-5.920270830392838E-002;-1.606227364391089E-003;1.273001427762210E-003;
2.417000000000000E+009;1.775119155645371E-001;-5.932625010609627E-002;-1.687168492935598E-003;1.322482246905565E-003;
2.417166666666667E+009;1.768615543842316E-001;-5.922492220997810E-002;-1.577367191202939E-003;1.423203968442977E-003;
2.417333333333334E+009;1.762576699256897E-001;-5.928825214505196E-002;-1.523397397249937E-003;1.445504371076822E-003;
2.417500000000000E+009;1.753146499395371E-001;-5.965654551982880E-002;-1.433335361070931E-003;1.404845737852156E-003;
2.417666666666667E+009;1.745932102203369E-001;-5.955360457301140E-002;-1.454664394259453E-003;1.453996053896844E-003;
2.417833333333334E+009;1.734765917062759E-001;-5.987496301531792E-002;-1.277823001146317E-003;1.799381803721190E-003;
2.418000000000000E+009;1.724619567394257E-001;-6.017740815877914E-002;-1.256167655810714E-003;1.654893858358264E-003;
2.418166666666667E+009;1.712449043989182E-001;-6.042681261897087E-002;-1.264152233488858E-003;1.795300981029868E-003;
2.418333333333334E+009;1.702221035957336E-001;-6.100262701511383E-002;-1.351803890429437E-003;1.722903340123594E-003;
2.418500000000000E+009;1.688544303178787E-001;-6.133536249399185E-002;-1.104715978726745E-003;1.716955448500812E-003;
2.418666666666667E+009;1.677620410919190E-001;-6.189075857400894E-002;-1.158622559159994E-003;1.749294693581760E-003;
2.418833333333334E+009;1.663459837436676E-001;-6.237262487411499E-002;-1.170143601484597E-003;1.953878905624151E-003;
2.419000000000000E+009;1.650011837482452E-001;-6.327511370182037E-002;-9.840392740443349E-004;1.866211649030447E-003;
2.419166666666667E+009;1.635570973157883E-001;-6.396447122097015E-002;-1.000381773337722E-003;1.895755296573043E-003;
2.419333333333334E+009;1.621567755937576E-001;-6.472419947385788E-002;-8.955171797424555E-004;1.988879172131419E-003;
2.419500000000000E+009;1.609064340591431E-001;-6.596478819847107E-002;-9.289584122598171E-004;2.062883228063583E-003;
2.419666666666667E+009;1.598176211118698E-001;-6.690842658281326E-002;-8.320214110426605E-004;2.027969807386398E-003;
2.419833333333334E+009;1.583034992218018E-001;-6.796500086784363E-002;-5.268704844638705E-004;1.988511998206377E-003;
2.420000000000000E+009;1.571799069643021E-001;-6.928598880767822E-002;-6.007631891407073E-004;2.219947520643473E-003;
2.420166666666667E+009;1.559554040431976E-001;-7.041463255882263E-002;-6.390633643604815E-004;2.185110235586762E-003;
2.420333333333334E+009;1.548312902450562E-001;-7.215822488069534E-002;-5.644954508170486E-004;2.137633040547371E-003;
2.420500000000000E+009;1.539356112480164E-001;-7.336333394050598E-002;-5.174769321456552E-004;2.207832410931587E-003;
2.420666666666667E+009;1.526728123426437E-001;-7.483857125043869E-002;-5.104430019855499E-004;2.258241176605225E-003;
2.420833333333334E+009;1.519813388586044E-001;-7.652641087770462E-002;-3.931406245101243E-004;2.267948584631085E-003;
2.421000000000000E+009;1.509846746921539E-001;-7.832071185112000E-002;-2.879399398807436E-004;2.357330406084657E-003;
2.421166666666667E+009;1.504265964031220E-001;-7.998906821012497E-002;-3.775886725634337E-004;2.253513783216476E-003;
2.421333333333334E+009;1.498247981071472E-001;-8.177614212036133E-002;-3.663953102659434E-004;2.384098712354899E-003;
2.421500000000000E+009;1.490945965051651E-001;-8.342394232749939E-002;-3.503949556034058E-004;2.350161783397198E-003;
2.421666666666667E+009;1.488059908151627E-001;-8.525045216083527E-002;-2.317049365956336E-004;2.475178567692637E-003;
2.421833333333334E+009;1.484484225511551E-001;-8.696601539850235E-002;-2.694221911951900E-004;2.616617828607559E-003;
2.422000000000000E+009;1.481169164180756E-001;-8.880276978015900E-002;-2.666588115971535E-004;2.537750406190753E-003;
2.422166666666667E+009;1.480168700218201E-001;-9.083918482065201E-002;-1.117789361160249E-004;2.520074136555195E-003;
2.422333333333334E+009;1.480906456708908E-001;-9.268806874752045E-002;-7.887185347499326E-005;2.589378971606493E-003;
2.422500000000000E+009;1.479755789041519E-001;-9.423422068357468E-002;-5.722655259887688E-006;2.556547988206148E-003;
2.422666666666667E+009;1.479194611310959E-001;-9.601563215255737E-002;7.231601921375841E-005;2.577333943918347E-003;
2.422833333333334E+009;1.483983844518662E-001;-9.787567704916000E-002;2.046733425231651E-004;2.741139614954591E-003;
2.423000000000000E+009;1.486254632472992E-001;-9.951281547546387E-002;1.617592206457630E-004;2.673335839062929E-003;
2.423166666666667E+009;1.491342484951019E-001;-1.011489853262901E-001;3.480681916698813E-004;2.710329135879874E-003;
2.423333333333334E+009;1.495413929224014E-001;-1.024823784828186E-001;4.446015809662640E-004;2.705153543502092E-003;
2.423500000000000E+009;1.499236375093460E-001;-1.041855439543724E-001;2.948238397948444E-004;2.815699204802513E-003;
2.423666666666667E+009;1.504473686218262E-001;-1.057878062129021E-001;5.763576482422650E-004;2.917923033237457E-003;
2.423833333333334E+009;1.511062234640122E-001;-1.069369688630104E-001;6.179847987368703E-004;2.892374526709318E-003;
2.424000000000000E+009;1.515841484069824E-001;-1.080454736948013E-001;8.121802820824087E-004;2.895327750593424E-003;
2.424166666666667E+009;1.520983278751373E-001;-1.094157621264458E-001;9.575802250765264E-004;2.959235105663538E-003;
2.424333333333334E+009;1.528408527374268E-001;-1.103177815675736E-001;1.070360769517720E-003;2.887129317969084E-003;
2.424500000000000E+009;1.535614430904388E-001;-1.114524602890015E-001;9.162362548522651E-004;2.828730735927820E-003;
2.424666666666667E+009;1.542772501707077E-001;-1.123039722442627E-001;1.226586755365133E-003;2.964252373203635E-003;
2.424833333333334E+009;1.545927375555039E-001;-1.131737604737282E-001;1.343716750852764E-003;2.984566846862435E-003;
2.425000000000000E+009;1.553594022989273E-001;-1.139373555779457E-001;1.542816986329854E-003;3.007432213053107E-003;
2.425166666666667E+009;1.555841863155365E-001;-1.146938130259514E-001;1.686427509412170E-003;2.935960423201323E-003;
2.425333333333334E+009;1.562507450580597E-001;-1.150871366262436E-001;1.820355886593461E-003;2.815809100866318E-003;
2.425500000000000E+009;1.567235738039017E-001;-1.156604886054993E-001;1.685263472609222E-003;2.853771205991507E-003;
2.425666666666667E+009;1.568704247474670E-001;-1.160961464047432E-001;2.011845121160150E-003;2.724156482145190E-003;
2.425833333333334E+009;1.572129577398300E-001;-1.164204627275467E-001;2.175997709855437E-003;2.748591592535377E-003;
2.426000000000000E+009;1.572706699371338E-001;-1.166824996471405E-001;2.373868832364678E-003;2.646695356816053E-003;
2.426166666666667E+009;1.576443314552307E-001;-1.169185712933540E-001;2.330632880330086E-003;2.608553972095251E-003;
2.426333333333334E+009;1.575008928775787E-001;-1.170289590954781E-001;2.362588187679648E-003;2.587229479104281E-003;
2.426500000000000E+009;1.575465798377991E-001;-1.171963810920715E-001;2.342584542930126E-003;2.316625090315938E-003;
2.426666666666667E+009;1.573890149593353E-001;-1.171401143074036E-001;2.626791363582015E-003;2.464171033352613E-003;
2.426833333333334E+009;1.570377945899963E-001;-1.171990707516670E-001;2.593876095488668E-003;2.066110959276557E-003;
2.427000000000000E+009;1.566706299781799E-001;-1.173251643776894E-001;2.713082358241081E-003;2.006006659939885E-003;
2.427166666666667E+009;1.561309248209000E-001;-1.171359568834305E-001;2.758536022156477E-003;2.116219839081168E-003;
2.427333333333334E+009;1.555524915456772E-001;-1.171884387731552E-001;2.846166258677840E-003;2.031244570389390E-003;
2.427500000000000E+009;1.549958735704422E-001;-1.171421706676483E-001;2.842657035216689E-003;1.945824827998877E-003;
2.427666666666667E+009;1.541588902473450E-001;-1.173220053315163E-001;3.079981077462435E-003;1.871324842795730E-003;
2.427833333333334E+009;1.530683040618897E-001;-1.172278970479965E-001;3.130421042442322E-003;1.823679776862264E-003;
