# Version 1.00
#
freq[Hz];re:Trc1_S11;im:Trc1_S11;re:Trc2_S21;im:Trc2_S21;
2.400000000000000E+009;1.551845222711563E-001;6.155200302600861E-002;-2.708826214075089E-003;2.014424680965021E-004;
2.400166666666667E+009;1.552097946405411E-001;5.978097021579742E-002;-2.636068267747760E-003;2.237825246993452E-004;
2.400333333333334E+009;1.550206542015076E-001;5.763504281640053E-002;-2.635102020576596E-003;5.109172197990120E-004;
2.400500000000000E+009;1.551939547061920E-001;5.556602030992508E-002;-2.547825453802943E-003;5.119856214150786E-004;
2.400666666666667E+009;1.552651077508926E-001;5.330355092883110E-002;-2.596450736746192E-003;5.818532663397491E-004;
2.400833333333334E+009;1.555928438901901E-001;5.138788744807243E-002;-2.565809292718768E-003;7.197071099653840E-004;
2.401000000000000E+009;1.557955145835877E-001;4.912346974015236E-002;-2.523509552702308E-003;9.764984715729952E-004;
2.401166666666667E+009;1.562403291463852E-001;4.675199836492539E-002;-2.438923111185432E-003;1.075699576176703E-003;
2.401333333333334E+009;1.566636711359024E-001;4.459721967577934E-002;-2.332862466573715E-003;1.216461649164558E-003;
2.401500000000000E+009;1.572126895189285E-001;4.245837777853012E-002;-2.293934114277363E-003;1.298106042668223E-003;
2.401666666666667E+009;1.576986610889435E-001;4.056576639413834E-002;-2.101807156577706E-003;1.326618134044111E-003;
2.401833333333334E+009;1.584436595439911E-001;3.835884109139442E-002;-1.970015466213226E-003;1.407408039085567E-003;
2.402000000000000E+009;1.590247452259064E-001;3.628228232264519E-002;-1.768349087797105E-003;1.561639946885407E-003;
2.402166666666667E+009;1.596644818782806E-001;3.426259383559227E-002;-1.639933674596250E-003;1.522164326161146E-003;
2.402333333333334E+009;1.605921983718872E-001;3.224726393818855E-002;-1.574444817379117E-003;1.603369717486203E-003;
2.402500000000000E+009;1.616982817649841E-001;3.068171069025993E-002;-1.454195007681847E-003;1.649711281061173E-003;
2.402666666666667E+009;1.626087129116058E-001;2.917219139635563E-002;-1.446290523745120E-003;1.741758431307972E-003;
2.402833333333334E+009;1.635900288820267E-001;2.729793824255467E-002;-1.180382561869919E-003;1.677993219345808E-003;
2.403000000000000E+009;1.645739674568176E-001;2.585475891828537E-002;-1.043929718434811E-003;1.731998636387289E-003;
2.403166666666667E+009;1.655238568782806E-001;2.424345351755619E-002;-1.033698790706694E-003;1.671491423621774E-003;
2.403333333333334E+009;1.668829917907715E-001;2.302227914333344E-002;-9.291781461797655E-004;1.750247436575592E-003;
2.403500000000000E+009;1.678880006074905E-001;2.181875705718994E-002;-5.853996844962239E-004;1.846925122663379E-003;
2.403666666666667E+009;1.689248383045197E-001;2.055397443473339E-002;-5.404569674283266E-004;1.578257768414915E-003;
2.403833333333334E+009;1.702896058559418E-001;1.947891339659691E-002;-5.361234070733190E-004;1.612409250810742E-003;
2.404000000000000E+009;1.712882965803146E-001;1.852874085307121E-002;-3.902252938132733E-004;1.640296541154385E-003;
2.404166666666667E+009;1.722555309534073E-001;1.760921254754067E-002;-4.248071927577257E-004;1.584824058227241E-003;
2.404333333333334E+009;1.732182502746582E-001;1.682714372873306E-002;-3.529994573909789E-004;1.395362662151456E-003;
2.404500000000000E+009;1.743287146091461E-001;1.608957909047604E-002;-2.314283337909728E-004;1.592204673215747E-003;
2.404666666666667E+009;1.752707064151764E-001;1.543119177222252E-002;-5.297392999636941E-005;1.410041353665292E-003;
2.404833333333334E+009;1.762681305408478E-001;1.488835364580154E-002;8.501766387780663E-006;1.343074603937566E-003;
2.405000000000000E+009;1.771178841590881E-001;1.429427973926067E-002;-8.548413461539894E-005;1.276491209864616E-003;
2.405166666666667E+009;1.779641956090927E-001;1.395381335169077E-002;4.217269452055916E-005;1.219001831486821E-003;
2.405333333333334E+009;1.787689477205277E-001;1.352172438055277E-002;8.971968782134354E-005;1.089425873942673E-003;
2.405500000000000E+009;1.792844235897064E-001;1.341123506426811E-002;2.330710412934423E-004;8.544935844838619E-004;
2.405666666666667E+009;1.800489127635956E-001;1.312959566712380E-002;3.025601909030229E-004;9.852398652583361E-004;
2.405833333333334E+009;1.803863793611527E-001;1.284225657582283E-002;2.229399397037923E-004;9.580398327670991E-004;
2.406000000000000E+009;1.808405667543411E-001;1.262552849948406E-002;2.507439930923283E-004;8.516247617080808E-004;
2.406166666666667E+009;1.810066401958466E-001;1.255206763744354E-002;3.271398309152573E-004;6.681223167106509E-004;
2.406333333333334E+009;1.813552230596542E-001;1.246904674917460E-002;3.924644843209535E-004;7.911544525995851E-004;
2.406500000000000E+009;1.813709884881973E-001;1.203461643308401E-002;3.215252072550356E-004;5.785551038570702E-004;
2.406666666666667E+009;1.813731938600540E-001;1.215169951319695E-002;2.272526326123625E-004;5.278941243886948E-004;
2.406833333333334E+009;1.814194619655609E-001;1.174210943281651E-002;3.352536587044597E-004;6.209140410646796E-004;
2.407000000000000E+009;1.811639517545700E-001;1.154517475515604E-002;3.644716343842447E-004;4.308417264837772E-004;
2.407166666666667E+009;1.810702085494995E-001;1.139549724757671E-002;3.441862936597318E-004;5.812679301016033E-004;
2.407333333333334E+009;1.806215941905975E-001;1.080628298223019E-002;3.551405097823590E-004;3.554799768608064E-004;
2.407500000000000E+009;1.803083121776581E-001;1.055599190294743E-002;3.696818312164396E-004;3.547136730048806E-004;
2.407666666666667E+009;1.797336190938950E-001;1.012731343507767E-002;2.937351237051189E-004;3.063410113099963E-004;
2.407833333333334E+009;1.790330111980438E-001;9.353542700409889E-003;3.686712007038295E-004;2.285450464114547E-004;
2.408000000000000E+009;1.784624606370926E-001;8.782724849879742E-003;2.116734831361100E-004;1.280990545637906E-004;
2.408166666666667E+009;1.778434664011002E-001;8.197463117539883E-003;3.964314528275281E-004;1.975475461222231E-004;
2.408333333333334E+009;1.771414577960968E-001;7.346659433096647E-003;4.282280278857797E-004;1.613705535419285E-004;
2.408500000000000E+009;1.764755100011826E-001;6.297924090176821E-003;2.788625424727798E-004;-1.203782858283375E-006;
2.408666666666667E+009;1.756773591041565E-001;5.318360403180122E-003;3.114833380095661E-004;6.907337228767574E-005;
2.408833333333334E+009;1.747611612081528E-001;4.167857114225626E-003;4.073108138982207E-004;-5.937426976743154E-005;
2.409000000000000E+009;1.739208549261093E-001;2.973225666210055E-003;3.917106660082936E-004;-2.299204497830942E-004;
2.409166666666667E+009;1.730908304452896E-001;1.559313503094018E-003;2.533513470552862E-004;-2.671597758308053E-004;
2.409333333333334E+009;1.723892688751221E-001;2.226555516244844E-004;2.459041716065258E-004;-1.722170709399506E-004;
2.409500000000000E+009;1.715003848075867E-001;-1.498565892688930E-003;2.505108423065394E-004;-2.675757568795234E-004;
2.409666666666667E+009;1.708451211452484E-001;-2.989798318594694E-003;2.759911585599184E-004;-2.797021588776261E-004;
2.409833333333334E+009;1.698657274246216E-001;-4.501570481806994E-003;1.465687528252602E-004;-2.288993273396045E-004;
2.410000000000000E+009;1.694706976413727E-001;-6.165313534438610E-003;-9.003423474496231E-005;-4.129751469008625E-004;
2.410166666666667E+009;1.686993241310120E-001;-8.109784685075283E-003;6.642705557169393E-005;-6.167037063278258E-004;
2.410333333333334E+009;1.681424230337143E-001;-9.921081364154816E-003;-5.929532562731765E-005;-4.520518123172224E-004;
2.410500000000000E+009;1.677084267139435E-001;-1.185674592852593E-002;-6.894121725053992E-006;-5.453552003018558E-004;
2.410666666666667E+009;1.671308130025864E-001;-1.391361374408007E-002;-1.359292036795523E-005;-5.249342066235840E-004;
2.410833333333334E+009;1.667451709508896E-001;-1.589346304535866E-002;-2.284674119437113E-004;-6.618323386646807E-004;
2.411000000000000E+009;1.664211899042130E-001;-1.786123402416706E-002;-2.536880201660097E-004;-5.037941155023873E-004;
2.411166666666667E+009;1.663567870855331E-001;-2.002481557428837E-002;-4.931011935696006E-004;-6.245551630854607E-004;
2.411333333333334E+009;1.661269068717957E-001;-2.203887514770031E-002;-3.550860565155745E-004;-5.408126744441688E-004;
2.411500000000000E+009;1.659724116325378E-001;-2.426832541823387E-002;-3.975856234319508E-004;-5.974131054244936E-004;
2.411666666666667E+009;1.663245856761932E-001;-2.636969462037087E-002;-4.425222577992827E-004;-7.029869593679905E-004;
2.411833333333334E+009;1.663064956665039E-001;-2.822876907885075E-002;-6.010577781125903E-004;-6.115399883128703E-004;
2.412000000000000E+009;1.666704416275024E-001;-3.035762719810009E-002;-6.391646456904709E-004;-7.791732205078006E-004;
2.412166666666667E+009;1.670262962579727E-001;-3.243575617671013E-002;-5.525154410861433E-004;-6.756838411092758E-004;
2.412333333333334E+009;1.676324605941773E-001;-3.420485183596611E-002;-6.921553285792470E-004;-7.390510290861130E-004;
2.412500000000000E+009;1.678960472345352E-001;-3.626298531889916E-002;-7.943277596496046E-004;-6.966885994188488E-004;
2.412666666666667E+009;1.686243116855621E-001;-3.817091882228851E-002;-9.467365453019738E-004;-5.780389183200896E-004;
2.412833333333334E+009;1.691532731056213E-001;-4.007013514637947E-002;-8.083133143372834E-004;-6.207594415172935E-004;
2.413000000000000E+009;1.695943027734757E-001;-4.182768613100052E-002;-1.164327724836767E-003;-6.344244466163218E-004;
2.413166666666667E+009;1.702509671449661E-001;-4.354497790336609E-002;-1.102897804230452E-003;-6.298702792264521E-004;
2.413333333333334E+009;1.708162873983383E-001;-4.506669193506241E-002;-1.278427196666598E-003;-4.275752580724657E-004;
2.413500000000000E+009;1.716755628585815E-001;-4.656026884913445E-002;-1.270650885999203E-003;-6.446670158766210E-004;
2.413666666666667E+009;1.724585592746735E-001;-4.820960760116577E-002;-1.456405734643340E-003;-3.878612769767642E-004;
2.413833333333334E+009;1.732043623924255E-001;-4.945982620120049E-002;-1.545230625197291E-003;-4.323899629525840E-004;
2.414000000000000E+009;1.736235916614533E-001;-5.073984339833260E-002;-1.460907515138388E-003;-2.081926941173151E-004;
2.414166666666667E+009;1.745942682027817E-001;-5.198230966925621E-002;-1.525936531834304E-003;-2.162596210837364E-004;
2.414333333333334E+009;1.752267181873322E-001;-5.299925431609154E-002;-1.567493309266865E-003;-2.175544941565022E-004;
2.414500000000000E+009;1.761013716459274E-001;-5.387504398822784E-002;-1.706990529783070E-003;-3.757664671866223E-005;
2.414666666666667E+009;1.765398979187012E-001;-5.488885939121246E-002;-1.857787254266441E-003;8.481762051815167E-005;
2.414833333333334E+009;1.771494895219803E-001;-5.555832386016846E-002;-1.712909433990717E-003;1.350440579699352E-004;
2.415000000000000E+009;1.776819676160812E-001;-5.608627200126648E-002;-1.878556562587619E-003;1.738943246891722E-004;
2.415166666666667E+009;1.782689541578293E-001;-5.676536634564400E-002;-1.805871143005788E-003;3.510528476908803E-004;
2.415333333333334E+009;1.785542666912079E-001;-5.728226527571678E-002;-1.939092879183590E-003;4.409985267557204E-004;
2.415500000000000E+009;1.789814382791519E-001;-5.760752782225609E-002;-1.783775631338358E-003;6.981049082241952E-004;
2.415666666666667E+009;1.789554208517075E-001;-5.790731310844421E-002;-2.025770023465157E-003;7.539619109593332E-004;
2.415833333333334E+009;1.794114857912064E-001;-5.814798548817635E-002;-1.813181210309267E-003;7.339761359617114E-004;
2.416000000000000E+009;1.791783124208450E-001;-5.842764675617218E-002;-1.856201910413802E-003;8.876579813659191E-004;
2.416166666666667E+009;1.793375164270401E-001;-5.856132879853249E-002;-1.877586939372122E-003;9.555196156725287E-004;
2.416333333333334E+009;1.791438162326813E-001;-5.872069671750069E-002;-1.842517522163689E-003;9.337129304185510E-004;
2.416500000000000E+009;1.790267974138260E-001;-5.888891592621803E-002;-1.827021827921271E-003;1.172196702100337E-003;
2.416666666666667E+009;1.786415129899979E-001;-5.882773175835609E-002;-1.587006845511496E-003;1.304483157582581E-003;
2.416833333333334E+009;1.782687157392502E-001;-5.911116674542427E-002;-1.819712109863758E-003;1.347662066109479E-003;
2.417000000000000E+009;1.774794757366180E-001;-5.912500619888306E-002;-1.801348989829421E-003;1.422705594450235E-003;
2.417166666666667E+009;1.770254224538803E-001;-5.917997658252716E-002;-1.672537182457745E-003;1.475538709200919E-003;
2.417333333333334E+009;1.764216423034668E-001;-5.918919667601585E-002;-1.605623750947416E-003;1.445879228413105E-003;
2.417500000000000E+009;1.753693372011185E-001;-5.955000966787338E-002;-1.629102625884116E-003;1.557012554258108E-003;
2.417666666666667E+009;1.746270060539246E-001;-5.956357344985008E-002;-1.560450065881014E-003;1.551680616103113E-003;
2.417833333333334E+009;1.735416054725647E-001;-5.980360880494118E-002;-1.504932995885611E-003;1.720562577247620E-003;
2.418000000000000E+009;1.724528968334198E-001;-6.012351810932159E-002;-1.394916558638215E-003;1.775126438587904E-003;
2.418166666666667E+009;1.713388860225678E-001;-6.025412306189537E-002;-1.212532515637577E-003;1.788981608115137E-003;
2.418333333333334E+009;1.703315973281860E-001;-6.073225289583206E-002;-1.249257824383676E-003;1.803278806619346E-003;
2.418500000000000E+009;1.689378172159195E-001;-6.126107275485992E-002;-1.196441589854658E-003;2.020006766542792E-003;
2.418666666666667E+009;1.678321659564972E-001;-6.172049045562744E-002;-1.259873504750431E-003;2.061622450128198E-003;
2.418833333333334E+009;1.662908792495728E-001;-6.255707889795303E-002;-1.180045190267265E-003;2.063938649371266E-003;
2.419000000000000E+009;1.649708598852158E-001;-6.313688308000565E-002;-8.973015937954187E-004;2.254178514704108E-003;
2.419166666666667E+009;1.636698693037033E-001;-6.392304599285126E-002;-9.893341921269894E-004;2.072807401418686E-003;
2.419333333333334E+009;1.622282564640045E-001;-6.453931331634522E-002;-1.108942786231637E-003;2.161103999242187E-003;
2.419500000000000E+009;1.609457135200501E-001;-6.581552326679230E-002;-8.282903581857681E-004;2.271745121106505E-003;
2.419666666666667E+009;1.595982164144516E-001;-6.699984520673752E-002;-7.789083756506443E-004;2.155760768800974E-003;
2.419833333333334E+009;1.582989543676376E-001;-6.793619692325592E-002;-6.843720912002027E-004;2.273983322083950E-003;
2.420000000000000E+009;1.572010666131973E-001;-6.904982775449753E-002;-6.645210087299347E-004;2.273993333801627E-003;
2.420166666666667E+009;1.559534519910812E-001;-7.045645266771317E-002;-5.403714021667838E-004;2.411297289654613E-003;
2.420333333333334E+009;1.548716276884079E-001;-7.201749086380005E-002;-4.487251862883568E-004;2.394739538431168E-003;
2.420500000000000E+009;1.538381576538086E-001;-7.314842194318771E-002;-5.186758353374898E-004;2.356187673285604E-003;
2.420666666666667E+009;1.529073417186737E-001;-7.481958717107773E-002;-3.491571696940810E-004;2.395576331764460E-003;
2.420833333333334E+009;1.517908722162247E-001;-7.644006609916687E-002;-2.629265072755516E-004;2.491702791303396E-003;
2.421000000000000E+009;1.512068957090378E-001;-7.810548692941666E-002;-2.559291606303304E-004;2.502458868548274E-003;
2.421166666666667E+009;1.503784060478210E-001;-7.977090775966644E-002;-1.155124991782941E-004;2.355418168008328E-003;
2.421333333333334E+009;1.499538719654083E-001;-8.154456317424774E-002;-7.894227019278333E-005;2.466628560796380E-003;
2.421500000000000E+009;1.492841243743897E-001;-8.319159597158432E-002;-6.247079727472737E-005;2.387077314779162E-003;
2.421666666666667E+009;1.488195508718491E-001;-8.515252918004990E-002;-1.273196830879897E-004;2.423052443191409E-003;
2.421833333333334E+009;1.486515998840332E-001;-8.693816512823105E-002;-8.766660175751895E-005;2.548787742853165E-003;
2.422000000000000E+009;1.482569575309753E-001;-8.901558071374893E-002;-1.434265686839353E-005;2.486688783392310E-003;
2.422166666666667E+009;1.481816917657852E-001;-9.081477671861649E-002;8.936094673117623E-005;2.529243938624859E-003;
2.422333333333334E+009;1.480758190155029E-001;-9.240891784429550E-002;2.504544318071567E-005;2.477579517289996E-003;
2.422500000000000E+009;1.481664776802063E-001;-9.417942911386490E-002;7.437162275891751E-005;2.429072512313724E-003;
2.422666666666667E+009;1.480197608470917E-001;-9.606629610061646E-002;2.701650082599372E-004;2.716941991820931E-003;
2.422833333333334E+009;1.484440565109253E-001;-9.775140136480331E-002;3.647169214673340E-004;2.600142965093255E-003;
2.423000000000000E+009;1.487512141466141E-001;-9.938193857669830E-002;4.291633085813373E-004;2.803560579195619E-003;
2.423166666666667E+009;1.490916013717651E-001;-1.011167317628861E-001;4.478123155422509E-004;2.726442413404584E-003;
2.423333333333334E+009;1.496886759996414E-001;-1.024123802781105E-001;5.534815718419850E-004;2.853752579540014E-003;
2.423500000000000E+009;1.500403881072998E-001;-1.040292829275131E-001;7.218719692900777E-004;2.810591133311391E-003;
2.423666666666667E+009;1.504162549972534E-001;-1.056503057479858E-001;6.038057617843151E-004;2.835680032148957E-003;
2.423833333333334E+009;1.512512713670731E-001;-1.070811972022057E-001;7.971816230565310E-004;2.839916152879596E-003;
2.424000000000000E+009;1.516591757535934E-001;-1.080484837293625E-001;9.553665877319872E-004;2.793574705719948E-003;
2.424166666666667E+009;1.522810757160187E-001;-1.093708425760269E-001;1.014578039757907E-003;2.903174376115203E-003;
2.424333333333334E+009;1.530191004276276E-001;-1.103930249810219E-001;1.134083489887416E-003;2.935896627604961E-003;
2.424500000000000E+009;1.536408662796021E-001;-1.114095598459244E-001;1.204906962811947E-003;2.911147195845842E-003;
2.424666666666667E+009;1.543307006359100E-001;-1.122089698910713E-001;1.309020211920142E-003;2.937998156994581E-003;
2.424833333333334E+009;1.547032147645950E-001;-1.130424886941910E-001;1.413227058947086E-003;3.019159426912665E-003;
2.425000000000000E+009;1.553866416215897E-001;-1.139113903045654E-001;1.585549092851579E-003;2.898886101320386E-003;
2.425166666666667E+009;1.557283997535706E-001;-1.145434603095055E-001;1.600549090653658E-003;2.889779396355152E-003;
2.425333333333334E+009;1.563880741596222E-001;-1.151842400431633E-001;1.917106797918677E-003;2.814854495227337E-003;
2.425500000000000E+009;1.568786352872849E-001;-1.156575083732605E-001;1.984914531931281E-003;2.860686276108027E-003;
2.425666666666667E+009;1.570296585559845E-001;-1.160360127687454E-001;2.244796836748719E-003;2.829065313562751E-003;
2.425833333333334E+009;1.573080718517304E-001;-1.162851452827454E-001;2.260902663692832E-003;2.667757682502270E-003;
2.426000000000000E+009;1.574793308973312E-001;-1.167530417442322E-001;2.181879244744778E-003;2.672407310456038E-003;
2.426166666666667E+009;1.577772647142410E-001;-1.169800460338593E-001;2.546838019043207E-003;2.749172737821937E-003;
2.426333333333334E+009;1.576232165098190E-001;-1.169822886586189E-001;2.568037714809179E-003;2.540932735428214E-003;
2.426500000000000E+009;1.576246768236160E-001;-1.171330660581589E-001;2.570760902017355E-003;2.417361363768578E-003;
2.426666666666667E+009;1.576050072908402E-001;-1.169752776622772E-001;2.747199265286326E-003;2.521481132134795E-003;
2.426833333333334E+009;1.572400927543640E-001;-1.172334328293800E-001;2.730227075517178E-003;2.411437686532736E-003;
2.427000000000000E+009;1.568800508975983E-001;-1.172576248645783E-001;2.918173791840673E-003;2.111342037096620E-003;
2.427166666666667E+009;1.563595831394196E-001;-1.171542778611183E-001;3.066573990508914E-003;2.133489353582263E-003;
2.427333333333334E+009;1.557876318693161E-001;-1.171736046671867E-001;3.127422649413347E-003;2.176280599087477E-003;
2.427500000000000E+009;1.550987809896469E-001;-1.170879229903221E-001;3.125261981040239E-003;1.900602248497307E-003;
2.427666666666667E+009;1.543633788824081E-001;-1.171982660889626E-001;3.351227147504687E-003;1.835513161495328E-003;
2.427833333333334E+009;1.532205343246460E-001;-1.173003613948822E-001;3.391362261027098E-003;1.696865656413138E-003;
