# Version 1.00
#
freq[Hz];re:Trc1_S11;im:Trc1_S11;re:Trc2_S21;im:Trc2_S21;
2.400000000000000E+009;1.559760570526123E-001;5.990630760788918E-002;3.179755294695497E-003;6.942732725292444E-004;
2.400166666666667E+009;1.562071591615677E-001;5.812751129269600E-002;3.320069517940283E-003;6.775797228328884E-004;
2.400333333333334E+009;1.560844331979752E-001;5.594936013221741E-002;3.175274003297091E-003;6.245020776987076E-004;
2.400500000000000E+009;1.564627885818481E-001;5.405175685882568E-002;3.219699952751398E-003;4.642931744456291E-004;
2.400666666666667E+009;1.564162522554398E-001;5.190858989953995E-002;3.213121322914958E-003;3.338033275213093E-004;
2.400833333333334E+009;1.571965962648392E-001;4.995960742235184E-002;3.163362620398402E-003;2.395664487266913E-004;
2.401000000000000E+009;1.572751104831696E-001;4.778273031115532E-002;3.050904022529721E-003;1.549432199681178E-004;
2.401166666666667E+009;1.577577739953995E-001;4.578646644949913E-002;3.225854830816388E-003;9.021665027830750E-005;
2.401333333333334E+009;1.581429988145828E-001;4.373804107308388E-002;3.134201280772686E-003;-4.532036200544098E-006;
2.401500000000000E+009;1.589317470788956E-001;4.172839969396591E-002;3.140099346637726E-003;-3.966782242059708E-005;
2.401666666666667E+009;1.595154702663422E-001;3.980214148759842E-002;3.130686702206731E-003;-3.671130107250065E-004;
2.401833333333334E+009;1.601086258888245E-001;3.775389492511749E-002;2.982889534905553E-003;-4.439495387487114E-004;
2.402000000000000E+009;1.605637520551682E-001;3.601026907563210E-002;3.012013388797641E-003;-3.351814229972661E-004;
2.402166666666667E+009;1.611946970224381E-001;3.400188684463501E-002;3.062152303755283E-003;-6.194108864292502E-004;
2.402333333333334E+009;1.620820611715317E-001;3.254940360784531E-002;2.845980692654848E-003;-6.144632934592664E-004;
2.402500000000000E+009;1.633020043373108E-001;3.065643645823002E-002;2.989880042150617E-003;-7.122006500139833E-004;
2.402666666666667E+009;1.639366447925568E-001;2.912949211895466E-002;2.866285620257258E-003;-5.955700762569904E-004;
2.402833333333334E+009;1.647848337888718E-001;2.779323048889637E-002;2.785172313451767E-003;-8.235414861701429E-004;
2.403000000000000E+009;1.658563315868378E-001;2.619716525077820E-002;2.805980853736401E-003;-9.122093906626105E-004;
2.403166666666667E+009;1.668078750371933E-001;2.514265477657318E-002;2.694331109523773E-003;-8.199209696613252E-004;
2.403333333333334E+009;1.676472425460815E-001;2.375194244086742E-002;2.711676061153412E-003;-9.657239424996078E-004;
2.403500000000000E+009;1.687310039997101E-001;2.271013706922531E-002;2.663182793185115E-003;-1.124242786318064E-003;
2.403666666666667E+009;1.696445494890213E-001;2.149852178990841E-002;2.487677382305265E-003;-1.099556451663375E-003;
2.403833333333334E+009;1.709154248237610E-001;2.066144160926342E-002;2.415108261629939E-003;-1.061240560375154E-003;
2.404000000000000E+009;1.716760098934174E-001;1.974619366228581E-002;2.559714717790484E-003;-1.180076622404158E-003;
2.404166666666667E+009;1.727227419614792E-001;1.891019381582737E-002;2.158401766791940E-003;-1.203788444399834E-003;
2.404333333333334E+009;1.735663861036301E-001;1.818936876952648E-002;2.272562356665731E-003;-1.124928239732981E-003;
2.404500000000000E+009;1.743634939193726E-001;1.724419556558132E-002;2.179262926802039E-003;-1.140577136538923E-003;
2.404666666666667E+009;1.752587407827377E-001;1.686282828450203E-002;2.081988612189889E-003;-9.371528285555542E-004;
2.404833333333334E+009;1.760465204715729E-001;1.631030440330505E-002;2.252753125503659E-003;-1.362246810458601E-003;
2.405000000000000E+009;1.767884641885757E-001;1.569325290620327E-002;2.163048135116696E-003;-1.323199016042054E-003;
2.405166666666667E+009;1.772997975349426E-001;1.535611040890217E-002;2.090213820338249E-003;-1.363047049380839E-003;
2.405333333333334E+009;1.780339032411575E-001;1.483236812055111E-002;2.191657666116953E-003;-1.275993534363806E-003;
2.405500000000000E+009;1.784046888351440E-001;1.469295006245375E-002;2.072838600724936E-003;-1.306389574892819E-003;
2.405666666666667E+009;1.789815574884415E-001;1.435360964387655E-002;2.019388601183891E-003;-1.285421429201961E-003;
2.405833333333334E+009;1.791504174470902E-001;1.403460279107094E-002;2.045759232714772E-003;-1.381048001348972E-003;
2.406000000000000E+009;1.796512901782990E-001;1.363416481763125E-002;2.121602650731802E-003;-1.423666602931917E-003;
2.406166666666667E+009;1.795095056295395E-001;1.353409234434366E-002;2.034254604950547E-003;-1.266090665012598E-003;
2.406333333333334E+009;1.800023764371872E-001;1.322899200022221E-002;2.162864897400141E-003;-1.406983938068152E-003;
2.406500000000000E+009;1.799180805683136E-001;1.291579753160477E-002;2.183352597057819E-003;-1.392175559885800E-003;
2.406666666666667E+009;1.796829402446747E-001;1.274184603244066E-002;1.999051310122013E-003;-1.437918981537223E-003;
2.406833333333334E+009;1.797341853380203E-001;1.226835977286100E-002;2.006658352911472E-003;-1.412041485309601E-003;
2.407000000000000E+009;1.794531345367432E-001;1.183947268873453E-002;1.954015111550689E-003;-1.583551289513707E-003;
2.407166666666667E+009;1.794077008962631E-001;1.152167655527592E-002;2.042159903794527E-003;-1.468432368710637E-003;
2.407333333333334E+009;1.789375990629196E-001;1.100692339241505E-002;1.980760367587209E-003;-1.682416303083301E-003;
2.407500000000000E+009;1.785268336534500E-001;1.043500844389200E-002;2.202736679464579E-003;-1.678294967859983E-003;
2.407666666666667E+009;1.782456189393997E-001;9.952543303370476E-003;1.981782261282206E-003;-1.596862566657364E-003;
2.407833333333334E+009;1.776354163885117E-001;8.903452195227146E-003;1.906632911413908E-003;-1.819408964365721E-003;
2.408000000000000E+009;1.770543754100800E-001;8.319361135363579E-003;2.004209207370877E-003;-1.854005851782858E-003;
2.408166666666667E+009;1.765064150094986E-001;7.529682014137507E-003;1.860930584371090E-003;-1.860367367044091E-003;
2.408333333333334E+009;1.760191172361374E-001;6.455519702285528E-003;1.924325129948556E-003;-1.931758364662528E-003;
2.408500000000000E+009;1.751872748136520E-001;5.384222138673067E-003;1.907836762256920E-003;-2.031087875366211E-003;
2.408666666666667E+009;1.746065467596054E-001;4.228886216878891E-003;2.005981514230371E-003;-2.041707281023264E-003;
2.408833333333334E+009;1.737892925739288E-001;3.079878166317940E-003;1.823197351768613E-003;-2.126498380675912E-003;
2.409000000000000E+009;1.732212752103806E-001;1.828869222663343E-003;1.964767929166555E-003;-2.181951655074954E-003;
2.409166666666667E+009;1.725730895996094E-001;3.600822819862515E-004;1.667521544732153E-003;-2.320255618542433E-003;
2.409333333333334E+009;1.719227731227875E-001;-1.126982271671295E-003;1.849970663897693E-003;-2.309904433786869E-003;
2.409500000000000E+009;1.712493002414703E-001;-2.750572282820940E-003;1.716073602437973E-003;-2.386900130659342E-003;
2.409666666666667E+009;1.705657839775085E-001;-4.319150466471911E-003;1.694649225100875E-003;-2.437319606542587E-003;
2.409833333333334E+009;1.698424816131592E-001;-5.963033996522427E-003;1.647560507990420E-003;-2.461574273183942E-003;
2.410000000000000E+009;1.695735156536102E-001;-7.727904710918665E-003;1.660543493926525E-003;-2.653563395142555E-003;
2.410166666666667E+009;1.690242886543274E-001;-9.608980268239975E-003;1.562605728395283E-003;-2.831612247973681E-003;
2.410333333333334E+009;1.684928536415100E-001;-1.128315273672342E-002;1.502676052041352E-003;-2.728836378082633E-003;
2.410500000000000E+009;1.680362671613693E-001;-1.331158727407455E-002;1.410562428645790E-003;-2.903214422985911E-003;
2.410666666666667E+009;1.679308116436005E-001;-1.531268283724785E-002;1.445098198018968E-003;-2.936489414423704E-003;
2.410833333333334E+009;1.677134335041046E-001;-1.702461577951908E-002;1.280230586417019E-003;-3.095970721915364E-003;
2.411000000000000E+009;1.674852073192596E-001;-1.901513151824474E-002;1.125237904489040E-003;-3.224081126973033E-003;
2.411166666666667E+009;1.671659648418427E-001;-2.117246016860008E-002;1.014578971080482E-003;-3.268464002758265E-003;
2.411333333333334E+009;1.673390716314316E-001;-2.305955812335014E-002;9.063942125067115E-004;-3.346150508150458E-003;
2.411500000000000E+009;1.673310101032257E-001;-2.521249838173389E-002;8.138111443258822E-004;-3.382396418601275E-003;
2.411666666666667E+009;1.674099564552307E-001;-2.702512592077255E-002;7.208418101072311E-004;-3.532701171934605E-003;
2.411833333333334E+009;1.678515225648880E-001;-2.892506681382656E-002;6.022350280545652E-004;-3.413818543776870E-003;
2.412000000000000E+009;1.680771112442017E-001;-3.097196482121944E-002;4.602917178999633E-004;-3.468620125204325E-003;
2.412166666666667E+009;1.683809757232666E-001;-3.294423595070839E-002;9.759392560226843E-005;-3.609633306041360E-003;
2.412333333333334E+009;1.690136641263962E-001;-3.459616750478745E-002;3.931868923245929E-005;-3.557530231773853E-003;
2.412500000000000E+009;1.691712290048599E-001;-3.657666966319084E-002;-9.691904415376484E-005;-3.552214242517948E-003;
2.412666666666667E+009;1.698763966560364E-001;-3.834774717688561E-002;-3.164786321576685E-004;-3.537808544933796E-003;
2.412833333333334E+009;1.702551543712616E-001;-3.999079391360283E-002;-3.820461570285261E-004;-3.352640662342310E-003;
2.413000000000000E+009;1.710654199123383E-001;-4.148203134536743E-002;-5.607260973192751E-004;-3.469376824796200E-003;
2.413166666666667E+009;1.715546399354935E-001;-4.312837496399880E-002;-5.522385472431779E-004;-3.543616272509098E-003;
2.413333333333334E+009;1.720850765705109E-001;-4.463407024741173E-002;-6.780964322388172E-004;-3.416333114728332E-003;
2.413500000000000E+009;1.726918965578079E-001;-4.604030773043633E-002;-9.212702279910445E-004;-3.351065795868635E-003;
2.413666666666667E+009;1.735204607248306E-001;-4.738312587141991E-002;-1.072124810889363E-003;-3.234492614865303E-003;
2.413833333333334E+009;1.739922761917114E-001;-4.861935228109360E-002;-9.869263740256429E-004;-3.244245890527964E-003;
2.414000000000000E+009;1.744430363178253E-001;-5.004194378852844E-002;-1.142352237366140E-003;-3.132492536678910E-003;
2.414166666666667E+009;1.752296835184097E-001;-5.078047886490822E-002;-1.414583763107657E-003;-3.206078195944428E-003;
2.414333333333334E+009;1.757782101631165E-001;-5.198825895786285E-002;-1.332768471911550E-003;-2.946778433397412E-003;
2.414500000000000E+009;1.763999760150909E-001;-5.271665006875992E-002;-1.460375613532960E-003;-2.880310639739037E-003;
2.414666666666667E+009;1.768316179513931E-001;-5.364375934004784E-002;-1.592812943272293E-003;-2.686435589566827E-003;
2.414833333333334E+009;1.773034483194351E-001;-5.435651168227196E-002;-1.622186857275665E-003;-2.823915798217058E-003;
2.415000000000000E+009;1.777305454015732E-001;-5.491944029927254E-002;-1.752816373482347E-003;-2.574233571067452E-003;
2.415166666666667E+009;1.779895573854446E-001;-5.546341836452484E-002;-1.822865568101406E-003;-2.471218816936016E-003;
2.415333333333334E+009;1.783898621797562E-001;-5.596922338008881E-002;-1.834395690821111E-003;-2.477934584021568E-003;
2.415500000000000E+009;1.784949153661728E-001;-5.638566240668297E-002;-1.961475005373359E-003;-2.425789367407560E-003;
2.415666666666667E+009;1.786364018917084E-001;-5.668252333998680E-002;-2.057203557342291E-003;-2.303469227626920E-003;
2.415833333333334E+009;1.786978542804718E-001;-5.712065473198891E-002;-1.987916650250554E-003;-2.196507528424263E-003;
2.416000000000000E+009;1.785202026367188E-001;-5.738214030861855E-002;-2.038583625108004E-003;-1.942256349138916E-003;
2.416166666666667E+009;1.786287575960159E-001;-5.760110914707184E-002;-2.101530786603689E-003;-1.957005821168423E-003;
2.416333333333334E+009;1.783852130174637E-001;-5.772363021969795E-002;-1.984527567401528E-003;-1.944022602401674E-003;
2.416500000000000E+009;1.779670566320419E-001;-5.798881128430367E-002;-2.030122326686978E-003;-1.649811165407300E-003;
2.416666666666667E+009;1.774069070816040E-001;-5.820841342210770E-002;-2.137713832780719E-003;-1.906672259792686E-003;
2.416833333333334E+009;1.770935058593750E-001;-5.842674896121025E-002;-2.132169902324677E-003;-1.705824513919652E-003;
2.417000000000000E+009;1.763121485710144E-001;-5.862605199217796E-002;-2.160578500479460E-003;-1.549659762531519E-003;
2.417166666666667E+009;1.756931543350220E-001;-5.880276486277580E-002;-2.012293087318540E-003;-1.619218033738434E-003;
2.417333333333334E+009;1.749648153781891E-001;-5.905472859740257E-002;-2.132559660822153E-003;-1.411383505910635E-003;
2.417500000000000E+009;1.741585731506348E-001;-5.944806337356567E-002;-2.039318671450019E-003;-1.505533582530916E-003;
2.417666666666667E+009;1.732596755027771E-001;-5.951846018433571E-002;-2.157500013709068E-003;-1.376234344206750E-003;
2.417833333333334E+009;1.722026616334915E-001;-5.987774208188057E-002;-2.105979947373271E-003;-1.376648200675845E-003;
2.418000000000000E+009;1.711126267910004E-001;-6.042714416980743E-002;-2.114833099767566E-003;-1.216428587213159E-003;
2.418166666666667E+009;1.699728518724442E-001;-6.069423258304596E-002;-1.987294759601355E-003;-1.413835911080241E-003;
2.418333333333334E+009;1.691113412380219E-001;-6.131971627473831E-002;-2.055641962215304E-003;-1.250720000825822E-003;
2.418500000000000E+009;1.678109318017960E-001;-6.186583265662193E-002;-2.113082213327289E-003;-1.303178723901510E-003;
2.418666666666667E+009;1.665631532669067E-001;-6.260684877634049E-002;-2.068838570266962E-003;-1.351018785499036E-003;
2.418833333333334E+009;1.652796715497971E-001;-6.332436203956604E-002;-2.164185047149658E-003;-1.262327190488577E-003;
2.419000000000000E+009;1.639682352542877E-001;-6.411697715520859E-002;-2.046393929049373E-003;-1.280126394703984E-003;
2.419166666666667E+009;1.628675311803818E-001;-6.501302123069763E-002;-2.088214503601193E-003;-1.168133108876646E-003;
2.419333333333334E+009;1.614459753036499E-001;-6.578961014747620E-002;-2.159322611987591E-003;-1.280942466109991E-003;
2.419500000000000E+009;1.603056639432907E-001;-6.700425595045090E-002;-2.171192551031709E-003;-1.297612907364965E-003;
2.419666666666667E+009;1.593119651079178E-001;-6.808003038167954E-002;-2.246230607852340E-003;-1.232073525898159E-003;
2.419833333333334E+009;1.579429507255554E-001;-6.921914964914322E-002;-2.323050750419498E-003;-1.393940532580018E-003;
2.420000000000000E+009;1.568731069564819E-001;-7.049661129713059E-002;-2.349970163777471E-003;-1.154717057943344E-003;
2.420166666666667E+009;1.558155864477158E-001;-7.185414433479309E-002;-2.488517435267568E-003;-1.197405392304063E-003;
2.420333333333334E+009;1.548733562231064E-001;-7.339763641357422E-002;-2.368274843320251E-003;-1.160927815362811E-003;
2.420500000000000E+009;1.540939509868622E-001;-7.458499073982239E-002;-2.501848852261901E-003;-1.063504256308079E-003;
2.420666666666667E+009;1.531212031841278E-001;-7.602301985025406E-002;-2.567399758845568E-003;-1.129704411141574E-003;
2.420833333333334E+009;1.522438377141953E-001;-7.774290442466736E-002;-2.434825757518411E-003;-1.042644958943129E-003;
2.421000000000000E+009;1.516288965940476E-001;-7.934628427028656E-002;-2.691382775083184E-003;-9.346233564428985E-004;
2.421166666666667E+009;1.511140018701553E-001;-8.099848777055740E-002;-2.792552812024951E-003;-8.002471877261996E-004;
2.421333333333334E+009;1.506506651639938E-001;-8.266530930995941E-002;-2.900048624724150E-003;-9.305080166086555E-004;
2.421500000000000E+009;1.500725746154785E-001;-8.431335538625717E-002;-2.818579785525799E-003;-8.962829015217722E-004;
2.421666666666667E+009;1.497167944908142E-001;-8.615333586931229E-002;-2.810399746522307E-003;-6.208078120835125E-004;
2.421833333333334E+009;1.496410369873047E-001;-8.786009997129440E-002;-3.000019351020455E-003;-6.465438636951149E-004;
2.422000000000000E+009;1.495213806629181E-001;-8.933709561824799E-002;-3.135798266157508E-003;-4.306104674469680E-004;
2.422166666666667E+009;1.494078487157822E-001;-9.130347520112991E-002;-3.097111592069268E-003;-4.412089474499226E-004;
2.422333333333334E+009;1.493697911500931E-001;-9.303168952465057E-002;-3.309451742097735E-003;-3.739808744285256E-004;
2.422500000000000E+009;1.494025737047195E-001;-9.440898895263672E-002;-3.279154421761632E-003;-9.235390461981297E-005;
2.422666666666667E+009;1.495348066091538E-001;-9.629743546247482E-002;-3.283824538812041E-003;-2.048517199000344E-004;
2.422833333333334E+009;1.496657282114029E-001;-9.791505336761475E-002;-3.277484327554703E-003;9.244025568477809E-005;
2.423000000000000E+009;1.500982940196991E-001;-9.923121333122253E-002;-3.425833070650697E-003;1.828616950660944E-004;
2.423166666666667E+009;1.506315320730209E-001;-1.009777337312698E-001;-3.354696556925774E-003;3.294544876553118E-004;
2.423333333333334E+009;1.511020064353943E-001;-1.021851971745491E-001;-3.459731116890907E-003;7.441949564963579E-004;
2.423500000000000E+009;1.515313684940338E-001;-1.036897525191307E-001;-3.430528333410621E-003;7.315440452657640E-004;
2.423666666666667E+009;1.517198383808136E-001;-1.053097769618034E-001;-3.530746093019843E-003;8.412770112045109E-004;
2.423833333333334E+009;1.524629294872284E-001;-1.063078716397286E-001;-3.346790792420507E-003;9.863334707915783E-004;
2.424000000000000E+009;1.529082804918289E-001;-1.074563637375832E-001;-3.183394437655807E-003;1.259860466234386E-003;
2.424166666666667E+009;1.532178521156311E-001;-1.086568459868431E-001;-3.176078433170915E-003;1.437997212633491E-003;
2.424333333333334E+009;1.538870930671692E-001;-1.096738651394844E-001;-2.962007885798812E-003;1.468644593842328E-003;
2.424500000000000E+009;1.543063372373581E-001;-1.105900108814240E-001;-3.184351371601224E-003;1.675621140748262E-003;
2.424666666666667E+009;1.551149487495422E-001;-1.113625392317772E-001;-2.962527563795447E-003;1.734776422381401E-003;
2.424833333333334E+009;1.553877890110016E-001;-1.121890246868134E-001;-2.836295170709491E-003;1.861606608144939E-003;
2.425000000000000E+009;1.557654738426209E-001;-1.130549460649490E-001;-2.619234612211585E-003;1.990005606785417E-003;
2.425166666666667E+009;1.560511738061905E-001;-1.136365830898285E-001;-2.567803487181664E-003;2.193685155361891E-003;
2.425333333333334E+009;1.565555334091187E-001;-1.142206341028214E-001;-2.323015127331018E-003;2.295155311003327E-003;
2.425500000000000E+009;1.568893641233444E-001;-1.147161871194840E-001;-2.383653772994876E-003;2.302668057382107E-003;
2.425666666666667E+009;1.568845957517624E-001;-1.151342391967773E-001;-2.252149861305952E-003;2.446714323014021E-003;
2.425833333333334E+009;1.571351587772369E-001;-1.155358478426933E-001;-2.148789120838046E-003;2.462411997839809E-003;
2.426000000000000E+009;1.571295261383057E-001;-1.158532425761223E-001;-1.931259175762534E-003;2.429649932309985E-003;
2.426166666666667E+009;1.572714745998383E-001;-1.161167472600937E-001;-1.749442657455802E-003;2.617886057123542E-003;
2.426333333333334E+009;1.570868641138077E-001;-1.163334250450134E-001;-1.725981244817376E-003;2.445530146360397E-003;
2.426500000000000E+009;1.569047421216965E-001;-1.164423525333405E-001;-1.734276302158833E-003;2.677307464182377E-003;
2.426666666666667E+009;1.567820012569428E-001;-1.165002360939980E-001;-1.402885769493878E-003;2.761935582384467E-003;
2.426833333333334E+009;1.562937498092651E-001;-1.165997385978699E-001;-1.256637508049607E-003;2.669454552233219E-003;
2.427000000000000E+009;1.557956188917160E-001;-1.168252006173134E-001;-1.174352597445250E-003;2.530796686187387E-003;
2.427166666666667E+009;1.552565544843674E-001;-1.167769432067871E-001;-9.668602142482996E-004;2.503258176147938E-003;
2.427333333333334E+009;1.544906198978424E-001;-1.169716566801071E-001;-1.069029327481985E-003;2.673316048458219E-003;
2.427500000000000E+009;1.538920849561691E-001;-1.170968189835548E-001;-8.493828936479986E-004;2.620522398501635E-003;
2.427666666666667E+009;1.530620455741882E-001;-1.172756180167198E-001;-8.090366027317941E-004;2.585073700174689E-003;
