# Version 1.00
#
freq[Hz];re:Trc1_S11;im:Trc1_S11;re:Trc2_S21;im:Trc2_S21;
2.400000000000000E+009;1.505638360977173E-001;1.157506778836250E-001;6.441410630941391E-003;2.679315162822604E-003;
2.400166666666667E+009;1.501131951808929E-001;1.134001910686493E-001;6.785003002732992E-003;2.193613443523645E-003;
2.400333333333334E+009;1.503079831600189E-001;1.112772822380066E-001;6.796667352318764E-003;1.944545772857964E-003;
2.400500000000000E+009;1.500778645277023E-001;1.086119189858437E-001;6.745827849954367E-003;1.488132053054869E-003;
2.400666666666667E+009;1.500922143459320E-001;1.063850447535515E-001;6.781687494367361E-003;9.769863681867719E-004;
2.400833333333334E+009;1.500990837812424E-001;1.035550311207771E-001;6.525271572172642E-003;4.221533308736980E-004;
2.401000000000000E+009;1.500368863344193E-001;1.009800881147385E-001;6.497149821370840E-003;-2.564958776929416E-006;
2.401166666666667E+009;1.501842737197876E-001;9.809524565935135E-002;6.290120072662830E-003;-2.248009550385177E-004;
2.401333333333334E+009;1.504917591810226E-001;9.540699422359467E-002;6.137776654213667E-003;-6.832254002802074E-004;
2.401500000000000E+009;1.507885307073593E-001;9.253533184528351E-002;5.861955694854260E-003;-1.083576236851513E-003;
2.401666666666667E+009;1.511073708534241E-001;8.957780897617340E-002;5.712399724870920E-003;-1.175903365947306E-003;
2.401833333333334E+009;1.516912877559662E-001;8.700077980756760E-002;5.389172118157148E-003;-1.627153134904802E-003;
2.402000000000000E+009;1.525369137525559E-001;8.407445251941681E-002;5.243049468845129E-003;-1.549964072182775E-003;
2.402166666666667E+009;1.534416079521179E-001;8.143157511949539E-002;4.829150158911943E-003;-1.795632881112397E-003;
2.402333333333334E+009;1.542630493640900E-001;7.864156365394592E-002;4.806664306670427E-003;-1.738664926961064E-003;
2.402500000000000E+009;1.556527167558670E-001;7.613106817007065E-002;4.392247181385756E-003;-1.738944090902805E-003;
2.402666666666667E+009;1.567965447902679E-001;7.360430061817169E-002;4.311609547585249E-003;-1.822830061428249E-003;
2.402833333333334E+009;1.584925502538681E-001;7.109978795051575E-002;4.072564188390970E-003;-1.930283149704337E-003;
2.403000000000000E+009;1.599130481481552E-001;6.856529414653778E-002;3.899272764101625E-003;-2.054275013506413E-003;
2.403166666666667E+009;1.617928147315979E-001;6.648410856723785E-002;3.896104637533426E-003;-2.042661188170314E-003;
2.403333333333334E+009;1.635558754205704E-001;6.381035596132278E-002;3.752569435164332E-003;-2.124788006767631E-003;
2.403500000000000E+009;1.653833389282227E-001;6.173695623874664E-002;3.498157719150186E-003;-2.204035408794880E-003;
2.403666666666667E+009;1.673623621463776E-001;5.957996100187302E-002;3.459921572357416E-003;-2.284933347254992E-003;
2.403833333333334E+009;1.693558543920517E-001;5.748857930302620E-002;3.402292495593429E-003;-2.308491850271821E-003;
2.404000000000000E+009;1.713381558656693E-001;5.555906146764755E-002;3.382699796929956E-003;-2.390027046203613E-003;
2.404166666666667E+009;1.732954382896423E-001;5.383799597620964E-002;3.237771335989237E-003;-2.500823466107249E-003;
2.404333333333334E+009;1.753870397806168E-001;5.203750357031822E-002;3.022355493158102E-003;-2.547120442613959E-003;
2.404500000000000E+009;1.771794259548187E-001;5.066412314772606E-002;2.737732836976647E-003;-2.607192145660520E-003;
2.404666666666667E+009;1.791689693927765E-001;4.922003671526909E-002;2.688165754079819E-003;-2.561103086918593E-003;
2.404833333333334E+009;1.811188757419586E-001;4.785574600100517E-002;2.549853408709168E-003;-2.497117500752211E-003;
2.405000000000000E+009;1.827681064605713E-001;4.712933301925659E-002;2.593161072582007E-003;-2.624328015372157E-003;
2.405166666666667E+009;1.846515536308289E-001;4.613137617707253E-002;2.329286886379123E-003;-2.718332456424832E-003;
2.405333333333334E+009;1.864087432622910E-001;4.560139775276184E-002;2.240571891888976E-003;-2.605297835543752E-003;
2.405500000000000E+009;1.881298869848251E-001;4.506293684244156E-002;2.079208381474018E-003;-2.545412862673402E-003;
2.405666666666667E+009;1.897874027490616E-001;4.445131868124008E-002;1.997816842049360E-003;-2.670340007171035E-003;
2.405833333333334E+009;1.913659572601318E-001;4.414282366633415E-002;1.813570153899491E-003;-2.627760404720902E-003;
2.406000000000000E+009;1.926806271076202E-001;4.388255998492241E-002;1.813026028685272E-003;-2.637793309986591E-003;
2.406166666666667E+009;1.939252614974976E-001;4.364771768450737E-002;1.682915026322007E-003;-2.546181669458747E-003;
2.406333333333334E+009;1.953590810298920E-001;4.351852089166641E-002;1.542505691759288E-003;-2.455756766721606E-003;
2.406500000000000E+009;1.962841600179672E-001;4.346241429448128E-002;1.493260962888598E-003;-2.525538438931108E-003;
2.406666666666667E+009;1.972924321889877E-001;4.359541088342667E-002;1.415037550032139E-003;-2.386579755693674E-003;
2.406833333333334E+009;1.979894042015076E-001;4.345836117863655E-002;1.259035547263920E-003;-2.289214869961143E-003;
2.407000000000000E+009;1.986288875341415E-001;4.375977441668510E-002;1.264311838895083E-003;-2.291072625666857E-003;
2.407166666666667E+009;1.993430852890015E-001;4.347914457321167E-002;1.303538796491921E-003;-2.287035109475255E-003;
2.407333333333334E+009;1.994884610176086E-001;4.372835904359818E-002;1.318503636866808E-003;-2.234672429040074E-003;
2.407500000000000E+009;1.995567679405212E-001;4.384957626461983E-002;1.316742971539497E-003;-2.099281176924706E-003;
2.407666666666667E+009;1.996857523918152E-001;4.375807568430901E-002;1.251813722774386E-003;-2.183128381147981E-003;
2.407833333333334E+009;1.994709968566895E-001;4.383660852909088E-002;1.344733638688922E-003;-2.101883525028825E-003;
2.408000000000000E+009;1.995068192481995E-001;4.368789866566658E-002;1.388611155562103E-003;-2.103199250996113E-003;
2.408166666666667E+009;1.989845633506775E-001;4.343104362487793E-002;1.388277742080391E-003;-2.237751847133040E-003;
2.408333333333334E+009;1.985399723052979E-001;4.296354949474335E-002;1.328091486357153E-003;-2.168338280171156E-003;
2.408500000000000E+009;1.979634016752243E-001;4.283088818192482E-002;1.453243312425911E-003;-2.254467923194170E-003;
2.408666666666667E+009;1.972689628601074E-001;4.248384758830071E-002;1.442860113456845E-003;-2.177186077460647E-003;
2.408833333333334E+009;1.965128928422928E-001;4.171025753021240E-002;1.449137227609754E-003;-2.229914767667651E-003;
2.409000000000000E+009;1.955799758434296E-001;4.100272804498673E-002;1.465162495151162E-003;-2.212670166045427E-003;
2.409166666666667E+009;1.945653855800629E-001;4.003517329692841E-002;1.400207285769284E-003;-2.266497816890478E-003;
2.409333333333334E+009;1.934686601161957E-001;3.931556269526482E-002;1.634079613722861E-003;-2.135188318789005E-003;
2.409500000000000E+009;1.923567056655884E-001;3.833943977952004E-002;1.745435409247875E-003;-2.297037281095982E-003;
2.409666666666667E+009;1.912732869386673E-001;3.674493730068207E-002;1.629108563065529E-003;-2.565634204074740E-003;
2.409833333333334E+009;1.898250579833984E-001;3.543651476502419E-002;1.658592140302062E-003;-2.476417226716876E-003;
2.410000000000000E+009;1.887437254190445E-001;3.393546491861343E-002;1.674970961175859E-003;-2.791946521028876E-003;
2.410166666666667E+009;1.875717490911484E-001;3.221456333994865E-002;1.537901232950389E-003;-2.927012741565704E-003;
2.410333333333334E+009;1.864600926637650E-001;3.053839132189751E-002;1.757909660227597E-003;-3.043350996449590E-003;
2.410500000000000E+009;1.851302683353424E-001;2.867451682686806E-002;1.555293449200690E-003;-3.139900509268045E-003;
2.410666666666667E+009;1.840505599975586E-001;2.637834288179874E-002;1.402355730533600E-003;-3.285880200564861E-003;
2.410833333333334E+009;1.832613050937653E-001;2.434641867876053E-002;1.356179476715624E-003;-3.498143516480923E-003;
2.411000000000000E+009;1.822957396507263E-001;2.218630537390709E-002;1.290879677981138E-003;-3.519925056025386E-003;
2.411166666666667E+009;1.813931614160538E-001;2.012222073972225E-002;1.074838452041149E-003;-3.619431750848889E-003;
2.411333333333334E+009;1.807897090911865E-001;1.746802031993866E-002;9.358755196444690E-004;-3.704241011291742E-003;
2.411500000000000E+009;1.799456924200058E-001;1.521855127066374E-002;7.616167422384024E-004;-3.883863799273968E-003;
2.411666666666667E+009;1.796919256448746E-001;1.272740494459868E-002;6.430699140764773E-004;-3.931595012545586E-003;
2.411833333333334E+009;1.792394369840622E-001;1.003884151577950E-002;5.375089822337031E-004;-3.899401286616921E-003;
2.412000000000000E+009;1.793120950460434E-001;7.447511889040470E-003;2.734175941441208E-004;-4.012701567262411E-003;
2.412166666666667E+009;1.789005100727081E-001;4.980988334864378E-003;1.854440779425204E-004;-4.054565913975239E-003;
2.412333333333334E+009;1.790703237056732E-001;2.376574557274580E-003;-3.176758764311671E-005;-4.071997944265604E-003;
2.412500000000000E+009;1.793380975723267E-001;-1.468967820983380E-004;-2.005644200835377E-004;-3.935255575925112E-003;
2.412666666666667E+009;1.796700656414032E-001;-2.775113331153989E-003;-2.432421169942245E-004;-4.114578012377024E-003;
2.412833333333334E+009;1.803137511014938E-001;-5.355381406843662E-003;-4.932765732519329E-004;-3.970918245613575E-003;
2.413000000000000E+009;1.808257400989533E-001;-7.765085436403751E-003;-7.113928440958262E-004;-4.015488550066948E-003;
2.413166666666667E+009;1.815025210380554E-001;-1.013035140931606E-002;-7.163946866057813E-004;-3.965123090893030E-003;
2.413333333333334E+009;1.824220120906830E-001;-1.285268552601337E-002;-7.513771997764707E-004;-3.946637734770775E-003;
2.413500000000000E+009;1.831780225038528E-001;-1.533742807805538E-002;-8.208385552279651E-004;-3.873307490721345E-003;
2.413666666666667E+009;1.843966394662857E-001;-1.768139749765396E-002;-9.761087130755186E-004;-3.903473727405071E-003;
2.413833333333334E+009;1.852153390645981E-001;-1.990325748920441E-002;-9.896607371047139E-004;-3.980479668825865E-003;
2.414000000000000E+009;1.865927129983902E-001;-2.208050899207592E-002;-1.223449944518507E-003;-3.833640366792679E-003;
2.414166666666667E+009;1.877826005220413E-001;-2.402436546981335E-002;-1.273868954740465E-003;-3.889101324602962E-003;
2.414333333333334E+009;1.888544261455536E-001;-2.617123350501061E-002;-1.379953348077834E-003;-3.939646296203136E-003;
2.414500000000000E+009;1.902854293584824E-001;-2.789180167019367E-002;-1.547511783428490E-003;-4.077293910086155E-003;
2.414666666666667E+009;1.915428638458252E-001;-2.955970354378223E-002;-1.648854347877204E-003;-4.011854529380798E-003;
2.414833333333334E+009;1.928080022335053E-001;-3.100128471851349E-002;-1.954186940565705E-003;-4.153435584157705E-003;
2.415000000000000E+009;1.939382106065750E-001;-3.246415778994560E-002;-2.139494987204671E-003;-4.167378880083561E-003;
2.415166666666667E+009;1.952598839998245E-001;-3.390424698591232E-002;-2.320914063602686E-003;-4.054773133248091E-003;
2.415333333333334E+009;1.965145617723465E-001;-3.496357053518295E-002;-2.678786171600223E-003;-4.037117119878531E-003;
2.415500000000000E+009;1.977344453334808E-001;-3.583038970828056E-002;-2.969858702272177E-003;-3.945597913116217E-003;
2.415666666666667E+009;1.987939924001694E-001;-3.682124987244606E-002;-3.166561480611563E-003;-3.891826141625643E-003;
2.415833333333334E+009;1.998077034950256E-001;-3.752056881785393E-002;-3.410604316741228E-003;-3.652842948213220E-003;
2.416000000000000E+009;2.006829082965851E-001;-3.816216811537743E-002;-3.596664639189839E-003;-3.535268828272820E-003;
2.416166666666667E+009;2.016320824623108E-001;-3.873297572135925E-002;-3.941634204238653E-003;-3.354395506903529E-003;
2.416333333333334E+009;2.022781819105148E-001;-3.899514302611351E-002;-3.984638489782810E-003;-2.943294122815132E-003;
2.416500000000000E+009;2.029501050710678E-001;-3.936357796192169E-002;-4.174185451120138E-003;-2.693503396585584E-003;
2.416666666666667E+009;2.032424956560135E-001;-3.957531228661537E-002;-4.217878449708223E-003;-2.514278749004006E-003;
2.416833333333334E+009;2.035667449235916E-001;-3.949100524187088E-002;-4.387807566672564E-003;-2.236277330666781E-003;
2.417000000000000E+009;2.038943022489548E-001;-3.968433290719986E-002;-4.319911822676659E-003;-1.866274513304234E-003;
2.417166666666667E+009;2.038394361734390E-001;-3.945517167448998E-002;-4.377967678010464E-003;-1.834780909121037E-003;
2.417333333333334E+009;2.037561535835266E-001;-3.913293778896332E-002;-4.153755959123373E-003;-1.707104151137173E-003;
2.417500000000000E+009;2.036103457212448E-001;-3.902939707040787E-002;-4.207452293485403E-003;-1.375796389766038E-003;
2.417666666666667E+009;2.032148391008377E-001;-3.854834288358688E-002;-4.232904873788357E-003;-1.293810084462166E-003;
2.417833333333334E+009;2.029161900281906E-001;-3.831104561686516E-002;-4.152310546487570E-003;-1.286056125536561E-003;
2.418000000000000E+009;2.025328576564789E-001;-3.785895928740501E-002;-4.296697676181793E-003;-1.083153532817960E-003;
2.418166666666667E+009;2.018417268991470E-001;-3.751775249838829E-002;-4.230919294059277E-003;-9.332986082881689E-004;
2.418333333333334E+009;2.010586559772492E-001;-3.709301352500916E-002;-4.297987092286348E-003;-9.470626828260720E-004;
2.418500000000000E+009;2.002112567424774E-001;-3.706511855125427E-002;-4.274319857358933E-003;-7.603068370372057E-004;
2.418666666666667E+009;1.994198858737946E-001;-3.678770363330841E-002;-4.361513536423445E-003;-5.936740781180561E-004;
2.418833333333334E+009;1.982212811708450E-001;-3.676292672753334E-002;-4.506351426243782E-003;-5.356598412618041E-004;
2.419000000000000E+009;1.970421671867371E-001;-3.663282096385956E-002;-4.526420962065458E-003;-2.589944051578641E-004;
2.419166666666667E+009;1.957532465457916E-001;-3.677973523736000E-002;-4.544902127236128E-003;-7.481060310965404E-005;
2.419333333333334E+009;1.945924311876297E-001;-3.711859881877899E-002;-4.583897069096565E-003;7.731786172371358E-005;
2.419500000000000E+009;1.930359601974487E-001;-3.730264306068420E-002;-4.611259792000055E-003;3.105571959167719E-004;
2.419666666666667E+009;1.914786994457245E-001;-3.805122151970863E-002;-4.577588755637407E-003;5.107010947540402E-004;
2.419833333333334E+009;1.898356229066849E-001;-3.840788081288338E-002;-4.492723383009434E-003;7.693749503232539E-004;
2.420000000000000E+009;1.882064193487167E-001;-3.923851251602173E-002;-4.506490658968687E-003;1.037873327732086E-003;
2.420166666666667E+009;1.865565329790115E-001;-4.007816314697266E-002;-4.456761758774519E-003;1.388663658872247E-003;
2.420333333333334E+009;1.849832534790039E-001;-4.104861989617348E-002;-4.264910239726305E-003;1.436973223462701E-003;
2.420500000000000E+009;1.832185536623001E-001;-4.208542034029961E-002;-3.912367392331362E-003;1.661970862187445E-003;
2.420666666666667E+009;1.814406663179398E-001;-4.316299036145210E-002;-3.833819646388292E-003;1.833502668887377E-003;
2.420833333333334E+009;1.799100190401077E-001;-4.455996677279472E-002;-3.669446799904108E-003;1.858341507613659E-003;
2.421000000000000E+009;1.781437695026398E-001;-4.608421400189400E-002;-3.394832368940115E-003;1.914625638164580E-003;
2.421166666666667E+009;1.765786856412888E-001;-4.763208329677582E-002;-3.221938386559486E-003;2.171958098188043E-003;
2.421333333333334E+009;1.747239679098129E-001;-4.918789863586426E-002;-2.914565382525325E-003;2.304964233189821E-003;
2.421500000000000E+009;1.733329296112061E-001;-5.101908370852470E-002;-2.877852413803339E-003;2.108618617057800E-003;
2.421666666666667E+009;1.721291542053223E-001;-5.275966972112656E-002;-2.637032186612487E-003;2.187874400988221E-003;
2.421833333333334E+009;1.707340627908707E-001;-5.449412018060684E-002;-2.537935040891171E-003;2.217019209638238E-003;
2.422000000000000E+009;1.693371534347534E-001;-5.645956844091415E-002;-2.245789393782616E-003;2.065458102151752E-003;
2.422166666666667E+009;1.684615015983582E-001;-5.856061726808548E-002;-2.106375992298126E-003;2.147531835362315E-003;
2.422333333333334E+009;1.672296673059464E-001;-6.060115247964859E-002;-1.982923364266753E-003;1.755515229888260E-003;
2.422500000000000E+009;1.663484722375870E-001;-6.248687952756882E-002;-2.011522883549333E-003;1.877208356745541E-003;
2.422666666666667E+009;1.656887531280518E-001;-6.455287337303162E-002;-2.015616511926055E-003;1.836155774071813E-003;
2.422833333333334E+009;1.650633215904236E-001;-6.654262542724609E-002;-1.867166254669428E-003;1.629766426049173E-003;
2.423000000000000E+009;1.643676906824112E-001;-6.875630468130112E-002;-1.922056311741471E-003;1.682364032603800E-003;
2.423166666666667E+009;1.640757024288178E-001;-7.086535543203354E-002;-2.047095680609345E-003;1.502899802289903E-003;
2.423333333333334E+009;1.637021899223328E-001;-7.297576218843460E-002;-2.018922474235296E-003;1.655602012760937E-003;
2.423500000000000E+009;1.635566055774689E-001;-7.475404441356659E-002;-2.037770114839077E-003;1.611017039977014E-003;
2.423666666666667E+009;1.636880338191986E-001;-7.682611793279648E-002;-2.086668973788619E-003;1.612642779946327E-003;
2.423833333333334E+009;1.635926365852356E-001;-7.873327285051346E-002;-2.044581575319171E-003;1.609391532838345E-003;
2.424000000000000E+009;1.637362092733383E-001;-8.063479512929916E-002;-2.120934659615159E-003;1.808180357329547E-003;
2.424166666666667E+009;1.639674454927445E-001;-8.231719583272934E-002;-2.151514403522015E-003;1.628914265893400E-003;
2.424333333333334E+009;1.642257422208786E-001;-8.405508846044540E-002;-2.179558156058192E-003;1.652349950745702E-003;
2.424500000000000E+009;1.646638661623001E-001;-8.590280264616013E-002;-2.247519325464964E-003;1.692599733360112E-003;
2.424666666666667E+009;1.648500859737396E-001;-8.750268071889877E-002;-2.278967993333936E-003;1.698226318694651E-003;
2.424833333333334E+009;1.656598150730133E-001;-8.873584866523743E-002;-2.385175554081798E-003;1.823982107453048E-003;
2.425000000000000E+009;1.661550551652908E-001;-9.016800671815872E-002;-2.207735553383827E-003;1.965130912140012E-003;
2.425166666666667E+009;1.666088700294495E-001;-9.127528220415115E-002;-2.280383603647351E-003;2.002317924052477E-003;
2.425333333333334E+009;1.670703887939453E-001;-9.244033694267273E-002;-2.164348959922791E-003;2.005269750952721E-003;
2.425500000000000E+009;1.677358448505402E-001;-9.344191104173660E-002;-2.395803108811379E-003;2.108903601765633E-003;
2.425666666666667E+009;1.682807952165604E-001;-9.434878826141357E-002;-2.479559043422341E-003;2.293080324307084E-003;
2.425833333333334E+009;1.688200980424881E-001;-9.521845728158951E-002;-2.449308056384325E-003;2.413254231214523E-003;
2.426000000000000E+009;1.695939600467682E-001;-9.576488286256790E-002;-2.366716740652919E-003;2.518864814192057E-003;
2.426166666666667E+009;1.702186018228531E-001;-9.633995592594147E-002;-2.418055897578597E-003;2.765043405815959E-003;
2.426333333333334E+009;1.706256121397018E-001;-9.695772081613541E-002;-2.447352511808276E-003;2.790112281218171E-003;
2.426500000000000E+009;1.712613254785538E-001;-9.736049175262451E-002;-2.325236797332764E-003;2.804163144901395E-003;
2.426666666666667E+009;1.717207729816437E-001;-9.769908338785172E-002;-2.102405531331897E-003;3.201715881004930E-003;
2.426833333333334E+009;1.722966879606247E-001;-9.804949164390564E-002;-2.026594709604979E-003;3.162074135616422E-003;
2.427000000000000E+009;1.725910604000092E-001;-9.839545190334320E-002;-1.998737221583724E-003;3.301603952422738E-003;
2.427166666666667E+009;1.728195697069168E-001;-9.842004626989365E-002;-2.078280551359057E-003;3.482705680653453E-003;
2.427333333333334E+009;1.729717105627060E-001;-9.882982820272446E-002;-1.792722381651402E-003;3.479546401649714E-003;
2.427500000000000E+009;1.730529069900513E-001;-9.903437644243240E-002;-1.580102834850550E-003;3.529201494529843E-003;
2.427666666666667E+009;1.729164123535156E-001;-9.905169159173966E-002;-1.595830777660012E-003;3.817807883024216E-003;
