# Version 1.00
#
freq[Hz];re:Trc1_S11;im:Trc1_S11;re:Trc2_S21;im:Trc2_S21;
2.400000000000000E+009;1.626051068305969E-001;5.265513435006142E-002;1.289356587221846E-004;3.954108804464340E-003;
2.400166666666667E+009;1.625471562147141E-001;5.104553699493408E-002;5.310054621077143E-005;3.938862588256598E-003;
2.400333333333334E+009;1.623838543891907E-001;4.913847893476486E-002;2.350607246626169E-004;3.900472540408373E-003;
2.400500000000000E+009;1.624679118394852E-001;4.709984734654427E-002;1.733528915792704E-004;3.938921261578798E-003;
2.400666666666667E+009;1.623437553644180E-001;4.517671465873718E-002;2.582356100901961E-004;3.978861495852470E-003;
2.400833333333334E+009;1.625086218118668E-001;4.351951181888580E-002;2.457145892549306E-004;4.036939702928066E-003;
2.401000000000000E+009;1.625523269176483E-001;4.141434654593468E-002;4.489805141929537E-004;4.038198385387659E-003;
2.401166666666667E+009;1.627707481384277E-001;3.921233862638474E-002;5.302188801579177E-004;4.057112615555525E-003;
2.401333333333334E+009;1.626806110143662E-001;3.701480478048325E-002;7.280441932380199E-004;4.102359525859356E-003;
2.401500000000000E+009;1.628813892602921E-001;3.497107699513435E-002;8.127848850563169E-004;4.165575373917818E-003;
2.401666666666667E+009;1.630124449729919E-001;3.305898606777191E-002;8.964563021436334E-004;4.267150536179543E-003;
2.401833333333334E+009;1.634762883186340E-001;3.101307898759842E-002;1.321385614573956E-003;4.263550508767366E-003;
2.402000000000000E+009;1.636497825384140E-001;2.900757640600205E-002;1.307278871536255E-003;4.109783098101616E-003;
2.402166666666667E+009;1.641953885555267E-001;2.694146707653999E-002;1.460462110117078E-003;4.387241322547197E-003;
2.402333333333334E+009;1.645233631134033E-001;2.505647577345371E-002;1.646452466957271E-003;4.313983488827944E-003;
2.402500000000000E+009;1.649602353572846E-001;2.326999790966511E-002;1.868961146101356E-003;4.320604726672173E-003;
2.402666666666667E+009;1.657309532165527E-001;2.158708311617374E-002;2.127611776813865E-003;4.238461609929800E-003;
2.402833333333334E+009;1.663083136081696E-001;1.972130499780178E-002;2.277040854096413E-003;4.386669956147671E-003;
2.403000000000000E+009;1.670585870742798E-001;1.800985261797905E-002;2.582713263109326E-003;4.253673367202282E-003;
2.403166666666667E+009;1.676612943410873E-001;1.659881696105003E-002;2.864512149244547E-003;4.194721579551697E-003;
2.403333333333334E+009;1.684402674436569E-001;1.499538030475378E-002;2.870453288778663E-003;3.996598068624735E-003;
2.403500000000000E+009;1.690843701362610E-001;1.351243723183870E-002;3.389859804883599E-003;3.958710003644228E-003;
2.403666666666667E+009;1.699458807706833E-001;1.208920776844025E-002;3.322929609566927E-003;3.675435902550817E-003;
2.403833333333334E+009;1.708077639341354E-001;1.072316989302635E-002;3.714571241289377E-003;3.600722178816795E-003;
2.404000000000000E+009;1.714742332696915E-001;9.555972181260586E-003;3.830019151791930E-003;3.450492862612009E-003;
2.404166666666667E+009;1.722903400659561E-001;8.418869227170944E-003;4.015802871435881E-003;3.219276433810592E-003;
2.404333333333334E+009;1.730761379003525E-001;7.363496348261833E-003;4.222260322421789E-003;3.082279348745942E-003;
2.404500000000000E+009;1.738328486680985E-001;6.271557416766882E-003;4.294745624065399E-003;2.965688239783049E-003;
2.404666666666667E+009;1.746798753738403E-001;5.437118001282215E-003;4.463706631213427E-003;2.672823145985603E-003;
2.404833333333334E+009;1.754968613386154E-001;4.671614617109299E-003;4.651074763387442E-003;2.434889087453485E-003;
2.405000000000000E+009;1.762702614068985E-001;3.871116554364562E-003;4.927177447825670E-003;2.080523874610663E-003;
2.405166666666667E+009;1.768659800291061E-001;3.183674300089479E-003;4.770077299326658E-003;1.893648412078619E-003;
2.405333333333334E+009;1.775312125682831E-001;2.501864451915026E-003;5.000917706638575E-003;1.650203717872500E-003;
2.405500000000000E+009;1.780733317136765E-001;2.257011365145445E-003;5.024117883294821E-003;1.335998298600316E-003;
2.405666666666667E+009;1.787298917770386E-001;1.699273823760450E-003;4.995183087885380E-003;1.071186386980116E-003;
2.405833333333334E+009;1.790497750043869E-001;1.441787229850888E-003;4.989996552467346E-003;7.190215983428061E-004;
2.406000000000000E+009;1.796503067016602E-001;9.007355547510088E-004;5.073746666312218E-003;5.693699349649251E-004;
2.406166666666667E+009;1.799136698246002E-001;7.266039028763771E-004;5.076564382761717E-003;2.242063928861171E-004;
2.406333333333334E+009;1.803041696548462E-001;4.760626179631800E-004;4.907267633825541E-003;-6.745138671249151E-005;
2.406500000000000E+009;1.804814040660858E-001;1.532032911200076E-004;4.840106237679720E-003;-3.038336290046573E-004;
2.406666666666667E+009;1.805111467838287E-001;-7.421167538268492E-005;4.892569966614246E-003;-6.406572065316141E-004;
2.406833333333334E+009;1.806713789701462E-001;-3.611411957535893E-004;4.621906206011772E-003;-7.047867402434349E-004;
2.407000000000000E+009;1.806079894304276E-001;-6.096378201618791E-004;4.605035297572613E-003;-1.030223909765482E-003;
2.407166666666667E+009;1.807494461536408E-001;-9.422571747563779E-004;4.459728486835957E-003;-1.102664507925510E-003;
2.407333333333334E+009;1.804533749818802E-001;-1.295075286179781E-003;4.326646216213703E-003;-1.270350883714855E-003;
2.407500000000000E+009;1.801639646291733E-001;-1.554602640680969E-003;4.442013800144196E-003;-1.554839313030243E-003;
2.407666666666667E+009;1.800812035799027E-001;-1.926068449392915E-003;4.121075384318829E-003;-1.551652792841196E-003;
2.407833333333334E+009;1.794435232877731E-001;-2.473816974088550E-003;4.024311434477568E-003;-1.897675567306578E-003;
2.408000000000000E+009;1.790852695703507E-001;-3.089555073529482E-003;4.035851918160915E-003;-2.039015525951982E-003;
2.408166666666667E+009;1.785256266593933E-001;-3.510122653096914E-003;3.617746988311410E-003;-1.984440023079515E-003;
2.408333333333334E+009;1.783587038516998E-001;-4.046372137963772E-003;3.578438656404614E-003;-2.167790662497282E-003;
2.408500000000000E+009;1.775822639465332E-001;-4.700562451034784E-003;3.381823655217886E-003;-2.278638305142522E-003;
2.408666666666667E+009;1.770372241735458E-001;-5.680979695171118E-003;3.228611079975963E-003;-2.448109444230795E-003;
2.408833333333334E+009;1.761140078306198E-001;-6.364474073052406E-003;2.985623897984624E-003;-2.670471323654056E-003;
2.409000000000000E+009;1.754752248525620E-001;-7.431051693856716E-003;2.946014283224940E-003;-2.575470600277185E-003;
2.409166666666667E+009;1.747878342866898E-001;-8.457451127469540E-003;2.812291029840708E-003;-2.675433875992894E-003;
2.409333333333334E+009;1.740522980690002E-001;-9.499492123723030E-003;2.517702989280224E-003;-2.731136046350002E-003;
2.409500000000000E+009;1.733157187700272E-001;-1.092068292200565E-002;2.514827065169811E-003;-2.956307027488947E-003;
2.409666666666667E+009;1.725525408983231E-001;-1.212918478995562E-002;2.268190030008555E-003;-2.944735810160637E-003;
2.409833333333334E+009;1.716770082712174E-001;-1.341406069695950E-002;2.127274870872498E-003;-2.979513490572572E-003;
2.410000000000000E+009;1.710632145404816E-001;-1.491101086139679E-002;1.888940343633294E-003;-2.862546825781465E-003;
2.410166666666667E+009;1.701849997043610E-001;-1.638997346162796E-002;1.768167596310377E-003;-3.015451598912478E-003;
2.410333333333334E+009;1.695770621299744E-001;-1.798653602600098E-002;1.651998609304428E-003;-2.885469002649188E-003;
2.410500000000000E+009;1.690530329942703E-001;-1.958646066486836E-002;1.368917291983962E-003;-2.911123447120190E-003;
2.410666666666667E+009;1.683491021394730E-001;-2.156910859048367E-002;1.325045130215585E-003;-2.828675322234631E-003;
2.410833333333334E+009;1.678343564271927E-001;-2.310283109545708E-002;1.167159643955529E-003;-2.824224065989256E-003;
2.411000000000000E+009;1.672803312540054E-001;-2.482195198535919E-002;1.098765293136239E-003;-2.759735798463225E-003;
2.411166666666667E+009;1.667982041835785E-001;-2.688143402338028E-002;1.005341415293515E-003;-2.660583471879363E-003;
2.411333333333334E+009;1.664964705705643E-001;-2.872585505247116E-002;8.670692914165556E-004;-2.582994755357504E-003;
2.411500000000000E+009;1.660043895244598E-001;-3.090407140552998E-002;7.904263329692185E-004;-2.487893449142575E-003;
2.411666666666667E+009;1.660359799861908E-001;-3.283851593732834E-002;6.136200390756130E-004;-2.591949654743075E-003;
2.411833333333334E+009;1.657608151435852E-001;-3.461313992738724E-002;6.182772340252996E-004;-2.540227258577943E-003;
2.412000000000000E+009;1.658522486686707E-001;-3.679625689983368E-002;4.817537264898419E-004;-2.761794487014413E-003;
2.412166666666667E+009;1.655801385641098E-001;-3.872902318835259E-002;5.256464355625212E-004;-2.486709272488952E-003;
2.412333333333334E+009;1.659500598907471E-001;-4.069147631525993E-002;4.855559091083705E-004;-2.379151526838541E-003;
2.412500000000000E+009;1.657704412937164E-001;-4.252525046467781E-002;4.198890819679946E-004;-2.464320510625839E-003;
2.412666666666667E+009;1.661133617162705E-001;-4.469884186983109E-002;2.993786765728146E-004;-2.520961686968803E-003;
2.412833333333334E+009;1.662704795598984E-001;-4.651937633752823E-002;3.395421954337508E-004;-2.315391087904573E-003;
2.413000000000000E+009;1.665458977222443E-001;-4.822596535086632E-002;1.686751493252814E-004;-2.313586650416255E-003;
2.413166666666667E+009;1.667426526546478E-001;-5.000589042901993E-002;1.954659674083814E-004;-2.245087409391999E-003;
2.413333333333334E+009;1.671140789985657E-001;-5.171932280063629E-002;1.202621788252145E-004;-2.329220995306969E-003;
2.413500000000000E+009;1.676034778356552E-001;-5.364809557795525E-002;1.038540358422324E-004;-2.217731904238462E-003;
2.413666666666667E+009;1.680808365345001E-001;-5.519334971904755E-002;-5.618116483674385E-005;-2.256905194371939E-003;
2.413833333333334E+009;1.684160828590393E-001;-5.655463784933090E-002;-3.664390169433318E-005;-2.249580109491944E-003;
2.414000000000000E+009;1.689261347055435E-001;-5.806777626276016E-002;-6.752547051291913E-005;-2.068305155262351E-003;
2.414166666666667E+009;1.695379167795181E-001;-5.930922552943230E-002;-1.549715962028131E-004;-2.189037622883916E-003;
2.414333333333334E+009;1.698531508445740E-001;-6.069280207157135E-002;-2.492967469152063E-004;-2.129810629412532E-003;
2.414500000000000E+009;1.706802099943161E-001;-6.192640587687492E-002;-2.845638373401016E-004;-2.114848000928760E-003;
2.414666666666667E+009;1.710527539253235E-001;-6.268273293972015E-002;-2.484314609318972E-004;-2.093382878229022E-003;
2.414833333333334E+009;1.714118570089340E-001;-6.396313756704330E-002;-5.287228268571198E-004;-2.064108848571777E-003;
2.415000000000000E+009;1.718211770057678E-001;-6.479403376579285E-002;-3.537580196280032E-004;-2.210495295003057E-003;
2.415166666666667E+009;1.722848713397980E-001;-6.562338024377823E-002;-5.059721879661083E-004;-2.080680336803198E-003;
2.415333333333334E+009;1.727305948734283E-001;-6.637833267450333E-002;-5.126296309754252E-004;-2.111636800691485E-003;
2.415500000000000E+009;1.732528656721115E-001;-6.702911108732224E-002;-5.797560443170369E-004;-2.020743209868670E-003;
2.415666666666667E+009;1.734882742166519E-001;-6.754319369792938E-002;-5.933007341809571E-004;-1.852612360380590E-003;
2.415833333333334E+009;1.736388057470322E-001;-6.808011978864670E-002;-7.611687760800123E-004;-1.958664506673813E-003;
2.416000000000000E+009;1.736695766448975E-001;-6.845837831497192E-002;-7.529956637881696E-004;-2.036358462646604E-003;
2.416166666666667E+009;1.738866567611694E-001;-6.891113519668579E-002;-8.152378723025322E-004;-1.994536723941565E-003;
2.416333333333334E+009;1.737964749336243E-001;-6.920592486858368E-002;-8.571358048357070E-004;-1.929634483531117E-003;
2.416500000000000E+009;1.738909929990768E-001;-6.939192861318588E-002;-8.566255564801395E-004;-1.751331146806479E-003;
2.416666666666667E+009;1.736491620540619E-001;-6.963711977005005E-002;-9.919953299686313E-004;-1.887370599433780E-003;
2.416833333333334E+009;1.735472679138184E-001;-6.988422572612763E-002;-1.174662378616631E-003;-1.792417373508215E-003;
2.417000000000000E+009;1.729514598846436E-001;-7.018533349037170E-002;-1.046938472427428E-003;-1.797776552848518E-003;
2.417166666666667E+009;1.725673526525497E-001;-7.012261450290680E-002;-1.124678296037018E-003;-1.705366768874228E-003;
2.417333333333334E+009;1.721243411302567E-001;-7.017510384321213E-002;-1.226533204317093E-003;-1.564721926115453E-003;
2.417500000000000E+009;1.714916229248047E-001;-7.052244246006012E-002;-1.208142493851483E-003;-1.639899448491633E-003;
2.417666666666667E+009;1.708631515502930E-001;-7.058666646480560E-002;-1.141088549047709E-003;-1.361508155241609E-003;
2.417833333333334E+009;1.700764447450638E-001;-7.079420238733292E-002;-1.359587535262108E-003;-1.552353613078594E-003;
2.418000000000000E+009;1.691695600748062E-001;-7.114810496568680E-002;-1.409107819199562E-003;-1.336252898909152E-003;
2.418166666666667E+009;1.682981699705124E-001;-7.118116319179535E-002;-1.488935435190797E-003;-1.146954135037959E-003;
2.418333333333334E+009;1.674339920282364E-001;-7.150433212518692E-002;-1.432342571206391E-003;-1.178498845547438E-003;
2.418500000000000E+009;1.662795394659042E-001;-7.172451168298721E-002;-1.415287842974067E-003;-1.259356038644910E-003;
2.418666666666667E+009;1.651916354894638E-001;-7.228620350360870E-002;-1.609780127182603E-003;-9.999703615903854E-004;
2.418833333333334E+009;1.638524830341339E-001;-7.274836301803589E-002;-1.477939425967634E-003;-9.515860001556575E-004;
2.419000000000000E+009;1.625490635633469E-001;-7.315719872713089E-002;-1.356230233795941E-003;-9.466196061111987E-004;
2.419166666666667E+009;1.614318788051605E-001;-7.368466258049011E-002;-1.450386713258922E-003;-9.357389062643051E-004;
2.419333333333334E+009;1.600309163331986E-001;-7.409160584211350E-002;-1.541985082440078E-003;-7.183063426055014E-004;
2.419500000000000E+009;1.588892787694931E-001;-7.506756484508514E-002;-1.503231236711144E-003;-8.121160790324211E-004;
2.419666666666667E+009;1.576649993658066E-001;-7.593106478452683E-002;-1.553088193759322E-003;-8.147311746142805E-004;
2.419833333333334E+009;1.562172919511795E-001;-7.661285996437073E-002;-1.565766404382885E-003;-6.519220187328756E-004;
2.420000000000000E+009;1.551297903060913E-001;-7.762549072504044E-002;-1.482329680584371E-003;-6.696386844851077E-004;
2.420166666666667E+009;1.537694185972214E-001;-7.866799831390381E-002;-1.493562594987452E-003;-6.782067357562482E-004;
2.420333333333334E+009;1.526773273944855E-001;-7.985623925924301E-002;-1.418265514075756E-003;-5.915726651437581E-004;
2.420500000000000E+009;1.515624076128006E-001;-8.076503872871399E-002;-1.386391930282116E-003;-5.481515545397997E-004;
2.420666666666667E+009;1.502476632595062E-001;-8.213619142770767E-002;-1.537390169687569E-003;-3.825674357358366E-004;
2.420833333333334E+009;1.493232250213623E-001;-8.353403955698013E-002;-1.536756055429578E-003;-3.376699460204691E-004;
2.421000000000000E+009;1.481440067291260E-001;-8.507657051086426E-002;-1.498216530308127E-003;-2.945809683296830E-004;
2.421166666666667E+009;1.473023444414139E-001;-8.638480305671692E-002;-1.453892211429775E-003;-2.196027198806405E-004;
2.421333333333334E+009;1.465297192335129E-001;-8.798875659704208E-002;-1.352053019218147E-003;-2.068107278319076E-004;
2.421500000000000E+009;1.454876959323883E-001;-8.950803428888321E-002;-1.469774986617267E-003;-8.115410309983417E-005;
2.421666666666667E+009;1.449977159500122E-001;-9.120393544435501E-002;-1.445059082470834E-003;-5.363787204260007E-005;
2.421833333333334E+009;1.443655639886856E-001;-9.282429516315460E-002;-1.421316293999553E-003;-4.965504194842652E-005;
2.422000000000000E+009;1.438920646905899E-001;-9.455581009387970E-002;-1.357613364234567E-003;-1.981469358725008E-005;
2.422166666666667E+009;1.434576511383057E-001;-9.652335941791534E-002;-1.248130225576460E-003;7.039390766294673E-005;
2.422333333333334E+009;1.431424021720886E-001;-9.812852740287781E-002;-1.221972517669201E-003;8.277982124127448E-005;
2.422500000000000E+009;1.426779776811600E-001;-9.972041100263596E-002;-1.033537439070642E-003;3.285420098109171E-005;
2.422666666666667E+009;1.426136046648026E-001;-1.017112508416176E-001;-1.219220226630569E-003;3.877876224578358E-005;
2.422833333333334E+009;1.425574570894241E-001;-1.033112108707428E-001;-1.163773471489549E-003;2.293828292749822E-004;
2.423000000000000E+009;1.425972133874893E-001;-1.048651561141014E-001;-1.124200876802206E-003;2.428779553156346E-004;
2.423166666666667E+009;1.426934748888016E-001;-1.069789156317711E-001;-1.086388481780887E-003;1.400914043188095E-004;
2.423333333333334E+009;1.429558694362640E-001;-1.082864850759506E-001;-8.494526264257729E-004;1.862372009782121E-004;
2.423500000000000E+009;1.430704891681671E-001;-1.100764796137810E-001;-9.049724321812391E-004;2.383733226452023E-004;
2.423666666666667E+009;1.430786550045013E-001;-1.117097809910774E-001;-8.814233005978167E-004;1.066281765815802E-004;
2.423833333333334E+009;1.436083167791367E-001;-1.132500395178795E-001;-8.822409436106682E-004;1.148061783169396E-004;
2.424000000000000E+009;1.437732130289078E-001;-1.144875437021256E-001;-8.683990454301238E-004;8.659841842018068E-005;
2.424166666666667E+009;1.441833376884460E-001;-1.160060688853264E-001;-8.875411585904658E-004;1.241222635144368E-004;
2.424333333333334E+009;1.446515470743179E-001;-1.171375811100006E-001;-8.760246564634144E-004;1.401511690346524E-004;
2.424500000000000E+009;1.451268196105957E-001;-1.184848025441170E-001;-8.205256890505552E-004;2.524305891711265E-004;
2.424666666666667E+009;1.455764323472977E-001;-1.194108873605728E-001;-7.903660880401731E-004;2.557123079895973E-004;
2.424833333333334E+009;1.458264738321304E-001;-1.205724850296974E-001;-9.555734577588737E-004;5.530986163648777E-005;
2.425000000000000E+009;1.464159786701202E-001;-1.216385439038277E-001;-8.427105494774878E-004;6.002482405165210E-005;
2.425166666666667E+009;1.466750502586365E-001;-1.224783957004547E-001;-9.193219593726099E-004;1.845762453740463E-004;
2.425333333333334E+009;1.472638994455338E-001;-1.232618540525436E-001;-9.079425944946706E-004;3.250888403272256E-005;
2.425500000000000E+009;1.475190073251724E-001;-1.239819601178169E-001;-7.693632505834103E-004;2.626527384563815E-005;
2.425666666666667E+009;1.476425230503082E-001;-1.245818287134171E-001;-1.052881940267980E-003;1.499561185482889E-004;
2.425833333333334E+009;1.480907201766968E-001;-1.250990331172943E-001;-8.999591227620840E-004;1.617719249225047E-006;
2.426000000000000E+009;1.482338160276413E-001;-1.255171597003937E-001;-7.880016928538680E-004;3.765297878999263E-004;
2.426166666666667E+009;1.485427320003510E-001;-1.259513050317764E-001;-9.042354067787528E-004;2.056368393823504E-004;
2.426333333333334E+009;1.486037820577622E-001;-1.262537539005280E-001;-9.174548322334886E-004;2.618388680275530E-004;
2.426500000000000E+009;1.487037092447281E-001;-1.263681650161743E-001;-8.934693760238588E-004;2.630141680128872E-004;
2.426666666666667E+009;1.487066000699997E-001;-1.263856738805771E-001;-9.782410925254226E-004;4.213441279716790E-004;
2.426833333333334E+009;1.485169827938080E-001;-1.264890581369400E-001;-1.029202830977738E-003;3.270594461355358E-004;
2.427000000000000E+009;1.482290923595429E-001;-1.267456263303757E-001;-8.557513938285410E-004;3.198091872036457E-004;
2.427166666666667E+009;1.478940844535828E-001;-1.265990883111954E-001;-9.859220590442419E-004;3.034250403288752E-004;
2.427333333333334E+009;1.474731117486954E-001;-1.266074776649475E-001;-8.354400633834302E-004;3.882480086758733E-004;
2.427500000000000E+009;1.470539569854736E-001;-1.265104115009308E-001;-8.305188966915011E-004;3.992864512838423E-004;
2.427666666666667E+009;1.463680565357208E-001;-1.265272498130798E-001;-7.682454306632280E-004;5.000625969842076E-004;
