# Version 1.00
#
freq[Hz];re:Trc1_S11;im:Trc1_S11;re:Trc2_S21;im:Trc2_S21;
2.400000000000000E+009;1.626636236906052E-001;5.265730991959572E-002;2.866756985895336E-004;3.967206925153732E-003;
2.400166666666667E+009;1.625324040651321E-001;5.109492689371109E-002;3.578422474674881E-004;3.874822985380888E-003;
2.400333333333334E+009;1.624386012554169E-001;4.912167415022850E-002;4.245381860528141E-004;3.773581469431520E-003;
2.400500000000000E+009;1.624447852373123E-001;4.731546714901924E-002;3.834497183561325E-004;3.969875164330006E-003;
2.400666666666667E+009;1.624038070440292E-001;4.521569609642029E-002;4.852185957133770E-004;3.959685564041138E-003;
2.400833333333334E+009;1.623956114053726E-001;4.336840659379959E-002;6.712453323416412E-004;4.049952141940594E-003;
2.401000000000000E+009;1.623851209878922E-001;4.127740114927292E-002;6.867207121104002E-004;3.983823582530022E-003;
2.401166666666667E+009;1.626314371824265E-001;3.924252465367317E-002;7.983816904015839E-004;4.005229100584984E-003;
2.401333333333334E+009;1.627094000577927E-001;3.703845664858818E-002;8.549006888642907E-004;4.089509602636099E-003;
2.401500000000000E+009;1.630762666463852E-001;3.503121808171272E-002;1.091563375666738E-003;4.297860432416201E-003;
2.401666666666667E+009;1.632174849510193E-001;3.305100649595261E-002;1.319071510806680E-003;4.093584604561329E-003;
2.401833333333334E+009;1.634121686220169E-001;3.104873560369015E-002;1.468328176997602E-003;4.204961471259594E-003;
2.402000000000000E+009;1.636744141578674E-001;2.902439422905445E-002;1.361495116725564E-003;4.316512029618025E-003;
2.402166666666667E+009;1.641163527965546E-001;2.692975476384163E-002;1.543790567666292E-003;4.326036665588617E-003;
2.402333333333334E+009;1.644194275140762E-001;2.519099228084087E-002;1.724261674098671E-003;4.302159417420626E-003;
2.402500000000000E+009;1.652904897928238E-001;2.326809242367744E-002;2.054970245808363E-003;4.233965184539557E-003;
2.402666666666667E+009;1.657736450433731E-001;2.156772837042809E-002;2.361782826483250E-003;4.313915036618710E-003;
2.402833333333334E+009;1.661549210548401E-001;1.965051703155041E-002;2.659120364114642E-003;4.129325039684773E-003;
2.403000000000000E+009;1.669805049896240E-001;1.804495975375176E-002;2.865471411496401E-003;4.131392110139132E-003;
2.403166666666667E+009;1.676641255617142E-001;1.644787378609181E-002;3.102727932855487E-003;4.078464582562447E-003;
2.403333333333334E+009;1.683098971843720E-001;1.498367451131344E-002;3.118206281214953E-003;3.868126776069403E-003;
2.403500000000000E+009;1.692224889993668E-001;1.350843906402588E-002;3.430426819249988E-003;3.956789616495371E-003;
2.403666666666667E+009;1.698727011680603E-001;1.207249425351620E-002;3.627095138654113E-003;3.685390576720238E-003;
2.403833333333334E+009;1.707534044981003E-001;1.087710447609425E-002;3.859380027279258E-003;3.533523762598634E-003;
2.404000000000000E+009;1.716151982545853E-001;9.475027211010456E-003;4.042227286845446E-003;3.186746966093779E-003;
2.404166666666667E+009;1.723676472902298E-001;8.278148248791695E-003;4.311332013458014E-003;2.924913540482521E-003;
2.404333333333334E+009;1.731429100036621E-001;7.421361748129129E-003;4.509868565946817E-003;2.776724519208074E-003;
2.404500000000000E+009;1.736924648284912E-001;6.336674559861422E-003;4.563229624181986E-003;2.688859822228551E-003;
2.404666666666667E+009;1.747128069400787E-001;5.447714123874903E-003;4.733835346996784E-003;2.238885732367635E-003;
2.404833333333334E+009;1.755218356847763E-001;4.467919934540987E-003;4.841189831495285E-003;2.243154449388385E-003;
2.405000000000000E+009;1.761039197444916E-001;3.864665050059557E-003;4.913547076284885E-003;1.992775127291679E-003;
2.405166666666667E+009;1.767966002225876E-001;3.189718117937446E-003;5.020435433834791E-003;1.785390311852098E-003;
2.405333333333334E+009;1.775337010622025E-001;2.440280513837934E-003;5.071268416941166E-003;1.229753717780113E-003;
2.405500000000000E+009;1.780494451522827E-001;2.105930820107460E-003;5.225823260843754E-003;1.078023226000369E-003;
2.405666666666667E+009;1.785873323678970E-001;1.644078991375864E-003;5.112232174724340E-003;6.914918194524944E-004;
2.405833333333334E+009;1.789343208074570E-001;1.475004712119699E-003;5.149180069565773E-003;4.611244075931609E-004;
2.406000000000000E+009;1.794732064008713E-001;9.980681352317333E-004;5.032279994338751E-003;2.181478339480236E-004;
2.406166666666667E+009;1.797253191471100E-001;6.875617546029389E-004;5.155129823833704E-003;1.061203729477711E-004;
2.406333333333334E+009;1.802944689989090E-001;4.289085045456886E-004;5.117124412208796E-003;-3.518263984005898E-004;
2.406500000000000E+009;1.804468184709549E-001;1.529686851426959E-004;4.935858771204948E-003;-6.614839658141136E-004;
2.406666666666667E+009;1.803990453481674E-001;-1.150011303252541E-004;4.746474325656891E-003;-7.639735122211278E-004;
2.406833333333334E+009;1.806499958038330E-001;-3.504249907564372E-004;4.680802579969168E-003;-1.007657265290618E-003;
2.407000000000000E+009;1.806327104568481E-001;-7.159218657761812E-004;4.506816621869803E-003;-1.282582641579211E-003;
2.407166666666667E+009;1.807280778884888E-001;-7.186769507825375E-004;4.417966119945049E-003;-1.394039136357606E-003;
2.407333333333334E+009;1.804403960704804E-001;-1.185592613182962E-003;4.379289224743843E-003;-1.756088226102293E-003;
2.407500000000000E+009;1.802437901496887E-001;-1.524126972071827E-003;4.095003940165043E-003;-1.790245994925499E-003;
2.407666666666667E+009;1.799806356430054E-001;-1.911697792820633E-003;4.043438006192446E-003;-2.005337039008737E-003;
2.407833333333334E+009;1.794676184654236E-001;-2.344326348975301E-003;3.939847461879253E-003;-2.063055522739887E-003;
2.408000000000000E+009;1.790525168180466E-001;-2.959622768685222E-003;3.761728527024388E-003;-2.306712558493018E-003;
2.408166666666667E+009;1.786327958106995E-001;-3.382190596312285E-003;3.624255070462823E-003;-2.260750392451882E-003;
2.408333333333334E+009;1.782255470752716E-001;-4.018433857709169E-003;3.531761933118105E-003;-2.487203804776073E-003;
2.408500000000000E+009;1.774959862232208E-001;-4.772708751261234E-003;3.348629223182797E-003;-2.635411685332656E-003;
2.408666666666667E+009;1.769138276576996E-001;-5.515856668353081E-003;3.036336041986942E-003;-2.874155994504690E-003;
2.408833333333334E+009;1.761222332715988E-001;-6.454714108258486E-003;2.913288772106171E-003;-2.844707574695349E-003;
2.409000000000000E+009;1.754267811775208E-001;-7.248090114444494E-003;2.665051724761725E-003;-2.799652982503176E-003;
2.409166666666667E+009;1.747628599405289E-001;-8.430420421063900E-003;2.635440323501825E-003;-2.898515434935689E-003;
2.409333333333334E+009;1.740986257791519E-001;-9.570325724780560E-003;2.317867474630475E-003;-3.158411942422390E-003;
2.409500000000000E+009;1.731774806976318E-001;-1.095480658113957E-002;2.261996036395431E-003;-2.978421514853835E-003;
2.409666666666667E+009;1.724392771720886E-001;-1.196974888443947E-002;2.033151220530272E-003;-3.105177776888013E-003;
2.409833333333334E+009;1.717550158500671E-001;-1.332536432892084E-002;1.689051394350827E-003;-3.083069808781147E-003;
2.410000000000000E+009;1.709552109241486E-001;-1.475856639444828E-002;1.603087992407382E-003;-2.947398228570819E-003;
2.410166666666667E+009;1.703549027442932E-001;-1.635795645415783E-002;1.488968846388161E-003;-3.103695809841156E-003;
2.410333333333334E+009;1.695080846548080E-001;-1.785600930452347E-002;1.369791571050882E-003;-3.069472732022405E-003;
2.410500000000000E+009;1.688641905784607E-001;-1.959496550261974E-002;1.266394159756601E-003;-3.091139718890190E-003;
2.410666666666667E+009;1.683400720357895E-001;-2.134595252573490E-002;1.066815806552768E-003;-3.023000666871667E-003;
2.410833333333334E+009;1.678235828876495E-001;-2.295867353677750E-002;9.586826781742275E-004;-2.930977847427130E-003;
2.411000000000000E+009;1.673132479190826E-001;-2.496487274765968E-002;8.699007448740304E-004;-2.932232804596424E-003;
2.411166666666667E+009;1.669151633977890E-001;-2.679672837257385E-002;6.569825345650315E-004;-2.953042974695563E-003;
2.411333333333334E+009;1.666702479124069E-001;-2.880376391112804E-002;5.137739353813231E-004;-2.745335223153234E-003;
2.411500000000000E+009;1.659094393253326E-001;-3.065547719597817E-002;4.134571354370564E-004;-2.695525763556361E-003;
2.411666666666667E+009;1.660755872726440E-001;-3.289036080241203E-002;4.274892853572965E-004;-2.600202336907387E-003;
2.411833333333334E+009;1.657990664243698E-001;-3.456468135118485E-002;3.823378647211939E-004;-2.588009694591165E-003;
2.412000000000000E+009;1.658431440591812E-001;-3.665844351053238E-002;2.922669809777290E-004;-2.587503753602505E-003;
2.412166666666667E+009;1.657573729753494E-001;-3.866590559482575E-002;2.077460521832109E-004;-2.528168028220534E-003;
2.412333333333334E+009;1.659130901098251E-001;-4.054782539606094E-002;1.464742672396824E-004;-2.459672512486577E-003;
2.412500000000000E+009;1.657269746065140E-001;-4.241036623716354E-002;1.127895156969316E-004;-2.484571421518922E-003;
2.412666666666667E+009;1.659817546606064E-001;-4.463601112365723E-002;1.005260564852506E-004;-2.346075139939785E-003;
2.412833333333334E+009;1.663889884948731E-001;-4.636824876070023E-002;-6.254256732063368E-006;-2.431958680972457E-003;
2.413000000000000E+009;1.665951907634735E-001;-4.819394648075104E-002;-3.587598621379584E-005;-2.402018755674362E-003;
2.413166666666667E+009;1.668249070644379E-001;-4.999725148081780E-002;-1.765856868587434E-004;-2.232094062492251E-003;
2.413333333333334E+009;1.671844571828842E-001;-5.166827514767647E-002;-2.513585495762527E-004;-2.168187405914068E-003;
2.413500000000000E+009;1.675990223884583E-001;-5.352356657385826E-002;-2.559321001172066E-004;-2.133260713890195E-003;
2.413666666666667E+009;1.681518703699112E-001;-5.518228933215141E-002;-2.592286618892103E-004;-2.241253852844238E-003;
2.413833333333334E+009;1.684556752443314E-001;-5.654419213533402E-002;-2.234345593024045E-004;-2.082688268274069E-003;
2.414000000000000E+009;1.687307208776474E-001;-5.811776593327522E-002;-3.768856113310903E-004;-2.052825409919024E-003;
2.414166666666667E+009;1.695972830057144E-001;-5.931628122925758E-002;-3.648618003353477E-004;-2.085227053612471E-003;
2.414333333333334E+009;1.700370460748673E-001;-6.074853986501694E-002;-4.930517752654851E-004;-2.009233226999641E-003;
2.414500000000000E+009;1.706148386001587E-001;-6.178904324769974E-002;-5.834663170389831E-004;-1.685241586528719E-003;
2.414666666666667E+009;1.711053103208542E-001;-6.280005723237991E-002;-5.170276854187250E-004;-1.798553625121713E-003;
2.414833333333334E+009;1.714209169149399E-001;-6.393022090196610E-002;-5.091415951028466E-004;-1.915426342748106E-003;
2.415000000000000E+009;1.719546318054199E-001;-6.466202437877655E-002;-5.982242873869836E-004;-1.953323371708393E-003;
2.415166666666667E+009;1.722781062126160E-001;-6.565274298191071E-002;-6.523636984638870E-004;-1.992041245102882E-003;
2.415333333333334E+009;1.728055179119110E-001;-6.640703976154327E-002;-6.658419733867049E-004;-1.821728423237801E-003;
2.415500000000000E+009;1.731167882680893E-001;-6.698427349328995E-002;-6.041353335604072E-004;-1.773098949342966E-003;
2.415666666666667E+009;1.734900772571564E-001;-6.739687174558640E-002;-6.624438683502376E-004;-1.756060868501663E-003;
2.415833333333334E+009;1.737333238124847E-001;-6.807564944028854E-002;-6.875590770505369E-004;-1.700101653113961E-003;
2.416000000000000E+009;1.737394481897354E-001;-6.844107806682587E-002;-7.375212735496461E-004;-1.783069106750190E-003;
2.416166666666667E+009;1.739126294851303E-001;-6.888464838266373E-002;-8.306290837936103E-004;-1.774730277247727E-003;
2.416333333333334E+009;1.739752590656281E-001;-6.905846297740936E-002;-7.926570833660662E-004;-1.644807402044535E-003;
2.416500000000000E+009;1.739651411771774E-001;-6.940157711505890E-002;-9.526370558887720E-004;-1.617321977391839E-003;
2.416666666666667E+009;1.735861152410507E-001;-6.952391564846039E-002;-1.011529937386513E-003;-1.502686413004994E-003;
2.416833333333334E+009;1.735919117927551E-001;-6.987267732620239E-002;-9.757931693457067E-004;-1.631028135307133E-003;
2.417000000000000E+009;1.730027198791504E-001;-7.013060152530670E-002;-1.137499697506428E-003;-1.574180554598570E-003;
2.417166666666667E+009;1.726279705762863E-001;-7.013058662414551E-002;-1.127043273299933E-003;-1.427573151886463E-003;
2.417333333333334E+009;1.721927672624588E-001;-7.029607892036438E-002;-1.253106282092631E-003;-1.370744081214070E-003;
2.417500000000000E+009;1.714411228895187E-001;-7.052052021026611E-002;-1.260175253264606E-003;-1.475595985539258E-003;
2.417666666666667E+009;1.710418760776520E-001;-7.053407281637192E-002;-1.382761984132230E-003;-1.413705642335117E-003;
2.417833333333334E+009;1.702238917350769E-001;-7.077301293611527E-002;-1.344381365925074E-003;-1.345434226095676E-003;
2.418000000000000E+009;1.692251414060593E-001;-7.108459621667862E-002;-1.323935459367931E-003;-1.238277764059603E-003;
2.418166666666667E+009;1.682749837636948E-001;-7.115614414215088E-002;-1.375061110593379E-003;-1.121779088862240E-003;
2.418333333333334E+009;1.675288677215576E-001;-7.145629078149796E-002;-1.347414799965918E-003;-1.211944851092994E-003;
2.418500000000000E+009;1.662982106208801E-001;-7.185062021017075E-002;-1.460812520235777E-003;-9.909205837175250E-004;
2.418666666666667E+009;1.651808321475983E-001;-7.222898304462433E-002;-1.271803048439324E-003;-9.044759208336473E-004;
2.418833333333334E+009;1.639952361583710E-001;-7.265485823154450E-002;-1.397225190885365E-003;-9.175803861580789E-004;
2.419000000000000E+009;1.626774817705154E-001;-7.311127334833145E-002;-1.305623911321163E-003;-8.062537526711822E-004;
2.419166666666667E+009;1.614876389503479E-001;-7.378118485212326E-002;-1.427838113158941E-003;-9.252640884369612E-004;
2.419333333333334E+009;1.599541753530502E-001;-7.421546429395676E-002;-1.299304538406432E-003;-6.712191388942301E-004;
2.419500000000000E+009;1.588028818368912E-001;-7.499439269304276E-002;-1.466977410018444E-003;-6.275271880440414E-004;
2.419666666666667E+009;1.576290279626846E-001;-7.586896419525147E-002;-1.494670636020601E-003;-6.589944241568446E-004;
2.419833333333334E+009;1.562324911355972E-001;-7.656282186508179E-002;-1.413371297530830E-003;-7.052723085507751E-004;
2.420000000000000E+009;1.550742834806442E-001;-7.774990051984787E-002;-1.580468728207052E-003;-5.205867928452790E-004;
2.420166666666667E+009;1.538667827844620E-001;-7.864606380462647E-002;-1.469138194806874E-003;-5.145556060597301E-004;
2.420333333333334E+009;1.525862365961075E-001;-7.976579666137695E-002;-1.417955150827766E-003;-3.566650557331741E-004;
2.420500000000000E+009;1.515096873044968E-001;-8.098790794610977E-002;-1.414059777744114E-003;-5.010368768125773E-004;
2.420666666666667E+009;1.504447609186173E-001;-8.226069062948227E-002;-1.272624474950135E-003;-3.878753341268748E-004;
2.420833333333334E+009;1.493391692638397E-001;-8.350051939487457E-002;-1.342574134469032E-003;-3.141481720376760E-004;
2.421000000000000E+009;1.481951028108597E-001;-8.497461676597595E-002;-1.329110469669104E-003;-2.082550927298144E-004;
2.421166666666667E+009;1.474410295486450E-001;-8.637626469135284E-002;-1.289075706154108E-003;-2.192147658206523E-004;
2.421333333333334E+009;1.466331779956818E-001;-8.803376555442810E-002;-1.454363926313818E-003;-6.313738413155079E-005;
2.421500000000000E+009;1.456406712532044E-001;-8.952606469392777E-002;-1.361327711492777E-003;-1.847302337409928E-004;
2.421666666666667E+009;1.450164467096329E-001;-9.123989194631577E-002;-1.343709765933454E-003;-3.441013541305438E-005;
2.421833333333334E+009;1.444262862205505E-001;-9.280779957771301E-002;-1.355416607111692E-003;-5.819013949803775E-006;
2.422000000000000E+009;1.438384950160980E-001;-9.452413767576218E-002;-1.221988932229579E-003;1.241708814632148E-004;
2.422166666666667E+009;1.434585899114609E-001;-9.644597768783569E-002;-1.025919802486897E-003;1.647237659199163E-004;
2.422333333333334E+009;1.432244628667831E-001;-9.784820675849915E-002;-1.176028861664236E-003;6.779635441489518E-005;
2.422500000000000E+009;1.428902447223663E-001;-9.969855844974518E-002;-1.228933921083808E-003;2.212127146776766E-004;
2.422666666666667E+009;1.424692869186401E-001;-1.016078516840935E-001;-1.152027864009142E-003;8.671236719237641E-005;
2.422833333333334E+009;1.426364481449127E-001;-1.034062653779984E-001;-9.651263244450092E-004;9.090922685572878E-005;
2.423000000000000E+009;1.426492929458618E-001;-1.051853895187378E-001;-1.041419571265578E-003;1.555045018903911E-004;
2.423166666666667E+009;1.427490413188934E-001;-1.067212149500847E-001;-9.337601950392127E-004;2.243577473564073E-004;
2.423333333333334E+009;1.428992152214050E-001;-1.083337292075157E-001;-1.005732337944210E-003;3.059022710658610E-004;
2.423500000000000E+009;1.429969221353531E-001;-1.100049540400505E-001;-9.395691449753940E-004;1.709016505628824E-004;
2.423666666666667E+009;1.431153416633606E-001;-1.115348562598229E-001;-8.165139588527381E-004;2.647943620104343E-004;
2.423833333333334E+009;1.436699330806732E-001;-1.132510378956795E-001;-8.314413134939969E-004;1.256096293218434E-004;
2.424000000000000E+009;1.439328491687775E-001;-1.146484091877937E-001;-8.109858026728034E-004;9.419360139872879E-005;
2.424166666666667E+009;1.442761272192001E-001;-1.158733814954758E-001;-7.183842244558036E-004;2.211449900642037E-004;
2.424333333333334E+009;1.447203606367111E-001;-1.170757934451103E-001;-8.453559130430222E-004;9.587410750100389E-005;
2.424500000000000E+009;1.450989693403244E-001;-1.185087487101555E-001;-8.509090985171497E-004;6.069573282729834E-005;
2.424666666666667E+009;1.455530077219009E-001;-1.194092258810997E-001;-8.080072002485395E-004;3.818085679085925E-005;
2.424833333333334E+009;1.460403054952622E-001;-1.205288395285606E-001;-9.595301235094667E-004;4.081431325175799E-005;
2.425000000000000E+009;1.465557664632797E-001;-1.216202601790428E-001;-8.456396171823144E-004;1.456696481909603E-004;
2.425166666666667E+009;1.467097848653793E-001;-1.224465891718864E-001;-7.748238276690245E-004;1.381173387926538E-005;
2.425333333333334E+009;1.471826583147049E-001;-1.233704984188080E-001;-8.778913761489093E-004;1.050712744472548E-004;
2.425500000000000E+009;1.475670933723450E-001;-1.239864379167557E-001;-9.552345727570355E-004;5.736823368351907E-006;
2.425666666666667E+009;1.477258652448654E-001;-1.245692968368530E-001;-8.573541999794543E-004;1.178359307232313E-004;
2.425833333333334E+009;1.481499224901199E-001;-1.250237524509430E-001;-8.217332069762051E-004;1.376487198285759E-004;
2.426000000000000E+009;1.483097374439240E-001;-1.255647093057632E-001;-8.606777410022914E-004;1.855267328210175E-004;
2.426166666666667E+009;1.485978513956070E-001;-1.258816123008728E-001;-8.711055270396173E-004;3.317823575343937E-005;
2.426333333333334E+009;1.486772894859314E-001;-1.262503862380981E-001;-8.352052536793053E-004;2.147673367289826E-004;
2.426500000000000E+009;1.486832648515701E-001;-1.263389587402344E-001;-9.847414912655950E-004;1.043655865942128E-004;
2.426666666666667E+009;1.487352550029755E-001;-1.263836473226547E-001;-9.083615732379258E-004;2.821648668032140E-004;
2.426833333333334E+009;1.486349403858185E-001;-1.265627145767212E-001;-9.509754017926753E-004;3.236393386032432E-004;
2.427000000000000E+009;1.482979208230972E-001;-1.267330944538117E-001;-9.290291345678270E-004;3.814786323346198E-004;
2.427166666666667E+009;1.480391770601273E-001;-1.265447586774826E-001;-7.967951241880655E-004;6.042932509444654E-004;
2.427333333333334E+009;1.474476456642151E-001;-1.266003102064133E-001;-8.667430374771357E-004;4.504150710999966E-004;
2.427500000000000E+009;1.470992267131805E-001;-1.266210377216339E-001;-7.876818999648094E-004;4.806612269021571E-004;
2.427666666666667E+009;1.463702768087387E-001;-1.265605837106705E-001;-6.441494333557785E-004;4.542422539088875E-004;
