# Version 1.00
#
freq[Hz];re:Trc1_S11;im:Trc1_S11;re:Trc2_S21;im:Trc2_S21;
2.400000000000000E+009;1.507212221622467E-001;1.145470961928368E-001;9.314517374150455E-004;-4.424213897436857E-003;
2.400166666666667E+009;1.504787653684616E-001;1.122246012091637E-001;9.099206072278321E-004;-4.547225311398506E-003;
2.400333333333334E+009;1.505843251943588E-001;1.100901439785957E-001;8.493097848258913E-004;-4.436496645212174E-003;
2.400500000000000E+009;1.508591771125794E-001;1.071822643280029E-001;7.224701694212854E-004;-4.679734818637371E-003;
2.400666666666667E+009;1.509537398815155E-001;1.048066243529320E-001;7.451159181073308E-004;-4.626519046723843E-003;
2.400833333333334E+009;1.511567085981369E-001;1.019413843750954E-001;7.295222603715956E-004;-4.748164676129818E-003;
2.401000000000000E+009;1.514687389135361E-001;9.915220737457275E-002;5.559833953157067E-004;-4.858773667365313E-003;
2.401166666666667E+009;1.514542251825333E-001;9.630160778760910E-002;6.074964767321944E-004;-5.199440289288759E-003;
2.401333333333334E+009;1.521807163953781E-001;9.351025521755219E-002;2.155594120267779E-004;-5.243659019470215E-003;
2.401500000000000E+009;1.525608748197556E-001;9.059420973062515E-002;1.474218588555232E-004;-5.524280015379190E-003;
2.401666666666667E+009;1.532763242721558E-001;8.781886100769043E-002;-3.216877521481365E-004;-5.463719833642244E-003;
2.401833333333334E+009;1.536582559347153E-001;8.505097031593323E-002;-4.746760241687298E-004;-5.666087381541729E-003;
2.402000000000000E+009;1.548158079385757E-001;8.222192525863648E-002;-8.208736544474959E-004;-5.589981097728014E-003;
2.402166666666667E+009;1.558030843734741E-001;7.974046468734741E-002;-1.157854334451258E-003;-5.545794032514095E-003;
2.402333333333334E+009;1.568142324686050E-001;7.702196389436722E-002;-1.478552701883018E-003;-5.672913044691086E-003;
2.402500000000000E+009;1.582824140787125E-001;7.426397502422333E-002;-1.818199176341295E-003;-5.413217470049858E-003;
2.402666666666667E+009;1.595125347375870E-001;7.195845246315002E-002;-1.971296733245254E-003;-5.140140652656555E-003;
2.402833333333334E+009;1.611259728670120E-001;6.952346116304398E-002;-2.242564223706722E-003;-5.138808395713568E-003;
2.403000000000000E+009;1.626705229282379E-001;6.726399064064026E-002;-2.504291245713830E-003;-4.895252175629139E-003;
2.403166666666667E+009;1.646558046340942E-001;6.510917097330093E-002;-2.640889259055257E-003;-4.846764262765646E-003;
2.403333333333334E+009;1.662721484899521E-001;6.281527131795883E-002;-2.987343352288008E-003;-4.654795862734318E-003;
2.403500000000000E+009;1.681884527206421E-001;6.072131916880608E-002;-3.079523332417011E-003;-4.373545758426189E-003;
2.403666666666667E+009;1.700959652662277E-001;5.877233669161797E-002;-3.146961564198136E-003;-4.150207620114088E-003;
2.403833333333334E+009;1.718380898237228E-001;5.685166269540787E-002;-3.309224266558886E-003;-3.885520854964852E-003;
2.404000000000000E+009;1.738338917493820E-001;5.489723756909370E-002;-3.354365471750498E-003;-3.663874929770827E-003;
2.404166666666667E+009;1.758039742708206E-001;5.348034948110580E-002;-3.495070151984692E-003;-3.592934226617217E-003;
2.404333333333334E+009;1.775914281606674E-001;5.174124985933304E-002;-3.480076091364026E-003;-3.623452736064792E-003;
2.404500000000000E+009;1.794427186250687E-001;5.025332048535347E-002;-3.510756185278297E-003;-3.508158028125763E-003;
2.404666666666667E+009;1.812195330858231E-001;4.925136640667915E-002;-3.591327695176005E-003;-3.222619416192174E-003;
2.404833333333334E+009;1.830989122390747E-001;4.813262075185776E-002;-3.562921658158302E-003;-3.154685255140066E-003;
2.405000000000000E+009;1.846554875373840E-001;4.730889573693276E-002;-3.743349574506283E-003;-3.160346066579223E-003;
2.405166666666667E+009;1.861171275377274E-001;4.663378372788429E-002;-3.831261536106467E-003;-3.085526637732983E-003;
2.405333333333334E+009;1.878362298011780E-001;4.596126079559326E-002;-4.019006621092558E-003;-3.099490189924836E-003;
2.405500000000000E+009;1.893802732229233E-001;4.551838710904121E-002;-4.143608268350363E-003;-2.926980843767524E-003;
2.405666666666667E+009;1.907153129577637E-001;4.512316361069679E-002;-4.238642286509275E-003;-2.687930595129728E-003;
2.405833333333334E+009;1.920842677354813E-001;4.471642151474953E-002;-4.329230170696974E-003;-2.645394066348672E-003;
2.406000000000000E+009;1.932498216629028E-001;4.451287537813187E-002;-4.420515615493059E-003;-2.478237031027675E-003;
2.406166666666667E+009;1.944254785776138E-001;4.431423917412758E-002;-4.501843824982643E-003;-2.265895251184702E-003;
2.406333333333334E+009;1.953876167535782E-001;4.440118372440338E-002;-4.668998997658491E-003;-2.124165184795857E-003;
2.406500000000000E+009;1.963871419429779E-001;4.431234300136566E-002;-4.717946518212557E-003;-2.017137128859758E-003;
2.406666666666667E+009;1.970936954021454E-001;4.432195797562599E-002;-4.771089181303978E-003;-1.735104364342988E-003;
2.406833333333334E+009;1.976890265941620E-001;4.413908720016480E-002;-4.796577617526054E-003;-1.663404167629778E-003;
2.407000000000000E+009;1.980801522731781E-001;4.440041631460190E-002;-5.070066545158625E-003;-1.233183196745813E-003;
2.407166666666667E+009;1.984941065311432E-001;4.409554228186607E-002;-4.860078915953636E-003;-1.047487254254520E-003;
2.407333333333334E+009;1.985262036323547E-001;4.418417811393738E-002;-4.896721336990595E-003;-1.013823901303113E-003;
2.407500000000000E+009;1.984724849462509E-001;4.422793164849281E-002;-4.878660663962364E-003;-7.432214915752411E-004;
2.407666666666667E+009;1.986276209354401E-001;4.399767145514488E-002;-4.859508946537972E-003;-6.060433224774897E-004;
2.407833333333334E+009;1.981178820133209E-001;4.393908753991127E-002;-4.915850702673197E-003;-3.302839759271592E-004;
2.408000000000000E+009;1.980945616960526E-001;4.375689104199410E-002;-4.783539101481438E-003;-2.205853670602664E-004;
2.408166666666667E+009;1.974998116493225E-001;4.332461953163147E-002;-4.779582377523184E-003;-8.336264727404341E-005;
2.408333333333334E+009;1.970085501670837E-001;4.282445088028908E-002;-4.718517418950796E-003;1.410620461683720E-004;
2.408500000000000E+009;1.961855590343475E-001;4.230443760752678E-002;-4.783880896866322E-003;3.225118562113494E-004;
2.408666666666667E+009;1.955040097236633E-001;4.182895272970200E-002;-4.700158722698689E-003;4.008064570371062E-004;
2.408833333333334E+009;1.947442144155502E-001;4.098559916019440E-002;-4.612575750797987E-003;6.155752926133573E-004;
2.409000000000000E+009;1.936725378036499E-001;4.005650058388710E-002;-4.636684898287058E-003;7.522217347286642E-004;
2.409166666666667E+009;1.925972551107407E-001;3.921019658446312E-002;-4.427318926900625E-003;8.330328273586929E-004;
2.409333333333334E+009;1.916086226701737E-001;3.809350728988648E-002;-4.218779969960451E-003;1.076538464985788E-003;
2.409500000000000E+009;1.904016882181168E-001;3.686380758881569E-002;-4.283422138541937E-003;1.044961274601519E-003;
2.409666666666667E+009;1.894145011901856E-001;3.540455177426338E-002;-4.127953667193651E-003;1.205248408950865E-003;
2.409833333333334E+009;1.883191615343094E-001;3.388287872076035E-002;-4.099444020539522E-003;1.232556300237775E-003;
2.410000000000000E+009;1.872662901878357E-001;3.221616894006729E-002;-3.961638081818819E-003;1.294442219659686E-003;
2.410166666666667E+009;1.861386001110077E-001;3.026605769991875E-002;-3.962836693972349E-003;1.440406893379986E-003;
2.410333333333334E+009;1.850900202989578E-001;2.861605398356915E-002;-3.657111665233970E-003;1.496248878538609E-003;
2.410500000000000E+009;1.840136796236038E-001;2.651550620794296E-002;-3.476132871583104E-003;1.424743211828172E-003;
2.410666666666667E+009;1.830126196146011E-001;2.411292120814323E-002;-3.582478268072009E-003;1.389389974065125E-003;
2.410833333333334E+009;1.823073923587799E-001;2.206462435424328E-002;-3.365793498232961E-003;1.480648992583156E-003;
2.411000000000000E+009;1.816071420907974E-001;1.983564905822277E-002;-3.508117282763124E-003;1.477780053392053E-003;
2.411166666666667E+009;1.809132248163223E-001;1.754164695739746E-002;-3.405257593840361E-003;1.479929313063622E-003;
2.411333333333334E+009;1.801636815071106E-001;1.516649685800076E-002;-3.453785087913275E-003;1.644557807594538E-003;
2.411500000000000E+009;1.796935200691223E-001;1.262127142399550E-002;-3.458556486293674E-003;1.462561544030905E-003;
2.411666666666667E+009;1.795380413532257E-001;1.020694337785244E-002;-3.677525091916323E-003;1.442150329239667E-003;
2.411833333333334E+009;1.791775077581406E-001;7.842537946999073E-003;-3.581913886591792E-003;1.478642574511468E-003;
2.412000000000000E+009;1.792973279953003E-001;5.129473749548197E-003;-3.751910291612148E-003;1.578462659381330E-003;
2.412166666666667E+009;1.793463677167893E-001;2.782242139801383E-003;-3.702503163367510E-003;1.786675769835711E-003;
2.412333333333334E+009;1.794247478246689E-001;2.794098982121795E-004;-4.033505916595459E-003;1.802691025659442E-003;
2.412500000000000E+009;1.799018234014511E-001;-2.315893536433578E-003;-3.990349359810352E-003;1.914758933708072E-003;
2.412666666666667E+009;1.803463399410248E-001;-4.755421541631222E-003;-4.112011287361383E-003;2.238941146060824E-003;
2.412833333333334E+009;1.810883730649948E-001;-7.358939386904240E-003;-4.083367995917797E-003;2.382108010351658E-003;
2.413000000000000E+009;1.817722320556641E-001;-9.826777502894402E-003;-4.064084962010384E-003;2.585898619145155E-003;
2.413166666666667E+009;1.824600994586945E-001;-1.202288176864386E-002;-4.128188360482454E-003;2.957709832116962E-003;
2.413333333333334E+009;1.835828274488449E-001;-1.437086053192616E-002;-4.068680573254824E-003;3.182235173881054E-003;
2.413500000000000E+009;1.844020485877991E-001;-1.664234139025211E-002;-3.988472279161215E-003;3.450376214459539E-003;
2.413666666666667E+009;1.855062097311020E-001;-1.885033585131168E-002;-3.999136853963137E-003;3.589130239561200E-003;
2.413833333333334E+009;1.867955029010773E-001;-2.097067981958389E-002;-3.889559768140316E-003;4.117392934858799E-003;
2.414000000000000E+009;1.877865642309189E-001;-2.292699180543423E-002;-3.419542685151100E-003;4.398290999233723E-003;
2.414166666666667E+009;1.890609562397003E-001;-2.484357915818691E-002;-3.157778410241008E-003;4.535092972218990E-003;
2.414333333333334E+009;1.902400553226471E-001;-2.676602266728878E-002;-3.157706232741475E-003;4.714187234640122E-003;
2.414500000000000E+009;1.914802789688110E-001;-2.818839065730572E-002;-2.983206417411566E-003;4.860502667725086E-003;
2.414666666666667E+009;1.928469389677048E-001;-2.984552085399628E-002;-2.665018895640969E-003;5.093792453408241E-003;
2.414833333333334E+009;1.937361210584641E-001;-3.117562085390091E-002;-2.249854383990169E-003;5.208102054893971E-003;
2.415000000000000E+009;1.950283944606781E-001;-3.253791853785515E-002;-2.039065351709724E-003;5.286052823066711E-003;
2.415166666666667E+009;1.963775157928467E-001;-3.367757797241211E-002;-1.703265355899930E-003;5.308459512889385E-003;
2.415333333333334E+009;1.974149346351624E-001;-3.451750427484512E-002;-1.338702277280390E-003;5.352578591555357E-003;
2.415500000000000E+009;1.986478716135025E-001;-3.526118770241737E-002;-1.286783488467336E-003;5.379698239266872E-003;
2.415666666666667E+009;1.996026039123535E-001;-3.606419265270233E-002;-8.943087887018919E-004;5.467845592647791E-003;
2.415833333333334E+009;2.004572600126267E-001;-3.666768968105316E-002;-7.364526973105967E-004;5.376676097512245E-003;
2.416000000000000E+009;2.012633383274078E-001;-3.720159083604813E-002;-5.592600791715086E-004;5.291360430419445E-003;
2.416166666666667E+009;2.020027488470078E-001;-3.780025988817215E-002;-3.300406679045409E-004;5.262629594653845E-003;
2.416333333333334E+009;2.026685178279877E-001;-3.798924759030342E-002;-1.130165474023670E-004;5.302905570715666E-003;
2.416500000000000E+009;2.031845450401306E-001;-3.821327537298203E-002;1.813964045140892E-004;5.427147727459669E-003;
2.416666666666667E+009;2.035206556320190E-001;-3.850832954049110E-002;3.569586842786521E-004;5.381998140364885E-003;
2.416833333333334E+009;2.035824060440064E-001;-3.850350901484489E-002;4.937651683576405E-004;5.300612654536963E-003;
2.417000000000000E+009;2.037385553121567E-001;-3.859500586986542E-002;7.060674834065139E-004;5.394092295318842E-003;
2.417166666666667E+009;2.035377919673920E-001;-3.846383467316628E-002;9.312272886745632E-004;5.353401415050030E-003;
2.417333333333334E+009;2.032944262027741E-001;-3.823187202215195E-002;1.327090663835406E-003;5.176996812224388E-003;
2.417500000000000E+009;2.030549198389053E-001;-3.818714991211891E-002;1.510446891188622E-003;5.122909322381020E-003;
2.417666666666667E+009;2.025929093360901E-001;-3.780368342995644E-002;1.734674908220768E-003;5.126569420099258E-003;
2.417833333333334E+009;2.021481096744537E-001;-3.747957199811935E-002;2.028260147199035E-003;4.731133580207825E-003;
2.418000000000000E+009;2.015090137720108E-001;-3.707807883620262E-002;2.144549740478396E-003;4.617027007043362E-003;
2.418166666666667E+009;2.007108479738236E-001;-3.701898083090782E-002;2.454207744449377E-003;4.670369904488325E-003;
2.418333333333334E+009;1.998453140258789E-001;-3.668395057320595E-002;2.701248042285442E-003;4.279089160263538E-003;
2.418500000000000E+009;1.988524943590164E-001;-3.674419224262238E-002;2.689253538846970E-003;4.285420756787062E-003;
2.418666666666667E+009;1.978507936000824E-001;-3.645614162087441E-002;2.905843779444695E-003;3.965287934988737E-003;
2.418833333333334E+009;1.966588348150253E-001;-3.656060993671417E-002;3.060535760596395E-003;3.749258117750287E-003;
2.419000000000000E+009;1.955212354660034E-001;-3.670727089047432E-002;3.184857312589884E-003;3.628362668678165E-003;
2.419166666666667E+009;1.941078007221222E-001;-3.703626245260239E-002;3.161726053804159E-003;3.345844335854054E-003;
2.419333333333334E+009;1.928814798593521E-001;-3.734252601861954E-002;3.274142974987626E-003;3.203113796189427E-003;
2.419500000000000E+009;1.913736313581467E-001;-3.778529912233353E-002;3.294768277555704E-003;2.952909329906106E-003;
2.419666666666667E+009;1.896865814924240E-001;-3.866584226489067E-002;3.358598332852125E-003;2.719919197261334E-003;
2.419833333333334E+009;1.881598979234695E-001;-3.931277617812157E-002;3.319080220535398E-003;2.574745332822204E-003;
2.420000000000000E+009;1.866217702627182E-001;-4.000235721468926E-002;3.337345784530044E-003;2.413771580904722E-003;
2.420166666666667E+009;1.849695891141892E-001;-4.122118651866913E-002;3.207877511158586E-003;2.084674313664436E-003;
2.420333333333334E+009;1.833726465702057E-001;-4.221348837018013E-002;3.202706808224320E-003;2.080838894471526E-003;
2.420500000000000E+009;1.816735714673996E-001;-4.354306310415268E-002;3.152391407638788E-003;2.029052237048745E-003;
2.420666666666667E+009;1.797788143157959E-001;-4.468064010143280E-002;3.026404418051243E-003;2.143702935427427E-003;
2.420833333333334E+009;1.783271133899689E-001;-4.633868858218193E-002;3.045781981199980E-003;1.923339325003326E-003;
2.421000000000000E+009;1.766992062330246E-001;-4.780224710702896E-002;3.087378107011318E-003;1.843037083745003E-003;
2.421166666666667E+009;1.752498298883438E-001;-4.951189085841179E-002;3.109175246208906E-003;1.840209937654436E-003;
2.421333333333334E+009;1.735418736934662E-001;-5.097938328981400E-002;3.082855138927698E-003;1.741528860293329E-003;
2.421500000000000E+009;1.722641736268997E-001;-5.296713486313820E-002;3.259624121710658E-003;1.761130173690617E-003;
2.421666666666667E+009;1.709144711494446E-001;-5.451567843556404E-002;3.286187769845128E-003;1.478268182836473E-003;
2.421833333333334E+009;1.697933077812195E-001;-5.658322200179100E-002;3.265049774199724E-003;1.460639759898186E-003;
2.422000000000000E+009;1.685209572315216E-001;-5.819899216294289E-002;3.359735244885087E-003;1.409725169651210E-003;
2.422166666666667E+009;1.678395569324493E-001;-6.034730002284050E-002;3.302663099020720E-003;1.174435019493103E-003;
2.422333333333334E+009;1.667207628488541E-001;-6.221676245331764E-002;3.312576096504927E-003;1.170482137240470E-003;
2.422500000000000E+009;1.661900132894516E-001;-6.424549967050552E-002;3.298551077023149E-003;9.513818076811731E-004;
2.422666666666667E+009;1.654366999864578E-001;-6.614544242620468E-002;3.277096897363663E-003;9.751744801178575E-004;
2.422833333333334E+009;1.650186181068420E-001;-6.808509677648544E-002;3.290786407887936E-003;8.154105744324625E-004;
2.423000000000000E+009;1.644776761531830E-001;-7.019376754760742E-002;3.278742544353008E-003;7.937477203086019E-004;
2.423166666666667E+009;1.643275320529938E-001;-7.206842303276062E-002;3.332989290356636E-003;7.043546065688133E-004;
2.423333333333334E+009;1.641538739204407E-001;-7.406078279018402E-002;3.290575230494142E-003;6.911152740940452E-004;
2.423500000000000E+009;1.641479283571243E-001;-7.589745521545410E-002;3.400515299290419E-003;4.158102965448052E-004;
2.423666666666667E+009;1.643727719783783E-001;-7.777992635965347E-002;3.216091543436050E-003;5.472556222230196E-004;
2.423833333333334E+009;1.643114835023880E-001;-7.949259132146835E-002;3.226929111406207E-003;5.404519615694881E-004;
2.424000000000000E+009;1.646568030118942E-001;-8.139315992593765E-002;3.259316785261035E-003;3.697986830957234E-004;
2.424166666666667E+009;1.648643612861633E-001;-8.299086242914200E-002;3.403855022042990E-003;2.991256769746542E-004;
2.424333333333334E+009;1.653622090816498E-001;-8.446672558784485E-002;3.386962693184614E-003;2.088923502014950E-004;
2.424500000000000E+009;1.657167226076126E-001;-8.628848195075989E-002;3.423799993470311E-003;1.425250375177711E-004;
2.424666666666667E+009;1.660390645265579E-001;-8.751257508993149E-002;3.286480205133557E-003;-1.038356458593626E-005;
2.424833333333334E+009;1.668237447738648E-001;-8.890797197818756E-002;3.411841811612248E-003;-1.647567114559934E-004;
2.425000000000000E+009;1.672189533710480E-001;-9.003622084856033E-002;3.432104364037514E-003;-2.000015956582502E-004;
2.425166666666667E+009;1.677530705928803E-001;-9.115909039974213E-002;3.449157578870654E-003;-2.857611980289221E-004;
2.425333333333334E+009;1.683458387851715E-001;-9.213788062334061E-002;3.293050918728113E-003;-3.736292128451169E-004;
2.425500000000000E+009;1.688178628683090E-001;-9.302130341529846E-002;3.313214285299182E-003;-5.797837511636317E-004;
2.425666666666667E+009;1.694503128528595E-001;-9.379123896360397E-002;3.129482734948397E-003;-6.365797598846257E-004;
2.425833333333334E+009;1.699478626251221E-001;-9.468066692352295E-002;3.210277296602726E-003;-7.753790705464780E-004;
2.426000000000000E+009;1.706076413393021E-001;-9.514185041189194E-002;3.117209533229470E-003;-6.587321404367685E-004;
2.426166666666667E+009;1.711290776729584E-001;-9.567418694496155E-002;2.982407342642546E-003;-9.573996067047119E-004;
2.426333333333334E+009;1.714274436235428E-001;-9.616247564554215E-002;2.937381388619542E-003;-9.574380237609148E-004;
2.426500000000000E+009;1.720206886529923E-001;-9.652136266231537E-002;2.839180873706937E-003;-9.205077658407390E-004;
2.426666666666667E+009;1.724813431501389E-001;-9.697463363409042E-002;2.903893124312162E-003;-1.167629496194422E-003;
2.426833333333334E+009;1.729274839162827E-001;-9.722043573856354E-002;2.854551887139678E-003;-1.121669425629079E-003;
2.427000000000000E+009;1.731256395578384E-001;-9.750489890575409E-002;3.013908397406340E-003;-1.137237646616995E-003;
2.427166666666667E+009;1.732570081949234E-001;-9.759005159139633E-002;3.047867445275188E-003;-1.286035054363310E-003;
2.427333333333334E+009;1.731590926647186E-001;-9.804234653711319E-002;2.825382165610790E-003;-1.180852181278169E-003;
2.427500000000000E+009;1.732686609029770E-001;-9.823825955390930E-002;2.878142287954688E-003;-1.213135896250606E-003;
2.427666666666667E+009;1.729236692190170E-001;-9.839942306280136E-002;2.787931123748422E-003;-1.335613545961678E-003;
2.427833333333334E+009;1.726806461811066E-001;-9.860959649085999E-002;2.737644594162703E-003;-1.481896615587175E-003;
