# Version 1.00
#
freq[Hz];re:Trc1_S11;im:Trc1_S11;re:Trc2_S21;im:Trc2_S21;
2.400000000000000E+009;1.510023325681686E-001;1.145200505852699E-001;9.155744337476790E-004;-4.303257912397385E-003;
2.400166666666667E+009;1.508015394210815E-001;1.120912656188011E-001;7.627214072272182E-004;-4.232572391629219E-003;
2.400333333333334E+009;1.509044766426086E-001;1.097834408283234E-001;9.221212822012603E-004;-4.365075845271349E-003;
2.400500000000000E+009;1.510992795228958E-001;1.070201694965363E-001;7.277129334397614E-004;-4.544456489384174E-003;
2.400666666666667E+009;1.512565612792969E-001;1.046732440590859E-001;5.799938808195293E-004;-4.537690430879593E-003;
2.400833333333334E+009;1.514578312635422E-001;1.018566489219666E-001;7.139266235753894E-004;-4.661181010305882E-003;
2.401000000000000E+009;1.516473144292831E-001;9.896554052829742E-002;4.848208627663553E-004;-4.824939649552107E-003;
2.401166666666667E+009;1.519724875688553E-001;9.597194939851761E-002;5.556835676543415E-004;-4.856304731220007E-003;
2.401333333333334E+009;1.524364650249481E-001;9.330981224775314E-002;2.345773973502219E-004;-5.059915594756603E-003;
2.401500000000000E+009;1.530016511678696E-001;9.031616151332855E-002;1.711902586976066E-004;-5.385037045925856E-003;
2.401666666666667E+009;1.534219980239868E-001;8.747424930334091E-002;-2.571385120972991E-004;-5.412874277681112E-003;
2.401833333333334E+009;1.539164930582047E-001;8.464311063289642E-002;-6.789272883906961E-004;-5.545975174754858E-003;
2.402000000000000E+009;1.550771147012711E-001;8.198390156030655E-002;-9.701150702312589E-004;-5.477459635585547E-003;
2.402166666666667E+009;1.561088562011719E-001;7.928730547428131E-002;-1.178932841867209E-003;-5.515877623111010E-003;
2.402333333333334E+009;1.571272015571594E-001;7.656299322843552E-002;-1.465907203964889E-003;-5.365864373743534E-003;
2.402500000000000E+009;1.584688425064087E-001;7.402389496564865E-002;-1.855706097558141E-003;-5.341878160834312E-003;
2.402666666666667E+009;1.597167551517487E-001;7.169789075851440E-002;-2.072212286293507E-003;-5.127685144543648E-003;
2.402833333333334E+009;1.611497998237610E-001;6.919533014297485E-002;-2.368400571867824E-003;-5.029071122407913E-003;
2.403000000000000E+009;1.627833098173142E-001;6.685902178287506E-002;-2.471226966008544E-003;-4.738141782581806E-003;
2.403166666666667E+009;1.646696478128433E-001;6.475396454334259E-002;-2.830818993970752E-003;-4.740927834063768E-003;
2.403333333333334E+009;1.662480682134628E-001;6.234225630760193E-002;-2.831670455634594E-003;-4.426404833793640E-003;
2.403500000000000E+009;1.681233644485474E-001;6.033002585172653E-002;-2.905079163610935E-003;-4.302614368498325E-003;
2.403666666666667E+009;1.701138317584992E-001;5.837116390466690E-002;-3.212695708498359E-003;-4.014382604509592E-003;
2.403833333333334E+009;1.718776822090149E-001;5.645985528826714E-002;-3.135216189548373E-003;-3.866145620122552E-003;
2.404000000000000E+009;1.737677156925201E-001;5.452514812350273E-002;-3.386866301298142E-003;-3.777364268898964E-003;
2.404166666666667E+009;1.756971925497055E-001;5.325701460242271E-002;-3.271901048719883E-003;-3.588617080822587E-003;
2.404333333333334E+009;1.773299276828766E-001;5.158451944589615E-002;-3.508796915411949E-003;-3.591586602851749E-003;
2.404500000000000E+009;1.792189776897430E-001;5.003539472818375E-002;-3.367644269019365E-003;-3.348981030285358E-003;
2.404666666666667E+009;1.810832768678665E-001;4.884711280465126E-002;-3.530973568558693E-003;-3.323765471577644E-003;
2.404833333333334E+009;1.828860938549042E-001;4.769944399595261E-002;-3.609438426792622E-003;-3.249295987188816E-003;
2.405000000000000E+009;1.843625605106354E-001;4.697371274232864E-002;-3.741272492334247E-003;-3.093431703746319E-003;
2.405166666666667E+009;1.860257536172867E-001;4.615999758243561E-002;-3.760802559554577E-003;-2.978553995490074E-003;
2.405333333333334E+009;1.874450594186783E-001;4.570353031158447E-002;-3.894873429089785E-003;-2.928864909335971E-003;
2.405500000000000E+009;1.890376657247543E-001;4.504525288939476E-002;-3.972072619944811E-003;-2.683753846213222E-003;
2.405666666666667E+009;1.904704421758652E-001;4.476106166839600E-002;-4.058060236275196E-003;-2.554472070187330E-003;
2.405833333333334E+009;1.919151842594147E-001;4.441696777939796E-002;-4.125759936869144E-003;-2.490212675184012E-003;
2.406000000000000E+009;1.930077373981476E-001;4.422730207443237E-002;-4.219469148665667E-003;-2.488915342837572E-003;
2.406166666666667E+009;1.942508816719055E-001;4.401894286274910E-002;-4.413813352584839E-003;-2.327783731743693E-003;
2.406333333333334E+009;1.951944679021835E-001;4.397968947887421E-002;-4.560257308185101E-003;-2.108046319335699E-003;
2.406500000000000E+009;1.961109936237335E-001;4.401283338665962E-002;-4.474993795156479E-003;-1.834329683333635E-003;
2.406666666666667E+009;1.968507468700409E-001;4.394588991999626E-002;-4.713669884949923E-003;-1.679596607573330E-003;
2.406833333333334E+009;1.973462700843811E-001;4.391830787062645E-002;-4.731669556349516E-003;-1.563002355396748E-003;
2.407000000000000E+009;1.976417750120163E-001;4.407794028520584E-002;-4.623848013579845E-003;-1.341939205303788E-003;
2.407166666666667E+009;1.981740146875382E-001;4.390673711895943E-002;-4.778363741934300E-003;-1.228922395966947E-003;
2.407333333333334E+009;1.981914192438126E-001;4.397377371788025E-002;-4.830386955291033E-003;-9.281425154767931E-004;
2.407500000000000E+009;1.981303989887238E-001;4.391421005129814E-002;-4.807799588888884E-003;-7.999950321391225E-004;
2.407666666666667E+009;1.981886476278305E-001;4.380939900875092E-002;-4.718322306871414E-003;-6.052555982023478E-004;
2.407833333333334E+009;1.977027952671051E-001;4.368552938103676E-002;-4.874321632087231E-003;-3.978518361691386E-004;
2.408000000000000E+009;1.976877748966217E-001;4.351628571748734E-002;-4.689747001975775E-003;-1.367769291391596E-004;
2.408166666666667E+009;1.970360279083252E-001;4.314297810196877E-002;-4.771040752530098E-003;-4.724037717096508E-005;
2.408333333333334E+009;1.964671611785889E-001;4.254755750298500E-002;-4.901922307908535E-003;1.933985477080569E-004;
2.408500000000000E+009;1.957539767026901E-001;4.224026948213577E-002;-4.670472815632820E-003;3.737226652447134E-004;
2.408666666666667E+009;1.949942260980606E-001;4.176112636923790E-002;-4.476815462112427E-003;4.022331268060952E-004;
2.408833333333334E+009;1.943436861038208E-001;4.097045585513115E-002;-4.507598467171192E-003;7.154697668738663E-004;
2.409000000000000E+009;1.932129710912705E-001;3.994423523545265E-002;-4.545109812170267E-003;7.913965964689851E-004;
2.409166666666667E+009;1.922755688428879E-001;3.898708149790764E-002;-4.316534847021103E-003;9.734380291774869E-004;
2.409333333333334E+009;1.913221478462219E-001;3.801061585545540E-002;-4.262120462954044E-003;1.090176519937813E-003;
2.409500000000000E+009;1.901305019855499E-001;3.663603961467743E-002;-4.153576213866472E-003;1.177525962702930E-003;
2.409666666666667E+009;1.890957951545715E-001;3.526834398508072E-002;-4.019027575850487E-003;1.356790889985859E-003;
2.409833333333334E+009;1.877619922161102E-001;3.375864401459694E-002;-3.765110159292817E-003;1.325356075540185E-003;
2.410000000000000E+009;1.868244558572769E-001;3.219737857580185E-002;-3.713945625349879E-003;1.583285978995264E-003;
2.410166666666667E+009;1.857363134622574E-001;3.034765459597111E-002;-3.720764536410570E-003;1.523433602415025E-003;
2.410333333333334E+009;1.846442967653275E-001;2.858079783618450E-002;-3.616007510572672E-003;1.497803488746285E-003;
2.410500000000000E+009;1.835092902183533E-001;2.650689147412777E-002;-3.512973198667169E-003;1.464623492211103E-003;
2.410666666666667E+009;1.825777292251587E-001;2.426830492913723E-002;-3.456221893429756E-003;1.418683561496437E-003;
2.410833333333334E+009;1.817572563886643E-001;2.215546183288097E-002;-3.307078499346972E-003;1.473169657401741E-003;
2.411000000000000E+009;1.809538304805756E-001;1.997517421841621E-002;-3.315701382234693E-003;1.425987575203180E-003;
2.411166666666667E+009;1.803992241621018E-001;1.764690689742565E-002;-3.302225843071938E-003;1.440008287318051E-003;
2.411333333333334E+009;1.797155141830444E-001;1.524431165307760E-002;-3.311188193038106E-003;1.289851148612797E-003;
2.411500000000000E+009;1.793334633111954E-001;1.284099463373423E-002;-3.419629996642470E-003;1.281934906728566E-003;
2.411666666666667E+009;1.790596693754196E-001;1.052298117429018E-002;-3.450977616012096E-003;1.364979892969132E-003;
2.411833333333334E+009;1.788492500782013E-001;8.058433420956135E-003;-3.617407521232963E-003;1.357713248580694E-003;
2.412000000000000E+009;1.788783669471741E-001;5.405693780630827E-003;-3.756956197321415E-003;1.506241504102945E-003;
2.412166666666667E+009;1.789933890104294E-001;2.980343066155911E-003;-3.808418521657586E-003;1.636395114473999E-003;
2.412333333333334E+009;1.793149709701538E-001;4.212567000649869E-004;-3.980583045631647E-003;1.814478193409741E-003;
2.412500000000000E+009;1.796509921550751E-001;-1.998150721192360E-003;-4.032597877085209E-003;1.901154057122767E-003;
2.412666666666667E+009;1.800544410943985E-001;-4.435724578797817E-003;-4.082950297743082E-003;2.112095477059484E-003;
2.412833333333334E+009;1.807346045970917E-001;-6.854467093944550E-003;-4.330684896558523E-003;2.406755462288857E-003;
2.413000000000000E+009;1.814727634191513E-001;-9.417565539479256E-003;-4.124013241380453E-003;2.495342399924994E-003;
2.413166666666667E+009;1.822044402360916E-001;-1.162262912839651E-002;-4.243942443281412E-003;2.803429029881954E-003;
2.413333333333334E+009;1.832682043313980E-001;-1.408930961042643E-002;-4.115939605981112E-003;3.102708607912064E-003;
2.413500000000000E+009;1.842490732669830E-001;-1.637920364737511E-002;-3.970150835812092E-003;3.344617784023285E-003;
2.413666666666667E+009;1.852586567401886E-001;-1.858888007700443E-002;-3.909307532012463E-003;3.590725362300873E-003;
2.413833333333334E+009;1.865293681621552E-001;-2.058371715247631E-002;-3.748834133148193E-003;3.939736168831587E-003;
2.414000000000000E+009;1.876062303781509E-001;-2.253159135580063E-002;-3.683673450723290E-003;4.236635286360979E-003;
2.414166666666667E+009;1.889117807149887E-001;-2.439263090491295E-002;-3.374055493623018E-003;4.472924862056971E-003;
2.414333333333334E+009;1.899293810129166E-001;-2.619981393218041E-002;-3.141449997201562E-003;4.851589910686016E-003;
2.414500000000000E+009;1.912239193916321E-001;-2.797680534422398E-002;-2.869663992896676E-003;4.787065088748932E-003;
2.414666666666667E+009;1.924911588430405E-001;-2.938111685216427E-002;-2.561854897066951E-003;5.075734574347735E-003;
2.414833333333334E+009;1.934989094734192E-001;-3.068419359624386E-002;-2.316143829375505E-003;5.067523103207350E-003;
2.415000000000000E+009;1.947274804115295E-001;-3.216319158673286E-002;-2.059061545878649E-003;5.259224679321051E-003;
2.415166666666667E+009;1.959271281957626E-001;-3.317164629697800E-002;-1.765327528119087E-003;5.287996027618647E-003;
2.415333333333334E+009;1.972244977951050E-001;-3.433914110064507E-002;-1.512073562480509E-003;5.296697374433279E-003;
2.415500000000000E+009;1.983150839805603E-001;-3.491758555173874E-002;-1.275078160688281E-003;5.279581062495709E-003;
2.415666666666667E+009;1.993397772312164E-001;-3.574632480740547E-002;-8.819074719212949E-004;5.254804156720638E-003;
2.415833333333334E+009;2.002409249544144E-001;-3.644289076328278E-002;-6.837741821072996E-004;5.219114944338799E-003;
2.416000000000000E+009;2.009736150503159E-001;-3.686735033988953E-002;-5.695784348063171E-004;5.344546865671873E-003;
2.416166666666667E+009;2.017663270235062E-001;-3.747068718075752E-002;-3.530191315803677E-004;5.322237964719534E-003;
2.416333333333334E+009;2.023889720439911E-001;-3.765341266989708E-002;-1.588660816196352E-004;5.306608043611050E-003;
2.416500000000000E+009;2.029964923858643E-001;-3.786000981926918E-002;1.021128191496246E-004;5.246731918305159E-003;
2.416666666666667E+009;2.032943665981293E-001;-3.818395733833313E-002;3.486366767901927E-004;5.297313444316387E-003;
2.416833333333334E+009;2.034838497638702E-001;-3.813147917389870E-002;4.819754394702613E-004;5.326350685209036E-003;
2.417000000000000E+009;2.035481780767441E-001;-3.815075382590294E-002;8.477561641484499E-004;5.403876770287752E-003;
2.417166666666667E+009;2.034451514482498E-001;-3.796720504760742E-002;1.016018795780838E-003;5.064745899289846E-003;
2.417333333333334E+009;2.032161653041840E-001;-3.771352395415306E-002;1.231481903232634E-003;5.069158971309662E-003;
2.417500000000000E+009;2.029231786727905E-001;-3.759237751364708E-002;1.518957316875458E-003;5.078698974102736E-003;
2.417666666666667E+009;2.024536728858948E-001;-3.723510354757309E-002;1.841949531808496E-003;4.920969717204571E-003;
2.417833333333334E+009;2.020436525344849E-001;-3.695062920451164E-002;1.914449268952012E-003;4.926550667732954E-003;
2.418000000000000E+009;2.013482451438904E-001;-3.664497286081314E-002;2.233722480013967E-003;4.776834975928068E-003;
2.418166666666667E+009;2.006774991750717E-001;-3.648412227630615E-002;2.397364471107721E-003;4.455090500414372E-003;
2.418333333333334E+009;1.998454928398132E-001;-3.615458309650421E-002;2.556968247517943E-003;4.314607009291649E-003;
2.418500000000000E+009;1.988808065652847E-001;-3.616193309426308E-002;2.641224535182118E-003;4.228725098073483E-003;
2.418666666666667E+009;1.979608535766602E-001;-3.608170896768570E-002;2.740233670920134E-003;3.994843922555447E-003;
2.418833333333334E+009;1.967701464891434E-001;-3.604239597916603E-002;3.006046405062079E-003;3.789491485804319E-003;
2.419000000000000E+009;1.955130994319916E-001;-3.626412153244019E-002;3.209527581930161E-003;3.474081167951226E-003;
2.419166666666667E+009;1.942081004381180E-001;-3.647677972912788E-002;3.115562023594976E-003;3.398577449843288E-003;
2.419333333333334E+009;1.929452121257782E-001;-3.693412989377976E-002;3.385083051398397E-003;3.134026424959302E-003;
2.419500000000000E+009;1.916151791810989E-001;-3.745825961232185E-002;3.399881534278393E-003;3.047100501134992E-003;
2.419666666666667E+009;1.899242550134659E-001;-3.826304897665978E-002;3.190421732142568E-003;2.918458310887218E-003;
2.419833333333334E+009;1.883683055639267E-001;-3.882711753249168E-002;3.241964150220156E-003;2.708861371502280E-003;
2.420000000000000E+009;1.868122369050980E-001;-3.980071470141411E-002;2.983673010021448E-003;2.470283070579171E-003;
2.420166666666667E+009;1.851419657468796E-001;-4.073972627520561E-002;3.197451587766409E-003;2.280354034155607E-003;
2.420333333333334E+009;1.835768371820450E-001;-4.195192083716393E-002;3.181550651788712E-003;2.227664925158024E-003;
2.420500000000000E+009;1.819364577531815E-001;-4.327422752976418E-002;3.057302907109261E-003;2.114345785230398E-003;
2.420666666666667E+009;1.802702546119690E-001;-4.430750012397766E-002;3.019525902345777E-003;2.165510319173336E-003;
2.420833333333334E+009;1.784560680389404E-001;-4.582788795232773E-002;2.996712690219283E-003;2.074713585898280E-003;
2.421000000000000E+009;1.769671738147736E-001;-4.743558913469315E-002;3.040863666683435E-003;1.970537938177586E-003;
2.421166666666667E+009;1.756692528724670E-001;-4.901152849197388E-002;3.150966484099627E-003;1.854838803410530E-003;
2.421333333333334E+009;1.739335358142853E-001;-5.054947733879089E-002;3.077183850109577E-003;1.796647091396153E-003;
2.421500000000000E+009;1.724694818258286E-001;-5.220565944910049E-002;3.231077687814832E-003;1.656920416280627E-003;
2.421666666666667E+009;1.712713241577148E-001;-5.432722344994545E-002;3.326932666823268E-003;1.761064748279750E-003;
2.421833333333334E+009;1.700588613748550E-001;-5.599644780158997E-002;3.353707725182176E-003;1.584964338690043E-003;
2.422000000000000E+009;1.691015809774399E-001;-5.790321528911591E-002;3.383703762665391E-003;1.459300401620567E-003;
2.422166666666667E+009;1.682103127241135E-001;-5.984742939472199E-002;3.445599926635623E-003;1.260531716980040E-003;
2.422333333333334E+009;1.672486960887909E-001;-6.188764423131943E-002;3.408621996641159E-003;1.216529984958470E-003;
2.422500000000000E+009;1.665770113468170E-001;-6.385875493288040E-002;3.262562211602926E-003;9.729033918119967E-004;
2.422666666666667E+009;1.657089591026306E-001;-6.578808277845383E-002;3.292577806860209E-003;8.957727113738656E-004;
2.422833333333334E+009;1.654836088418961E-001;-6.777441501617432E-002;3.382527735084295E-003;7.925024256110191E-004;
2.423000000000000E+009;1.650550514459610E-001;-6.973401457071304E-002;3.122278256341815E-003;8.197439601644874E-004;
2.423166666666667E+009;1.647774875164032E-001;-7.171738147735596E-002;3.415613202378154E-003;6.591737619601190E-004;
2.423333333333334E+009;1.646749824285507E-001;-7.367148995399475E-002;3.437279723584652E-003;6.897688144817948E-004;
2.423500000000000E+009;1.645310521125794E-001;-7.549552619457245E-002;3.358103102073073E-003;5.426699062809348E-004;
2.423666666666667E+009;1.647907048463821E-001;-7.749269902706146E-002;3.170444862917066E-003;5.704163922928274E-004;
2.423833333333334E+009;1.646966934204102E-001;-7.918149977922440E-002;3.273103386163712E-003;2.993125526700169E-004;
2.424000000000000E+009;1.650048494338989E-001;-8.089128136634827E-002;3.293019486591220E-003;3.371703496668488E-004;
2.424166666666667E+009;1.651708930730820E-001;-8.255352079868317E-002;3.250439185649157E-003;1.870849373517558E-004;
2.424333333333334E+009;1.656674295663834E-001;-8.416956663131714E-002;3.245888510718942E-003;2.287859824718908E-004;
2.424500000000000E+009;1.661828607320786E-001;-8.611687272787094E-002;3.235605778172612E-003;1.277986448258162E-004;
2.424666666666667E+009;1.664967983961105E-001;-8.730780333280563E-002;3.312276909127832E-003;-7.187122537288815E-005;
2.424833333333334E+009;1.672714501619339E-001;-8.868423104286194E-002;3.182739717885852E-003;5.478481853060657E-006;
2.425000000000000E+009;1.677195876836777E-001;-8.988759666681290E-002;3.201798303052783E-003;-3.620840434450656E-004;
2.425166666666667E+009;1.683309823274612E-001;-9.097160398960114E-002;3.285425482317805E-003;-3.235691401641816E-004;
2.425333333333334E+009;1.687546223402023E-001;-9.193552285432816E-002;3.249777946621180E-003;-4.381585749797523E-004;
2.425500000000000E+009;1.694691032171249E-001;-9.298522770404816E-002;3.227262757718563E-003;-5.671503022313118E-004;
2.425666666666667E+009;1.699601411819458E-001;-9.368566423654556E-002;3.050594124943018E-003;-7.277709082700312E-004;
2.425833333333334E+009;1.705020219087601E-001;-9.453098475933075E-002;2.998298732563853E-003;-6.627591792494059E-004;
2.426000000000000E+009;1.710769683122635E-001;-9.498151391744614E-002;2.886070637032390E-003;-7.764012552797794E-004;
2.426166666666667E+009;1.717994809150696E-001;-9.560293704271317E-002;3.020366420969367E-003;-8.265371434390545E-004;
2.426333333333334E+009;1.720412075519562E-001;-9.613805264234543E-002;2.923189895227552E-003;-8.901411201804876E-004;
2.426500000000000E+009;1.726001799106598E-001;-9.652037173509598E-002;2.853107405826449E-003;-1.083706039935350E-003;
2.426666666666667E+009;1.729708164930344E-001;-9.692984074354172E-002;2.768295817077160E-003;-9.400898125022650E-004;
2.426833333333334E+009;1.735560297966003E-001;-9.724412858486176E-002;2.894103061407805E-003;-1.146548776887357E-003;
2.427000000000000E+009;1.735707223415375E-001;-9.757527709007263E-002;2.825280884280801E-003;-1.188982161693275E-003;
2.427166666666667E+009;1.737037599086762E-001;-9.772693365812302E-002;2.921310253441334E-003;-1.122145215049386E-003;
2.427333333333334E+009;1.739030033349991E-001;-9.809394925832748E-002;2.848539734259248E-003;-1.258670818060637E-003;
2.427500000000000E+009;1.736271679401398E-001;-9.834486991167069E-002;2.652012743055821E-003;-1.229731249623001E-003;
2.427666666666667E+009;1.735021471977234E-001;-9.846134483814240E-002;2.809502417221665E-003;-1.481793704442680E-003;
2.427833333333334E+009;1.731333136558533E-001;-9.870740026235580E-002;2.923981286585331E-003;-1.460452098399401E-003;
