# Version 1.00
#
freq[Hz];re:Trc1_S11;im:Trc1_S11;re:Trc2_S21;im:Trc2_S21;
2.400000000000000E+009;1.507399231195450E-001;1.141428202390671E-001;8.782095392234623E-004;-4.332250915467739E-003;
2.400166666666667E+009;1.505031436681747E-001;1.118302941322327E-001;7.227088208310306E-004;-4.267021082341671E-003;
2.400333333333334E+009;1.508823335170746E-001;1.095117107033730E-001;8.115796954371035E-004;-4.412872716784477E-003;
2.400500000000000E+009;1.507557481527329E-001;1.065089553594589E-001;6.355366786010563E-004;-4.439274780452251E-003;
2.400666666666667E+009;1.510915756225586E-001;1.043198853731155E-001;7.872036658227444E-004;-4.313236568123102E-003;
2.400833333333334E+009;1.513330042362213E-001;1.021269857883453E-001;8.938654209487140E-004;-4.866916686296463E-003;
2.401000000000000E+009;1.508247405290604E-001;9.826917946338654E-002;3.520725294947624E-004;-4.397947341203690E-003;
2.401166666666667E+009;1.515594124794006E-001;9.620827436447144E-002;5.645135533995926E-004;-5.031410604715347E-003;
2.401333333333334E+009;1.522586941719055E-001;9.333825856447220E-002;4.841496702283621E-004;-5.218220409005880E-003;
2.401500000000000E+009;1.528405249118805E-001;9.062947332859039E-002;2.260847104480490E-004;-5.407526623457670E-003;
2.401666666666667E+009;1.529353708028793E-001;8.764832466840744E-002;-7.187807204900309E-005;-5.084108095616102E-003;
2.401833333333334E+009;1.539185643196106E-001;8.457889407873154E-002;-6.100769387558103E-004;-5.420654080808163E-003;
2.402000000000000E+009;1.548727154731751E-001;8.186847716569901E-002;-9.898388525471091E-004;-5.423018708825111E-003;
2.402166666666667E+009;1.557182073593140E-001;7.929511368274689E-002;-1.211690367199481E-003;-5.345279350876808E-003;
2.402333333333334E+009;1.568255871534348E-001;7.652817666530609E-002;-1.470678485929966E-003;-5.427371244877577E-003;
2.402500000000000E+009;1.583442538976669E-001;7.414440065622330E-002;-1.875774934887886E-003;-5.389899481087923E-003;
2.402666666666667E+009;1.595622599124908E-001;7.169050723314285E-002;-2.126224804669619E-003;-5.049236584454775E-003;
2.402833333333334E+009;1.611190885305405E-001;6.931614875793457E-002;-2.271394245326519E-003;-5.127885378897190E-003;
2.403000000000000E+009;1.625203043222427E-001;6.688907742500305E-002;-2.548097865656018E-003;-4.893381148576737E-003;
2.403166666666667E+009;1.644690185785294E-001;6.458724290132523E-002;-2.774007385596633E-003;-4.555452149361372E-003;
2.403333333333334E+009;1.661843508481979E-001;6.244505941867828E-002;-2.965020248666406E-003;-4.407724831253290E-003;
2.403500000000000E+009;1.680065840482712E-001;6.032202020287514E-002;-3.108372446149588E-003;-4.161063116043806E-003;
2.403666666666667E+009;1.698861122131348E-001;5.842993780970573E-002;-3.125009359791875E-003;-4.160447511821985E-003;
2.403833333333334E+009;1.719222068786621E-001;5.646871402859688E-002;-3.167898394167423E-003;-4.025170113891363E-003;
2.404000000000000E+009;1.737435311079025E-001;5.453562736511231E-002;-3.250100184231997E-003;-3.772479714825749E-003;
2.404166666666667E+009;1.756732910871506E-001;5.308587104082108E-002;-3.322143107652664E-003;-3.497709752991796E-003;
2.404333333333334E+009;1.774783283472061E-001;5.144355446100235E-002;-3.410052508115768E-003;-3.442817367613316E-003;
2.404500000000000E+009;1.791429966688156E-001;5.006887763738632E-002;-3.536741714924574E-003;-3.401216352358460E-003;
2.404666666666667E+009;1.810468286275864E-001;4.871927574276924E-002;-3.520659869536758E-003;-3.297859104350209E-003;
2.404833333333334E+009;1.828817576169968E-001;4.768183827400208E-002;-3.419532207772136E-003;-3.201643703505397E-003;
2.405000000000000E+009;1.843303740024567E-001;4.690441116690636E-002;-3.760059829801321E-003;-3.204194596037269E-003;
2.405166666666667E+009;1.858352422714233E-001;4.625025391578674E-002;-3.706714604049921E-003;-2.952943323180080E-003;
2.405333333333334E+009;1.875155568122864E-001;4.563483968377113E-002;-3.872328670695424E-003;-2.781615592539311E-003;
2.405500000000000E+009;1.890406161546707E-001;4.506114870309830E-002;-3.867923514917493E-003;-2.840374596416950E-003;
2.405666666666667E+009;1.904140859842300E-001;4.467165097594261E-002;-3.925187978893518E-003;-2.704409882426262E-003;
2.405833333333334E+009;1.917663663625717E-001;4.441722482442856E-002;-4.216116387397051E-003;-2.500054193660617E-003;
2.406000000000000E+009;1.928425282239914E-001;4.421823471784592E-002;-4.400132689625025E-003;-2.503821859136224E-003;
2.406166666666667E+009;1.940294504165649E-001;4.402513056993485E-002;-4.521082155406475E-003;-2.172411186620593E-003;
2.406333333333334E+009;1.950152665376663E-001;4.396747797727585E-002;-4.518753383308649E-003;-2.083199331536889E-003;
2.406500000000000E+009;1.959145218133926E-001;4.400864988565445E-002;-4.714977927505970E-003;-1.840705983340740E-003;
2.406666666666667E+009;1.967413425445557E-001;4.389671236276627E-002;-4.783734213560820E-003;-1.764742191880941E-003;
2.406833333333334E+009;1.972992122173309E-001;4.383525624871254E-002;-4.741257522255182E-003;-1.564728445373476E-003;
2.407000000000000E+009;1.976292133331299E-001;4.398571699857712E-002;-4.985137376934290E-003;-1.335205393843353E-003;
2.407166666666667E+009;1.981567740440369E-001;4.381889104843140E-002;-4.729785490781069E-003;-1.121421577408910E-003;
2.407333333333334E+009;1.980989575386047E-001;4.387390986084938E-002;-4.651967901736498E-003;-9.296400239691138E-004;
2.407500000000000E+009;1.980875879526138E-001;4.382425174117088E-002;-4.803721327334642E-003;-8.498466922901571E-004;
2.407666666666667E+009;1.981456130743027E-001;4.374568909406662E-002;-4.650638904422522E-003;-5.202657775953412E-004;
2.407833333333334E+009;1.975673288106918E-001;4.352010041475296E-002;-4.860479850322008E-003;-1.828845124691725E-004;
2.408000000000000E+009;1.974666416645050E-001;4.325355961918831E-002;-4.799255635589361E-003;-1.560316595714539E-004;
2.408166666666667E+009;1.968168020248413E-001;4.289627820253372E-002;-4.830929916352034E-003;9.932259854394943E-005;
2.408333333333334E+009;1.963683813810349E-001;4.256358742713928E-002;-4.531587939709425E-003;2.430412132525817E-004;
2.408500000000000E+009;1.955938935279846E-001;4.206600412726402E-002;-4.652806092053652E-003;3.859621938318014E-004;
2.408666666666667E+009;1.950071901082993E-001;4.144288226962090E-002;-4.610611591488123E-003;5.351469153538346E-004;
2.408833333333334E+009;1.941841393709183E-001;4.064397886395454E-002;-4.458582494407892E-003;7.671642815694213E-004;
2.409000000000000E+009;1.930557042360306E-001;3.988646343350411E-002;-4.414851777255535E-003;8.441306999884546E-004;
2.409166666666667E+009;1.921502798795700E-001;3.885559365153313E-002;-4.459108226001263E-003;9.458939312025905E-004;
2.409333333333334E+009;1.911194026470184E-001;3.782886639237404E-002;-4.376842640340328E-003;1.195660326629877E-003;
2.409500000000000E+009;1.899133920669556E-001;3.648894280195236E-002;-4.137089475989342E-003;1.088910736143589E-003;
2.409666666666667E+009;1.888024657964706E-001;3.508090227842331E-002;-3.929272759705782E-003;1.372442697174847E-003;
2.409833333333334E+009;1.875667572021484E-001;3.368186205625534E-002;-3.825752530246973E-003;1.278766198083758E-003;
2.410000000000000E+009;1.866007000207901E-001;3.214577957987785E-002;-3.754030214622617E-003;1.401470624841750E-003;
2.410166666666667E+009;1.854733824729919E-001;3.015159070491791E-002;-3.689315635710955E-003;1.463703345507383E-003;
2.410333333333334E+009;1.843541115522385E-001;2.851514145731926E-002;-3.512715920805931E-003;1.456505153328180E-003;
2.410500000000000E+009;1.833382695913315E-001;2.651593461632729E-002;-3.569188527762890E-003;1.412655692547560E-003;
2.410666666666667E+009;1.821770519018173E-001;2.428422681987286E-002;-3.242502920329571E-003;1.509983907453716E-003;
2.410833333333334E+009;1.815745085477829E-001;2.204401977360249E-002;-3.388919169083238E-003;1.400225679390132E-003;
2.411000000000000E+009;1.808910518884659E-001;1.978966966271401E-002;-3.289213404059410E-003;1.378527143970132E-003;
2.411166666666667E+009;1.802259087562561E-001;1.777534186840057E-002;-3.311421256512404E-003;1.405491610057652E-003;
2.411333333333334E+009;1.795966923236847E-001;1.525470707565546E-002;-3.352688159793615E-003;1.455891528166831E-003;
2.411500000000000E+009;1.790168732404709E-001;1.283382717519999E-002;-3.427909221500158E-003;1.270049484446645E-003;
2.411666666666667E+009;1.790022999048233E-001;1.041391398757696E-002;-3.439300227910280E-003;1.314184744842351E-003;
2.411833333333334E+009;1.783818006515503E-001;7.933774963021278E-003;-3.499766113236547E-003;1.298960880376399E-003;
2.412000000000000E+009;1.785846650600433E-001;5.494654178619385E-003;-3.627380356192589E-003;1.610011560842395E-003;
2.412166666666667E+009;1.787533015012741E-001;3.035926958546042E-003;-3.786546643823385E-003;1.487279660068452E-003;
2.412333333333334E+009;1.787931025028229E-001;5.178127903491259E-004;-3.898002672940493E-003;1.692271092906594E-003;
2.412500000000000E+009;1.792800724506378E-001;-2.052704803645611E-003;-3.934323322027922E-003;1.906855963170528E-003;
2.412666666666667E+009;1.798087060451508E-001;-4.407723434269428E-003;-3.982193302363157E-003;2.051372081041336E-003;
2.412833333333334E+009;1.805094778537750E-001;-6.926869042217732E-003;-4.183113109320402E-003;2.353817224502564E-003;
2.413000000000000E+009;1.811538040637970E-001;-9.342396631836891E-003;-4.127993714064360E-003;2.446264028549194E-003;
2.413166666666667E+009;1.820334345102310E-001;-1.155677437782288E-002;-4.052108619362116E-003;2.714063739404082E-003;
2.413333333333334E+009;1.831599175930023E-001;-1.379772648215294E-002;-4.052803851664066E-003;3.115798812359572E-003;
2.413500000000000E+009;1.840882897377014E-001;-1.616166904568672E-002;-4.088424146175385E-003;3.250397508963943E-003;
2.413666666666667E+009;1.851666718721390E-001;-1.834256947040558E-002;-3.917676396667957E-003;3.656735410913825E-003;
2.413833333333334E+009;1.863751858472824E-001;-2.043718844652176E-002;-3.858250332996249E-003;4.078801255673170E-003;
2.414000000000000E+009;1.873719692230225E-001;-2.242834120988846E-002;-3.511010902002454E-003;4.003239329904318E-003;
2.414166666666667E+009;1.887258738279343E-001;-2.433762885630131E-002;-3.286799183115363E-003;4.547206684947014E-003;
2.414333333333334E+009;1.899516582489014E-001;-2.617482468485832E-002;-3.142510075122118E-003;4.618645645678043E-003;
2.414500000000000E+009;1.912233531475067E-001;-2.759234979748726E-002;-2.904889639467001E-003;4.761252086609602E-003;
2.414666666666667E+009;1.923444718122482E-001;-2.929640375077725E-002;-2.534584375098348E-003;5.040734075009823E-003;
2.414833333333334E+009;1.935915350914002E-001;-3.041270188987255E-002;-2.299519022926688E-003;5.148847121745348E-003;
2.415000000000000E+009;1.947219669818878E-001;-3.193734586238861E-002;-2.121694851666689E-003;5.303404759615660E-003;
2.415166666666667E+009;1.961210072040558E-001;-3.297724947333336E-002;-1.655585481785238E-003;5.187146831303835E-003;
2.415333333333334E+009;1.971616446971893E-001;-3.388372063636780E-002;-1.340007642284036E-003;5.296258255839348E-003;
2.415500000000000E+009;1.983810812234879E-001;-3.456307575106621E-002;-1.181419705972076E-003;5.366095807403326E-003;
2.415666666666667E+009;1.993100196123123E-001;-3.554878383874893E-002;-8.960856357589364E-004;5.355089437216520E-003;
2.415833333333334E+009;2.000827789306641E-001;-3.613315150141716E-002;-7.129680598154664E-004;5.472021177411079E-003;
2.416000000000000E+009;2.011071890592575E-001;-3.668366372585297E-002;-5.300819757394493E-004;5.239262245595455E-003;
2.416166666666667E+009;2.018206864595413E-001;-3.719402477145195E-002;-3.037312999367714E-004;5.275460891425610E-003;
2.416333333333334E+009;2.024026066064835E-001;-3.741614520549774E-002;-9.456797670281958E-006;5.283589940518141E-003;
2.416500000000000E+009;2.030831426382065E-001;-3.757232055068016E-002;1.501525985077024E-004;5.278294906020165E-003;
2.416666666666667E+009;2.034118920564652E-001;-3.784371539950371E-002;4.258300759829581E-004;5.218375008553267E-003;
2.416833333333334E+009;2.035332322120667E-001;-3.785968571901321E-002;6.483490578830242E-004;5.395523738116026E-003;
2.417000000000000E+009;2.038529962301254E-001;-3.796634078025818E-002;6.142428028397262E-004;5.205579567700625E-003;
2.417166666666667E+009;2.035334408283234E-001;-3.777869790792465E-002;1.044687000103295E-003;5.356187932193279E-003;
2.417333333333334E+009;2.032914906740189E-001;-3.749632090330124E-002;1.262032077647746E-003;5.258303601294756E-003;
2.417500000000000E+009;2.030496448278427E-001;-3.737144172191620E-002;1.558997435495257E-003;5.062405951321125E-003;
2.417666666666667E+009;2.025606334209442E-001;-3.710687533020973E-002;1.847347593866289E-003;4.887797869741917E-003;
2.417833333333334E+009;2.022431641817093E-001;-3.692415729165077E-002;1.962105976417661E-003;4.789173603057861E-003;
2.418000000000000E+009;2.015904933214188E-001;-3.662655130028725E-002;2.135355724021792E-003;4.706101492047310E-003;
2.418166666666667E+009;2.007671743631363E-001;-3.630923107266426E-002;2.458612900227308E-003;4.473340697586536E-003;
2.418333333333334E+009;1.999377459287643E-001;-3.616555035114288E-002;2.403986640274525E-003;4.319283179938793E-003;
2.418500000000000E+009;1.990198940038681E-001;-3.609091788530350E-002;2.736801747232676E-003;4.255609586834908E-003;
2.418666666666667E+009;1.981414854526520E-001;-3.599880635738373E-002;2.799893496558070E-003;3.963837865740061E-003;
2.418833333333334E+009;1.969740390777588E-001;-3.607552498579025E-002;3.048586659133434E-003;3.807995934039354E-003;
2.419000000000000E+009;1.956873834133148E-001;-3.619414567947388E-002;3.025763435289264E-003;3.532612929120660E-003;
2.419166666666667E+009;1.944841295480728E-001;-3.639280796051025E-002;3.051057923585177E-003;3.420777618885040E-003;
2.419333333333334E+009;1.931189745664597E-001;-3.700563311576843E-002;3.056984394788742E-003;3.305113175883889E-003;
2.419500000000000E+009;1.917322725057602E-001;-3.735613450407982E-002;3.227178007364273E-003;2.952190581709147E-003;
2.419666666666667E+009;1.901280134916306E-001;-3.814119845628738E-002;3.299626754596829E-003;2.779162721708417E-003;
2.419833333333334E+009;1.885658651590347E-001;-3.874813765287399E-002;3.306553233414888E-003;2.560168737545610E-003;
2.420000000000000E+009;1.869587451219559E-001;-3.972845152020454E-002;3.214304102584720E-003;2.413733629509807E-003;
2.420166666666667E+009;1.854165494441986E-001;-4.076237231492996E-002;3.306401893496513E-003;2.288321964442730E-003;
2.420333333333334E+009;1.836867034435272E-001;-4.196755960583687E-002;3.097582841292024E-003;2.338060643523932E-003;
2.420500000000000E+009;1.819536536931992E-001;-4.331815242767334E-002;3.084033261984587E-003;2.247273223474622E-003;
2.420666666666667E+009;1.805119514465332E-001;-4.442818835377693E-002;3.125881776213646E-003;2.130345674231648E-003;
2.420833333333334E+009;1.787319779396057E-001;-4.596615955233574E-002;3.000476863235235E-003;2.127078361809254E-003;
2.421000000000000E+009;1.772441715002060E-001;-4.756848141551018E-002;3.050078405067325E-003;2.008205745369196E-003;
2.421166666666667E+009;1.757610738277435E-001;-4.934205487370491E-002;3.150934120640159E-003;1.774010830558837E-003;
2.421333333333334E+009;1.741129010915756E-001;-5.074210464954376E-002;3.175625344738364E-003;1.808554865419865E-003;
2.421500000000000E+009;1.727249771356583E-001;-5.274164304137230E-002;3.107292577624321E-003;1.825610524974763E-003;
2.421666666666667E+009;1.715136170387268E-001;-5.459909886121750E-002;3.253131406381726E-003;1.782464445568621E-003;
2.421833333333334E+009;1.703995764255524E-001;-5.642756819725037E-002;3.385337302461267E-003;1.529719331301749E-003;
2.422000000000000E+009;1.691800355911255E-001;-5.817399546504021E-002;3.281801939010620E-003;1.640278147533536E-003;
2.422166666666667E+009;1.683163940906525E-001;-6.024770066142082E-002;3.332454012706876E-003;1.269466243684292E-003;
2.422333333333334E+009;1.673041880130768E-001;-6.225017830729485E-002;3.449882613494992E-003;1.280740252695978E-003;
2.422500000000000E+009;1.665179729461670E-001;-6.413175910711289E-002;3.404668997973204E-003;1.136030419729650E-003;
2.422666666666667E+009;1.659373044967651E-001;-6.615050882101059E-002;3.197036217898130E-003;9.542219340801239E-004;
2.422833333333334E+009;1.654556393623352E-001;-6.820660829544067E-002;3.308101091533899E-003;9.522628388367593E-004;
2.423000000000000E+009;1.650763899087906E-001;-7.031007111072540E-002;3.344852942973375E-003;6.613121367990971E-004;
2.423166666666667E+009;1.648647934198380E-001;-7.215389609336853E-002;3.317376831546426E-003;6.931609241291881E-004;
2.423333333333334E+009;1.646662056446075E-001;-7.411966472864151E-002;3.314266214147210E-003;6.211457075551152E-004;
2.423500000000000E+009;1.645949333906174E-001;-7.583231478929520E-002;3.218079218640924E-003;6.810900522395968E-004;
2.423666666666667E+009;1.647386252880096E-001;-7.790525257587433E-002;3.175440710037947E-003;6.589470431208611E-004;
2.423833333333334E+009;1.648098230361939E-001;-7.961514592170715E-002;3.273750888183713E-003;5.656296852976084E-004;
2.424000000000000E+009;1.650321483612061E-001;-8.148626238107681E-002;3.277751384302974E-003;3.295839123893529E-004;
2.424166666666667E+009;1.651764661073685E-001;-8.300146460533142E-002;3.296374343335629E-003;2.786183613352478E-004;
2.424333333333334E+009;1.655192822217941E-001;-8.453910052776337E-002;3.252613358199596E-003;2.657369477674365E-004;
2.424500000000000E+009;1.660900413990021E-001;-8.635979890823364E-002;3.435146762058139E-003;2.242480695713311E-004;
2.424666666666667E+009;1.663861423730850E-001;-8.770696818828583E-002;3.327811835333705E-003;1.373925770167261E-004;
2.424833333333334E+009;1.670292466878891E-001;-8.898604661226273E-002;3.345005679875612E-003;-1.947032142197713E-004;
2.425000000000000E+009;1.675929725170136E-001;-9.010490030050278E-002;3.227191045880318E-003;-3.432293306104839E-004;
2.425166666666667E+009;1.679774522781372E-001;-9.122099727392197E-002;3.140276996418834E-003;-2.798710484057665E-004;
2.425333333333334E+009;1.685889512300491E-001;-9.211930632591248E-002;3.309782128781080E-003;-4.237441462464631E-004;
2.425500000000000E+009;1.691464483737946E-001;-9.312531352043152E-002;3.324812976643443E-003;-6.388420588336885E-004;
2.425666666666667E+009;1.696667373180389E-001;-9.383115172386169E-002;3.266640938818455E-003;-6.480230367742479E-004;
2.425833333333334E+009;1.702379882335663E-001;-9.469969570636749E-002;3.226107452064753E-003;-7.952771265991032E-004;
2.426000000000000E+009;1.708348244428635E-001;-9.521310031414032E-002;2.941824728623033E-003;-7.802759064361453E-004;
2.426166666666667E+009;1.713690310716629E-001;-9.576501697301865E-002;2.918765880167484E-003;-9.177567553706467E-004;
2.426333333333334E+009;1.716986149549484E-001;-9.640117734670639E-002;2.868167590349913E-003;-9.393893415108323E-004;
2.426500000000000E+009;1.722992509603500E-001;-9.674506634473801E-002;2.828134456649423E-003;-9.882438462227583E-004;
2.426666666666667E+009;1.726586967706680E-001;-9.700254350900650E-002;2.912707393988967E-003;-1.017211703583598E-003;
2.426833333333334E+009;1.729493588209152E-001;-9.743557870388031E-002;2.898375038057566E-003;-1.002688542939723E-003;
2.427000000000000E+009;1.733175814151764E-001;-9.768728911876679E-002;2.811948535963893E-003;-1.149124000221491E-003;
2.427166666666667E+009;1.733799278736115E-001;-9.782242029905319E-002;2.907746471464634E-003;-1.237395917996764E-003;
2.427333333333334E+009;1.735216379165649E-001;-9.816920012235642E-002;2.855125581845641E-003;-1.342205796390772E-003;
2.427500000000000E+009;1.733475178480148E-001;-9.849615395069122E-002;2.804441144689918E-003;-1.314758323132992E-003;
2.427666666666667E+009;1.730673611164093E-001;-9.855411946773529E-002;2.822309499606490E-003;-1.474229618906975E-003;
2.427833333333334E+009;1.729394495487213E-001;-9.884765744209290E-002;2.833617618307471E-003;-1.498889061622322E-003;
