# Version 1.00
#
freq[Hz];re:Trc1_S11;im:Trc1_S11;re:Trc2_S21;im:Trc2_S21;
2.400000000000000E+009;1.511069536209106E-001;1.142446398735046E-001;7.509166025556624E-004;-4.398907534778118E-003;
2.400166666666667E+009;1.508827954530716E-001;1.119023934006691E-001;8.398354402743280E-004;-4.324548877775669E-003;
2.400333333333334E+009;1.511495709419251E-001;1.094736605882645E-001;8.926637237891555E-004;-4.312722943723202E-003;
2.400500000000000E+009;1.511294096708298E-001;1.069119125604630E-001;7.910917047411203E-004;-4.504383541643620E-003;
2.400666666666667E+009;1.513096839189529E-001;1.043332144618034E-001;6.446966435760260E-004;-4.493490792810917E-003;
2.400833333333334E+009;1.513661444187164E-001;1.013426780700684E-001;7.193143246695399E-004;-4.648359958082438E-003;
2.401000000000000E+009;1.517918407917023E-001;9.859803318977356E-002;5.691582337021828E-004;-4.861107096076012E-003;
2.401166666666667E+009;1.517489552497864E-001;9.579507261514664E-002;3.237910568714142E-004;-4.945089574903250E-003;
2.401333333333334E+009;1.523862928152084E-001;9.297706931829453E-002;2.948756155092269E-004;-5.062893964350224E-003;
2.401500000000000E+009;1.528642028570175E-001;9.005310386419296E-002;4.283609450794756E-005;-5.227717105299234E-003;
2.401666666666667E+009;1.533800661563873E-001;8.716902881860733E-002;-2.997887495439500E-004;-5.237078759819269E-003;
2.401833333333334E+009;1.542133539915085E-001;8.445934206247330E-002;-6.064330227673054E-004;-5.427681375294924E-003;
2.402000000000000E+009;1.550646126270294E-001;8.164452016353607E-002;-1.036951784044504E-003;-5.557733122259378E-003;
2.402166666666667E+009;1.559581905603409E-001;7.913176715373993E-002;-1.078620320186019E-003;-5.437248852103949E-003;
2.402333333333334E+009;1.569392532110214E-001;7.626283913850784E-002;-1.421107794158161E-003;-5.331626627594233E-003;
2.402500000000000E+009;1.582703888416290E-001;7.392838597297669E-002;-1.576786744408310E-003;-5.206010304391384E-003;
2.402666666666667E+009;1.594371646642685E-001;7.158666104078293E-002;-1.923991483636200E-003;-5.042565520852804E-003;
2.402833333333334E+009;1.611938476562500E-001;6.905234605073929E-002;-2.313233213499188E-003;-5.072305910289288E-003;
2.403000000000000E+009;1.626900732517242E-001;6.672087311744690E-002;-2.324407454580069E-003;-4.832828883081675E-003;
2.403166666666667E+009;1.647744029760361E-001;6.441528350114822E-002;-2.727789338678122E-003;-4.677253775298595E-003;
2.403333333333334E+009;1.662390232086182E-001;6.225964426994324E-002;-2.958298660814762E-003;-4.477329552173615E-003;
2.403500000000000E+009;1.681288480758667E-001;6.019561737775803E-002;-2.867517294362187E-003;-4.353765863925219E-003;
2.403666666666667E+009;1.700612604618073E-001;5.821565911173821E-002;-3.023816971108317E-003;-4.141290206462145E-003;
2.403833333333334E+009;1.719577908515930E-001;5.635404586791992E-002;-3.169343806803227E-003;-3.863655729219317E-003;
2.404000000000000E+009;1.736412495374680E-001;5.437639728188515E-002;-3.342127893120050E-003;-3.836696036159992E-003;
2.404166666666667E+009;1.757787913084030E-001;5.274238809943199E-002;-3.162050386890769E-003;-3.647218691185117E-003;
2.404333333333334E+009;1.774283945560455E-001;5.124525353312492E-002;-3.398762317374349E-003;-3.417029045522213E-003;
2.404500000000000E+009;1.792254149913788E-001;4.994378983974457E-002;-3.349280217662454E-003;-3.326592268422246E-003;
2.404666666666667E+009;1.810475140810013E-001;4.858235642313957E-002;-3.473875811323524E-003;-3.346708137542009E-003;
2.404833333333334E+009;1.827517598867416E-001;4.740913584828377E-002;-3.617885056883097E-003;-3.134299768134952E-003;
2.405000000000000E+009;1.843551248311997E-001;4.669919610023499E-002;-3.555191447958350E-003;-3.135176375508308E-003;
2.405166666666667E+009;1.858303844928742E-001;4.602051153779030E-002;-3.863629419356585E-003;-3.083797404542565E-003;
2.405333333333334E+009;1.874205470085144E-001;4.541573300957680E-002;-3.797890618443489E-003;-2.980740508064628E-003;
2.405500000000000E+009;1.890441775321960E-001;4.488977417349815E-002;-4.082487896084786E-003;-2.811861224472523E-003;
2.405666666666667E+009;1.902099698781967E-001;4.451271146535873E-002;-4.081042949110270E-003;-2.716124057769775E-003;
2.405833333333334E+009;1.917276531457901E-001;4.426379874348640E-002;-4.117069300264120E-003;-2.579774707555771E-003;
2.406000000000000E+009;1.928028315305710E-001;4.407897964119911E-002;-4.294258076697588E-003;-2.315136604011059E-003;
2.406166666666667E+009;1.941707581281662E-001;4.367196187376976E-002;-4.573713056743145E-003;-2.185852499678731E-003;
2.406333333333334E+009;1.950143873691559E-001;4.383458197116852E-002;-4.680017009377480E-003;-1.983977155759931E-003;
2.406500000000000E+009;1.960030645132065E-001;4.382608458399773E-002;-4.579165019094944E-003;-1.779777696356177E-003;
2.406666666666667E+009;1.966902911663055E-001;4.371358826756477E-002;-4.700990393757820E-003;-1.690890872851014E-003;
2.406833333333334E+009;1.972230523824692E-001;4.360468685626984E-002;-4.809740930795670E-003;-1.585559570230544E-003;
2.407000000000000E+009;1.975895762443543E-001;4.386996105313301E-002;-4.857568535953760E-003;-1.179353217594326E-003;
2.407166666666667E+009;1.980629265308380E-001;4.367939382791519E-002;-4.846561234444380E-003;-1.055783010087907E-003;
2.407333333333334E+009;1.979712694883347E-001;4.371913149952889E-002;-4.918422084301710E-003;-1.046945224516094E-003;
2.407500000000000E+009;1.981109678745270E-001;4.375227540731430E-002;-4.948964342474937E-003;-7.451027049683034E-004;
2.407666666666667E+009;1.981110274791718E-001;4.364540800452232E-002;-4.962321370840073E-003;-6.215259782038629E-004;
2.407833333333334E+009;1.975955218076706E-001;4.352797940373421E-002;-4.720438271760941E-003;-2.654288255143911E-004;
2.408000000000000E+009;1.974892914295197E-001;4.323577508330345E-002;-4.809146746993065E-003;-1.573423069203273E-004;
2.408166666666667E+009;1.967657804489136E-001;4.292174801230431E-002;-4.796578548848629E-003;5.101854912936688E-005;
2.408333333333334E+009;1.963369548320770E-001;4.246650636196137E-002;-4.705569241195917E-003;2.126330509781838E-004;
2.408500000000000E+009;1.956630498170853E-001;4.196771606802940E-002;-4.675881471484900E-003;2.617510035634041E-004;
2.408666666666667E+009;1.948227882385254E-001;4.143891111016274E-002;-4.631614312529564E-003;5.204138578847051E-004;
2.408833333333334E+009;1.941001266241074E-001;4.067682847380638E-002;-4.629060626029968E-003;7.393289706669748E-004;
2.409000000000000E+009;1.931012868881226E-001;3.974415361881256E-002;-4.537309054285288E-003;8.121099672280252E-004;
2.409166666666667E+009;1.920595318078995E-001;3.880601376295090E-002;-4.329542163759470E-003;9.234847966581583E-004;
2.409333333333334E+009;1.910639703273773E-001;3.774791210889816E-002;-4.229399841278791E-003;1.217229757457972E-003;
2.409500000000000E+009;1.897473782300949E-001;3.656793013215065E-002;-4.221485927700996E-003;1.194481505081058E-003;
2.409666666666667E+009;1.886165440082550E-001;3.514480963349342E-002;-3.987469244748354E-003;1.175468554720283E-003;
2.409833333333334E+009;1.876257956027985E-001;3.364992514252663E-002;-3.970170393586159E-003;1.513592549599707E-003;
2.410000000000000E+009;1.864579617977142E-001;3.198521584272385E-002;-3.735903883352876E-003;1.293223467655480E-003;
2.410166666666667E+009;1.853497177362442E-001;3.031037375330925E-002;-3.659939626231790E-003;1.509232097305358E-003;
2.410333333333334E+009;1.842174232006073E-001;2.839465625584126E-002;-3.618874587118626E-003;1.539052813313901E-003;
2.410500000000000E+009;1.832638978958130E-001;2.650638110935688E-002;-3.394081024453044E-003;1.467225374653935E-003;
2.410666666666667E+009;1.822725236415863E-001;2.433307841420174E-002;-3.469873685389757E-003;1.378779648803175E-003;
2.410833333333334E+009;1.816059201955795E-001;2.221912145614624E-002;-3.363448893651366E-003;1.443294924683869E-003;
2.411000000000000E+009;1.809074133634567E-001;1.988747343420982E-002;-3.335814224556088E-003;1.474587596021593E-003;
2.411166666666667E+009;1.800735145807266E-001;1.773416809737682E-002;-3.421115688979626E-003;1.295631169341505E-003;
2.411333333333334E+009;1.795113980770111E-001;1.522915903478861E-002;-3.199928672984242E-003;1.291683060117066E-003;
2.411500000000000E+009;1.790131926536560E-001;1.291207317262888E-002;-3.413137979805470E-003;1.459334394894540E-003;
2.411666666666667E+009;1.790004074573517E-001;1.038332935422659E-002;-3.494133707135916E-003;1.283921417780221E-003;
2.411833333333334E+009;1.785902082920075E-001;8.113796822726727E-003;-3.441798966377974E-003;1.405074261128902E-003;
2.412000000000000E+009;1.786742806434631E-001;5.313104949891567E-003;-3.604655852541328E-003;1.468602102249861E-003;
2.412166666666667E+009;1.786261796951294E-001;3.111239755526185E-003;-3.668600926175714E-003;1.607194659300149E-003;
2.412333333333334E+009;1.788019835948944E-001;4.860265180468559E-004;-3.832557238638401E-003;1.774673932231963E-003;
2.412500000000000E+009;1.791770160198212E-001;-1.992024015635252E-003;-3.966763615608215E-003;1.864142250269651E-003;
2.412666666666667E+009;1.798476576805115E-001;-4.429601132869721E-003;-4.003909882158041E-003;2.113583730533719E-003;
2.412833333333334E+009;1.805336773395538E-001;-6.912709679454565E-003;-4.078569822013378E-003;2.207417273893952E-003;
2.413000000000000E+009;1.811255216598511E-001;-9.209281764924526E-003;-4.208371508866549E-003;2.604519715532661E-003;
2.413166666666667E+009;1.820479482412338E-001;-1.141353417187929E-002;-4.172998014837503E-003;2.822319278493524E-003;
2.413333333333334E+009;1.832352280616760E-001;-1.395185012370348E-002;-4.186305217444897E-003;2.999050309881568E-003;
2.413500000000000E+009;1.839466840028763E-001;-1.622416451573372E-002;-3.958789166063070E-003;3.293939866125584E-003;
2.413666666666667E+009;1.851525753736496E-001;-1.849620603024960E-002;-3.961322363466024E-003;3.820711281150580E-003;
2.413833333333334E+009;1.862877309322357E-001;-2.055335417389870E-002;-3.755082376301289E-003;3.906765021383762E-003;
2.414000000000000E+009;1.873707920312882E-001;-2.251361869275570E-002;-3.649906255304813E-003;4.150499124079943E-003;
2.414166666666667E+009;1.888542324304581E-001;-2.435573935508728E-002;-3.277937881648541E-003;4.417710006237030E-003;
2.414333333333334E+009;1.898171156644821E-001;-2.625697664916515E-002;-2.959250006824732E-003;4.740164615213871E-003;
2.414500000000000E+009;1.912035048007965E-001;-2.779498510062695E-002;-2.764528617262840E-003;4.731069318950176E-003;
2.414666666666667E+009;1.922655850648880E-001;-2.933174557983875E-002;-2.523856004700065E-003;4.981429316103458E-003;
2.414833333333334E+009;1.935447007417679E-001;-3.075749985873699E-002;-2.142338547855616E-003;5.165612790733576E-003;
2.415000000000000E+009;1.946619749069214E-001;-3.199783340096474E-002;-2.047418849542737E-003;5.059609189629555E-003;
2.415166666666667E+009;1.959620416164398E-001;-3.308258950710297E-002;-1.753189484588802E-003;5.300209857523441E-003;
2.415333333333334E+009;1.971802711486816E-001;-3.403728082776070E-002;-1.334811327978969E-003;5.325766280293465E-003;
2.415500000000000E+009;1.981372088193893E-001;-3.489308804273605E-002;-1.325662713497877E-003;5.373824387788773E-003;
2.415666666666667E+009;1.994025111198425E-001;-3.575890138745308E-002;-9.187427931465209E-004;5.349810235202313E-003;
2.415833333333334E+009;2.001433968544006E-001;-3.617735579609871E-002;-6.913515971973538E-004;5.283101461827755E-003;
2.416000000000000E+009;2.010731101036072E-001;-3.675125166773796E-002;-5.273178685456514E-004;5.265346728265286E-003;
2.416166666666667E+009;2.017179131507874E-001;-3.728445619344711E-002;-4.275436804164201E-004;5.265493411570787E-003;
2.416333333333334E+009;2.023557722568512E-001;-3.746659681200981E-002;-1.442932552890852E-004;5.210291594266892E-003;
2.416500000000000E+009;2.029501199722290E-001;-3.771628811955452E-002;1.778398473106790E-005;5.161220207810402E-003;
2.416666666666667E+009;2.032109051942825E-001;-3.802361711859703E-002;3.943950578104705E-004;5.187358707189560E-003;
2.416833333333334E+009;2.034730613231659E-001;-3.794987127184868E-002;4.818037850782275E-004;5.342260468751192E-003;
2.417000000000000E+009;2.036626189947128E-001;-3.796630725264549E-002;7.847762317396700E-004;5.132710561156273E-003;
2.417166666666667E+009;2.032851427793503E-001;-3.778284788131714E-002;1.073802704922855E-003;5.099463276565075E-003;
2.417333333333334E+009;2.032219320535660E-001;-3.739557415246964E-002;1.235768897458911E-003;4.963789600878954E-003;
2.417500000000000E+009;2.030211091041565E-001;-3.743511065840721E-002;1.464037923142314E-003;5.030749365687370E-003;
2.417666666666667E+009;2.024978399276733E-001;-3.717294335365295E-002;1.634382177144289E-003;4.978627432137728E-003;
2.417833333333334E+009;2.020464390516281E-001;-3.691041842103005E-002;1.887622638605535E-003;4.652192350476980E-003;
2.418000000000000E+009;2.014214396476746E-001;-3.658946231007576E-002;1.878457260318101E-003;4.539044108241797E-003;
2.418166666666667E+009;2.007590681314468E-001;-3.635551780462265E-002;2.225948497653008E-003;4.587658215314150E-003;
2.418333333333334E+009;1.999475657939911E-001;-3.611641749739647E-002;2.441865159198642E-003;4.364486783742905E-003;
2.418500000000000E+009;1.989918351173401E-001;-3.613547608256340E-002;2.632220042869449E-003;4.234663676470518E-003;
2.418666666666667E+009;1.980307698249817E-001;-3.603472188115120E-002;2.692564390599728E-003;4.028021357953548E-003;
2.418833333333334E+009;1.969742327928543E-001;-3.605910763144493E-002;2.865125425159931E-003;3.871983615681529E-003;
2.419000000000000E+009;1.955326199531555E-001;-3.613115102052689E-002;2.950683934614062E-003;3.677997272461653E-003;
2.419166666666667E+009;1.943657100200653E-001;-3.638725355267525E-002;3.197590354830027E-003;3.318774979561567E-003;
2.419333333333334E+009;1.931311786174774E-001;-3.695712238550186E-002;3.118795575574040E-003;3.128076437860727E-003;
2.419500000000000E+009;1.916067153215408E-001;-3.746690228581429E-002;3.228334011510015E-003;3.036778653040528E-003;
2.419666666666667E+009;1.900829821825028E-001;-3.819140046834946E-002;3.201901912689209E-003;2.771887462586165E-003;
2.419833333333334E+009;1.884929239749908E-001;-3.876350820064545E-002;3.161982167512178E-003;2.647664397954941E-003;
2.420000000000000E+009;1.869118809700012E-001;-3.954621031880379E-002;3.289148444309831E-003;2.343691186979413E-003;
2.420166666666667E+009;1.852326840162277E-001;-4.066258296370506E-002;3.211018163710833E-003;2.255704719573259E-003;
2.420333333333334E+009;1.836717426776886E-001;-4.189691320061684E-002;3.102701855823398E-003;2.350943163037300E-003;
2.420500000000000E+009;1.819202899932861E-001;-4.306565970182419E-002;3.131281817331910E-003;2.128883264958859E-003;
2.420666666666667E+009;1.802872717380524E-001;-4.436526447534561E-002;2.935689175501466E-003;2.125271363183856E-003;
2.420833333333334E+009;1.786704510450363E-001;-4.585141688585281E-002;2.950827591121197E-003;2.012816257774830E-003;
2.421000000000000E+009;1.770767122507095E-001;-4.747154191136360E-002;2.993829082697630E-003;2.017201855778694E-003;
2.421166666666667E+009;1.756482869386673E-001;-4.907207936048508E-002;2.981463214382529E-003;1.984456321224570E-003;
2.421333333333334E+009;1.739289313554764E-001;-5.059643462300301E-002;3.143769688904285E-003;1.827985979616642E-003;
2.421500000000000E+009;1.725887209177017E-001;-5.252861231565476E-002;3.220148617401719E-003;1.591721782460809E-003;
2.421666666666667E+009;1.713665276765823E-001;-5.425128713250160E-002;3.315505338832736E-003;1.720550470054150E-003;
2.421833333333334E+009;1.703034341335297E-001;-5.597826838493347E-002;3.258676500990987E-003;1.543288235552609E-003;
2.422000000000000E+009;1.690258234739304E-001;-5.796171352267265E-002;3.360838862136006E-003;1.433086697943509E-003;
2.422166666666667E+009;1.681627631187439E-001;-5.992291495203972E-002;3.349570790305734E-003;1.263669459149241E-003;
2.422333333333334E+009;1.672041863203049E-001;-6.202856823801994E-002;3.434197278693318E-003;1.224769162945449E-003;
2.422500000000000E+009;1.665514260530472E-001;-6.382647156715393E-002;3.272698959335685E-003;1.175039564259350E-003;
2.422666666666667E+009;1.658969223499298E-001;-6.594388186931610E-002;3.385457908734679E-003;1.026287674903870E-003;
2.422833333333334E+009;1.653704047203064E-001;-6.787578016519547E-002;3.388296579942107E-003;9.844275191426277E-004;
2.423000000000000E+009;1.649996042251587E-001;-6.988301128149033E-002;3.296512877568603E-003;7.428280659951270E-004;
2.423166666666667E+009;1.647251546382904E-001;-7.182541489601135E-002;3.178662387654185E-003;8.234549895860255E-004;
2.423333333333334E+009;1.646762788295746E-001;-7.389312237501144E-002;3.226805711165071E-003;6.217058980837464E-004;
2.423500000000000E+009;1.647376716136932E-001;-7.575111836194992E-002;3.337115980684757E-003;7.265926687978208E-004;
2.423666666666667E+009;1.646164357662201E-001;-7.765665650367737E-002;3.321071621030569E-003;4.887314280495048E-004;
2.423833333333334E+009;1.647913008928299E-001;-7.933974266052246E-002;3.211916191503406E-003;4.867159295827150E-004;
2.424000000000000E+009;1.649882942438126E-001;-8.119009435176849E-002;3.266643499955535E-003;4.191056650597602E-004;
2.424166666666667E+009;1.651923656463623E-001;-8.282174170017242E-002;3.311489243060350E-003;4.475068999454379E-004;
2.424333333333334E+009;1.656081527471542E-001;-8.435024321079254E-002;3.327297046780586E-003;3.349647449795157E-004;
2.424500000000000E+009;1.661376357078552E-001;-8.611958473920822E-002;3.523599356412888E-003;2.350070426473394E-004;
2.424666666666667E+009;1.665253937244415E-001;-8.748268336057663E-002;3.552987240254879E-003;1.665830059209839E-004;
2.424833333333334E+009;1.671744883060455E-001;-8.879546821117401E-002;3.333895700052381E-003;1.432008866686374E-004;
2.425000000000000E+009;1.677083522081375E-001;-8.989639580249786E-002;3.270279383286834E-003;-1.442432549083605E-004;
2.425166666666667E+009;1.681961864233017E-001;-9.103304147720337E-002;3.305466612800956E-003;-2.148703497368842E-004;
2.425333333333334E+009;1.686542332172394E-001;-9.204625338315964E-002;3.405244788154960E-003;-4.578442021738738E-004;
2.425500000000000E+009;1.692980676889420E-001;-9.301164746284485E-002;3.293286077678204E-003;-5.535233067348599E-004;
2.425666666666667E+009;1.698432415723801E-001;-9.377334266901016E-002;3.199976868927479E-003;-6.180285126902163E-004;
2.425833333333334E+009;1.704231798648834E-001;-9.467849880456924E-002;3.088727826252580E-003;-7.519740611314774E-004;
2.426000000000000E+009;1.709156036376953E-001;-9.517714381217957E-002;3.102867864072323E-003;-6.466859485954046E-004;
2.426166666666667E+009;1.716068536043167E-001;-9.565737843513489E-002;3.204375971108675E-003;-7.526060217060149E-004;
2.426333333333334E+009;1.718515902757645E-001;-9.628102928400040E-002;3.055482637137175E-003;-9.961159667000175E-004;
2.426500000000000E+009;1.724468171596527E-001;-9.657942503690720E-002;3.190806135535240E-003;-1.023001619614661E-003;
2.426666666666667E+009;1.727898567914963E-001;-9.698601067066193E-002;2.965503605082631E-003;-9.690462611615658E-004;
2.426833333333334E+009;1.732157319784164E-001;-9.734261780977249E-002;2.964185550808907E-003;-1.118338899686933E-003;
2.427000000000000E+009;1.732998490333557E-001;-9.753505140542984E-002;2.854852238669992E-003;-1.109116128645837E-003;
2.427166666666667E+009;1.735329031944275E-001;-9.774381667375565E-002;2.967537613585591E-003;-1.263929414562881E-003;
2.427333333333334E+009;1.736611276865006E-001;-9.818937629461289E-002;2.833570120856166E-003;-1.246473286300898E-003;
2.427500000000000E+009;1.735381036996841E-001;-9.834352135658264E-002;2.879382576793432E-003;-1.422440866008401E-003;
2.427666666666667E+009;1.732755005359650E-001;-9.850522130727768E-002;2.878045430406928E-003;-1.345431548543274E-003;
2.427833333333334E+009;1.729810237884522E-001;-9.875544160604477E-002;2.845914801582694E-003;-1.477242796681821E-003;
