# Version 1.00
#
freq[Hz];re:Trc1_S11;im:Trc1_S11;re:Trc2_S21;im:Trc2_S21;
2.400000000000000E+009;1.506076604127884E-001;1.133606061339378E-001;9.862659499049187E-004;-4.118767101317644E-003;
2.400166666666667E+009;1.503807902336121E-001;1.110948696732521E-001;9.595379815436900E-004;-4.101116675883532E-003;
2.400333333333334E+009;1.506080180406570E-001;1.087426692247391E-001;1.026139478199184E-003;-4.280986730009317E-003;
2.400500000000000E+009;1.504914015531540E-001;1.060982123017311E-001;1.015925547108054E-003;-4.251403268426657E-003;
2.400666666666667E+009;1.508285403251648E-001;1.036832332611084E-001;9.539410239085555E-004;-4.624126013368368E-003;
2.400833333333334E+009;1.508872509002686E-001;1.007141321897507E-001;8.520963601768017E-004;-4.589641001075506E-003;
2.401000000000000E+009;1.511034667491913E-001;9.802962094545364E-002;9.673683089204133E-004;-4.704781807959080E-003;
2.401166666666667E+009;1.511489897966385E-001;9.525951743125916E-002;6.129380781203508E-004;-5.007543601095676E-003;
2.401333333333334E+009;1.518710702657700E-001;9.244889765977860E-002;4.737702838610858E-004;-5.251843016594648E-003;
2.401500000000000E+009;1.523141860961914E-001;8.960175514221191E-002;2.876690414268524E-004;-5.231793969869614E-003;
2.401666666666667E+009;1.529179513454437E-001;8.677425980567932E-002;-9.529476665193215E-005;-5.448810290545225E-003;
2.401833333333334E+009;1.533616036176682E-001;8.393022418022156E-002;-3.423093003220856E-004;-5.299001466482878E-003;
2.402000000000000E+009;1.542869955301285E-001;8.124528825283051E-002;-6.255636690184474E-004;-5.420558620244265E-003;
2.402166666666667E+009;1.551868170499802E-001;7.869479060173035E-002;-1.088630640879273E-003;-5.557797849178314E-003;
2.402333333333334E+009;1.563225388526917E-001;7.597945630550385E-002;-1.286489074118435E-003;-5.437787156552076E-003;
2.402500000000000E+009;1.576812118291855E-001;7.351874560117722E-002;-1.612367341294885E-003;-5.297667346894741E-003;
2.402666666666667E+009;1.589687615633011E-001;7.115627825260162E-002;-1.879826537333429E-003;-5.177300423383713E-003;
2.402833333333334E+009;1.604548245668411E-001;6.872356683015823E-002;-2.067045075818896E-003;-4.862849134951830E-003;
2.403000000000000E+009;1.617618501186371E-001;6.634730100631714E-002;-2.310026669874787E-003;-4.679617471992970E-003;
2.403166666666667E+009;1.639423370361328E-001;6.433994323015213E-002;-2.481436589732766E-003;-4.710329230874777E-003;
2.403333333333334E+009;1.655137240886688E-001;6.198906898498535E-002;-2.552517922595143E-003;-4.386122804135084E-003;
2.403500000000000E+009;1.673303842544556E-001;6.022741273045540E-002;-2.751938998699188E-003;-4.226585850119591E-003;
2.403666666666667E+009;1.693894267082214E-001;5.791851878166199E-002;-2.820947673171759E-003;-4.115653689950705E-003;
2.403833333333334E+009;1.712418496608734E-001;5.608334019780159E-002;-2.955167321488261E-003;-3.791622817516327E-003;
2.404000000000000E+009;1.729647964239121E-001;5.447125434875488E-002;-3.148068906739354E-003;-3.762923879548907E-003;
2.404166666666667E+009;1.748917698860169E-001;5.290459841489792E-002;-3.052272601053119E-003;-3.619105322286487E-003;
2.404333333333334E+009;1.768611371517181E-001;5.139625817537308E-002;-2.962748054414988E-003;-3.597566159442067E-003;
2.404500000000000E+009;1.785933077335358E-001;4.985640943050385E-002;-3.060328541323543E-003;-3.361189970746636E-003;
2.404666666666667E+009;1.803342550992966E-001;4.862019792199135E-002;-3.226799424737692E-003;-3.338784445077181E-003;
2.404833333333334E+009;1.822061687707901E-001;4.762640595436096E-002;-3.411656245589256E-003;-3.459567436948419E-003;
2.405000000000000E+009;1.835820972919464E-001;4.695802927017212E-002;-3.305668244138360E-003;-3.080626716837287E-003;
2.405166666666667E+009;1.852660775184631E-001;4.619731754064560E-002;-3.588655730709434E-003;-3.116564825177193E-003;
2.405333333333334E+009;1.866895556449890E-001;4.572277143597603E-002;-3.710995893925428E-003;-3.102165414020419E-003;
2.405500000000000E+009;1.883571147918701E-001;4.524836316704750E-002;-3.670040983706713E-003;-2.986747305840254E-003;
2.405666666666667E+009;1.897036731243134E-001;4.472794011235237E-002;-3.872486995533109E-003;-2.777158282697201E-003;
2.405833333333334E+009;1.911778897047043E-001;4.456316307187080E-002;-3.873398294672370E-003;-2.678868127986789E-003;
2.406000000000000E+009;1.922746598720551E-001;4.444422572851181E-002;-3.986961208283901E-003;-2.751060528680682E-003;
2.406166666666667E+009;1.935500055551529E-001;4.418230801820755E-002;-4.127298016101122E-003;-2.359003759920597E-003;
2.406333333333334E+009;1.945577561855316E-001;4.420847445726395E-002;-4.354624543339014E-003;-2.379360375925899E-003;
2.406500000000000E+009;1.953281164169312E-001;4.420962184667587E-002;-4.364106338471174E-003;-2.087082481011748E-003;
2.406666666666667E+009;1.961142718791962E-001;4.432142525911331E-002;-4.477283451706171E-003;-1.945488853380084E-003;
2.406833333333334E+009;1.967942267656326E-001;4.421458393335342E-002;-4.612796474248171E-003;-1.743255881592631E-003;
2.407000000000000E+009;1.971564739942551E-001;4.438260197639465E-002;-4.631850868463516E-003;-1.568826497532427E-003;
2.407166666666667E+009;1.976639926433563E-001;4.410691931843758E-002;-4.517273977398872E-003;-1.434974605217576E-003;
2.407333333333334E+009;1.976643502712250E-001;4.418309032917023E-002;-4.743840545415878E-003;-1.104350085370243E-003;
2.407500000000000E+009;1.977234482765198E-001;4.434086754918098E-002;-4.688650369644165E-003;-1.073861494660378E-003;
2.407666666666667E+009;1.977434307336807E-001;4.424250498414040E-002;-4.775732289999723E-003;-7.933844462968409E-004;
2.407833333333334E+009;1.973020732402802E-001;4.398134723305702E-002;-4.789767786860466E-003;-7.765641203150153E-004;
2.408000000000000E+009;1.972031593322754E-001;4.377978295087814E-002;-4.693564493209124E-003;-5.687350057996810E-004;
2.408166666666667E+009;1.965845972299576E-001;4.337484762072563E-002;-4.660021513700485E-003;-3.431420482229441E-004;
2.408333333333334E+009;1.961536258459091E-001;4.288540780544281E-002;-4.681810270994902E-003;-8.677135338075459E-005;
2.408500000000000E+009;1.954710185527802E-001;4.256708920001984E-002;-4.631235264241695E-003;7.955835462780669E-005;
2.408666666666667E+009;1.946756094694138E-001;4.204199463129044E-002;-4.581327550113201E-003;1.768486836226657E-004;
2.408833333333334E+009;1.939302235841751E-001;4.121254011988640E-002;-4.532454535365105E-003;3.487646463327110E-004;
2.409000000000000E+009;1.930849403142929E-001;4.022877663373947E-002;-4.380824044346809E-003;5.165249458514154E-004;
2.409166666666667E+009;1.920333653688431E-001;3.923908248543739E-002;-4.391786642372608E-003;6.149404798634350E-004;
2.409333333333334E+009;1.910203993320465E-001;3.823945671319962E-002;-4.274651873856783E-003;7.687801844440401E-004;
2.409500000000000E+009;1.897928565740585E-001;3.697918727993965E-002;-4.227560944855213E-003;9.339802199974656E-004;
2.409666666666667E+009;1.887828558683395E-001;3.542040660977364E-002;-3.935119137167931E-003;9.029951179400086E-004;
2.409833333333334E+009;1.874702870845795E-001;3.403165563941002E-002;-3.903371747583151E-003;1.056630862876773E-003;
2.410000000000000E+009;1.866720318794251E-001;3.234677761793137E-002;-3.890177235007286E-003;1.134540187194943E-003;
2.410166666666667E+009;1.854146420955658E-001;3.057192265987396E-002;-3.812714712694287E-003;1.108542666770518E-003;
2.410333333333334E+009;1.842544823884964E-001;2.865639142692089E-002;-3.737571183592081E-003;1.242106780409813E-003;
2.410500000000000E+009;1.833878606557846E-001;2.660324238240719E-002;-3.528370056301355E-003;1.191606512293220E-003;
2.410666666666667E+009;1.825183928012848E-001;2.437506057322025E-002;-3.526313230395317E-003;1.134570338763297E-003;
2.410833333333334E+009;1.817520856857300E-001;2.225002646446228E-002;-3.482829080894589E-003;1.135139726102352E-003;
2.411000000000000E+009;1.808105260133743E-001;2.004905603826046E-002;-3.484226530417800E-003;1.146503025665879E-003;
2.411166666666667E+009;1.802109479904175E-001;1.790674217045307E-002;-3.395652631297708E-003;1.068463199771941E-003;
2.411333333333334E+009;1.796997785568237E-001;1.543962862342596E-002;-3.683112561702728E-003;1.000187592580915E-003;
2.411500000000000E+009;1.791602671146393E-001;1.297376397997141E-002;-3.610225627198815E-003;1.224516658112407E-003;
2.411666666666667E+009;1.788554191589356E-001;1.061925943940878E-002;-3.661243012174964E-003;1.210938557051122E-003;
2.411833333333334E+009;1.784241199493408E-001;8.113742806017399E-003;-3.836584277451038E-003;1.237521995790303E-003;
2.412000000000000E+009;1.787151992321014E-001;5.415006075054407E-003;-3.829459194093943E-003;1.213443814776838E-003;
2.412166666666667E+009;1.787835508584976E-001;3.199048805981875E-003;-3.914268221706152E-003;1.439659507013857E-003;
2.412333333333334E+009;1.788396835327148E-001;4.681309219449759E-004;-4.020554013550282E-003;1.609290717169642E-003;
2.412500000000000E+009;1.792017668485642E-001;-1.900250557810068E-003;-4.179866518825293E-003;1.607676502317190E-003;
2.412666666666667E+009;1.797679364681244E-001;-4.510912112891674E-003;-4.276202060282230E-003;1.939876703545451E-003;
2.412833333333334E+009;1.805196702480316E-001;-7.049973122775555E-003;-4.203209187835455E-003;2.060801489278674E-003;
2.413000000000000E+009;1.812221407890320E-001;-9.201897308230400E-003;-4.342791158705950E-003;2.258453518152237E-003;
2.413166666666667E+009;1.819826513528824E-001;-1.147794723510742E-002;-4.297610372304916E-003;2.473157830536366E-003;
2.413333333333334E+009;1.829963028430939E-001;-1.385295297950506E-002;-4.223328549414873E-003;2.920505823567510E-003;
2.413500000000000E+009;1.839048713445664E-001;-1.617809571325779E-002;-4.399419296532869E-003;3.192302072420716E-003;
2.413666666666667E+009;1.851316988468170E-001;-1.843107677996159E-002;-4.312342032790184E-003;3.500539809465408E-003;
2.413833333333334E+009;1.862361431121826E-001;-2.037971280515194E-002;-3.980448469519615E-003;3.821381833404303E-003;
2.414000000000000E+009;1.874053031206131E-001;-2.238803170621395E-002;-3.787044901400805E-003;4.101736936718226E-003;
2.414166666666667E+009;1.886788010597229E-001;-2.423376403748989E-002;-3.656923538073897E-003;4.469747655093670E-003;
2.414333333333334E+009;1.897906661033630E-001;-2.610991150140762E-002;-3.207629779353738E-003;4.474170971661806E-003;
2.414500000000000E+009;1.911007016897202E-001;-2.762285806238651E-002;-2.949099522083998E-003;4.706459119915962E-003;
2.414666666666667E+009;1.922667622566223E-001;-2.911863103508949E-002;-2.884450834244490E-003;4.858567845076323E-003;
2.414833333333334E+009;1.934042572975159E-001;-3.043222427368164E-002;-2.461663214489818E-003;5.001332610845566E-003;
2.415000000000000E+009;1.946220993995667E-001;-3.177838027477264E-002;-2.477921079844236E-003;5.078964866697788E-003;
2.415166666666667E+009;1.958697587251663E-001;-3.294049575924873E-002;-1.961877103894949E-003;5.223366897553206E-003;
2.415333333333334E+009;1.969615221023560E-001;-3.392044827342033E-002;-1.699017942883074E-003;5.297219846397638E-003;
2.415500000000000E+009;1.982232183218002E-001;-3.474400192499161E-002;-1.491721835918725E-003;5.386845674365759E-003;
2.415666666666667E+009;1.993006914854050E-001;-3.549069538712502E-002;-1.272272900678217E-003;5.260785110294819E-003;
2.415833333333334E+009;2.000878006219864E-001;-3.602598235011101E-002;-1.066896831616759E-003;5.284516606479883E-003;
2.416000000000000E+009;2.007733732461929E-001;-3.672570735216141E-002;-8.908070158213377E-004;5.249097011983395E-003;
2.416166666666667E+009;2.015977799892426E-001;-3.713149204850197E-002;-5.532813374884427E-004;5.333016626536846E-003;
2.416333333333334E+009;2.022201567888260E-001;-3.738262131810188E-002;-3.248525608796626E-004;5.298276897519827E-003;
2.416500000000000E+009;2.028724402189255E-001;-3.756536170840263E-002;-1.963297108886764E-004;5.287964362651110E-003;
2.416666666666667E+009;2.031320184469223E-001;-3.785929828882217E-002;6.102230327087455E-005;5.222652107477188E-003;
2.416833333333334E+009;2.034180909395218E-001;-3.787831217050552E-002;1.024386292556301E-004;5.281024612486363E-003;
2.417000000000000E+009;2.034275680780411E-001;-3.784450516104698E-002;5.313503788784146E-004;5.316316615790129E-003;
2.417166666666667E+009;2.032524496316910E-001;-3.768779337406158E-002;8.054556674323976E-004;5.225317552685738E-003;
2.417333333333334E+009;2.030582427978516E-001;-3.749958053231239E-002;9.226599358953536E-004;5.268184002488852E-003;
2.417500000000000E+009;2.028291821479797E-001;-3.739505633711815E-002;1.245696446858347E-003;5.212449468672276E-003;
2.417666666666667E+009;2.023769021034241E-001;-3.715216740965843E-002;1.505528227426112E-003;5.191294010728598E-003;
2.417833333333334E+009;2.018848210573196E-001;-3.677978739142418E-002;1.861242344602943E-003;4.893498029559851E-003;
2.418000000000000E+009;2.013873904943466E-001;-3.638638183474541E-002;1.953621394932270E-003;4.714366979897022E-003;
2.418166666666667E+009;2.006772309541702E-001;-3.630879521369934E-002;2.132520778104663E-003;4.654170945286751E-003;
2.418333333333334E+009;1.997404247522354E-001;-3.602821007370949E-002;2.382831182330847E-003;4.483707714825869E-003;
2.418500000000000E+009;1.987342089414597E-001;-3.601584956049919E-002;2.561505883932114E-003;4.372694529592991E-003;
2.418666666666667E+009;1.978639811277390E-001;-3.580426797270775E-002;2.627288224175572E-003;4.054166376590729E-003;
2.418833333333334E+009;1.967147737741470E-001;-3.593118861317635E-002;2.756196307018399E-003;3.983008209615946E-003;
2.419000000000000E+009;1.953602731227875E-001;-3.598875552415848E-002;2.732127439230681E-003;3.821935271844268E-003;
2.419166666666667E+009;1.942751854658127E-001;-3.631473332643509E-002;2.931284485384822E-003;3.528733272105455E-003;
2.419333333333334E+009;1.928925812244415E-001;-3.677635639905930E-002;3.025512676686049E-003;3.340876428410411E-003;
2.419500000000000E+009;1.915595382452011E-001;-3.710617497563362E-002;3.051029518246651E-003;3.128969576209784E-003;
2.419666666666667E+009;1.899436116218567E-001;-3.784739598631859E-002;2.820117166265845E-003;3.049342893064022E-003;
2.419833333333334E+009;1.883018761873245E-001;-3.856553509831429E-002;3.057396505028009E-003;2.754738554358482E-003;
2.420000000000000E+009;1.866941154003143E-001;-3.953782096505165E-002;3.034336725249887E-003;2.611434319987893E-003;
2.420166666666667E+009;1.851820349693298E-001;-4.039112851023674E-002;2.930569928139448E-003;2.524921204894781E-003;
2.420333333333334E+009;1.835962235927582E-001;-4.165486246347427E-002;2.917631063610315E-003;2.483697375282645E-003;
2.420500000000000E+009;1.817489117383957E-001;-4.295768961310387E-002;2.998684998601675E-003;2.205076161772013E-003;
2.420666666666667E+009;1.802041083574295E-001;-4.398238286376000E-002;2.947369124740362E-003;2.197250723838806E-003;
2.420833333333334E+009;1.785427480936050E-001;-4.552918672561646E-002;2.937627490609884E-003;2.212102524936199E-003;
2.421000000000000E+009;1.770365834236145E-001;-4.721290618181229E-002;2.986293984577060E-003;2.181195886805654E-003;
2.421166666666667E+009;1.755403429269791E-001;-4.895243048667908E-002;2.919161692261696E-003;2.128053922206163E-003;
2.421333333333334E+009;1.740523129701614E-001;-5.047320201992989E-002;2.982926554977894E-003;2.203446812927723E-003;
2.421500000000000E+009;1.726546883583069E-001;-5.240799486637116E-002;3.130994737148285E-003;1.986112212762237E-003;
2.421666666666667E+009;1.713386774063110E-001;-5.399694666266441E-002;3.159447340294719E-003;2.044470515102148E-003;
2.421833333333334E+009;1.702925860881805E-001;-5.596739053726196E-002;3.262984566390514E-003;1.862197881564498E-003;
2.422000000000000E+009;1.690839380025864E-001;-5.767307057976723E-002;3.330950858071446E-003;1.680418848991394E-003;
2.422166666666667E+009;1.682720631361008E-001;-5.986290425062180E-002;3.440741216763854E-003;1.781884580850601E-003;
2.422333333333334E+009;1.672074496746063E-001;-6.187640875577927E-002;3.366997465491295E-003;1.525345374830067E-003;
2.422500000000000E+009;1.665634959936142E-001;-6.374037265777588E-002;3.236359916627407E-003;1.179254031740129E-003;
2.422666666666667E+009;1.658791005611420E-001;-6.575789302587509E-002;3.370536258444190E-003;1.306156278587878E-003;
2.422833333333334E+009;1.654231548309326E-001;-6.779030710458756E-002;3.251193789765239E-003;1.164893736131489E-003;
2.423000000000000E+009;1.651234179735184E-001;-6.983892619609833E-002;3.256448544561863E-003;1.025416073389351E-003;
2.423166666666667E+009;1.647661775350571E-001;-7.177759706974030E-002;3.336017718538642E-003;9.963657939806581E-004;
2.423333333333334E+009;1.646815985441208E-001;-7.379847764968872E-002;3.195867175236344E-003;9.098012233152986E-004;
2.423500000000000E+009;1.648126691579819E-001;-7.568266242742539E-002;3.296383889392018E-003;8.655081619508565E-004;
2.423666666666667E+009;1.649707108736038E-001;-7.748439908027649E-002;3.168187569826841E-003;7.133245817385614E-004;
2.423833333333334E+009;1.647999137639999E-001;-7.921321690082550E-002;3.300092183053494E-003;7.337982533499599E-004;
2.424000000000000E+009;1.651787459850311E-001;-8.116716146469116E-002;3.349923994392157E-003;6.215933826752007E-004;
2.424166666666667E+009;1.652222275733948E-001;-8.263428509235382E-002;3.262193407863379E-003;6.602723151445389E-004;
2.424333333333334E+009;1.657408326864243E-001;-8.423882722854614E-002;3.306451486423612E-003;3.887711209245026E-004;
2.424500000000000E+009;1.661838144063950E-001;-8.609303086996079E-002;3.438307205215097E-003;3.653970197774470E-004;
2.424666666666667E+009;1.664939671754837E-001;-8.736472576856613E-002;3.446427173912525E-003;1.756102719809860E-004;
2.424833333333334E+009;1.671395748853684E-001;-8.868614584207535E-002;3.403367009013891E-003;3.172252036165446E-004;
2.425000000000000E+009;1.677964329719544E-001;-8.997768163681030E-002;3.485827939584851E-003;9.785687871044502E-005;
2.425166666666667E+009;1.682108938694000E-001;-9.090904891490936E-002;3.349111881107092E-003;-2.017746592173353E-004;
2.425333333333334E+009;1.686978340148926E-001;-9.191545844078064E-002;3.371567931026220E-003;-2.701164339669049E-004;
2.425500000000000E+009;1.693781763315201E-001;-9.294972568750382E-002;3.271953668445349E-003;-3.445764596108347E-004;
2.425666666666667E+009;1.698952466249466E-001;-9.369134902954102E-002;3.312154673039913E-003;-3.577044408302754E-004;
2.425833333333334E+009;1.703990846872330E-001;-9.455864131450653E-002;3.332618158310652E-003;-4.529377038124949E-004;
2.426000000000000E+009;1.710497438907623E-001;-9.503093361854553E-002;2.963681938126683E-003;-5.972511135041714E-004;
2.426166666666667E+009;1.715504378080368E-001;-9.568566828966141E-002;3.276832401752472E-003;-5.716907908208668E-004;
2.426333333333334E+009;1.717872321605682E-001;-9.618578851222992E-002;3.087025368586183E-003;-6.616390892304480E-004;
2.426500000000000E+009;1.725608259439468E-001;-9.652866423130035E-002;3.079586895182729E-003;-7.964103133417666E-004;
2.426666666666667E+009;1.728710979223251E-001;-9.683158993721008E-002;3.120542736724019E-003;-8.020066889002919E-004;
2.426833333333334E+009;1.733188033103943E-001;-9.724535048007965E-002;2.958393422886729E-003;-9.511099779047072E-004;
2.427000000000000E+009;1.733896285295487E-001;-9.752837568521500E-002;3.036007983610034E-003;-1.033532898873091E-003;
2.427166666666667E+009;1.735949069261551E-001;-9.780487418174744E-002;2.973634283989668E-003;-1.052879961207509E-003;
2.427333333333334E+009;1.736834049224854E-001;-9.813632816076279E-002;2.939883386716247E-003;-1.075722277164459E-003;
2.427500000000000E+009;1.734785437583923E-001;-9.828720986843109E-002;2.978659467771649E-003;-1.298759831115603E-003;
2.427666666666667E+009;1.733229905366898E-001;-9.845102578401566E-002;2.984517021104693E-003;-1.299297437071800E-003;
2.427833333333334E+009;1.729881763458252E-001;-9.869529306888580E-002;2.949746791273356E-003;-1.407786854542792E-003;
