# Version 1.00
#
freq[Hz];re:Trc1_S11;im:Trc1_S11;re:Trc2_S21;im:Trc2_S21;
2.400000000000000E+009;1.587618887424469E-001;6.295678019523621E-002;2.398296928731725E-004;1.148975570686162E-004;
2.400166666666667E+009;1.586031615734100E-001;6.157968938350678E-002;4.244956071488559E-004;-3.477213249425404E-005;
2.400333333333334E+009;1.585094779729843E-001;5.944116786122322E-002;4.307971103116870E-004;-1.958485227078199E-004;
2.400500000000000E+009;1.584386378526688E-001;5.768408626317978E-002;4.070799623150379E-004;6.835965905338526E-006;
2.400666666666667E+009;1.582361310720444E-001;5.562895163893700E-002;4.106216074433178E-004;-1.294047397095710E-004;
2.400833333333334E+009;1.582738906145096E-001;5.379239842295647E-002;5.757616017945111E-004;-3.287588478997350E-004;
2.401000000000000E+009;1.583963930606842E-001;5.151897296309471E-002;6.001897272653878E-004;-2.596877748146653E-004;
2.401166666666667E+009;1.583711206912994E-001;4.939613118767738E-002;6.031394004821777E-004;-3.443304740358144E-004;
2.401333333333334E+009;1.584503799676895E-001;4.740820825099945E-002;7.806418580003083E-004;-3.783894644584507E-004;
2.401500000000000E+009;1.587100774049759E-001;4.529595747590065E-002;7.634847424924374E-004;-5.527575849555433E-004;
2.401666666666667E+009;1.591122746467590E-001;4.335405305027962E-002;6.808189791627228E-004;-4.057594342157245E-004;
2.401833333333334E+009;1.594195961952210E-001;4.111755266785622E-002;8.347759721800685E-004;-6.960405735298991E-004;
2.402000000000000E+009;1.596133410930634E-001;3.927124664187431E-002;8.947078022174537E-004;-8.664894849061966E-004;
2.402166666666667E+009;1.600357890129089E-001;3.704318031668663E-002;9.062421740964055E-004;-8.625984191894531E-004;
2.402333333333334E+009;1.606957316398621E-001;3.537517786026001E-002;8.870285237208009E-004;-1.016486552543938E-003;
2.402500000000000E+009;1.616067439317703E-001;3.335272520780563E-002;8.717369055375457E-004;-1.151709002442658E-003;
2.402666666666667E+009;1.619898825883865E-001;3.162699565291405E-002;7.143544498831034E-004;-1.110857818275690E-003;
2.402833333333334E+009;1.625963002443314E-001;2.983066439628601E-002;6.800903938710690E-004;-1.364415744319558E-003;
2.403000000000000E+009;1.633698642253876E-001;2.832622826099396E-002;7.435684674419463E-004;-1.430759904906154E-003;
2.403166666666667E+009;1.643279492855072E-001;2.639539726078510E-002;5.644901539199054E-004;-1.459162333048880E-003;
2.403333333333334E+009;1.651550829410553E-001;2.500565536320210E-002;4.310502845328301E-004;-1.576671958900988E-003;
2.403500000000000E+009;1.659766137599945E-001;2.347673848271370E-002;5.409787991084158E-004;-1.722051762044430E-003;
2.403666666666667E+009;1.669785529375076E-001;2.197321876883507E-002;3.629282582551241E-004;-1.724938745610416E-003;
2.403833333333334E+009;1.679203659296036E-001;2.065315470099449E-002;3.631144645623863E-004;-1.749795163050294E-003;
2.404000000000000E+009;1.689003258943558E-001;1.946589350700378E-002;4.669665031542536E-006;-1.751793548464775E-003;
2.404166666666667E+009;1.697897017002106E-001;1.823161169886589E-002;-2.794056199491024E-004;-1.789910485967994E-003;
2.404333333333334E+009;1.707956641912460E-001;1.739086955785751E-002;-1.585085847182199E-004;-1.860022312030196E-003;
2.404500000000000E+009;1.716565191745758E-001;1.623595505952835E-002;-4.045299428980798E-004;-1.834236434660852E-003;
2.404666666666667E+009;1.728237867355347E-001;1.545887254178524E-002;-4.605848807841539E-004;-1.811069436371326E-003;
2.404833333333334E+009;1.735525727272034E-001;1.452413387596607E-002;-5.292390706017613E-004;-1.878996496088803E-003;
2.405000000000000E+009;1.744592785835266E-001;1.367164403200150E-002;-5.984243471175432E-004;-1.742075430229306E-003;
2.405166666666667E+009;1.753684580326080E-001;1.313715428113937E-002;-9.337082738056779E-004;-1.713888486847282E-003;
2.405333333333334E+009;1.762643754482269E-001;1.239628810435534E-002;-9.393717627972364E-004;-1.701726112514734E-003;
2.405500000000000E+009;1.769654303789139E-001;1.187927369028330E-002;-1.001373049803078E-003;-1.547802821733058E-003;
2.405666666666667E+009;1.776601374149323E-001;1.137575320899487E-002;-1.189794158563018E-003;-1.509578200057149E-003;
2.405833333333334E+009;1.782220155000687E-001;1.102929189801216E-002;-1.223455066792667E-003;-1.415903214365244E-003;
2.406000000000000E+009;1.787244975566864E-001;1.063844095915556E-002;-1.241360907442868E-003;-1.448134658858180E-003;
2.406166666666667E+009;1.791338622570038E-001;1.044687908142805E-002;-1.364427385851741E-003;-1.397274783812463E-003;
2.406333333333334E+009;1.797791421413422E-001;9.994891472160816E-003;-1.204912667162716E-003;-1.259488402865827E-003;
2.406500000000000E+009;1.800178885459900E-001;9.818624705076218E-003;-1.293362700380385E-003;-1.114194979891181E-003;
2.406666666666667E+009;1.801968514919281E-001;9.630654007196426E-003;-1.372356317006052E-003;-1.194872194901109E-003;
2.406833333333334E+009;1.804736405611038E-001;9.204850532114506E-003;-1.330746570602059E-003;-1.160220475867391E-003;
2.407000000000000E+009;1.807829141616821E-001;8.877297863364220E-003;-1.408698386512697E-003;-1.032877713441849E-003;
2.407166666666667E+009;1.809119135141373E-001;8.635608479380608E-003;-1.439649844542146E-003;-1.085990923456848E-003;
2.407333333333334E+009;1.808349043130875E-001;8.098703809082508E-003;-1.394313410855830E-003;-9.556188597343862E-004;
2.407500000000000E+009;1.806669235229492E-001;7.755374070256949E-003;-1.312329783104360E-003;-1.071291044354439E-003;
2.407666666666667E+009;1.805281043052673E-001;7.500938139855862E-003;-1.406938303261995E-003;-1.067447592504323E-003;
2.407833333333334E+009;1.800071895122528E-001;6.875495426356792E-003;-1.576818292960525E-003;-9.511862299405038E-004;
2.408000000000000E+009;1.796686798334122E-001;6.313316524028778E-003;-1.504486659541726E-003;-8.259419701062143E-004;
2.408166666666667E+009;1.793866455554962E-001;5.788359325379133E-003;-1.471180468797684E-003;-9.241988300345838E-004;
2.408333333333334E+009;1.791338026523590E-001;5.144766531884670E-003;-1.515002339147031E-003;-7.930317660793662E-004;
2.408500000000000E+009;1.785838156938553E-001;4.386752378195524E-003;-1.692482270300388E-003;-7.901689969003201E-004;
2.408666666666667E+009;1.780075728893280E-001;3.555794944986701E-003;-1.574975554831326E-003;-7.615204085595906E-004;
2.408833333333334E+009;1.772797703742981E-001;2.585097681730986E-003;-1.641384325921536E-003;-7.133689359761775E-004;
2.409000000000000E+009;1.765438318252564E-001;1.632454688660801E-003;-1.663754810579121E-003;-7.609500316902995E-004;
2.409166666666667E+009;1.759447753429413E-001;5.624227924272418E-004;-1.625737990252674E-003;-6.472936365753412E-004;
2.409333333333334E+009;1.754534393548966E-001;-6.115658325143158E-004;-1.821106649003923E-003;-6.328232120722532E-004;
2.409500000000000E+009;1.746643185615540E-001;-1.886152778752148E-003;-1.781667466275394E-003;-5.367345293052495E-004;
2.409666666666667E+009;1.739156991243362E-001;-3.137318184599280E-003;-1.837612478993833E-003;-5.221889005042613E-004;
2.409833333333334E+009;1.731133908033371E-001;-4.526930395513773E-003;-1.825859770178795E-003;-3.949311794713140E-004;
2.410000000000000E+009;1.726309657096863E-001;-6.141966208815575E-003;-1.741622341796756E-003;-4.858209285885096E-004;
2.410166666666667E+009;1.718882024288178E-001;-7.556997239589691E-003;-1.768175046890974E-003;-6.467642961069942E-004;
2.410333333333334E+009;1.714156270027161E-001;-9.165649302303791E-003;-1.792788272723556E-003;-4.334342374932021E-004;
2.410500000000000E+009;1.707859933376312E-001;-1.062589138746262E-002;-1.868532039225102E-003;-4.553789040073752E-004;
2.410666666666667E+009;1.701133698225021E-001;-1.283194776624441E-002;-1.801650738343597E-003;-2.611831878311932E-004;
2.410833333333334E+009;1.697143167257309E-001;-1.429650746285915E-002;-1.918174675665796E-003;-3.506159409880638E-004;
2.411000000000000E+009;1.693439781665802E-001;-1.613342948257923E-002;-1.933954074047506E-003;-1.453267323086038E-004;
2.411166666666667E+009;1.689059287309647E-001;-1.811158284544945E-002;-1.927479635924101E-003;-2.615716948639602E-004;
2.411333333333334E+009;1.687361896038055E-001;-1.997421495616436E-002;-1.939687645062804E-003;-8.091011113720015E-005;
2.411500000000000E+009;1.683636456727982E-001;-2.196060121059418E-002;-2.013167599216104E-003;-1.689316704869270E-004;
2.411666666666667E+009;1.682385355234146E-001;-2.385101281106472E-002;-2.085020532831550E-003;-1.171471594716422E-004;
2.411833333333334E+009;1.683697849512100E-001;-2.578434534370899E-002;-2.110549248754978E-003;-1.865545345935971E-005;
2.412000000000000E+009;1.683187484741211E-001;-2.772676944732666E-002;-2.206876873970032E-003;-8.152179361786693E-005;
2.412166666666667E+009;1.683022230863571E-001;-2.966473437845707E-002;-2.219690941274166E-003;2.756925532594323E-004;
2.412333333333334E+009;1.685700714588165E-001;-3.155850619077683E-002;-2.257611602544785E-003;2.539742272347212E-004;
2.412500000000000E+009;1.686514019966126E-001;-3.340879827737808E-002;-2.148871310055256E-003;2.968949556816369E-004;
2.412666666666667E+009;1.690362691879273E-001;-3.558121621608734E-002;-2.099049277603626E-003;3.095475840382278E-004;
2.412833333333334E+009;1.694010049104691E-001;-3.739269077777863E-002;-2.076151315122843E-003;4.833619750570506E-004;
2.413000000000000E+009;1.697072237730026E-001;-3.917444869875908E-002;-2.305955160409212E-003;4.034213779959828E-004;
2.413166666666667E+009;1.701245754957199E-001;-4.100536182522774E-002;-2.093642950057983E-003;6.790879415348172E-004;
2.413333333333334E+009;1.703732907772064E-001;-4.271735623478890E-002;-2.240836154669523E-003;6.385903107002378E-004;
2.413500000000000E+009;1.708161681890488E-001;-4.436712712049484E-002;-2.248984295874834E-003;7.364831399172545E-004;
2.413666666666667E+009;1.713906079530716E-001;-4.601044580340385E-002;-2.181956311687827E-003;8.341694483533502E-004;
2.413833333333334E+009;1.719121336936951E-001;-4.760478064417839E-002;-2.265976974740624E-003;7.929307757876813E-004;
2.414000000000000E+009;1.723158359527588E-001;-4.901757836341858E-002;-1.992187229916453E-003;1.043198164552450E-003;
2.414166666666667E+009;1.730524599552155E-001;-5.034824088215828E-002;-2.121933037415147E-003;1.177106052637100E-003;
2.414333333333334E+009;1.734288632869721E-001;-5.173713341355324E-002;-2.169694984331727E-003;1.211870927363634E-003;
2.414500000000000E+009;1.741407215595245E-001;-5.284161120653153E-002;-2.214092528447509E-003;1.214069896377623E-003;
2.414666666666667E+009;1.746879220008850E-001;-5.394710600376129E-002;-2.199896611273289E-003;1.418001018464565E-003;
2.414833333333334E+009;1.750834435224533E-001;-5.498878657817841E-002;-1.928000478073955E-003;1.304511795751751E-003;
2.415000000000000E+009;1.755293458700180E-001;-5.592967942357063E-002;-1.924593932926655E-003;1.422704081051052E-003;
2.415166666666667E+009;1.759341955184937E-001;-5.663658306002617E-002;-1.953931758180261E-003;1.585955265909433E-003;
2.415333333333334E+009;1.765135973691940E-001;-5.755273252725601E-002;-1.858566422015429E-003;1.632601954042912E-003;
2.415500000000000E+009;1.767727881669998E-001;-5.810322239995003E-002;-1.832742709666491E-003;1.700707245618105E-003;
2.415666666666667E+009;1.770005375146866E-001;-5.875750631093979E-002;-1.654070219956338E-003;1.736649777740240E-003;
2.415833333333334E+009;1.773647367954254E-001;-5.935781821608543E-002;-1.675920910201967E-003;1.830275636166334E-003;
2.416000000000000E+009;1.773431599140167E-001;-5.957762897014618E-002;-1.751610427163541E-003;2.079495694488287E-003;
2.416166666666667E+009;1.775956898927689E-001;-6.012957543134689E-002;-1.668023061938584E-003;1.829916145652533E-003;
2.416333333333334E+009;1.775546967983246E-001;-6.050356477499008E-002;-1.601394382305443E-003;1.981607871130109E-003;
2.416500000000000E+009;1.775253117084503E-001;-6.086120754480362E-002;-1.612491905689240E-003;1.911933999508619E-003;
2.416666666666667E+009;1.772762984037399E-001;-6.093385070562363E-002;-1.536564319394529E-003;1.920926268212497E-003;
2.416833333333334E+009;1.772078573703766E-001;-6.151502579450607E-002;-1.488521229475737E-003;2.176596317440271E-003;
2.417000000000000E+009;1.766543835401535E-001;-6.168331578373909E-002;-1.519341487437487E-003;2.102785045281053E-003;
2.417166666666667E+009;1.762935072183609E-001;-6.179397925734520E-002;-1.389238750562072E-003;2.006906317546964E-003;
2.417333333333334E+009;1.757535338401794E-001;-6.186153739690781E-002;-1.337563968263567E-003;2.221726812422276E-003;
2.417500000000000E+009;1.752266287803650E-001;-6.231711432337761E-002;-1.274846377782524E-003;2.236573724076152E-003;
2.417666666666667E+009;1.745813339948654E-001;-6.235918775200844E-002;-1.344265649095178E-003;2.229225821793079E-003;
2.417833333333334E+009;1.738539338111877E-001;-6.256927549839020E-002;-1.324675860814750E-003;2.099923091009259E-003;
2.418000000000000E+009;1.728159487247467E-001;-6.296956539154053E-002;-1.191907213069499E-003;2.368662273511291E-003;
2.418166666666667E+009;1.720210909843445E-001;-6.319103389978409E-002;-1.158623606897891E-003;2.461771015077829E-003;
2.418333333333334E+009;1.713003963232040E-001;-6.359229236841202E-002;-1.268883235752583E-003;2.572698751464486E-003;
2.418500000000000E+009;1.700249761343002E-001;-6.391079723834992E-002;-1.189425471238792E-003;2.651763847097755E-003;
2.418666666666667E+009;1.692812293767929E-001;-6.431750208139420E-002;-1.053317449986935E-003;2.653025323525071E-003;
2.418833333333334E+009;1.678957194089890E-001;-6.498935073614121E-002;-9.724686387926340E-004;2.630018861964345E-003;
2.419000000000000E+009;1.666624993085861E-001;-6.545633077621460E-002;-9.707125718705356E-004;2.850777236744762E-003;
2.419166666666667E+009;1.656302958726883E-001;-6.606683135032654E-002;-1.012555789202452E-003;2.810110570862889E-003;
2.419333333333334E+009;1.642369329929352E-001;-6.668724119663239E-002;-9.812460048124194E-004;2.739838324487209E-003;
2.419500000000000E+009;1.631278693675995E-001;-6.749777495861054E-002;-8.337242179550231E-004;2.949996385723352E-003;
2.419666666666667E+009;1.621082127094269E-001;-6.841266155242920E-002;-7.520872750319541E-004;3.100043395534158E-003;
2.419833333333334E+009;1.609061509370804E-001;-6.918439269065857E-002;-7.341664750128985E-004;3.150128526613116E-003;
2.420000000000000E+009;1.598259955644608E-001;-7.028333097696304E-002;-5.914727807976306E-004;3.369775367900729E-003;
2.420166666666667E+009;1.586146503686905E-001;-7.139907777309418E-002;-7.037423783913255E-004;3.328108228743076E-003;
2.420333333333334E+009;1.575832515954971E-001;-7.256031781435013E-002;-3.452208184171468E-004;3.344597760587931E-003;
2.420500000000000E+009;1.566588133573532E-001;-7.357878237962723E-002;-2.056088414974511E-004;3.359897527843714E-003;
2.420666666666667E+009;1.555681526660919E-001;-7.497508823871613E-002;-2.277474268339574E-004;3.644199809059501E-003;
2.420833333333334E+009;1.544836908578873E-001;-7.634270936250687E-002;-1.591174623172265E-005;3.533188253641129E-003;
2.421000000000000E+009;1.537250280380249E-001;-7.778859138488770E-002;-3.962255141232163E-005;3.696292405948043E-003;
2.421166666666667E+009;1.529580056667328E-001;-7.918535172939301E-002;2.936841046903282E-004;3.715712344273925E-003;
2.421333333333334E+009;1.523755043745041E-001;-8.078252524137497E-002;3.304257697891444E-004;3.809641813859344E-003;
2.421500000000000E+009;1.515514254570007E-001;-8.232132345438004E-002;4.577321524266154E-004;3.973193932324648E-003;
2.421666666666667E+009;1.510788053274155E-001;-8.396028727293015E-002;6.387800094671547E-004;3.940905909985304E-003;
2.421833333333334E+009;1.505487859249115E-001;-8.566670864820480E-002;8.514931541867554E-004;4.007407464087009E-003;
2.422000000000000E+009;1.502392739057541E-001;-8.731672167778015E-002;1.057329005561769E-003;3.953494597226381E-003;
2.422166666666667E+009;1.497546434402466E-001;-8.913304656744003E-002;1.278898678719997E-003;4.068549256771803E-003;
2.422333333333334E+009;1.496717333793640E-001;-9.083669632673264E-002;1.280814874917269E-003;3.925701137632132E-003;
2.422500000000000E+009;1.492982804775238E-001;-9.232964366674423E-002;1.491870381869376E-003;3.977676387876272E-003;
2.422666666666667E+009;1.492826193571091E-001;-9.401984512805939E-002;1.840924262069166E-003;3.987960051745176E-003;
2.422833333333334E+009;1.493989378213882E-001;-9.589711576700211E-002;2.030244562774897E-003;3.863261081278324E-003;
2.423000000000000E+009;1.493010818958283E-001;-9.744628518819809E-002;2.228002995252609E-003;3.906581085175276E-003;
2.423166666666667E+009;1.495289653539658E-001;-9.921856224536896E-002;2.356784185394645E-003;3.649841062724590E-003;
2.423333333333334E+009;1.499612629413605E-001;-1.005827188491821E-001;2.616422483697534E-003;3.437450155615807E-003;
2.423500000000000E+009;1.501937210559845E-001;-1.023286506533623E-001;2.801156137138605E-003;3.407758194953203E-003;
2.423666666666667E+009;1.502935588359833E-001;-1.039056777954102E-001;2.925112610682845E-003;3.341089002788067E-003;
2.423833333333334E+009;1.508397907018662E-001;-1.052821129560471E-001;3.167351009324193E-003;3.215630771592259E-003;
2.424000000000000E+009;1.511604785919190E-001;-1.064763739705086E-001;3.306227736175060E-003;3.017012029886246E-003;
2.424166666666667E+009;1.515481173992157E-001;-1.079173386096954E-001;3.423792775720358E-003;3.060528542846441E-003;
2.424333333333334E+009;1.521894633769989E-001;-1.091585010290146E-001;3.582611912861466E-003;2.829712815582752E-003;
2.424500000000000E+009;1.525567173957825E-001;-1.104591116309166E-001;3.597904695197940E-003;2.768654143437743E-003;
2.424666666666667E+009;1.531668007373810E-001;-1.114110201597214E-001;3.549068933352828E-003;2.435358241200447E-003;
2.424833333333334E+009;1.534748226404190E-001;-1.124125346541405E-001;3.867896040901542E-003;2.431618282571435E-003;
2.425000000000000E+009;1.539956927299500E-001;-1.134736910462380E-001;3.858102019876242E-003;2.277873223647475E-003;
2.425166666666667E+009;1.543807983398438E-001;-1.142964735627174E-001;3.953477367758751E-003;1.918718917295337E-003;
2.425333333333334E+009;1.547555029392242E-001;-1.150795891880989E-001;4.146944731473923E-003;1.979287015274167E-003;
2.425500000000000E+009;1.552401185035706E-001;-1.156854927539825E-001;4.236692562699318E-003;1.687951735220850E-003;
2.425666666666667E+009;1.553847342729569E-001;-1.163555458188057E-001;4.209275357425213E-003;1.430307514965534E-003;
2.425833333333334E+009;1.557777673006058E-001;-1.169019341468811E-001;4.292127210646868E-003;1.199115533381701E-003;
2.426000000000000E+009;1.558971703052521E-001;-1.175604462623596E-001;4.388622473925352E-003;1.126954914070666E-003;
2.426166666666667E+009;1.563362628221512E-001;-1.179787069559097E-001;4.255206789821386E-003;1.010389300063252E-003;
2.426333333333334E+009;1.562343686819077E-001;-1.182026490569115E-001;4.296631086617708E-003;7.670387276448309E-004;
2.426500000000000E+009;1.563732177019119E-001;-1.185169517993927E-001;4.293478094041348E-003;5.984916351735592E-004;
2.426666666666667E+009;1.563657373189926E-001;-1.185342445969582E-001;4.447111394256353E-003;4.114154144190252E-004;
2.426833333333334E+009;1.560690850019455E-001;-1.188659295439720E-001;4.304392728954554E-003;3.103721246588975E-004;
2.427000000000000E+009;1.557812541723251E-001;-1.190357431769371E-001;4.418457392603159E-003;5.845695704920217E-005;
2.427166666666667E+009;1.555282026529312E-001;-1.191750988364220E-001;4.230992868542671E-003;-9.710727317724377E-005;
2.427333333333334E+009;1.550556719303131E-001;-1.192517876625061E-001;4.097212105989456E-003;-2.294258301844820E-004;
2.427500000000000E+009;1.546425372362137E-001;-1.192962154746056E-001;4.146964754909277E-003;-3.598739567678422E-004;
2.427666666666667E+009;1.539488434791565E-001;-1.194876208901405E-001;4.268714226782322E-003;-5.365209653973579E-004;
