# Version 1.00
#
freq[Hz];re:Trc1_S11;im:Trc1_S11;re:Trc2_S21;im:Trc2_S21;
2.400000000000000E+009;1.587028950452805E-001;6.304943561553955E-002;3.016787231899798E-004;-2.760946699709166E-005;
2.400166666666667E+009;1.584958434104919E-001;6.146875396370888E-002;3.415365936234593E-004;5.056916779722087E-005;
2.400333333333334E+009;1.582762151956558E-001;5.965153500437737E-002;4.725215549115092E-004;-2.069282927550376E-004;
2.400500000000000E+009;1.584240645170212E-001;5.768120288848877E-002;6.021842127665877E-004;-1.601131953066215E-004;
2.400666666666667E+009;1.580875366926193E-001;5.577972903847694E-002;6.318186642602086E-004;-1.655389205552638E-004;
2.400833333333334E+009;1.581933796405792E-001;5.387937650084496E-002;5.279540200717747E-004;-2.433965346426703E-005;
2.401000000000000E+009;1.582809537649155E-001;5.163757875561714E-002;6.700786179862917E-004;-3.279587544966489E-004;
2.401166666666667E+009;1.584139764308929E-001;4.945857450366020E-002;6.382754654623568E-004;-4.357306461315602E-004;
2.401333333333334E+009;1.585398465394974E-001;4.733864963054657E-002;7.325131446123123E-004;-2.978552074637264E-004;
2.401500000000000E+009;1.588893979787827E-001;4.543365165591240E-002;8.635855629108846E-004;-4.795757995452732E-004;
2.401666666666667E+009;1.590181142091751E-001;4.332038387656212E-002;8.899635286070406E-004;-4.267541517037898E-004;
2.401833333333334E+009;1.594222337007523E-001;4.127120226621628E-002;1.058659399859607E-003;-5.935226799920201E-004;
2.402000000000000E+009;1.596549153327942E-001;3.928164392709732E-002;9.728287113830447E-004;-7.917584734968841E-004;
2.402166666666667E+009;1.602104306221008E-001;3.716757521033287E-002;8.069407776929438E-004;-6.073109107092023E-004;
2.402333333333334E+009;1.606961935758591E-001;3.539472445845604E-002;7.710002828389406E-004;-8.510956540703774E-004;
2.402500000000000E+009;1.614660918712616E-001;3.344285488128662E-002;8.219736046157777E-004;-1.040757982991636E-003;
2.402666666666667E+009;1.619089543819428E-001;3.146488219499588E-002;8.663159096613526E-004;-1.125564100220799E-003;
2.402833333333334E+009;1.627234369516373E-001;2.988566644489765E-002;7.782623870298266E-004;-1.206543180160224E-003;
2.403000000000000E+009;1.634444743394852E-001;2.821779623627663E-002;7.691173232160509E-004;-1.260264776647091E-003;
2.403166666666667E+009;1.643070876598358E-001;2.645996026694775E-002;8.468732703477144E-004;-1.430641394108534E-003;
2.403333333333334E+009;1.651340425014496E-001;2.507506497204304E-002;6.364486762322485E-004;-1.583961537107825E-003;
2.403500000000000E+009;1.660319715738297E-001;2.350013889372349E-002;5.535887903533876E-004;-1.466733752749860E-003;
2.403666666666667E+009;1.669304817914963E-001;2.189180441200733E-002;2.510958875063807E-004;-1.632630126550794E-003;
2.403833333333334E+009;1.680008918046951E-001;2.079578489065170E-002;2.341204526601359E-004;-1.556979725137353E-003;
2.404000000000000E+009;1.688133776187897E-001;1.956349797546864E-002;5.649256127071567E-005;-1.723362598568201E-003;
2.404166666666667E+009;1.698285192251205E-001;1.840227469801903E-002;4.821612310479395E-005;-1.837762771174312E-003;
2.404333333333334E+009;1.706911027431488E-001;1.735200546681881E-002;-8.018156222533435E-005;-1.898761373013258E-003;
2.404500000000000E+009;1.716919839382172E-001;1.610699295997620E-002;-3.063494805246592E-004;-1.972858095541596E-003;
2.404666666666667E+009;1.725600361824036E-001;1.545369811356068E-002;-4.076906479895115E-004;-1.863912213593721E-003;
2.404833333333334E+009;1.735228151082993E-001;1.446159742772579E-002;-4.992542089894414E-004;-1.736421487294138E-003;
2.405000000000000E+009;1.743376106023789E-001;1.364958565682173E-002;-7.129014120437205E-004;-1.799020799808204E-003;
2.405166666666667E+009;1.751839965581894E-001;1.307166367769241E-002;-7.294267998076975E-004;-1.837107818573713E-003;
2.405333333333334E+009;1.762525290250778E-001;1.236280333250761E-002;-8.660353487357497E-004;-1.796577824279666E-003;
2.405500000000000E+009;1.768784672021866E-001;1.195847988128662E-002;-9.364692377857864E-004;-1.800382509827614E-003;
2.405666666666667E+009;1.775076985359192E-001;1.150009687989950E-002;-1.104369526728988E-003;-1.695108017884195E-003;
2.405833333333334E+009;1.781544089317322E-001;1.120025478303433E-002;-1.005537225864828E-003;-1.467433874495328E-003;
2.406000000000000E+009;1.788637191057205E-001;1.051479764282703E-002;-1.230750232934952E-003;-1.598437083885074E-003;
2.406166666666667E+009;1.791572272777557E-001;1.034868974238634E-002;-1.107882824726403E-003;-1.469013281166554E-003;
2.406333333333334E+009;1.797702908515930E-001;1.007591374218464E-002;-1.338213915005326E-003;-1.421945751644671E-003;
2.406500000000000E+009;1.800121217966080E-001;9.663588367402554E-003;-1.115241437219083E-003;-1.253162859939039E-003;
2.406666666666667E+009;1.801914274692535E-001;9.524127468466759E-003;-1.316354493610561E-003;-1.320972107350826E-003;
2.406833333333334E+009;1.805608868598938E-001;9.214153513312340E-003;-1.508548972196877E-003;-1.238172058947384E-003;
2.407000000000000E+009;1.806105226278305E-001;8.869394659996033E-003;-1.373704290017486E-003;-1.188725116662681E-003;
2.407166666666667E+009;1.807963252067566E-001;8.640853688120842E-003;-1.342092407867312E-003;-9.579488541930914E-004;
2.407333333333334E+009;1.806122213602066E-001;8.229231461882591E-003;-1.356567372567952E-003;-1.056093256920576E-003;
2.407500000000000E+009;1.805717051029205E-001;7.877719588577747E-003;-1.411392469890416E-003;-9.034279501065612E-004;
2.407666666666667E+009;1.804123222827911E-001;7.526695728302002E-003;-1.422318164259195E-003;-1.154417288489640E-003;
2.407833333333334E+009;1.798936873674393E-001;6.858734413981438E-003;-1.617002300918102E-003;-9.543166961520910E-004;
2.408000000000000E+009;1.797448992729187E-001;6.388884037733078E-003;-1.562669058330357E-003;-9.616155293770134E-004;
2.408166666666667E+009;1.792824417352676E-001;5.958091001957655E-003;-1.547118881717324E-003;-9.467140771448612E-004;
2.408333333333334E+009;1.790973097085953E-001;5.091176368296146E-003;-1.624613651074469E-003;-8.063298300839961E-004;
2.408500000000000E+009;1.785144209861755E-001;4.163776058703661E-003;-1.544659142382443E-003;-8.078875835053623E-004;
2.408666666666667E+009;1.779606640338898E-001;3.454881021752954E-003;-1.749905408360064E-003;-7.099802023731172E-004;
2.408833333333334E+009;1.772560477256775E-001;2.639538142830133E-003;-1.612029736861587E-003;-7.715729880146682E-004;
2.409000000000000E+009;1.766665875911713E-001;1.697507686913014E-003;-1.603210228495300E-003;-7.259032572619617E-004;
2.409166666666667E+009;1.759249269962311E-001;5.757510080002248E-004;-1.652164384722710E-003;-6.751213222742081E-004;
2.409333333333334E+009;1.752864271402359E-001;-6.759947282262147E-004;-1.606559031642973E-003;-6.229123682714999E-004;
2.409500000000000E+009;1.746883243322372E-001;-1.981474459171295E-003;-1.676034298725426E-003;-4.548017459455878E-004;
2.409666666666667E+009;1.738590896129608E-001;-3.091341350227594E-003;-1.842724159359932E-003;-4.802328185178340E-004;
2.409833333333334E+009;1.731528937816620E-001;-4.428683314472437E-003;-1.685839961282909E-003;-5.859791417606175E-004;
2.410000000000000E+009;1.726984679698944E-001;-5.931991152465344E-003;-1.700106309726834E-003;-4.941500956192613E-004;
2.410166666666667E+009;1.720737963914871E-001;-7.592220325022936E-003;-1.831891713663936E-003;-5.383811658248305E-004;
2.410333333333334E+009;1.713769137859345E-001;-9.098879061639309E-003;-1.776748453266919E-003;-4.652934439945966E-004;
2.410500000000000E+009;1.707415133714676E-001;-1.081841904670000E-002;-1.887382008135319E-003;-3.858651616610587E-004;
2.410666666666667E+009;1.702609509229660E-001;-1.272461283951998E-002;-1.847341423854232E-003;-3.639925271272659E-004;
2.410833333333334E+009;1.696860194206238E-001;-1.432865113019943E-002;-1.924528973177075E-003;-2.756788453552872E-004;
2.411000000000000E+009;1.694325208663940E-001;-1.603111252188683E-002;-1.851837267167866E-003;-1.810463727451861E-004;
2.411166666666667E+009;1.689368486404419E-001;-1.802761480212212E-002;-1.925012446008623E-003;-1.848537940531969E-004;
2.411333333333334E+009;1.684782058000565E-001;-1.988220214843750E-002;-1.887392601929605E-003;-2.064006694126874E-004;
2.411500000000000E+009;1.683030873537064E-001;-2.196223661303520E-002;-2.013782970607281E-003;3.050928398806718E-006;
2.411666666666667E+009;1.683645695447922E-001;-2.374111302196980E-002;-2.018011175096035E-003;-1.149110103142448E-004;
2.411833333333334E+009;1.683017909526825E-001;-2.578913047909737E-002;-2.104524057358503E-003;-3.747733353520744E-005;
2.412000000000000E+009;1.681598424911499E-001;-2.779989130795002E-002;-2.112120157107711E-003;-4.721064033219591E-005;
2.412166666666667E+009;1.681862622499466E-001;-2.970115654170513E-002;-2.077243989333510E-003;2.264687500428408E-004;
2.412333333333334E+009;1.684473156929016E-001;-3.162511438131332E-002;-2.197333844378591E-003;2.306528331246227E-004;
2.412500000000000E+009;1.685511916875839E-001;-3.350349888205528E-002;-2.253719139844179E-003;3.212793089915067E-004;
2.412666666666667E+009;1.688955128192902E-001;-3.556916862726212E-002;-2.185941208153963E-003;2.672269474714994E-004;
2.412833333333334E+009;1.692170053720474E-001;-3.743952512741089E-002;-2.085304586216807E-003;4.144573176745325E-004;
2.413000000000000E+009;1.695300042629242E-001;-3.907753899693489E-002;-2.173883607611060E-003;5.408690194599330E-004;
2.413166666666667E+009;1.698250174522400E-001;-4.097236320376396E-002;-2.294364618137479E-003;5.453578778542578E-004;
2.413333333333334E+009;1.701806187629700E-001;-4.256054386496544E-002;-2.305686939507723E-003;7.231116178445518E-004;
2.413500000000000E+009;1.707589328289032E-001;-4.440171271562576E-002;-2.279765438288450E-003;6.683311657980084E-004;
2.413666666666667E+009;1.712997406721115E-001;-4.606403410434723E-002;-2.293859142810106E-003;9.190007694996893E-004;
2.413833333333334E+009;1.717792749404907E-001;-4.746858030557632E-002;-2.191415987908840E-003;8.007772266864777E-004;
2.414000000000000E+009;1.722990274429321E-001;-4.901523515582085E-002;-2.009301446378231E-003;1.124072354286909E-003;
2.414166666666667E+009;1.729473769664764E-001;-5.025545880198479E-002;-2.194582950323820E-003;1.090771402232349E-003;
2.414333333333334E+009;1.735600084066391E-001;-5.161934718489647E-002;-2.165529178455472E-003;1.092779333703220E-003;
2.414500000000000E+009;1.740812212228775E-001;-5.284175276756287E-002;-2.129577333107591E-003;1.250548288226128E-003;
2.414666666666667E+009;1.745931655168533E-001;-5.376676842570305E-002;-1.866929931566119E-003;1.319475588388741E-003;
2.414833333333334E+009;1.751072704792023E-001;-5.500163137912750E-002;-1.914267661049962E-003;1.402207999490202E-003;
2.415000000000000E+009;1.755759418010712E-001;-5.569402500987053E-002;-1.976490486413240E-003;1.329671009443700E-003;
2.415166666666667E+009;1.758895218372345E-001;-5.671701952815056E-002;-1.812000409699976E-003;1.606445992365480E-003;
2.415333333333334E+009;1.764356344938278E-001;-5.741088464856148E-002;-1.898154034279287E-003;1.682234695181251E-003;
2.415500000000000E+009;1.766869127750397E-001;-5.811025947332382E-002;-1.860215794295073E-003;1.670926110818982E-003;
2.415666666666667E+009;1.770229339599609E-001;-5.867068469524384E-002;-1.868200139142573E-003;1.664269948378205E-003;
2.415833333333334E+009;1.773243248462677E-001;-5.921323224902153E-002;-1.761748921126127E-003;1.735339523293078E-003;
2.416000000000000E+009;1.773888766765595E-001;-5.981007218360901E-002;-1.714313519187272E-003;1.828197157010436E-003;
2.416166666666667E+009;1.776003539562225E-001;-6.010619550943375E-002;-1.625614822842181E-003;1.869071507826448E-003;
2.416333333333334E+009;1.775848865509033E-001;-6.042359769344330E-002;-1.681368798017502E-003;1.916942186653614E-003;
2.416500000000000E+009;1.773958206176758E-001;-6.088763847947121E-002;-1.633791020140052E-003;1.970949349924922E-003;
2.416666666666667E+009;1.772268414497376E-001;-6.098924949765205E-002;-1.547505846247077E-003;1.971452496945858E-003;
2.416833333333334E+009;1.771519333124161E-001;-6.141159310936928E-002;-1.433411613106728E-003;1.988921314477921E-003;
2.417000000000000E+009;1.765287369489670E-001;-6.171745806932449E-002;-1.459481660276651E-003;2.146903658285737E-003;
2.417166666666667E+009;1.762926429510117E-001;-6.175291910767555E-002;-1.404381240718067E-003;2.286856994032860E-003;
2.417333333333334E+009;1.756937652826309E-001;-6.186390295624733E-002;-1.385343028232455E-003;2.130429027602077E-003;
2.417500000000000E+009;1.752354055643082E-001;-6.223404407501221E-002;-1.491266419179738E-003;2.186122816056013E-003;
2.417666666666667E+009;1.746317595243454E-001;-6.243376061320305E-002;-1.407860196195543E-003;2.265277318656445E-003;
2.417833333333334E+009;1.737230569124222E-001;-6.266394257545471E-002;-1.264781807549298E-003;2.366015920415521E-003;
2.418000000000000E+009;1.730217933654785E-001;-6.305560469627380E-002;-1.356626860797405E-003;2.376244170591235E-003;
2.418166666666667E+009;1.720094382762909E-001;-6.307337433099747E-002;-1.290450571104884E-003;2.324056578800082E-003;
2.418333333333334E+009;1.712445467710495E-001;-6.349750608205795E-002;-1.261660712771118E-003;2.556266263127327E-003;
2.418500000000000E+009;1.700831502676010E-001;-6.382684409618378E-002;-1.279256423003972E-003;2.511404920369387E-003;
2.418666666666667E+009;1.692009866237640E-001;-6.442087143659592E-002;-1.094963867217302E-003;2.625426976010203E-003;
2.418833333333334E+009;1.678580790758133E-001;-6.505375355482101E-002;-1.050583086907864E-003;2.743461867794395E-003;
2.419000000000000E+009;1.666746139526367E-001;-6.552495807409287E-002;-1.110506127588451E-003;2.642445731908083E-003;
2.419166666666667E+009;1.656730026006699E-001;-6.614422053098679E-002;-9.603995131328702E-004;2.892751945182681E-003;
2.419333333333334E+009;1.641671806573868E-001;-6.657339632511139E-002;-1.065863994881511E-003;2.967016305774450E-003;
2.419500000000000E+009;1.631460487842560E-001;-6.756439805030823E-002;-9.171628043986857E-004;3.030564635992050E-003;
2.419666666666667E+009;1.621083617210388E-001;-6.843286007642746E-002;-8.994577219709754E-004;3.080021124333143E-003;
2.419833333333334E+009;1.607474684715271E-001;-6.925177574157715E-002;-7.203156128525734E-004;3.184232860803604E-003;
2.420000000000000E+009;1.596910804510117E-001;-7.036720216274262E-002;-7.827358203940094E-004;3.308902960270643E-003;
2.420166666666667E+009;1.585670858621597E-001;-7.142638415098190E-002;-6.030738004483283E-004;3.262060694396496E-003;
2.420333333333334E+009;1.574370861053467E-001;-7.257816940546036E-002;-5.551261710934341E-004;3.454043529927731E-003;
2.420500000000000E+009;1.565561294555664E-001;-7.371332496404648E-002;-3.765031869988889E-004;3.481887513771653E-003;
2.420666666666667E+009;1.553285568952560E-001;-7.487912476062775E-002;-2.168492210330442E-004;3.588043386116624E-003;
2.420833333333334E+009;1.545631289482117E-001;-7.612411677837372E-002;-2.160006260965020E-004;3.604956902563572E-003;
2.421000000000000E+009;1.534544974565506E-001;-7.782688736915588E-002;4.370202077552676E-005;3.660849761217833E-003;
2.421166666666667E+009;1.528737097978592E-001;-7.922610640525818E-002;1.943032693816349E-004;3.833750495687127E-003;
2.421333333333334E+009;1.522294878959656E-001;-8.078824728727341E-002;4.508383863139898E-004;3.978631924837828E-003;
2.421500000000000E+009;1.513554304838181E-001;-8.236467093229294E-002;3.078836016356945E-004;3.991072531789541E-003;
2.421666666666667E+009;1.507488191127777E-001;-8.384022861719132E-002;6.153283757157624E-004;3.976738080382347E-003;
2.421833333333334E+009;1.504196375608444E-001;-8.568510413169861E-002;8.233106345869601E-004;4.030038136988878E-003;
2.422000000000000E+009;1.500947028398514E-001;-8.731263130903244E-002;1.041501178406179E-003;3.946614917367697E-003;
2.422166666666667E+009;1.495108753442764E-001;-8.914040774106979E-002;1.182377920486033E-003;4.085362423211336E-003;
2.422333333333334E+009;1.495467275381088E-001;-9.078865498304367E-002;1.448437687940896E-003;4.051273223012686E-003;
2.422500000000000E+009;1.492358595132828E-001;-9.238389134407044E-002;1.588899292983115E-003;3.927445970475674E-003;
2.422666666666667E+009;1.491352170705795E-001;-9.427087754011154E-002;1.696220715530217E-003;3.872507950291038E-003;
2.422833333333334E+009;1.491187065839768E-001;-9.574569761753082E-002;2.050046343356371E-003;3.813670249655843E-003;
2.423000000000000E+009;1.491660028696060E-001;-9.745363891124725E-002;1.985038863494992E-003;3.829102730378509E-003;
2.423166666666667E+009;1.495948731899262E-001;-9.913905709981918E-002;2.393355360254645E-003;3.526198212057352E-003;
2.423333333333334E+009;1.496981531381607E-001;-1.005259379744530E-001;2.562288194894791E-003;3.620131872594357E-003;
2.423500000000000E+009;1.499773412942886E-001;-1.022089272737503E-001;2.782340859994292E-003;3.538063261657953E-003;
2.423666666666667E+009;1.501602679491043E-001;-1.038285419344902E-001;2.978313947096467E-003;3.565486986190081E-003;
2.423833333333334E+009;1.507949680089951E-001;-1.052172333002091E-001;3.081650706008077E-003;3.315520472824574E-003;
2.424000000000000E+009;1.511660367250443E-001;-1.065757349133492E-001;3.306641941890121E-003;3.149928292259574E-003;
2.424166666666667E+009;1.514354944229126E-001;-1.079266965389252E-001;3.369574435055256E-003;2.971270587295294E-003;
2.424333333333334E+009;1.521528214216232E-001;-1.091629862785339E-001;3.519677324220538E-003;2.953063230961561E-003;
2.424500000000000E+009;1.525772958993912E-001;-1.103018522262573E-001;3.625185461714864E-003;2.663330407813191E-003;
2.424666666666667E+009;1.532189249992371E-001;-1.112108454108238E-001;3.889572806656361E-003;2.611470175907016E-003;
2.424833333333334E+009;1.534362286329269E-001;-1.123238056898117E-001;3.869148669764400E-003;2.414692658931017E-003;
2.425000000000000E+009;1.540413647890091E-001;-1.133341938257217E-001;3.957962617278099E-003;2.050634240731597E-003;
2.425166666666667E+009;1.542275846004486E-001;-1.141849979758263E-001;4.052730742841959E-003;2.149448497220874E-003;
2.425333333333334E+009;1.547733396291733E-001;-1.148693338036537E-001;4.079109057784081E-003;1.895605935715139E-003;
2.425500000000000E+009;1.551545411348343E-001;-1.157281100749970E-001;4.022276028990746E-003;1.790853915736079E-003;
2.425666666666667E+009;1.553684622049332E-001;-1.163921430706978E-001;4.321731161326170E-003;1.481752144172788E-003;
2.425833333333334E+009;1.558174639940262E-001;-1.169121637940407E-001;4.325375892221928E-003;1.335943350568414E-003;
2.426000000000000E+009;1.558813154697418E-001;-1.174500882625580E-001;4.216946195811033E-003;1.240525860339403E-003;
2.426166666666667E+009;1.563652753829956E-001;-1.178850010037422E-001;4.308455623686314E-003;9.696630295366049E-004;
2.426333333333334E+009;1.562231332063675E-001;-1.182768866419792E-001;4.346644040197134E-003;9.733461192809045E-004;
2.426500000000000E+009;1.563599854707718E-001;-1.184510588645935E-001;4.413311369717121E-003;6.750577013008297E-004;
2.426666666666667E+009;1.564110070466995E-001;-1.185799762606621E-001;4.380537196993828E-003;5.297465831972659E-004;
2.426833333333334E+009;1.561106443405151E-001;-1.188402250409126E-001;4.390711430460215E-003;2.362224186072126E-004;
2.427000000000000E+009;1.558633595705032E-001;-1.192141473293304E-001;4.325820598751307E-003;3.045555204153061E-004;
2.427166666666667E+009;1.555685997009277E-001;-1.191135644912720E-001;4.270887933671475E-003;5.148048148839735E-005;
2.427333333333334E+009;1.551098972558975E-001;-1.192541196942329E-001;4.387446679174900E-003;7.401932816719636E-005;
2.427500000000000E+009;1.546083688735962E-001;-1.194626092910767E-001;4.236288368701935E-003;-8.350305870408192E-005;
2.427666666666667E+009;1.540212482213974E-001;-1.195381432771683E-001;4.046149086207151E-003;-3.612229193095118E-004;
