# Version 1.00
#
freq[Hz];re:Trc1_S11;im:Trc1_S11;re:Trc2_S21;im:Trc2_S21;
2.400000000000000E+009;1.585744470357895E-001;6.293360143899918E-002;-8.980903658084571E-004;-1.063093892298639E-003;
2.400166666666667E+009;1.583011746406555E-001;6.150539219379425E-002;-9.003373561426997E-004;-1.027214922942221E-003;
2.400333333333334E+009;1.582394838333130E-001;5.948984995484352E-002;-9.231347357854247E-004;-8.800511131994426E-004;
2.400500000000000E+009;1.583500504493713E-001;5.759556218981743E-002;-1.047940924763680E-003;-8.554939995519817E-004;
2.400666666666667E+009;1.580556035041809E-001;5.557381361722946E-002;-9.529957897029817E-004;-7.632466149516404E-004;
2.400833333333334E+009;1.581940948963165E-001;5.366399511694908E-002;-1.129007781855762E-003;-8.856027270667255E-004;
2.401000000000000E+009;1.581906676292419E-001;5.160749331116676E-002;-1.061484683305025E-003;-9.319097152911127E-004;
2.401166666666667E+009;1.584862470626831E-001;4.942307621240616E-002;-8.959880215115845E-004;-8.426706190221012E-004;
2.401333333333334E+009;1.584210097789764E-001;4.734550043940544E-002;-8.549345075152814E-004;-7.072327425703406E-004;
2.401500000000000E+009;1.587028056383133E-001;4.527955502271652E-002;-9.972767438739538E-004;-7.111022132448852E-004;
2.401666666666667E+009;1.589489728212357E-001;4.345959052443504E-002;-8.800279465503991E-004;-6.692448514513671E-004;
2.401833333333334E+009;1.593637913465500E-001;4.133453220129013E-002;-7.785386987961829E-004;-6.919339066371322E-004;
2.402000000000000E+009;1.595199406147003E-001;3.924252465367317E-002;-9.206677787005901E-004;-5.644015036523342E-004;
2.402166666666667E+009;1.600601971149445E-001;3.716868907213211E-002;-8.950901101343334E-004;-7.692006183788180E-004;
2.402333333333334E+009;1.606054157018662E-001;3.524987027049065E-002;-7.713905069977045E-004;-6.422529113478959E-004;
2.402500000000000E+009;1.612708270549774E-001;3.331265598535538E-002;-7.124697440303862E-004;-9.093345724977553E-004;
2.402666666666667E+009;1.617708802223206E-001;3.163224086165428E-002;-6.983751081861556E-004;-7.167420117184520E-004;
2.402833333333334E+009;1.626977622509003E-001;3.000970743596554E-002;-6.045308546163142E-004;-8.144562016241252E-004;
2.403000000000000E+009;1.634826809167862E-001;2.808945439755917E-002;-6.016088882461190E-004;-8.410252630710602E-004;
2.403166666666667E+009;1.642246693372726E-001;2.649922668933868E-002;-6.598538020625711E-004;-8.577308617532253E-004;
2.403333333333334E+009;1.650950759649277E-001;2.495488896965981E-002;-6.436752155423164E-004;-7.094261236488819E-004;
2.403500000000000E+009;1.659214496612549E-001;2.351685985922813E-002;-7.170314784161747E-004;-8.263859781436622E-004;
2.403666666666667E+009;1.669082492589951E-001;2.205902896821499E-002;-6.689474103040993E-004;-8.461975376121700E-004;
2.403833333333334E+009;1.679931282997131E-001;2.073730342090130E-002;-7.785661728121340E-004;-9.971592808142304E-004;
2.404000000000000E+009;1.689031273126602E-001;1.959084160625935E-002;-9.129066602326930E-004;-1.113518839702010E-003;
2.404166666666667E+009;1.698085814714432E-001;1.850946061313152E-002;-7.295022369362414E-004;-1.043703523464501E-003;
2.404333333333334E+009;1.708575189113617E-001;1.740854419767857E-002;-8.151629008352757E-004;-1.230697962455452E-003;
2.404500000000000E+009;1.717261373996735E-001;1.612498797476292E-002;-8.512957720085979E-004;-1.238263561390340E-003;
2.404666666666667E+009;1.727295666933060E-001;1.540224719792604E-002;-9.041773737408221E-004;-1.302797696553171E-003;
2.404833333333334E+009;1.734665930271149E-001;1.460067927837372E-002;-1.106946845538914E-003;-1.300594536587596E-003;
2.405000000000000E+009;1.744685471057892E-001;1.366890501230955E-002;-1.099387882277370E-003;-1.244642888195813E-003;
2.405166666666667E+009;1.753558516502380E-001;1.307304482907057E-002;-1.224081614054740E-003;-1.230156165547669E-003;
2.405333333333334E+009;1.762056499719620E-001;1.235124282538891E-002;-1.197214005514979E-003;-1.126498449593782E-003;
2.405500000000000E+009;1.770084500312805E-001;1.187113486230373E-002;-1.420100918039680E-003;-1.232670154422522E-003;
2.405666666666667E+009;1.776753515005112E-001;1.147646177560091E-002;-1.594411674886942E-003;-1.250938861630857E-003;
2.405833333333334E+009;1.781536191701889E-001;1.119933556765318E-002;-1.558414893224835E-003;-1.250224071554840E-003;
2.406000000000000E+009;1.789128482341766E-001;1.060069259256125E-002;-1.734143355861306E-003;-1.207494875416160E-003;
2.406166666666667E+009;1.792992055416107E-001;1.049318630248308E-002;-1.571160741150379E-003;-1.184716238640249E-003;
2.406333333333334E+009;1.798036098480225E-001;1.006537210196257E-002;-1.738755963742733E-003;-1.029064180329442E-003;
2.406500000000000E+009;1.801872402429581E-001;9.736523032188416E-003;-1.853734022006393E-003;-1.069121528416872E-003;
2.406666666666667E+009;1.801239103078842E-001;9.572609327733517E-003;-1.826831256039441E-003;-9.427864570170641E-004;
2.406833333333334E+009;1.806748062372208E-001;8.892948739230633E-003;-2.038897480815649E-003;-9.289872832596302E-004;
2.407000000000000E+009;1.807748079299927E-001;8.811545558273792E-003;-1.980173401534557E-003;-8.106521563604474E-004;
2.407166666666667E+009;1.808439195156097E-001;8.476532995700836E-003;-2.070336835458875E-003;-7.563116960227490E-004;
2.407333333333334E+009;1.807704567909241E-001;8.141732774674892E-003;-2.040961058810353E-003;-6.922293687239289E-004;
2.407500000000000E+009;1.805784404277802E-001;7.730724290013313E-003;-2.128159860149026E-003;-6.379965343512595E-004;
2.407666666666667E+009;1.803627312183380E-001;7.368886843323708E-003;-2.146987244486809E-003;-5.900170071981847E-004;
2.407833333333334E+009;1.800400763750076E-001;6.808539386838675E-003;-2.230646554380655E-003;-4.536139895208180E-004;
2.408000000000000E+009;1.797542273998261E-001;6.167228799313307E-003;-2.263617934659123E-003;-3.290721215307713E-004;
2.408166666666667E+009;1.793403029441834E-001;5.672441795468330E-003;-2.222764538601041E-003;-1.992042089113966E-004;
2.408333333333334E+009;1.791125982999802E-001;4.997163545340300E-003;-2.314954763278365E-003;-2.796358021441847E-004;
2.408500000000000E+009;1.784648448228836E-001;4.308106377720833E-003;-2.266457537189126E-003;-1.625535078346729E-004;
2.408666666666667E+009;1.777990907430649E-001;3.429694101214409E-003;-2.280458807945252E-003;4.991292735212483E-005;
2.408833333333334E+009;1.771683990955353E-001;2.520149108022451E-003;-2.323934342712164E-003;2.897190643125214E-005;
2.409000000000000E+009;1.765545010566711E-001;1.477547804825008E-003;-2.217215253040195E-003;3.952271435991861E-005;
2.409166666666667E+009;1.759006381034851E-001;4.963489482179284E-004;-2.273916965350509E-003;2.177815767936409E-004;
2.409333333333334E+009;1.751971095800400E-001;-6.062785396352410E-004;-2.303157933056355E-003;3.466663765721023E-004;
2.409500000000000E+009;1.743705421686173E-001;-1.955585787072778E-003;-2.320651430636644E-003;3.647943085525185E-004;
2.409666666666667E+009;1.737765669822693E-001;-3.271135501563549E-003;-2.203166950494051E-003;3.803186991717666E-004;
2.409833333333334E+009;1.731073409318924E-001;-4.528421442955732E-003;-2.269586315378547E-003;5.421504029072821E-004;
2.410000000000000E+009;1.724592298269272E-001;-5.937484558671713E-003;-2.119506476446986E-003;4.948801943100989E-004;
2.410166666666667E+009;1.718236654996872E-001;-7.543730083853006E-003;-2.180061535909772E-003;7.053250446915627E-004;
2.410333333333334E+009;1.711988449096680E-001;-9.147528558969498E-003;-2.113227732479572E-003;6.082213367335498E-004;
2.410500000000000E+009;1.705196052789688E-001;-1.076096761971712E-002;-2.116421703249216E-003;6.354573415592313E-004;
2.410666666666667E+009;1.699381619691849E-001;-1.260253693908453E-002;-2.049112925305963E-003;7.107973797246814E-004;
2.410833333333334E+009;1.695035248994827E-001;-1.425948552787304E-002;-2.058041980490089E-003;6.539409514516592E-004;
2.411000000000000E+009;1.692155450582504E-001;-1.608459651470184E-002;-2.183490432798863E-003;7.390867103822529E-004;
2.411166666666667E+009;1.687655895948410E-001;-1.814292930066586E-002;-2.054716227576137E-003;6.576052401214838E-004;
2.411333333333334E+009;1.684015691280365E-001;-1.996341161429882E-002;-1.854915986768901E-003;8.752802386879921E-004;
2.411500000000000E+009;1.682087779045105E-001;-2.204583398997784E-002;-2.073904732242227E-003;9.154480649158359E-004;
2.411666666666667E+009;1.682032942771912E-001;-2.391852252185345E-002;-2.056661061942577E-003;7.066095131449401E-004;
2.411833333333334E+009;1.681874245405197E-001;-2.573569305241108E-002;-1.985244685783982E-003;8.569174096919596E-004;
2.412000000000000E+009;1.680694818496704E-001;-2.784639596939087E-002;-1.953907776623964E-003;1.006665057502687E-003;
2.412166666666667E+009;1.681067943572998E-001;-2.984389476478100E-002;-1.986455870792270E-003;1.004982506856322E-003;
2.412333333333334E+009;1.684220731258392E-001;-3.159001097083092E-002;-2.012945013120771E-003;1.048158272169530E-003;
2.412500000000000E+009;1.684264838695526E-001;-3.354164212942123E-002;-1.989283366128802E-003;1.135549624450505E-003;
2.412666666666667E+009;1.687902659177780E-001;-3.559979796409607E-002;-2.068216679617763E-003;1.167931477539241E-003;
2.412833333333334E+009;1.691916584968567E-001;-3.743724152445793E-002;-2.070897491648793E-003;1.281799515709281E-003;
2.413000000000000E+009;1.693230718374252E-001;-3.924587368965149E-002;-1.983475871384144E-003;1.333023654296994E-003;
2.413166666666667E+009;1.698073446750641E-001;-4.097660258412361E-002;-2.118315314874053E-003;1.484645414166153E-003;
2.413333333333334E+009;1.701441407203674E-001;-4.272629320621491E-002;-1.862660050392151E-003;1.376011176034808E-003;
2.413500000000000E+009;1.706654131412506E-001;-4.442053288221359E-002;-2.082668477669358E-003;1.483177882619202E-003;
2.413666666666667E+009;1.712414175271988E-001;-4.599430784583092E-002;-1.924540149047971E-003;1.544221304357052E-003;
2.413833333333334E+009;1.717498153448105E-001;-4.745260998606682E-002;-1.946422853507102E-003;1.846404513344169E-003;
2.414000000000000E+009;1.722337752580643E-001;-4.894904419779778E-002;-1.775000244379044E-003;1.849268912337720E-003;
2.414166666666667E+009;1.727572530508041E-001;-5.028008669614792E-002;-1.712996978312731E-003;1.832878799177706E-003;
2.414333333333334E+009;1.733797341585159E-001;-5.164857581257820E-002;-1.866182545199990E-003;1.991218188777566E-003;
2.414500000000000E+009;1.741136759519577E-001;-5.281784012913704E-002;-1.736858393996954E-003;2.112071029841900E-003;
2.414666666666667E+009;1.745149940252304E-001;-5.376969650387764E-002;-1.741913263686001E-003;2.167027443647385E-003;
2.414833333333334E+009;1.750740706920624E-001;-5.493742972612381E-002;-1.560395932756364E-003;2.078725025057793E-003;
2.415000000000000E+009;1.754857003688812E-001;-5.575824528932571E-002;-1.569384476169944E-003;2.232573926448822E-003;
2.415166666666667E+009;1.760128587484360E-001;-5.664280802011490E-002;-1.363561255857348E-003;2.427926519885659E-003;
2.415333333333334E+009;1.765199154615402E-001;-5.738691240549088E-002;-1.369337202049792E-003;2.359844511374831E-003;
2.415500000000000E+009;1.767073571681976E-001;-5.800206214189529E-002;-1.385284354910255E-003;2.286928473040462E-003;
2.415666666666667E+009;1.769648939371109E-001;-5.865586176514626E-002;-1.374717336148024E-003;2.363496925681830E-003;
2.415833333333334E+009;1.773416101932526E-001;-5.910514667630196E-002;-1.138823572546244E-003;2.645177533850074E-003;
2.416000000000000E+009;1.771815866231918E-001;-5.959473550319672E-002;-1.085138763301075E-003;2.437020884826779E-003;
2.416166666666667E+009;1.775185167789459E-001;-6.012436375021935E-002;-1.015889458358288E-003;2.801467897370458E-003;
2.416333333333334E+009;1.775159984827042E-001;-6.029183045029640E-002;-9.565280633978546E-004;2.800232497975230E-003;
2.416500000000000E+009;1.773990839719772E-001;-6.063107773661614E-002;-9.070559171959758E-004;2.422001678496599E-003;
2.416666666666667E+009;1.772130280733109E-001;-6.084648892283440E-002;-7.750258082523942E-004;2.914223587140441E-003;
2.416833333333334E+009;1.770926713943481E-001;-6.124328076839447E-002;-6.416395772248507E-004;2.874833066016436E-003;
2.417000000000000E+009;1.766117662191391E-001;-6.146553531289101E-002;-5.440940149128437E-004;2.885197987779975E-003;
2.417166666666667E+009;1.762792319059372E-001;-6.158545985817909E-002;-4.374435229692608E-004;2.929822774603963E-003;
2.417333333333334E+009;1.758236438035965E-001;-6.181512773036957E-002;-4.298561834730208E-004;2.828514203429222E-003;
2.417500000000000E+009;1.750921308994293E-001;-6.219668313860893E-002;-3.572026907932013E-004;2.756339730694890E-003;
2.417666666666667E+009;1.746619790792465E-001;-6.225470826029778E-002;-2.176763809984550E-004;2.907507121562958E-003;
2.417833333333334E+009;1.737601757049561E-001;-6.255395710468292E-002;-5.757387771154754E-005;2.948527224361897E-003;
2.418000000000000E+009;1.728138923645020E-001;-6.287765502929688E-002;-3.540955367498100E-005;3.079439979046583E-003;
2.418166666666667E+009;1.720763146877289E-001;-6.311322003602982E-002;7.243133586598560E-005;3.061427501961589E-003;
2.418333333333334E+009;1.713261306285858E-001;-6.345783174037933E-002;2.558059350121766E-004;2.969691064208746E-003;
2.418500000000000E+009;1.701335757970810E-001;-6.395407021045685E-002;2.842063840944320E-004;3.058462170884013E-003;
2.418666666666667E+009;1.691800653934479E-001;-6.433284282684326E-002;3.932850377168506E-004;2.966873813420534E-003;
2.418833333333334E+009;1.678282767534256E-001;-6.478229165077210E-002;4.524291143752635E-004;2.801216905936599E-003;
2.419000000000000E+009;1.666696369647980E-001;-6.540312618017197E-002;5.385281401686370E-004;2.893081866204739E-003;
2.419166666666667E+009;1.655934303998947E-001;-6.608688831329346E-002;5.258713499642909E-004;2.981391502544284E-003;
2.419333333333334E+009;1.642697602510452E-001;-6.656087189912796E-002;7.606246508657932E-004;2.860260428860784E-003;
2.419500000000000E+009;1.632835865020752E-001;-6.750648468732834E-002;8.477763622067869E-004;2.817507600411773E-003;
2.419666666666667E+009;1.621144264936447E-001;-6.842816621065140E-002;9.680710500106216E-004;2.637506462633610E-003;
2.419833333333334E+009;1.607505977153778E-001;-6.932990998029709E-002;8.963494910858572E-004;2.724091522395611E-003;
2.420000000000000E+009;1.596941500902176E-001;-7.028529793024063E-002;1.181265339255333E-003;2.750057028606534E-003;
2.420166666666667E+009;1.585931181907654E-001;-7.132536917924881E-002;1.257042749784887E-003;2.728022402152419E-003;
2.420333333333334E+009;1.575522571802139E-001;-7.243962585926056E-002;1.325554796494544E-003;2.603087108582258E-003;
2.420500000000000E+009;1.565211713314056E-001;-7.364065200090408E-002;1.334443222731352E-003;2.573215402662754E-003;
2.420666666666667E+009;1.554837971925736E-001;-7.493960857391357E-002;1.393890473991633E-003;2.473680535331368E-003;
2.420833333333334E+009;1.546028703451157E-001;-7.630896568298340E-002;1.503197941929102E-003;2.479820745065808E-003;
2.421000000000000E+009;1.536001414060593E-001;-7.776946574449539E-002;1.393429702147842E-003;2.411784837022424E-003;
2.421166666666667E+009;1.529570072889328E-001;-7.932173460721970E-002;1.502546016126871E-003;2.397876931354404E-003;
2.421333333333334E+009;1.520625650882721E-001;-8.074202388525009E-002;1.566831953823566E-003;2.154716756194830E-003;
2.421500000000000E+009;1.514449864625931E-001;-8.249580860137940E-002;1.767599023878574E-003;2.248165896162391E-003;
2.421666666666667E+009;1.509194523096085E-001;-8.406036347150803E-002;1.796434866264463E-003;2.201323630288243E-003;
2.421833333333334E+009;1.503836065530777E-001;-8.555659651756287E-002;1.908839680254459E-003;2.069357782602310E-003;
2.422000000000000E+009;1.500159800052643E-001;-8.749879896640778E-002;1.751416362822056E-003;2.176932292059064E-003;
2.422166666666667E+009;1.496451348066330E-001;-8.921383321285248E-002;1.751456991769373E-003;1.968367956578732E-003;
2.422333333333334E+009;1.494463533163071E-001;-9.074249118566513E-002;1.825431361794472E-003;2.096011536195874E-003;
2.422500000000000E+009;1.493061631917954E-001;-9.235976636409760E-002;2.148644300177693E-003;1.881217234767973E-003;
2.422666666666667E+009;1.491205543279648E-001;-9.415840357542038E-002;2.150730928406119E-003;1.803104649297893E-003;
2.422833333333334E+009;1.491515189409256E-001;-9.591773152351379E-002;1.990770222619176E-003;1.870601787231863E-003;
2.423000000000000E+009;1.492908447980881E-001;-9.756430983543396E-002;2.072752919048071E-003;1.673195394687355E-003;
2.423166666666667E+009;1.495181173086166E-001;-9.910188615322113E-002;2.180335577577353E-003;1.787050045095384E-003;
2.423333333333334E+009;1.497548818588257E-001;-1.007188558578491E-001;2.144783968105912E-003;1.755875884555280E-003;
2.423500000000000E+009;1.500881314277649E-001;-1.022599861025810E-001;2.309392672032118E-003;1.796316239051521E-003;
2.423666666666667E+009;1.502327471971512E-001;-1.039293408393860E-001;2.260810695588589E-003;1.739495317451656E-003;
2.423833333333334E+009;1.507108509540558E-001;-1.053759977221489E-001;2.251042984426022E-003;1.611734274774790E-003;
2.424000000000000E+009;1.510653197765350E-001;-1.067000254988670E-001;2.401968697085977E-003;1.593317720107734E-003;
2.424166666666667E+009;1.514359712600708E-001;-1.079555898904800E-001;2.674921648576856E-003;1.424506306648254E-003;
2.424333333333334E+009;1.521328389644623E-001;-1.090970113873482E-001;2.721071708947420E-003;1.435519778169692E-003;
2.424500000000000E+009;1.525772660970688E-001;-1.104783713817596E-001;2.657264703884721E-003;1.433507655747235E-003;
2.424666666666667E+009;1.531352251768112E-001;-1.113916933536530E-001;2.864651614800096E-003;1.332232728600502E-003;
2.424833333333334E+009;1.534177362918854E-001;-1.124036684632301E-001;2.690135035663843E-003;1.161692664027214E-003;
2.425000000000000E+009;1.540262997150421E-001;-1.134232506155968E-001;2.842005109414458E-003;1.077647320926189E-003;
2.425166666666667E+009;1.542526483535767E-001;-1.142777204513550E-001;2.930579008534551E-003;9.530807146802545E-004;
2.425333333333334E+009;1.547932624816895E-001;-1.149677038192749E-001;2.911259420216084E-003;7.531897863373160E-004;
2.425500000000000E+009;1.552268713712692E-001;-1.158063858747482E-001;2.958611119538546E-003;6.953487754799426E-004;
2.425666666666667E+009;1.553971618413925E-001;-1.164557486772537E-001;2.983437618240714E-003;5.993460072204471E-004;
2.425833333333334E+009;1.557427942752838E-001;-1.169549673795700E-001;2.871353877708316E-003;4.138676449656487E-004;
2.426000000000000E+009;1.560540497303009E-001;-1.175646707415581E-001;3.162611043080688E-003;2.302651555510238E-004;
2.426166666666667E+009;1.562938988208771E-001;-1.179267615079880E-001;3.053012536838651E-003;1.946254487847909E-004;
2.426333333333334E+009;1.562990695238113E-001;-1.182827055454254E-001;3.002455225214362E-003;1.355039275949821E-004;
2.426500000000000E+009;1.563643813133240E-001;-1.185545325279236E-001;3.071497194468975E-003;-5.682514893123880E-005;
2.426666666666667E+009;1.563659310340881E-001;-1.185760423541069E-001;2.882830798625946E-003;-1.242740254383534E-004;
2.426833333333334E+009;1.562217473983765E-001;-1.188991442322731E-001;3.068327438086271E-003;-1.987623254535720E-004;
2.427000000000000E+009;1.558900028467178E-001;-1.192011535167694E-001;3.040911164134741E-003;-3.234223404433578E-004;
2.427166666666667E+009;1.555718034505844E-001;-1.190117448568344E-001;3.010497428476811E-003;-4.107998975086957E-004;
2.427333333333334E+009;1.551208645105362E-001;-1.192136704921722E-001;2.948821289464831E-003;-5.193505203351378E-004;
2.427500000000000E+009;1.547704935073853E-001;-1.193017959594727E-001;2.870564116165042E-003;-5.621500895358622E-004;
2.427666666666667E+009;1.539849936962128E-001;-1.195605322718620E-001;2.819288754835725E-003;-4.894761950708926E-004;
