# Version 1.00
#
freq[Hz];re:Trc1_S11;im:Trc1_S11;re:Trc2_S21;im:Trc2_S21;
2.400000000000000E+009;1.585963815450668E-001;6.322052329778671E-002;-9.530080133117735E-004;-9.239615174010396E-004;
2.400166666666667E+009;1.584589332342148E-001;6.144678592681885E-002;-1.150039490312338E-003;-1.031365478411317E-003;
2.400333333333334E+009;1.581895798444748E-001;5.951716005802155E-002;-1.002690871246159E-003;-8.773275185376406E-004;
2.400500000000000E+009;1.582231372594833E-001;5.766993388533592E-002;-1.048649195581675E-003;-9.107559453696013E-004;
2.400666666666667E+009;1.580760627985001E-001;5.562574788928032E-002;-1.180126797407866E-003;-1.027294667437673E-003;
2.400833333333334E+009;1.582230627536774E-001;5.373920500278473E-002;-1.082501024939120E-003;-8.472095942124724E-004;
2.401000000000000E+009;1.580913215875626E-001;5.163381621241570E-002;-1.044260454364121E-003;-9.356963564641774E-004;
2.401166666666667E+009;1.582567691802979E-001;4.968367516994476E-002;-1.082079368643463E-003;-7.988756406120956E-004;
2.401333333333334E+009;1.584675759077072E-001;4.744012281298637E-002;-9.813311044126749E-004;-6.417146651074290E-004;
2.401500000000000E+009;1.586988717317581E-001;4.538043215870857E-002;-1.078451983630657E-003;-6.301021785475314E-004;
2.401666666666667E+009;1.589890867471695E-001;4.349209740757942E-002;-9.218573686666787E-004;-7.956332992762327E-004;
2.401833333333334E+009;1.593006402254105E-001;4.137885570526123E-002;-9.842587169259787E-004;-6.465198239311576E-004;
2.402000000000000E+009;1.595224738121033E-001;3.934248909354210E-002;-1.025262055918574E-003;-5.417529027909041E-004;
2.402166666666667E+009;1.601631194353104E-001;3.719313070178032E-002;-1.024641678668559E-003;-5.626323982141912E-004;
2.402333333333334E+009;1.605941802263260E-001;3.558148443698883E-002;-9.319756645709276E-004;-5.041796830482781E-004;
2.402500000000000E+009;1.614751815795898E-001;3.351997956633568E-002;-7.564399274997413E-004;-5.619221483357251E-004;
2.402666666666667E+009;1.619603186845779E-001;3.164534270763397E-002;-7.516352925449610E-004;-7.260782294906676E-004;
2.402833333333334E+009;1.626657843589783E-001;2.997959405183792E-002;-7.010016706772149E-004;-6.253709434531629E-004;
2.403000000000000E+009;1.634991616010666E-001;2.816013805568218E-002;-6.941853207536042E-004;-7.117160130292177E-004;
2.403166666666667E+009;1.643246710300446E-001;2.660362981259823E-002;-8.405725238844752E-004;-8.310450939461589E-004;
2.403333333333334E+009;1.653972268104553E-001;2.503697201609612E-002;-6.553842104040086E-004;-8.453346672467887E-004;
2.403500000000000E+009;1.660080999135971E-001;2.356216125190258E-002;-7.140039233490825E-004;-9.074066183529794E-004;
2.403666666666667E+009;1.669964939355850E-001;2.209183201193810E-002;-6.658728234469891E-004;-8.445950224995613E-004;
2.403833333333334E+009;1.680800914764404E-001;2.082212083041668E-002;-5.630542873404920E-004;-9.294049814343453E-004;
2.404000000000000E+009;1.689251661300659E-001;1.963073201477528E-002;-8.139616693370044E-004;-9.087275248020887E-004;
2.404166666666667E+009;1.698715984821320E-001;1.847518235445023E-002;-8.921278640627861E-004;-1.026226091198623E-003;
2.404333333333334E+009;1.708324551582336E-001;1.725238747894764E-002;-9.272125898860395E-004;-1.079229987226427E-003;
2.404500000000000E+009;1.717955619096756E-001;1.614246703684330E-002;-8.777091861702502E-004;-1.249094842933118E-003;
2.404666666666667E+009;1.727625429630280E-001;1.541887968778610E-002;-1.051977509632707E-003;-1.181361032649875E-003;
2.404833333333334E+009;1.736288368701935E-001;1.440661214292049E-002;-1.033395645208657E-003;-1.213546027429402E-003;
2.405000000000000E+009;1.745502799749374E-001;1.386767067015171E-002;-1.025336445309222E-003;-1.192377065308392E-003;
2.405166666666667E+009;1.752890795469284E-001;1.303307339549065E-002;-1.117086969316006E-003;-1.210164395160973E-003;
2.405333333333334E+009;1.763509809970856E-001;1.242943387478590E-002;-1.252637361176312E-003;-1.216265955008566E-003;
2.405500000000000E+009;1.770045310258865E-001;1.190691906958818E-002;-1.207657740451396E-003;-1.146888826042414E-003;
2.405666666666667E+009;1.778325587511063E-001;1.159533765166998E-002;-1.540021854452789E-003;-1.181983971036971E-003;
2.405833333333334E+009;1.782726049423218E-001;1.133233495056629E-002;-1.525243511423469E-003;-1.097782631404698E-003;
2.406000000000000E+009;1.789444833993912E-001;1.053829304873943E-002;-1.740691368468106E-003;-1.293951645493507E-003;
2.406166666666667E+009;1.793335527181625E-001;1.034786738455296E-002;-1.623201067559421E-003;-1.194976270198822E-003;
2.406333333333334E+009;1.799172461032867E-001;1.006843429058790E-002;-1.698794541880488E-003;-1.037377514876425E-003;
2.406500000000000E+009;1.801311522722244E-001;9.687063284218311E-003;-1.838190015405417E-003;-1.003490760922432E-003;
2.406666666666667E+009;1.804003566503525E-001;9.498274885118008E-003;-1.972640631720424E-003;-9.306130232289434E-004;
2.406833333333334E+009;1.807725876569748E-001;9.078497998416424E-003;-1.966720214113593E-003;-9.808812756091356E-004;
2.407000000000000E+009;1.807247102260590E-001;8.763867430388928E-003;-2.106566214933991E-003;-9.291489841416478E-004;
2.407166666666667E+009;1.808804571628571E-001;8.603873662650585E-003;-2.132369903847575E-003;-7.481375942006707E-004;
2.407333333333334E+009;1.807083487510681E-001;8.082924410700798E-003;-2.142190234735608E-003;-6.118191522546113E-004;
2.407500000000000E+009;1.806672364473343E-001;7.785928435623646E-003;-2.253396669402719E-003;-5.555059178732336E-004;
2.407666666666667E+009;1.805193871259689E-001;7.485577370971441E-003;-2.283482579514384E-003;-4.611222830135375E-004;
2.407833333333334E+009;1.800622791051865E-001;6.821502465754747E-003;-2.349747112020850E-003;-5.052966298535466E-004;
2.408000000000000E+009;1.797208636999130E-001;6.224971730262041E-003;-2.234937157481909E-003;-4.005382943432778E-004;
2.408166666666667E+009;1.793498247861862E-001;5.755913443863392E-003;-2.303853398188949E-003;-2.917390374932438E-004;
2.408333333333334E+009;1.790799945592880E-001;5.033391993492842E-003;-2.329066395759583E-003;-2.113127557095140E-004;
2.408500000000000E+009;1.785101890563965E-001;4.159039352089167E-003;-2.365051070228219E-003;-3.033256871276535E-005;
2.408666666666667E+009;1.779906749725342E-001;3.398450789973140E-003;-2.296474529430270E-003;-3.454409306868911E-005;
2.408833333333334E+009;1.771629750728607E-001;2.327375346794725E-003;-2.378468168899417E-003;-4.216083107166924E-005;
2.409000000000000E+009;1.765138506889343E-001;1.622600364498794E-003;-2.309608273208141E-003;2.794120227918029E-004;
2.409166666666667E+009;1.758699268102646E-001;4.875258309766650E-004;-2.230859594419599E-003;2.311032585566863E-004;
2.409333333333334E+009;1.753440648317337E-001;-7.003896753303707E-004;-2.211479237303138E-003;2.890507748816162E-004;
2.409500000000000E+009;1.745623946189880E-001;-2.291965996846557E-003;-2.333749551326037E-003;3.386459720786661E-004;
2.409666666666667E+009;1.737716346979141E-001;-3.281011246144772E-003;-2.133615314960480E-003;4.155547358095646E-004;
2.409833333333334E+009;1.730208098888397E-001;-4.598128143697977E-003;-2.235842170193791E-003;4.529134021140635E-004;
2.410000000000000E+009;1.723923534154892E-001;-6.046641152352095E-003;-2.143962541595101E-003;5.563646554946899E-004;
2.410166666666667E+009;1.718542128801346E-001;-7.788423914462328E-003;-2.111525274813175E-003;5.456723156385124E-004;
2.410333333333334E+009;1.712202131748200E-001;-9.202044457197189E-003;-2.070886315777898E-003;6.856367108412087E-004;
2.410500000000000E+009;1.705007255077362E-001;-1.084044948220253E-002;-2.021668013185263E-003;7.176783401519060E-004;
2.410666666666667E+009;1.700572669506073E-001;-1.284326519817114E-002;-1.928535173647106E-003;7.001968333497644E-004;
2.410833333333334E+009;1.697422862052918E-001;-1.439709030091763E-002;-1.957961823791266E-003;7.728025084361434E-004;
2.411000000000000E+009;1.691934317350388E-001;-1.615258865058422E-002;-2.013333840295672E-003;7.830985705368221E-004;
2.411166666666667E+009;1.687411665916443E-001;-1.809861138463020E-002;-2.062421059235930E-003;9.073800756596029E-004;
2.411333333333334E+009;1.684746146202087E-001;-2.000607177615166E-002;-2.118536038324237E-003;8.408087887801230E-004;
2.411500000000000E+009;1.682034134864807E-001;-2.210391685366631E-002;-2.050539711490274E-003;9.074267582036555E-004;
2.411666666666667E+009;1.683134138584137E-001;-2.392735518515110E-002;-1.900541014038026E-003;9.032614761963487E-004;
2.411833333333334E+009;1.681496351957321E-001;-2.574471943080425E-002;-2.040823223069310E-003;1.059321686625481E-003;
2.412000000000000E+009;1.681407541036606E-001;-2.778318710625172E-002;-2.062605693936348E-003;9.843640727922320E-004;
2.412166666666667E+009;1.681200414896011E-001;-2.989269234240055E-002;-2.044004388153553E-003;1.049630227498710E-003;
2.412333333333334E+009;1.685376316308975E-001;-3.156738728284836E-002;-1.983223250135779E-003;1.186364446766675E-003;
2.412500000000000E+009;1.683568209409714E-001;-3.356821462512016E-002;-2.087836852297187E-003;1.299013616517186E-003;
2.412666666666667E+009;1.689593791961670E-001;-3.558476269245148E-002;-1.847191248089075E-003;1.251650974154472E-003;
2.412833333333334E+009;1.692468672990799E-001;-3.758950158953667E-002;-2.022454049438238E-003;1.301921671256423E-003;
2.413000000000000E+009;1.695032417774200E-001;-3.920788690447807E-002;-1.881462871097028E-003;1.482283347286284E-003;
2.413166666666667E+009;1.698179394006729E-001;-4.105221480131149E-002;-1.990907592698932E-003;1.514263101853430E-003;
2.413333333333334E+009;1.702176928520203E-001;-4.264916107058525E-002;-2.052841242402792E-003;1.668265089392662E-003;
2.413500000000000E+009;1.708533465862274E-001;-4.431845992803574E-002;-1.896869391202927E-003;1.699727261438966E-003;
2.413666666666667E+009;1.715799719095230E-001;-4.608402773737907E-002;-1.783546293154359E-003;1.622296404093504E-003;
2.413833333333334E+009;1.719624698162079E-001;-4.763124510645866E-002;-1.813842914998531E-003;1.719551743008196E-003;
2.414000000000000E+009;1.722262352705002E-001;-4.902494698762894E-002;-1.755114062689245E-003;1.893916516564786E-003;
2.414166666666667E+009;1.730775833129883E-001;-5.035661533474922E-002;-1.653344370424748E-003;1.836348441429436E-003;
2.414333333333334E+009;1.733766198158264E-001;-5.174376815557480E-002;-1.600668183527887E-003;1.991174882277846E-003;
2.414500000000000E+009;1.741836667060852E-001;-5.284424871206284E-002;-1.733144861645997E-003;2.041159197688103E-003;
2.414666666666667E+009;1.744539290666580E-001;-5.394066870212555E-002;-1.446291455067694E-003;2.124678576365113E-003;
2.414833333333334E+009;1.750207543373108E-001;-5.482733249664307E-002;-1.459790742956102E-003;2.183282049372792E-003;
2.415000000000000E+009;1.755023747682571E-001;-5.585701763629913E-002;-1.517872558906674E-003;2.181561198085547E-003;
2.415166666666667E+009;1.759643405675888E-001;-5.676349624991417E-002;-1.365117379464209E-003;2.175464760512114E-003;
2.415333333333334E+009;1.763915568590164E-001;-5.762543901801109E-002;-1.386299147270620E-003;2.350805094465613E-003;
2.415500000000000E+009;1.766525506973267E-001;-5.812105163931847E-002;-1.196719589643180E-003;2.369039459154010E-003;
2.415666666666667E+009;1.768759787082672E-001;-5.860561132431030E-002;-1.196631696075201E-003;2.376766176894307E-003;
2.415833333333334E+009;1.772726178169251E-001;-5.919367447495461E-002;-1.302936114370823E-003;2.368930261582136E-003;
2.416000000000000E+009;1.772138774394989E-001;-5.970144271850586E-002;-1.179388491436839E-003;2.647324698045850E-003;
2.416166666666667E+009;1.775597333908081E-001;-6.010273844003677E-002;-1.101871021091938E-003;2.456398447975516E-003;
2.416333333333334E+009;1.774725914001465E-001;-6.039930880069733E-002;-9.287075954489410E-004;2.643873216584325E-003;
2.416500000000000E+009;1.774356663227081E-001;-6.071519479155541E-002;-7.551694870926440E-004;2.608671784400940E-003;
2.416666666666667E+009;1.771097332239151E-001;-6.090578809380531E-002;-8.508534519933164E-004;2.809620928019285E-003;
2.416833333333334E+009;1.771649271249771E-001;-6.131589040160179E-002;-5.576369003392756E-004;2.892858814448118E-003;
2.417000000000000E+009;1.765994578599930E-001;-6.150199845433235E-002;-6.786633166484535E-004;2.812787424772978E-003;
2.417166666666667E+009;1.761878579854965E-001;-6.158472225070000E-002;-5.001098033972085E-004;3.036085749045014E-003;
2.417333333333334E+009;1.758231222629547E-001;-6.177128478884697E-002;-4.530553705990315E-004;2.979677170515060E-003;
2.417500000000000E+009;1.752470731735230E-001;-6.217804551124573E-002;-2.673092240002006E-004;2.973570022732019E-003;
2.417666666666667E+009;1.745958030223846E-001;-6.233333423733711E-002;-8.302487549372017E-005;3.048121463507414E-003;
2.417833333333334E+009;1.738307923078537E-001;-6.244332715868950E-002;-7.929340790724382E-005;3.049969905987382E-003;
2.418000000000000E+009;1.729552596807480E-001;-6.290291994810104E-002;-6.438064883695915E-005;3.061546245589852E-003;
2.418166666666667E+009;1.719215512275696E-001;-6.288712471723557E-002;2.060112601611763E-004;2.936657750979066E-003;
2.418333333333334E+009;1.712862849235535E-001;-6.344948709011078E-002;2.770575520116836E-004;2.955913078039885E-003;
2.418500000000000E+009;1.701298952102661E-001;-6.390227377414703E-002;3.692851169034839E-004;3.058750182390213E-003;
2.418666666666667E+009;1.692151874303818E-001;-6.436382234096527E-002;4.067993431817740E-004;2.949078567326069E-003;
2.418833333333334E+009;1.678834259510040E-001;-6.491538137197495E-002;4.942181403748691E-004;3.025225363671780E-003;
2.419000000000000E+009;1.666399538516998E-001;-6.530425697565079E-002;6.910726660862565E-004;2.784490119665861E-003;
2.419166666666667E+009;1.655966490507126E-001;-6.606081128120422E-002;7.618545787408948E-004;2.834510523825884E-003;
2.419333333333334E+009;1.642908453941345E-001;-6.661242246627808E-002;8.159049903042615E-004;2.888061804696918E-003;
2.419500000000000E+009;1.632347851991653E-001;-6.750521063804627E-002;8.742929203435779E-004;2.851601224392653E-003;
2.419666666666667E+009;1.621201038360596E-001;-6.835589557886124E-002;8.939782273955643E-004;2.932101255282760E-003;
2.419833333333334E+009;1.608779132366180E-001;-6.919062137603760E-002;1.040201517753303E-003;2.577685052528977E-003;
2.420000000000000E+009;1.597248315811157E-001;-7.026899605989456E-002;1.139863394200802E-003;2.664825646206737E-003;
2.420166666666667E+009;1.585630178451538E-001;-7.126364111900330E-002;1.191591378301382E-003;2.682898659259081E-003;
2.420333333333334E+009;1.575043052434921E-001;-7.253123074769974E-002;1.332991407252848E-003;2.722248667851090E-003;
2.420500000000000E+009;1.565457135438919E-001;-7.362066209316254E-002;1.452792319469154E-003;2.694143913686276E-003;
2.420666666666667E+009;1.554264426231384E-001;-7.490395009517670E-002;1.372063648886979E-003;2.531996928155422E-003;
2.420833333333334E+009;1.545648872852325E-001;-7.631337642669678E-002;1.531271263957024E-003;2.391393296420574E-003;
2.421000000000000E+009;1.534968316555023E-001;-7.793438434600830E-002;1.500029582530260E-003;2.421501791104674E-003;
2.421166666666667E+009;1.527817845344544E-001;-7.919315993785858E-002;1.548126107081771E-003;2.397512318566442E-003;
2.421333333333334E+009;1.521043926477432E-001;-8.095117658376694E-002;1.584903453476727E-003;2.202723175287247E-003;
2.421500000000000E+009;1.515233516693115E-001;-8.241076767444611E-002;1.812691567465663E-003;2.202851930633187E-003;
2.421666666666667E+009;1.510086953639984E-001;-8.404503017663956E-002;1.739179366268218E-003;2.090959344059229E-003;
2.421833333333334E+009;1.503823101520538E-001;-8.560004085302353E-002;1.788615598343313E-003;2.067402470856905E-003;
2.422000000000000E+009;1.500816196203232E-001;-8.720085024833679E-002;1.867254497483373E-003;1.909246086142957E-003;
2.422166666666667E+009;1.496669650077820E-001;-8.911467343568802E-002;1.982107758522034E-003;1.969138626009226E-003;
2.422333333333334E+009;1.494830250740051E-001;-9.073186665773392E-002;1.861280179582536E-003;2.058991463854909E-003;
2.422500000000000E+009;1.493409574031830E-001;-9.234683215618134E-002;2.061092760413885E-003;1.969717908650637E-003;
2.422666666666667E+009;1.490066945552826E-001;-9.421370923519135E-002;2.075240248814225E-003;1.897259266115725E-003;
2.422833333333334E+009;1.492948979139328E-001;-9.589967876672745E-002;2.037994330748916E-003;1.828376320190728E-003;
2.423000000000000E+009;1.492178738117218E-001;-9.759345650672913E-002;2.185853431001306E-003;1.848921994678676E-003;
2.423166666666667E+009;1.495891958475113E-001;-9.922871738672257E-002;2.138877287507057E-003;1.702979439869523E-003;
2.423333333333334E+009;1.497780978679657E-001;-1.005627959966660E-001;2.170097082853317E-003;1.779240672476590E-003;
2.423500000000000E+009;1.500905603170395E-001;-1.024044081568718E-001;2.228648634627461E-003;1.811402617022395E-003;
2.423666666666667E+009;1.503273248672485E-001;-1.037953421473503E-001;2.321962965652347E-003;1.707118935883045E-003;
2.423833333333334E+009;1.507939696311951E-001;-1.052174419164658E-001;2.397680189460516E-003;1.432662713341415E-003;
2.424000000000000E+009;1.510520279407501E-001;-1.065836325287819E-001;2.581740962341428E-003;1.294972491450608E-003;
2.424166666666667E+009;1.516276150941849E-001;-1.079713106155396E-001;2.526958938688040E-003;1.357104512862861E-003;
2.424333333333334E+009;1.520320326089859E-001;-1.090235635638237E-001;2.641518367454410E-003;1.354359555989504E-003;
2.424500000000000E+009;1.525001227855682E-001;-1.104254201054573E-001;2.685317071154714E-003;1.287136692553759E-003;
2.424666666666667E+009;1.530513912439346E-001;-1.113503277301788E-001;2.630611415952444E-003;1.200097030960023E-003;
2.424833333333334E+009;1.534612178802490E-001;-1.124346554279327E-001;2.878456609323621E-003;1.147685339674354E-003;
2.425000000000000E+009;1.540035903453827E-001;-1.134338378906250E-001;2.902998356148601E-003;1.067289384081960E-003;
2.425166666666667E+009;1.542044132947922E-001;-1.142555326223373E-001;2.955099334940314E-003;9.004317107610405E-004;
2.425333333333334E+009;1.548070460557938E-001;-1.150578707456589E-001;2.983971731737256E-003;7.025177474133670E-004;
2.425500000000000E+009;1.551398038864136E-001;-1.157437264919281E-001;3.048563376069069E-003;7.499540224671364E-004;
2.425666666666667E+009;1.555798202753067E-001;-1.163168326020241E-001;3.041496267542243E-003;4.996807547286153E-004;
2.425833333333334E+009;1.557606458663940E-001;-1.169532090425491E-001;3.083103336393833E-003;4.797669535037130E-004;
2.426000000000000E+009;1.558885425329208E-001;-1.173858121037483E-001;3.059413051232696E-003;2.484057913534343E-004;
2.426166666666667E+009;1.562850028276444E-001;-1.178289204835892E-001;2.992523368448019E-003;1.942733651958406E-004;
2.426333333333334E+009;1.562096327543259E-001;-1.181386411190033E-001;2.990439534187317E-003;2.565961949585471E-005;
2.426500000000000E+009;1.563790738582611E-001;-1.184581816196442E-001;2.895514015108347E-003;-2.398849392193370E-005;
2.426666666666667E+009;1.564967930316925E-001;-1.185690239071846E-001;3.084390657022595E-003;-7.036942406557500E-005;
2.426833333333334E+009;1.561016887426376E-001;-1.188559457659721E-001;2.977218944579363E-003;-2.252287085866556E-004;
2.427000000000000E+009;1.559675633907318E-001;-1.190099641680718E-001;3.068181453272700E-003;-3.925207129213959E-004;
2.427166666666667E+009;1.555208414793015E-001;-1.190499961376190E-001;2.913808915764093E-003;-4.832310951314867E-004;
2.427333333333334E+009;1.550780832767487E-001;-1.191141754388809E-001;2.837350592017174E-003;-4.246057360433042E-004;
2.427500000000000E+009;1.546408087015152E-001;-1.193521097302437E-001;2.895428100600839E-003;-5.893789348192513E-004;
2.427666666666667E+009;1.540188193321228E-001;-1.195667982101440E-001;2.745310543105006E-003;-7.123416289687157E-004;
