# Version 1.00
#
freq[Hz];re:Trc1_S11;im:Trc1_S11;re:Trc2_S21;im:Trc2_S21;
2.400000000000000E+009;1.585194021463394E-001;6.305378675460815E-002;-9.908038191497326E-004;-1.088931225240231E-003;
2.400166666666667E+009;1.584709435701370E-001;6.139034032821655E-002;-1.042258460074663E-003;-1.062761875800788E-003;
2.400333333333334E+009;1.581816524267197E-001;5.954088643193245E-002;-9.639589698053896E-004;-8.716995944269002E-004;
2.400500000000000E+009;1.582071930170059E-001;5.757758766412735E-002;-9.988392703235149E-004;-9.010037756524980E-004;
2.400666666666667E+009;1.580139547586441E-001;5.555810779333115E-002;-9.386013261973858E-004;-9.245704859495163E-004;
2.400833333333334E+009;1.579851955175400E-001;5.362253636121750E-002;-1.113815233111382E-003;-8.079974213615060E-004;
2.401000000000000E+009;1.580219417810440E-001;5.148182809352875E-002;-9.973042178899050E-004;-8.540836861357093E-004;
2.401166666666667E+009;1.583138704299927E-001;4.945670440793037E-002;-1.079586218111217E-003;-7.390672690235078E-004;
2.401333333333334E+009;1.582971960306168E-001;4.723263159394264E-002;-9.464537142775953E-004;-8.504982106387615E-004;
2.401500000000000E+009;1.585202217102051E-001;4.533397406339645E-002;-8.895421633496881E-004;-7.010406116023660E-004;
2.401666666666667E+009;1.589577943086624E-001;4.332382231950760E-002;-9.787431918084621E-004;-7.949063437990844E-004;
2.401833333333334E+009;1.592058390378952E-001;4.122195765376091E-002;-9.453605161979795E-004;-8.046740549616516E-004;
2.402000000000000E+009;1.594736725091934E-001;3.924143314361572E-002;-8.849136647768319E-004;-8.074073120951653E-004;
2.402166666666667E+009;1.600762307643890E-001;3.702590614557266E-002;-7.775590638630092E-004;-5.470057949423790E-004;
2.402333333333334E+009;1.605042815208435E-001;3.506506979465485E-002;-7.751486846245825E-004;-7.388321682810783E-004;
2.402500000000000E+009;1.614372283220291E-001;3.329965844750404E-002;-7.059471099637449E-004;-6.438377895392478E-004;
2.402666666666667E+009;1.618535965681076E-001;3.146641328930855E-002;-6.664766115136445E-004;-8.475270587950945E-004;
2.402833333333334E+009;1.626926213502884E-001;2.985505759716034E-002;-7.727910997346044E-004;-7.191526237875223E-004;
2.403000000000000E+009;1.633762866258621E-001;2.821689657866955E-002;-6.452581728808582E-004;-8.285584044642746E-004;
2.403166666666667E+009;1.642517447471619E-001;2.651089616119862E-002;-7.129213772714138E-004;-7.733991951681674E-004;
2.403333333333334E+009;1.650388240814209E-001;2.487523481249809E-002;-7.587416330352426E-004;-8.861670503392816E-004;
2.403500000000000E+009;1.658795922994614E-001;2.343562431633472E-002;-7.407289231196046E-004;-9.576171869412065E-004;
2.403666666666667E+009;1.669625639915466E-001;2.216577157378197E-002;-6.947309011593461E-004;-8.872757898643613E-004;
2.403833333333334E+009;1.679670661687851E-001;2.074517682194710E-002;-7.920356583781540E-004;-1.054935739375651E-003;
2.404000000000000E+009;1.687580794095993E-001;1.943722181022167E-002;-8.163981838151813E-004;-1.034517190419138E-003;
2.404166666666667E+009;1.698116660118103E-001;1.827498711645603E-002;-8.446122519671917E-004;-1.111687975935638E-003;
2.404333333333334E+009;1.708880513906479E-001;1.727286539971829E-002;-9.089612285606563E-004;-1.167544047348201E-003;
2.404500000000000E+009;1.717053055763245E-001;1.634872704744339E-002;-1.060327398590744E-003;-1.021526055410504E-003;
2.404666666666667E+009;1.727950721979141E-001;1.541399862617254E-002;-1.048298669047654E-003;-1.056874170899391E-003;
2.404833333333334E+009;1.735169887542725E-001;1.460755057632923E-002;-1.025424920953810E-003;-1.316068810410798E-003;
2.405000000000000E+009;1.745095551013947E-001;1.395538076758385E-002;-1.009982195682824E-003;-1.268833060748875E-003;
2.405166666666667E+009;1.754119694232941E-001;1.313654892146587E-002;-1.208355883136392E-003;-1.178159145638347E-003;
2.405333333333334E+009;1.762138158082962E-001;1.248153205960989E-002;-1.219689846038818E-003;-1.070165308192372E-003;
2.405500000000000E+009;1.770084649324417E-001;1.208082307130098E-002;-1.368396333418787E-003;-1.136651029810309E-003;
2.405666666666667E+009;1.776703000068665E-001;1.155917998403311E-002;-1.311885425820947E-003;-1.188672031275928E-003;
2.405833333333334E+009;1.781947910785675E-001;1.114644296467304E-002;-1.612371532246471E-003;-1.147259958088398E-003;
2.406000000000000E+009;1.788468062877655E-001;1.068721897900105E-002;-1.620740746147931E-003;-1.102135400287807E-003;
2.406166666666667E+009;1.792326122522354E-001;1.041237171739340E-002;-1.741131069138646E-003;-1.079250359907746E-003;
2.406333333333334E+009;1.797380000352860E-001;1.010459288954735E-002;-1.878331881016493E-003;-1.024717232212424E-003;
2.406500000000000E+009;1.802036315202713E-001;9.749454446136951E-003;-2.007862785831094E-003;-1.033679000101984E-003;
2.406666666666667E+009;1.803011149168015E-001;9.444969706237316E-003;-1.835544710047543E-003;-1.028373837471008E-003;
2.406833333333334E+009;1.807278096675873E-001;9.179697372019291E-003;-2.090976806357503E-003;-9.160179179161787E-004;
2.407000000000000E+009;1.806118786334992E-001;8.788856677711010E-003;-2.060365397483110E-003;-8.481791010126472E-004;
2.407166666666667E+009;1.808370351791382E-001;8.662564679980278E-003;-2.059794729575515E-003;-6.656522746197879E-004;
2.407333333333334E+009;1.808141320943832E-001;8.180043660104275E-003;-2.119964919984341E-003;-6.886248593218625E-004;
2.407500000000000E+009;1.805812120437622E-001;7.795667275786400E-003;-2.246542600914836E-003;-5.862136022187769E-004;
2.407666666666667E+009;1.805198937654495E-001;7.467391900718212E-003;-2.209570491686463E-003;-4.471929860301316E-004;
2.407833333333334E+009;1.800193488597870E-001;6.815777625888586E-003;-2.213459229096770E-003;-3.744218847714365E-004;
2.408000000000000E+009;1.798357218503952E-001;6.267759483307600E-003;-2.328722737729549E-003;-3.315375361125916E-004;
2.408166666666667E+009;1.793305873870850E-001;5.759957712143660E-003;-2.286602277308703E-003;-1.608471793588251E-004;
2.408333333333334E+009;1.791425645351410E-001;5.022225901484489E-003;-2.198605332523584E-003;-2.342875668546185E-004;
2.408500000000000E+009;1.784742176532745E-001;4.486375022679567E-003;-2.156998030841351E-003;-6.601945642614737E-005;
2.408666666666667E+009;1.779147982597351E-001;3.450937569141388E-003;-2.356900135055184E-003;6.088676673243754E-005;
2.408833333333334E+009;1.771574169397354E-001;2.599577652290463E-003;-2.369185676798224E-003;7.420624751830474E-005;
2.409000000000000E+009;1.765420734882355E-001;1.587561098858714E-003;-2.245821524411440E-003;2.436930117255542E-005;
2.409166666666667E+009;1.760115474462509E-001;4.192909109406173E-004;-2.276551211252809E-003;1.403620553901419E-004;
2.409333333333334E+009;1.751242727041245E-001;-7.514348253607750E-004;-2.275354694575071E-003;3.792953502852470E-004;
2.409500000000000E+009;1.745737195014954E-001;-2.065756358206272E-003;-2.271735807880759E-003;3.638491907622665E-004;
2.409666666666667E+009;1.737727075815201E-001;-3.366142045706511E-003;-2.117395866662264E-003;4.491609870456159E-004;
2.409833333333334E+009;1.728519797325134E-001;-4.630426410585642E-003;-2.079415367916226E-003;5.621729069389403E-004;
2.410000000000000E+009;1.725251078605652E-001;-6.095053162425757E-003;-2.061923267319799E-003;4.819485475309193E-004;
2.410166666666667E+009;1.717846244573593E-001;-7.678611669689417E-003;-2.024507382884622E-003;4.928943817503750E-004;
2.410333333333334E+009;1.710104346275330E-001;-9.235414676368237E-003;-2.116350922733545E-003;5.748888361267746E-004;
2.410500000000000E+009;1.704963594675064E-001;-1.087406650185585E-002;-2.174224006012082E-003;6.345753790810704E-004;
2.410666666666667E+009;1.699615418910980E-001;-1.264024805277586E-002;-2.081127604469657E-003;6.210525752976537E-004;
2.410833333333334E+009;1.694757491350174E-001;-1.425119861960411E-002;-2.206769771873951E-003;6.595164886675775E-004;
2.411000000000000E+009;1.689767092466354E-001;-1.611361093819141E-002;-2.088685752823949E-003;7.405959768220782E-004;
2.411166666666667E+009;1.689092963933945E-001;-1.801325753331184E-002;-2.027354668825865E-003;7.415163563564420E-004;
2.411333333333334E+009;1.683263927698135E-001;-2.000902779400349E-002;-2.005979418754578E-003;6.468195933848620E-004;
2.411500000000000E+009;1.679821163415909E-001;-2.195969410240650E-002;-2.201122930273414E-003;8.143441518768668E-004;
2.411666666666667E+009;1.679456084966660E-001;-2.394732460379601E-002;-2.104380400851369E-003;8.379102800972760E-004;
2.411833333333334E+009;1.679273545742035E-001;-2.589631825685501E-002;-2.101644175127149E-003;8.614932885393500E-004;
2.412000000000000E+009;1.680557429790497E-001;-2.788892015814781E-002;-2.035496290773153E-003;9.474288090132177E-004;
2.412166666666667E+009;1.679953783750534E-001;-2.982491068542004E-002;-2.069644164294004E-003;9.243290987797082E-004;
2.412333333333334E+009;1.683716624975205E-001;-3.154242038726807E-002;-2.125843428075314E-003;1.066799159161747E-003;
2.412500000000000E+009;1.684370189905167E-001;-3.340356051921845E-002;-2.043466549366713E-003;1.028178841806948E-003;
2.412666666666667E+009;1.687678098678589E-001;-3.553906828165054E-002;-2.010974334552884E-003;1.345014316029847E-003;
2.412833333333334E+009;1.690720021724701E-001;-3.728525713086128E-002;-2.014758996665478E-003;1.230248948559165E-003;
2.413000000000000E+009;1.694233566522598E-001;-3.916054219007492E-002;-2.008757553994656E-003;1.465826411731541E-003;
2.413166666666667E+009;1.698488146066666E-001;-4.099537059664726E-002;-1.935297623276711E-003;1.386841060593724E-003;
2.413333333333334E+009;1.700486987829208E-001;-4.267106205224991E-002;-1.855539390817285E-003;1.360593363642693E-003;
2.413500000000000E+009;1.707668602466583E-001;-4.429809376597405E-002;-1.896819449029863E-003;1.548658241517842E-003;
2.413666666666667E+009;1.714552789926529E-001;-4.592989757657051E-002;-1.941326307132840E-003;1.747308648191392E-003;
2.413833333333334E+009;1.717962026596069E-001;-4.750847443938255E-002;-1.897017471492291E-003;1.763194915838540E-003;
2.414000000000000E+009;1.721837967634201E-001;-4.898711666464806E-002;-1.842361874878407E-003;1.825768500566483E-003;
2.414166666666667E+009;1.729160696268082E-001;-5.032975971698761E-002;-1.626657322049141E-003;1.760978833772242E-003;
2.414333333333334E+009;1.733295619487763E-001;-5.164759606122971E-002;-1.786323497071862E-003;1.734154531732202E-003;
2.414500000000000E+009;1.741178333759308E-001;-5.285436287522316E-002;-1.575507223606110E-003;1.949111581780016E-003;
2.414666666666667E+009;1.746254861354828E-001;-5.390408262610436E-002;-1.597079914063215E-003;2.210413804277778E-003;
2.414833333333334E+009;1.749435812234879E-001;-5.502197146415710E-002;-1.510185189545155E-003;2.147512044757605E-003;
2.415000000000000E+009;1.754986047744751E-001;-5.579192936420441E-002;-1.414844649843872E-003;2.146867802366614E-003;
2.415166666666667E+009;1.759165525436401E-001;-5.663008242845535E-002;-1.381998998112977E-003;2.208207733929157E-003;
2.415333333333334E+009;1.764577925205231E-001;-5.742101743817329E-002;-1.459631137549877E-003;2.419799566268921E-003;
2.415500000000000E+009;1.767533272504807E-001;-5.805272608995438E-002;-1.278032781556249E-003;2.409268869087100E-003;
2.415666666666667E+009;1.770001947879791E-001;-5.862539634108543E-002;-1.347407000139356E-003;2.300354652106762E-003;
2.415833333333334E+009;1.772665083408356E-001;-5.921813845634460E-002;-1.124329050071538E-003;2.370823407545686E-003;
2.416000000000000E+009;1.772654205560684E-001;-5.967608466744423E-002;-1.234330935403705E-003;2.458802191540599E-003;
2.416166666666667E+009;1.775785535573959E-001;-6.012645363807678E-002;-1.063447329215705E-003;2.609506715089083E-003;
2.416333333333334E+009;1.775491386651993E-001;-6.047507748007774E-002;-8.942802087403834E-004;2.540285466238856E-003;
2.416500000000000E+009;1.775273531675339E-001;-6.072699651122093E-002;-8.728533866815269E-004;2.536817453801632E-003;
2.416666666666667E+009;1.772646307945252E-001;-6.092628836631775E-002;-7.662767311558127E-004;2.754267072305083E-003;
2.416833333333334E+009;1.772230267524719E-001;-6.129078194499016E-002;-7.214880315586925E-004;2.801119349896908E-003;
2.417000000000000E+009;1.766027063131332E-001;-6.146806851029396E-002;-6.488206563517451E-004;2.828334691002965E-003;
2.417166666666667E+009;1.763318181037903E-001;-6.163520738482475E-002;-5.303535726852715E-004;2.760906936600804E-003;
2.417333333333334E+009;1.758050471544266E-001;-6.193311512470245E-002;-5.139456479810178E-004;2.900413703173399E-003;
2.417500000000000E+009;1.751688122749329E-001;-6.222901120781899E-002;-4.374197160359472E-004;2.820906927809119E-003;
2.417666666666667E+009;1.746409386396408E-001;-6.231856346130371E-002;-2.736313326749951E-004;2.852547680959106E-003;
2.417833333333334E+009;1.739006340503693E-001;-6.246193498373032E-002;-1.964562761713751E-005;2.983617363497615E-003;
2.418000000000000E+009;1.729236841201782E-001;-6.300699710845947E-002;1.848073952714913E-005;2.924945903941989E-003;
2.418166666666667E+009;1.720347106456757E-001;-6.306400150060654E-002;5.549767138290918E-006;2.816180931404233E-003;
2.418333333333334E+009;1.713151633739471E-001;-6.343935430049896E-002;2.022739208769053E-004;2.949463669210672E-003;
2.418500000000000E+009;1.700871884822846E-001;-6.397169083356857E-002;1.558193616801873E-004;2.957233693450689E-003;
2.418666666666667E+009;1.692670136690140E-001;-6.433945149183273E-002;2.488063473720104E-004;2.999122254550457E-003;
2.418833333333334E+009;1.678723543882370E-001;-6.489851325750351E-002;4.432266578078270E-004;2.889431780204177E-003;
2.419000000000000E+009;1.667961180210114E-001;-6.549444049596787E-002;4.695442039519548E-004;2.943678293377161E-003;
2.419166666666667E+009;1.656999140977860E-001;-6.604196876287460E-002;5.627996870316565E-004;2.846979070454836E-003;
2.419333333333334E+009;1.642574965953827E-001;-6.654155999422073E-002;8.595683029852808E-004;2.930316841229796E-003;
2.419500000000000E+009;1.631947457790375E-001;-6.745932996273041E-002;8.168813656084240E-004;2.847920171916485E-003;
2.419666666666667E+009;1.620451807975769E-001;-6.851823627948761E-002;9.754454367794097E-004;2.719589741900563E-003;
2.419833333333334E+009;1.607401967048645E-001;-6.939803808927536E-002;1.042109914124012E-003;2.720805350691080E-003;
2.420000000000000E+009;1.596722453832626E-001;-7.031442224979401E-002;1.183523680083454E-003;2.685001119971275E-003;
2.420166666666667E+009;1.586373299360275E-001;-7.149443030357361E-002;1.187134534120560E-003;2.707986393943429E-003;
2.420333333333334E+009;1.575390696525574E-001;-7.256568223237991E-002;1.402667141519487E-003;2.618309576064348E-003;
2.420500000000000E+009;1.565048843622208E-001;-7.375555485486984E-002;1.173883909359574E-003;2.567915245890617E-003;
2.420666666666667E+009;1.553892493247986E-001;-7.494032382965088E-002;1.405177521519363E-003;2.535088686272502E-003;
2.420833333333334E+009;1.543811857700348E-001;-7.638341188430786E-002;1.494285534135997E-003;2.373729832470417E-003;
2.421000000000000E+009;1.535269916057587E-001;-7.787909358739853E-002;1.406792318448424E-003;2.504500793293119E-003;
2.421166666666667E+009;1.527522504329681E-001;-7.916203886270523E-002;1.542751910164952E-003;2.251227619126439E-003;
2.421333333333334E+009;1.522241234779358E-001;-8.081995695829392E-002;1.639284542761743E-003;2.346603665500879E-003;
2.421500000000000E+009;1.514548361301422E-001;-8.246263116598129E-002;1.676557003520429E-003;2.320503583177924E-003;
2.421666666666667E+009;1.509107202291489E-001;-8.395428955554962E-002;1.828810316510499E-003;2.184602199122310E-003;
2.421833333333334E+009;1.504598259925842E-001;-8.568582683801651E-002;1.776561024598777E-003;2.190540311858058E-003;
2.422000000000000E+009;1.499933004379273E-001;-8.736274391412735E-002;1.805158215574920E-003;2.240551635622978E-003;
2.422166666666667E+009;1.496573835611343E-001;-8.917706459760666E-002;1.882851473055780E-003;2.045991364866495E-003;
2.422333333333334E+009;1.495575010776520E-001;-9.074537456035614E-002;1.811710419133306E-003;1.977564534172416E-003;
2.422500000000000E+009;1.492942571640015E-001;-9.246902912855148E-002;2.086450811475515E-003;1.910220365971327E-003;
2.422666666666667E+009;1.491285711526871E-001;-9.415945410728455E-002;1.983783207833767E-003;2.018351107835770E-003;
2.422833333333334E+009;1.491074264049530E-001;-9.595330059528351E-002;2.095148898661137E-003;1.865988597273827E-003;
2.423000000000000E+009;1.492945253849030E-001;-9.751340746879578E-002;2.049259142950177E-003;1.766457338817418E-003;
2.423166666666667E+009;1.496439278125763E-001;-9.926342964172363E-002;2.138908486813307E-003;1.716144732199609E-003;
2.423333333333334E+009;1.498818099498749E-001;-1.004780307412148E-001;2.229534322395921E-003;1.654384308494628E-003;
2.423500000000000E+009;1.499052792787552E-001;-1.021707206964493E-001;2.344357315450907E-003;1.671838224865496E-003;
2.423666666666667E+009;1.502523869276047E-001;-1.038786321878433E-001;2.351058414205909E-003;1.720724394544959E-003;
2.423833333333334E+009;1.508218795061112E-001;-1.053513959050179E-001;2.432999433949590E-003;1.526719890534878E-003;
2.424000000000000E+009;1.511520445346832E-001;-1.065831407904625E-001;2.535236766561866E-003;1.566255697980523E-003;
2.424166666666667E+009;1.514661461114883E-001;-1.079805493354797E-001;2.550085075199604E-003;1.453530392609537E-003;
2.424333333333334E+009;1.520792990922928E-001;-1.091715618968010E-001;2.563897520303726E-003;1.347938086837530E-003;
2.424500000000000E+009;1.525737792253494E-001;-1.104393452405930E-001;2.742456505075097E-003;1.285969046875835E-003;
2.424666666666667E+009;1.532212197780609E-001;-1.112642288208008E-001;2.731643617153168E-003;1.238079741597176E-003;
2.424833333333334E+009;1.534745097160339E-001;-1.124361902475357E-001;2.779404399916530E-003;1.151948119513691E-003;
2.425000000000000E+009;1.539839208126068E-001;-1.134600117802620E-001;2.979693934321404E-003;1.005717902444303E-003;
2.425166666666667E+009;1.543006002902985E-001;-1.143017113208771E-001;2.846179064363241E-003;8.948923205025494E-004;
2.425333333333334E+009;1.547083556652069E-001;-1.150664612650871E-001;2.933133626356721E-003;7.595300558023155E-004;
2.425500000000000E+009;1.553285717964172E-001;-1.157932505011559E-001;2.872752491384745E-003;7.211955962702632E-004;
2.425666666666667E+009;1.554213762283325E-001;-1.164916977286339E-001;3.019732888787985E-003;4.975789343006909E-004;
2.425833333333334E+009;1.558254063129425E-001;-1.169928908348084E-001;2.991008339449763E-003;5.212189862504602E-004;
2.426000000000000E+009;1.559884995222092E-001;-1.174523606896401E-001;2.991276094689965E-003;3.875883994624019E-004;
2.426166666666667E+009;1.563166230916977E-001;-1.180125772953033E-001;3.121997229754925E-003;2.869613526854664E-004;
2.426333333333334E+009;1.562334150075913E-001;-1.182874143123627E-001;2.991955261677504E-003;1.130737146013416E-004;
2.426500000000000E+009;1.562889218330383E-001;-1.185174733400345E-001;2.927063265815377E-003;7.743325113551691E-005;
2.426666666666667E+009;1.563261002302170E-001;-1.186219975352287E-001;3.033333923667669E-003;-4.341900057625026E-005;
2.426833333333334E+009;1.561019718647003E-001;-1.189279183745384E-001;3.039036178961396E-003;8.828945283312351E-005;
2.427000000000000E+009;1.558580845594406E-001;-1.191699579358101E-001;2.940497593954206E-003;-1.547039719298482E-004;
2.427166666666667E+009;1.555412262678146E-001;-1.191409006714821E-001;2.852417062968016E-003;-4.433599242474884E-004;
2.427333333333334E+009;1.550340205430985E-001;-1.193174794316292E-001;2.872807439416647E-003;-3.750225587282330E-004;
2.427500000000000E+009;1.545495837926865E-001;-1.193757206201553E-001;2.844387665390968E-003;-5.437681684270501E-004;
2.427666666666667E+009;1.539427191019058E-001;-1.194634586572647E-001;2.760740229859948E-003;-5.427850992418826E-004;
