# Version 1.00
#
freq[Hz];re:Trc1_S11;im:Trc1_S11;re:Trc2_S21;im:Trc2_S21;
2.400000000000000E+009;1.611239910125732E-001;5.702500790357590E-002;-3.680423833429813E-004;4.331134725362063E-003;
2.400166666666667E+009;1.613178402185440E-001;5.553654581308365E-002;-3.570041153579950E-004;4.255039151757956E-003;
2.400333333333334E+009;1.614646315574646E-001;5.374877154827118E-002;-1.741473388392478E-004;4.231783095747232E-003;
2.400500000000000E+009;1.615261435508728E-001;5.188008770346642E-002;-2.143260207958520E-004;4.388466477394104E-003;
2.400666666666667E+009;1.616192609071732E-001;5.006358399987221E-002;1.154079836851452E-005;4.608127754181624E-003;
2.400833333333334E+009;1.618725955486298E-001;4.821195080876350E-002;1.167632362921722E-004;4.687214735895395E-003;
2.401000000000000E+009;1.621196866035461E-001;4.648766666650772E-002;3.197497862856835E-004;4.739808384329081E-003;
2.401166666666667E+009;1.624444127082825E-001;4.431397467851639E-002;4.365186905488372E-004;4.788378719240427E-003;
2.401333333333334E+009;1.625881046056747E-001;4.248210042715073E-002;5.509946495294571E-004;4.845560528337956E-003;
2.401500000000000E+009;1.630891710519791E-001;4.055007919669151E-002;7.854445138946176E-004;4.769257269799709E-003;
2.401666666666667E+009;1.633680462837219E-001;3.886176273226738E-002;1.085390569642186E-003;4.904739558696747E-003;
2.401833333333334E+009;1.636443436145783E-001;3.709870576858521E-002;1.290763495489955E-003;4.933738615363836E-003;
2.402000000000000E+009;1.639850139617920E-001;3.522709384560585E-002;1.379425986669958E-003;4.806912969797850E-003;
2.402166666666667E+009;1.645961999893189E-001;3.337937593460083E-002;1.607282436452806E-003;5.001516081392765E-003;
2.402333333333334E+009;1.651078164577484E-001;3.166888654232025E-002;1.808386645279825E-003;4.891103133559227E-003;
2.402500000000000E+009;1.657981276512146E-001;3.019469790160656E-002;2.085919957607985E-003;4.837336484342814E-003;
2.402666666666667E+009;1.661576032638550E-001;2.847229875624180E-002;2.380290068686009E-003;4.766696598380804E-003;
2.402833333333334E+009;1.668037623167038E-001;2.705781720578671E-002;2.505971351638436E-003;4.629329778254032E-003;
2.403000000000000E+009;1.674720346927643E-001;2.534426748752594E-002;2.668114611878991E-003;4.659016616642475E-003;
2.403166666666667E+009;1.682492941617966E-001;2.398419938981533E-002;3.022613702341914E-003;4.483606200665236E-003;
2.403333333333334E+009;1.688817292451859E-001;2.285895496606827E-002;3.166091162711382E-003;4.287289455533028E-003;
2.403500000000000E+009;1.695050150156021E-001;2.144772000610828E-002;3.509317059069872E-003;4.165967460721731E-003;
2.403666666666667E+009;1.703522205352783E-001;2.012635022401810E-002;3.710079472512007E-003;4.109271802008152E-003;
2.403833333333334E+009;1.710501611232758E-001;1.891250908374786E-002;3.808862064033747E-003;3.931032959371805E-003;
2.404000000000000E+009;1.718682348728180E-001;1.799086853861809E-002;3.986605443060398E-003;3.762249136343598E-003;
2.404166666666667E+009;1.723579466342926E-001;1.695981062948704E-002;4.113042727112770E-003;3.462458029389381E-003;
2.404333333333334E+009;1.731831431388855E-001;1.597834378480911E-002;4.191339947283268E-003;3.464431269094348E-003;
2.404500000000000E+009;1.735476255416870E-001;1.494018826633692E-002;4.491290543228388E-003;3.077667206525803E-003;
2.404666666666667E+009;1.742145121097565E-001;1.432286668568850E-002;4.561095032840967E-003;2.931600436568260E-003;
2.404833333333334E+009;1.748716533184052E-001;1.350645627826452E-002;4.616923630237579E-003;2.714089117944241E-003;
2.405000000000000E+009;1.754489690065384E-001;1.269621588289738E-002;4.736809991300106E-003;2.391310874372721E-003;
2.405166666666667E+009;1.759307831525803E-001;1.213240250945091E-002;4.906506743282080E-003;2.155843190848827E-003;
2.405333333333334E+009;1.765350103378296E-001;1.133371889591217E-002;4.875984508544207E-003;1.942454488016665E-003;
2.405500000000000E+009;1.768873631954193E-001;1.090833451598883E-002;5.092217586934567E-003;1.853187917731702E-003;
2.405666666666667E+009;1.772107183933258E-001;1.053911447525024E-002;4.985480569303036E-003;1.675507053732872E-003;
2.405833333333334E+009;1.774960458278656E-001;1.008435525000095E-002;4.956003278493881E-003;1.279821270145476E-003;
2.406000000000000E+009;1.778818368911743E-001;9.539511054754257E-003;5.167208146303892E-003;1.071400940418243E-003;
2.406166666666667E+009;1.779263168573380E-001;9.259842336177826E-003;5.030915606766939E-003;8.202943718060851E-004;
2.406333333333334E+009;1.782804429531097E-001;8.834529668092728E-003;4.903029650449753E-003;6.716686184518039E-004;
2.406500000000000E+009;1.783641576766968E-001;8.447879925370216E-003;4.781642928719521E-003;5.842933896929026E-004;
2.406666666666667E+009;1.781234145164490E-001;8.074607700109482E-003;4.843167029321194E-003;3.500985621940345E-004;
2.406833333333334E+009;1.783149987459183E-001;7.484522648155689E-003;4.832726903259754E-003;9.936487913364545E-005;
2.407000000000000E+009;1.783241778612137E-001;7.079040631651878E-003;4.657574463635683E-003;-1.812989066820592E-004;
2.407166666666667E+009;1.782731562852860E-001;6.712545640766621E-003;4.660143516957760E-003;-3.586501698009670E-004;
2.407333333333334E+009;1.778734028339386E-001;6.018289364874363E-003;4.460845142602921E-003;-4.055078316014260E-004;
2.407500000000000E+009;1.776718646287918E-001;5.520756822079420E-003;4.375846125185490E-003;-7.678712136112154E-004;
2.407666666666667E+009;1.773319393396378E-001;4.958021920174360E-003;4.376415628939867E-003;-8.260385948233306E-004;
2.407833333333334E+009;1.769020259380341E-001;4.186873789876699E-003;4.251867067068815E-003;-9.086084901355207E-004;
2.408000000000000E+009;1.764032095670700E-001;3.362648189067841E-003;4.101753234863281E-003;-1.157354214228690E-003;
2.408166666666667E+009;1.760977655649185E-001;2.763605210930109E-003;3.942236304283142E-003;-1.195318880490959E-003;
2.408333333333334E+009;1.758889853954315E-001;1.876878086477518E-003;3.962684888392687E-003;-1.384834875352681E-003;
2.408500000000000E+009;1.751085668802261E-001;1.049697049893439E-003;3.718744032084942E-003;-1.281205099076033E-003;
2.408666666666667E+009;1.747995316982269E-001;-1.176270816358738E-004;3.472091397270560E-003;-1.512381131760776E-003;
2.408833333333334E+009;1.741600334644318E-001;-1.311259344220161E-003;3.597091417759657E-003;-1.688042189925909E-003;
2.409000000000000E+009;1.733943670988083E-001;-2.222524723038077E-003;3.426830284297466E-003;-1.555672613903880E-003;
2.409166666666667E+009;1.730329096317291E-001;-3.512250725179911E-003;3.253419417887926E-003;-1.717242179438472E-003;
2.409333333333334E+009;1.725163310766220E-001;-4.862553440034390E-003;3.231552429497242E-003;-1.636780914850533E-003;
2.409500000000000E+009;1.718910783529282E-001;-6.279470864683390E-003;3.015587106347084E-003;-1.947466982528567E-003;
2.409666666666667E+009;1.713882386684418E-001;-7.633491884917021E-003;2.969558117911220E-003;-1.881086849607527E-003;
2.409833333333334E+009;1.706473827362061E-001;-9.009420871734619E-003;2.909153932705522E-003;-1.819580793380737E-003;
2.410000000000000E+009;1.703394204378128E-001;-1.068585738539696E-002;2.782398369163275E-003;-1.867709215730429E-003;
2.410166666666667E+009;1.698135286569595E-001;-1.229139976203442E-002;2.643584972247481E-003;-1.939010224305093E-003;
2.410333333333334E+009;1.692413240671158E-001;-1.371293328702450E-002;2.425609622150660E-003;-1.946271630004048E-003;
2.410500000000000E+009;1.689689159393311E-001;-1.560663338750601E-002;2.402706304565072E-003;-1.842208090238273E-003;
2.410666666666667E+009;1.685590744018555E-001;-1.736807450652123E-002;2.421927405521274E-003;-1.772056566551328E-003;
2.410833333333334E+009;1.681825369596481E-001;-1.896157488226891E-002;2.341994782909751E-003;-1.879876363091171E-003;
2.411000000000000E+009;1.681084781885147E-001;-2.068001963198185E-002;2.262276830151677E-003;-1.965068047866225E-003;
2.411166666666667E+009;1.678311079740524E-001;-2.266205474734306E-002;2.303022192791104E-003;-1.883403398096561E-003;
2.411333333333334E+009;1.677664667367935E-001;-2.442608028650284E-002;2.322448184713721E-003;-1.973741455003619E-003;
2.411500000000000E+009;1.676939874887466E-001;-2.633937820792198E-002;2.239416819065809E-003;-1.837346120737493E-003;
2.411666666666667E+009;1.678376346826553E-001;-2.826602384448052E-002;2.133529633283615E-003;-1.977040898054838E-003;
2.411833333333334E+009;1.677844822406769E-001;-3.003107383847237E-002;2.143599325791001E-003;-1.922609750181437E-003;
2.412000000000000E+009;1.682197898626328E-001;-3.193899616599083E-002;2.199118956923485E-003;-1.916910754516721E-003;
2.412166666666667E+009;1.680919229984283E-001;-3.367021307349205E-002;2.098391996696591E-003;-2.054914832115173E-003;
2.412333333333334E+009;1.684564948081970E-001;-3.542295098304749E-002;2.183310454711318E-003;-2.115627052262425E-003;
2.412500000000000E+009;1.686997413635254E-001;-3.717640414834023E-002;2.255253028124571E-003;-2.238216577097774E-003;
2.412666666666667E+009;1.689572483301163E-001;-3.920543193817139E-002;2.189014572650194E-003;-2.256529638543725E-003;
2.412833333333334E+009;1.694444417953491E-001;-4.065192863345146E-002;1.960579305887222E-003;-2.390758134424686E-003;
2.413000000000000E+009;1.698543727397919E-001;-4.238999262452126E-002;2.024336485192180E-003;-2.454377710819244E-003;
2.413166666666667E+009;1.702056080102921E-001;-4.399646446108818E-002;2.071448834612966E-003;-2.565903821960092E-003;
2.413333333333334E+009;1.704470962285996E-001;-4.564173147082329E-002;1.768010901287198E-003;-2.615192905068398E-003;
2.413500000000000E+009;1.710653007030487E-001;-4.719219729304314E-002;1.832829206250608E-003;-2.714008791372180E-003;
2.413666666666667E+009;1.719197332859039E-001;-4.862795025110245E-002;1.642902381718159E-003;-2.623880980536342E-003;
2.413833333333334E+009;1.723004281520844E-001;-4.983266815543175E-002;1.448249910026789E-003;-2.712162910029292E-003;
2.414000000000000E+009;1.725261360406876E-001;-5.119277909398079E-002;1.434629666619003E-003;-2.832996426150203E-003;
2.414166666666667E+009;1.732844412326813E-001;-5.226472392678261E-002;1.198171288706362E-003;-2.935486380010843E-003;
2.414333333333334E+009;1.736633628606796E-001;-5.352351441979408E-002;1.258023898117244E-003;-3.053108463063836E-003;
2.414500000000000E+009;1.743139326572418E-001;-5.433074384927750E-002;9.925330523401499E-004;-2.956270938739181E-003;
2.414666666666667E+009;1.746617257595062E-001;-5.535948276519775E-002;8.981329156085849E-004;-3.037562360987067E-003;
2.414833333333334E+009;1.750311404466629E-001;-5.633520334959030E-002;7.969719008542597E-004;-2.956554992124438E-003;
2.415000000000000E+009;1.752506345510483E-001;-5.706049129366875E-002;7.239235565066338E-004;-2.956018084660173E-003;
2.415166666666667E+009;1.756563484668732E-001;-5.775613710284233E-002;7.007025997154415E-004;-2.999340649694204E-003;
2.415333333333334E+009;1.760962605476379E-001;-5.838573351502419E-002;5.590236396528781E-004;-3.052110085263848E-003;
2.415500000000000E+009;1.762719005346298E-001;-5.896998941898346E-002;3.972648701164872E-004;-2.811139682307839E-003;
2.415666666666667E+009;1.763515025377274E-001;-5.935437604784966E-002;3.168048860970885E-004;-3.095389343798161E-003;
2.415833333333334E+009;1.765481382608414E-001;-6.003994122147560E-002;1.947857963386923E-004;-2.951337723061442E-003;
2.416000000000000E+009;1.764347553253174E-001;-6.030970811843872E-002;-9.157857130048797E-005;-2.915228484198451E-003;
2.416166666666667E+009;1.766677498817444E-001;-6.070873886346817E-002;1.145653804996982E-004;-2.736715599894524E-003;
2.416333333333334E+009;1.765012741088867E-001;-6.110529601573944E-002;-7.772346725687385E-005;-2.774894703179598E-003;
2.416500000000000E+009;1.762604862451553E-001;-6.143801286816597E-002;-2.132629888365045E-004;-2.516407519578934E-003;
2.416666666666667E+009;1.760075688362122E-001;-6.163480877876282E-002;-3.816315438598394E-004;-2.622775966301560E-003;
2.416833333333334E+009;1.757376194000244E-001;-6.187605112791061E-002;-3.556071314960718E-004;-2.602129476144910E-003;
2.417000000000000E+009;1.751592457294464E-001;-6.214034929871559E-002;-3.508602094370872E-004;-2.553359139710665E-003;
2.417166666666667E+009;1.747091859579086E-001;-6.227745115756989E-002;-4.265143361408263E-004;-2.555269049480557E-003;
2.417333333333334E+009;1.740666627883911E-001;-6.246442720293999E-002;-5.874939379282296E-004;-2.396059921011329E-003;
2.417500000000000E+009;1.733677238225937E-001;-6.288883835077286E-002;-5.674778367392719E-004;-2.305031754076481E-003;
2.417666666666667E+009;1.727041453123093E-001;-6.299031525850296E-002;-5.856726202182472E-004;-2.236579079180956E-003;
2.417833333333334E+009;1.718543022871018E-001;-6.344696134328842E-002;-6.711646565236151E-004;-2.244349801912904E-003;
2.418000000000000E+009;1.708827465772629E-001;-6.387859582901001E-002;-7.306404877454042E-004;-2.195792505517602E-003;
2.418166666666667E+009;1.698892861604691E-001;-6.404894590377808E-002;-7.460398483090103E-004;-2.126857405528426E-003;
2.418333333333334E+009;1.691065430641174E-001;-6.456559896469116E-002;-6.860780413262546E-004;-2.066045068204403E-003;
2.418500000000000E+009;1.678668111562729E-001;-6.488391757011414E-002;-7.118328940123320E-004;-2.152323722839356E-003;
2.418666666666667E+009;1.669738739728928E-001;-6.549195200204849E-002;-6.965870852582157E-004;-2.008095150813460E-003;
2.418833333333334E+009;1.656263023614883E-001;-6.599903106689453E-002;-6.532784318551421E-004;-2.004550304263830E-003;
2.419000000000000E+009;1.644324660301209E-001;-6.673987209796906E-002;-7.361907046288252E-004;-1.895670895464718E-003;
2.419166666666667E+009;1.632163226604462E-001;-6.739785522222519E-002;-8.359234197996557E-004;-2.030933275818825E-003;
2.419333333333334E+009;1.620163917541504E-001;-6.781636178493500E-002;-7.047497201710939E-004;-1.902004005387425E-003;
2.419500000000000E+009;1.607752889394760E-001;-6.892667710781097E-002;-7.424643263220787E-004;-1.882496289908886E-003;
2.419666666666667E+009;1.597122400999069E-001;-7.002062350511551E-002;-9.082672186195850E-004;-1.877188566140831E-003;
2.419833333333334E+009;1.584336608648300E-001;-7.075776904821396E-002;-7.988935103639960E-004;-1.872593769803643E-003;
2.420000000000000E+009;1.574692726135254E-001;-7.184081524610519E-002;-9.305328130722046E-004;-1.889302278868854E-003;
2.420166666666667E+009;1.561921983957291E-001;-7.300606369972229E-002;-9.581109625287354E-004;-1.837672316469252E-003;
2.420333333333334E+009;1.553379893302918E-001;-7.427021116018295E-002;-9.525990462861955E-004;-1.754034892655909E-003;
2.420500000000000E+009;1.541830450296402E-001;-7.530298829078674E-002;-1.111986930482090E-003;-1.835308852605522E-003;
2.420666666666667E+009;1.531667411327362E-001;-7.661355286836624E-002;-9.496647398918867E-004;-1.802887883968651E-003;
2.420833333333334E+009;1.523731350898743E-001;-7.813457399606705E-002;-1.058402704074979E-003;-1.538074924610555E-003;
2.421000000000000E+009;1.513941735029221E-001;-7.955926656723023E-002;-1.140657579526305E-003;-1.759260776452720E-003;
2.421166666666667E+009;1.505704075098038E-001;-8.099854737520218E-002;-1.031469088047743E-003;-1.603752025403082E-003;
2.421333333333334E+009;1.499899625778198E-001;-8.257610350847244E-002;-1.176772988401353E-003;-1.571867149323225E-003;
2.421500000000000E+009;1.491771042346954E-001;-8.419564366340637E-002;-1.240348676219583E-003;-1.477154903113842E-003;
2.421666666666667E+009;1.487078666687012E-001;-8.589014410972595E-002;-1.181198982521892E-003;-1.601567142643035E-003;
2.421833333333334E+009;1.482823789119721E-001;-8.733726292848587E-002;-1.324612530879676E-003;-1.484481850638986E-003;
2.422000000000000E+009;1.476645320653915E-001;-8.909679204225540E-002;-1.325565390288830E-003;-1.426726928912103E-003;
2.422166666666667E+009;1.474299430847168E-001;-9.092160314321518E-002;-1.319137751124799E-003;-1.535564428195357E-003;
2.422333333333334E+009;1.472506672143936E-001;-9.247330576181412E-002;-1.324248616583645E-003;-1.419461797922850E-003;
2.422500000000000E+009;1.469822525978088E-001;-9.404104202985764E-002;-1.329316524788737E-003;-1.220808946527541E-003;
2.422666666666667E+009;1.467239260673523E-001;-9.583446383476257E-002;-1.308878301642835E-003;-1.192206749692559E-003;
2.422833333333334E+009;1.469216942787170E-001;-9.747444093227387E-002;-1.410094555467367E-003;-1.364444149658084E-003;
2.423000000000000E+009;1.469119340181351E-001;-9.920085221529007E-002;-1.476326957345009E-003;-1.270683133043349E-003;
2.423166666666667E+009;1.469969749450684E-001;-1.008409708738327E-001;-1.558681018650532E-003;-1.324249431490898E-003;
2.423333333333334E+009;1.470908373594284E-001;-1.022326275706291E-001;-1.649420708417893E-003;-1.103390124626458E-003;
2.423500000000000E+009;1.473499089479446E-001;-1.038624644279480E-001;-1.456553349271417E-003;-1.168191782198846E-003;
2.423666666666667E+009;1.473279297351837E-001;-1.054818332195282E-001;-1.538602169603109E-003;-1.243931823410094E-003;
2.423833333333334E+009;1.478880792856216E-001;-1.069111749529839E-001;-1.571566215716302E-003;-1.112844911403954E-003;
2.424000000000000E+009;1.479919403791428E-001;-1.080866828560829E-001;-1.706095994450152E-003;-1.150438562035561E-003;
2.424166666666667E+009;1.483762413263321E-001;-1.094560250639916E-001;-1.695854356512427E-003;-1.052842591889203E-003;
2.424333333333334E+009;1.488637924194336E-001;-1.107416301965714E-001;-1.849842956289649E-003;-9.181806817650795E-004;
2.424500000000000E+009;1.493186950683594E-001;-1.120717078447342E-001;-1.783746993169189E-003;-8.215908892452717E-004;
2.424666666666667E+009;1.496149003505707E-001;-1.129001006484032E-001;-1.815522671677172E-003;-7.747562485747039E-004;
2.424833333333334E+009;1.499871909618378E-001;-1.140110641717911E-001;-1.852188026532531E-003;-6.582447094842792E-004;
2.425000000000000E+009;1.502867192029953E-001;-1.150051653385162E-001;-1.772725256159902E-003;-6.869437056593597E-004;
2.425166666666667E+009;1.504594087600708E-001;-1.158719062805176E-001;-1.890548155643046E-003;-3.897697315551341E-004;
2.425333333333334E+009;1.507976800203323E-001;-1.166246309876442E-001;-1.722184708341956E-003;-3.233216411899775E-004;
2.425500000000000E+009;1.511165201663971E-001;-1.175135523080826E-001;-1.708210329525173E-003;-3.514553245622665E-004;
2.425666666666667E+009;1.511792093515396E-001;-1.180244535207748E-001;-1.855171401984990E-003;-3.526517248246819E-004;
2.425833333333334E+009;1.513929814100266E-001;-1.186408475041390E-001;-1.715853577479720E-003;-4.966817141394131E-005;
2.426000000000000E+009;1.514912098646164E-001;-1.192499175667763E-001;-1.829404383897781E-003;-1.028056212817319E-004;
2.426166666666667E+009;1.517350524663925E-001;-1.194873973727226E-001;-1.715688267722726E-003;-1.768018410075456E-004;
2.426333333333334E+009;1.515737771987915E-001;-1.200345382094383E-001;-1.602652133442462E-003;2.670715912245214E-004;
2.426500000000000E+009;1.516191959381104E-001;-1.203344464302063E-001;-1.620599534362555E-003;1.965756964636967E-004;
2.426666666666667E+009;1.517486125230789E-001;-1.204808130860329E-001;-1.375745283439755E-003;2.566581533756107E-004;
2.426833333333334E+009;1.513601541519165E-001;-1.207696795463562E-001;-1.351007493212819E-003;2.427496510790661E-004;
2.427000000000000E+009;1.511228382587433E-001;-1.211188212037087E-001;-1.237587071955204E-003;2.418395743006840E-004;
2.427166666666667E+009;1.506817936897278E-001;-1.210402697324753E-001;-1.345548778772354E-003;2.889032184612006E-004;
2.427333333333334E+009;1.501915156841278E-001;-1.212087124586105E-001;-1.196107128635049E-003;3.674671170301735E-004;
2.427500000000000E+009;1.497391760349274E-001;-1.214867830276489E-001;-1.164423068985343E-003;2.295673766639084E-004;
2.427666666666667E+009;1.491085141897202E-001;-1.215884685516357E-001;-1.062414841726422E-003;2.168806677218527E-004;
