# Version 1.00
#
freq[Hz];re:Trc1_S11;im:Trc1_S11;re:Trc2_S21;im:Trc2_S21;
2.400000000000000E+009;1.611191183328629E-001;5.720852687954903E-002;-4.574795602820814E-004;4.080927465111017E-003;
2.400166666666667E+009;1.613847911357880E-001;5.574801936745644E-002;-3.635390603449196E-004;4.317664075642824E-003;
2.400333333333334E+009;1.614186018705368E-001;5.383640155196190E-002;-1.655936939641833E-004;4.299973603338003E-003;
2.400500000000000E+009;1.615861803293228E-001;5.191262066364288E-002;-9.552615665597841E-005;4.259004257619381E-003;
2.400666666666667E+009;1.616900265216827E-001;5.013878270983696E-002;-1.866956881713122E-005;4.460311029106379E-003;
2.400833333333334E+009;1.620226800441742E-001;4.838813841342926E-002;9.571294503984973E-005;4.572189878672361E-003;
2.401000000000000E+009;1.622343510389328E-001;4.633595421910286E-002;2.167362981708720E-004;4.543500952422619E-003;
2.401166666666667E+009;1.624764651060104E-001;4.447192326188088E-002;4.196567460894585E-004;4.750237334519625E-003;
2.401333333333334E+009;1.623545587062836E-001;4.257503151893616E-002;5.097531829960644E-004;4.879061598330736E-003;
2.401500000000000E+009;1.630621105432510E-001;4.085181280970573E-002;6.670936709269881E-004;4.776761401444674E-003;
2.401666666666667E+009;1.634075939655304E-001;3.895736113190651E-002;9.360400144942105E-004;4.819124005734921E-003;
2.401833333333334E+009;1.637649089097977E-001;3.700060397386551E-002;1.315917819738388E-003;4.771059844642878E-003;
2.402000000000000E+009;1.640314459800720E-001;3.519953414797783E-002;1.396213308908045E-003;4.824684001505375E-003;
2.402166666666667E+009;1.645390540361404E-001;3.336963430047035E-002;1.639998867176473E-003;4.951408132910729E-003;
2.402333333333334E+009;1.650550365447998E-001;3.160626441240311E-002;1.817240263335407E-003;4.840810783207417E-003;
2.402500000000000E+009;1.660035848617554E-001;3.010470047593117E-002;2.071571769192815E-003;4.770090803503990E-003;
2.402666666666667E+009;1.663559228181839E-001;2.836984209716320E-002;2.249598503112793E-003;4.896311555057764E-003;
2.402833333333334E+009;1.669626832008362E-001;2.689730376005173E-002;2.540469169616699E-003;4.667316097766161E-003;
2.403000000000000E+009;1.675181537866592E-001;2.551249042153359E-002;2.737570088356733E-003;4.530568607151508E-003;
2.403166666666667E+009;1.682523787021637E-001;2.403650805354118E-002;2.897324273362756E-003;4.521242342889309E-003;
2.403333333333334E+009;1.690320968627930E-001;2.289141900837421E-002;3.163805464282632E-003;4.528800491243601E-003;
2.403500000000000E+009;1.696687042713165E-001;2.133110724389553E-002;3.506841370835900E-003;4.183614626526833E-003;
2.403666666666667E+009;1.702385544776917E-001;2.021959610283375E-002;3.713401732966304E-003;4.163324832916260E-003;
2.403833333333334E+009;1.712293922901154E-001;1.895687729120255E-002;3.745792899280787E-003;3.985230345278978E-003;
2.404000000000000E+009;1.716007143259049E-001;1.786274462938309E-002;3.833658527582884E-003;3.810569643974304E-003;
2.404166666666667E+009;1.723673492670059E-001;1.676195859909058E-002;4.186722915619612E-003;3.621345153078437E-003;
2.404333333333334E+009;1.729637831449509E-001;1.605871692299843E-002;4.252620507031679E-003;3.425633069127798E-003;
2.404500000000000E+009;1.737157553434372E-001;1.484905462712050E-002;4.418142139911652E-003;3.025476820766926E-003;
2.404666666666667E+009;1.743391603231430E-001;1.429428067058325E-002;4.574083723127842E-003;2.863682806491852E-003;
2.404833333333334E+009;1.748936623334885E-001;1.346141006797552E-002;4.520301707088947E-003;2.778213704004884E-003;
2.405000000000000E+009;1.755941212177277E-001;1.268692128360272E-002;4.754056688398123E-003;2.599244471639395E-003;
2.405166666666667E+009;1.760323792695999E-001;1.214321423321962E-002;4.761510994285345E-003;2.042626030743122E-003;
2.405333333333334E+009;1.764739155769348E-001;1.134120579808950E-002;4.766233265399933E-003;1.944727613590658E-003;
2.405500000000000E+009;1.770617961883545E-001;1.098899915814400E-002;4.942530300468206E-003;1.785701839253306E-003;
2.405666666666667E+009;1.771809458732605E-001;1.058506406843662E-002;4.887470509856939E-003;1.399167347699404E-003;
2.405833333333334E+009;1.774779558181763E-001;1.011790242046118E-002;4.951176699250937E-003;1.234045950695872E-003;
2.406000000000000E+009;1.778393089771271E-001;9.531576186418533E-003;4.851925652474165E-003;1.057835062965751E-003;
2.406166666666667E+009;1.780185848474503E-001;9.288669563829899E-003;4.908982198685408E-003;8.442905964329839E-004;
2.406333333333334E+009;1.782669275999069E-001;8.885830640792847E-003;4.964673426002264E-003;7.688380428589881E-004;
2.406500000000000E+009;1.784909665584564E-001;8.384820073843002E-003;4.851614125072956E-003;5.974633386358619E-004;
2.406666666666667E+009;1.782800555229187E-001;7.987149991095066E-003;4.851139150559902E-003;2.703639911487699E-004;
2.406833333333334E+009;1.784348189830780E-001;7.515681441873312E-003;4.900346510112286E-003;1.372027909383178E-004;
2.407000000000000E+009;1.782941967248917E-001;7.158807944506407E-003;4.759083036333323E-003;1.170091582025634E-005;
2.407166666666667E+009;1.782421022653580E-001;6.564538925886154E-003;4.573944956064224E-003;-2.507093304302543E-004;
2.407333333333334E+009;1.780039966106415E-001;6.073496770113707E-003;4.625989589840174E-003;-5.187986535020173E-004;
2.407500000000000E+009;1.776968687772751E-001;5.479265935719013E-003;4.385317675769329E-003;-6.234190659597516E-004;
2.407666666666667E+009;1.775637567043304E-001;4.944568499922752E-003;4.320243839174509E-003;-7.860799087211490E-004;
2.407833333333334E+009;1.770107746124268E-001;4.064541310071945E-003;4.271077923476696E-003;-8.596923435106874E-004;
2.408000000000000E+009;1.766824275255203E-001;3.310309257358313E-003;4.103498067706823E-003;-1.178054255433381E-003;
2.408166666666667E+009;1.762325912714005E-001;2.816678024828434E-003;4.074330441653729E-003;-1.182640669867396E-003;
2.408333333333334E+009;1.759452670812607E-001;1.852275920100510E-003;4.023636691272259E-003;-1.355123240500689E-003;
2.408500000000000E+009;1.752881854772568E-001;7.889407570473850E-004;3.954416606575251E-003;-1.471331925131381E-003;
2.408666666666667E+009;1.746647059917450E-001;-8.017312939045951E-005;3.713210811838508E-003;-1.507718814536929E-003;
2.408833333333334E+009;1.742059290409088E-001;-1.182696432806552E-003;3.631772473454475E-003;-1.757398014888167E-003;
2.409000000000000E+009;1.736304908990860E-001;-2.280846470966935E-003;3.472051583230496E-003;-1.576076610945165E-003;
2.409166666666667E+009;1.730939596891403E-001;-3.517326433211565E-003;3.394365077838302E-003;-1.702122390270233E-003;
2.409333333333334E+009;1.725580096244812E-001;-5.011332686990500E-003;3.259656252339482E-003;-1.739985193125904E-003;
2.409500000000000E+009;1.718269735574722E-001;-6.324815563857555E-003;3.050864674150944E-003;-1.835393020883203E-003;
2.409666666666667E+009;1.712413728237152E-001;-7.625230122357607E-003;2.847821451723576E-003;-1.809890149161220E-003;
2.409833333333334E+009;1.707234084606171E-001;-9.268347173929215E-003;2.899473067373037E-003;-2.097711432725191E-003;
2.410000000000000E+009;1.703648865222931E-001;-1.046647969633341E-002;2.769787330180407E-003;-1.993264770135284E-003;
2.410166666666667E+009;1.699445545673370E-001;-1.205153018236160E-002;2.572967670857906E-003;-1.931134844198823E-003;
2.410333333333334E+009;1.693876534700394E-001;-1.382372248917818E-002;2.584223169833422E-003;-1.937178429216147E-003;
2.410500000000000E+009;1.690750420093536E-001;-1.558078546077013E-002;2.450264059007168E-003;-1.842449652031064E-003;
2.410666666666667E+009;1.686632186174393E-001;-1.737147755920887E-002;2.405691426247358E-003;-1.702623674646020E-003;
2.410833333333334E+009;1.684916168451309E-001;-1.901498995721340E-002;2.366158878430724E-003;-1.710706506855786E-003;
2.411000000000000E+009;1.681226640939713E-001;-2.074314095079899E-002;2.390819834545255E-003;-1.742055639624596E-003;
2.411166666666667E+009;1.680461317300797E-001;-2.273773401975632E-002;2.187652979046106E-003;-1.857208088040352E-003;
2.411333333333334E+009;1.679341793060303E-001;-2.450595796108246E-002;2.337119309231639E-003;-1.927533419802785E-003;
2.411500000000000E+009;1.678196936845779E-001;-2.644511684775353E-002;2.129764994606376E-003;-1.815127558074892E-003;
2.411666666666667E+009;1.679348796606064E-001;-2.825556695461273E-002;2.282326109707356E-003;-1.846743398346007E-003;
2.411833333333334E+009;1.679587364196777E-001;-3.007961809635162E-002;2.226798096671701E-003;-1.876196009106934E-003;
2.412000000000000E+009;1.681339442729950E-001;-3.197108581662178E-002;2.066144254058600E-003;-1.964321127161384E-003;
2.412166666666667E+009;1.680889576673508E-001;-3.372726589441299E-002;2.035364042967558E-003;-1.995021477341652E-003;
2.412333333333334E+009;1.684421002864838E-001;-3.559092804789543E-002;2.128628315404058E-003;-2.076046774163842E-003;
2.412500000000000E+009;1.687389910221100E-001;-3.720226511359215E-002;1.979368040338159E-003;-2.188666025176644E-003;
2.412666666666667E+009;1.690573394298554E-001;-3.919960558414459E-002;2.176765818148851E-003;-2.291534328833222E-003;
2.412833333333334E+009;1.695894598960877E-001;-4.084086790680885E-002;2.139436779543757E-003;-2.397419186308980E-003;
2.413000000000000E+009;1.698590517044067E-001;-4.243644326925278E-002;1.989329699426889E-003;-2.373107010498643E-003;
2.413166666666667E+009;1.701592653989792E-001;-4.399999231100082E-002;1.823123544454575E-003;-2.558967797085643E-003;
2.413333333333334E+009;1.707125455141068E-001;-4.552275314927101E-002;1.876282389275730E-003;-2.498286543413997E-003;
2.413500000000000E+009;1.710361093282700E-001;-4.716990143060684E-002;1.771196490153670E-003;-2.563247457146645E-003;
2.413666666666667E+009;1.717549115419388E-001;-4.867371916770935E-002;1.558136544190347E-003;-2.650826238095760E-003;
2.413833333333334E+009;1.722493320703507E-001;-4.998597875237465E-002;1.550622517243028E-003;-2.669328823685646E-003;
2.414000000000000E+009;1.725716292858124E-001;-5.128395929932594E-002;1.470948336645961E-003;-2.844179049134255E-003;
2.414166666666667E+009;1.733414977788925E-001;-5.244550853967667E-002;1.387508586049080E-003;-2.919339109212160E-003;
2.414333333333334E+009;1.737177819013596E-001;-5.347739905118942E-002;1.235823729075491E-003;-2.891514450311661E-003;
2.414500000000000E+009;1.741764545440674E-001;-5.448755621910095E-002;1.003813231363893E-003;-2.966240514069796E-003;
2.414666666666667E+009;1.744310110807419E-001;-5.538542568683624E-002;9.688485297374427E-004;-3.125464078038931E-003;
2.414833333333334E+009;1.750504970550537E-001;-5.643113330006599E-002;7.880262564867735E-004;-2.972328802570701E-003;
2.415000000000000E+009;1.753198057413101E-001;-5.713928490877152E-002;5.342052900232375E-004;-3.017915179952979E-003;
2.415166666666667E+009;1.756305694580078E-001;-5.780664831399918E-002;5.603174213320017E-004;-3.135597798973322E-003;
2.415333333333334E+009;1.761066764593124E-001;-5.851454287767410E-002;4.189629980828613E-004;-3.050568280741572E-003;
2.415500000000000E+009;1.762274503707886E-001;-5.900184065103531E-002;5.181671003811061E-004;-2.882072702050209E-003;
2.415666666666667E+009;1.765018999576569E-001;-5.940534546971321E-002;2.622628235258162E-004;-2.985001774504781E-003;
2.415833333333334E+009;1.766458153724670E-001;-5.993214622139931E-002;1.149278105003759E-004;-2.886177971959114E-003;
2.416000000000000E+009;1.764094084501267E-001;-6.036189571022987E-002;-2.750736894086003E-005;-2.919533755630255E-003;
2.416166666666667E+009;1.765372455120087E-001;-6.082100793719292E-002;-5.939784023212269E-005;-2.938212594017386E-003;
2.416333333333334E+009;1.765057146549225E-001;-6.097946688532829E-002;-9.342905104858801E-005;-2.755149267613888E-003;
2.416500000000000E+009;1.762333959341049E-001;-6.137710809707642E-002;-1.242710277438164E-004;-2.650319132953882E-003;
2.416666666666667E+009;1.759495288133621E-001;-6.146554648876190E-002;-1.842356869019568E-004;-2.658858196809888E-003;
2.416833333333334E+009;1.757070273160934E-001;-6.188557669520378E-002;-3.234195173718035E-004;-2.632037969306111E-003;
2.417000000000000E+009;1.751669496297836E-001;-6.220265105366707E-002;-3.114792343694717E-004;-2.522221533581615E-003;
2.417166666666667E+009;1.746873706579208E-001;-6.226385384798050E-002;-4.519585345406085E-004;-2.524159615859389E-003;
2.417333333333334E+009;1.741476505994797E-001;-6.245024129748344E-002;-5.420728120952845E-004;-2.414475893601775E-003;
2.417500000000000E+009;1.733094602823257E-001;-6.286045163869858E-002;-5.361301009543240E-004;-2.510594436898828E-003;
2.417666666666667E+009;1.726689487695694E-001;-6.306918710470200E-002;-5.577893462032080E-004;-2.207480370998383E-003;
2.417833333333334E+009;1.719469130039215E-001;-6.343440711498261E-002;-7.404795032925904E-004;-2.251610625535250E-003;
2.418000000000000E+009;1.708786636590958E-001;-6.378601491451263E-002;-6.750739994458854E-004;-2.202118281275034E-003;
2.418166666666667E+009;1.697566509246826E-001;-6.404397636651993E-002;-6.986450753174722E-004;-2.133273053914309E-003;
2.418333333333334E+009;1.691232174634934E-001;-6.451476365327835E-002;-7.140840170904994E-004;-2.114993520081043E-003;
2.418500000000000E+009;1.679055988788605E-001;-6.494302302598953E-002;-6.342367269098759E-004;-2.023936249315739E-003;
2.418666666666667E+009;1.668811887502670E-001;-6.555850803852081E-002;-7.846342632547021E-004;-1.955674495548010E-003;
2.418833333333334E+009;1.655946671962738E-001;-6.613739579916000E-002;-7.109844591468573E-004;-1.896768924780190E-003;
2.419000000000000E+009;1.643255800008774E-001;-6.668393313884735E-002;-7.015211740508676E-004;-1.936226035468280E-003;
2.419166666666667E+009;1.633952856063843E-001;-6.738071143627167E-002;-5.800073267892003E-004;-1.948232995346189E-003;
2.419333333333334E+009;1.620463877916336E-001;-6.797315925359726E-002;-8.512393105775118E-004;-1.786664128303528E-003;
2.419500000000000E+009;1.608247607946396E-001;-6.902083754539490E-002;-7.717766566202045E-004;-1.868195133283734E-003;
2.419666666666667E+009;1.598236113786697E-001;-6.983567774295807E-002;-8.325760718435049E-004;-1.807199907489121E-003;
2.419833333333334E+009;1.584199965000153E-001;-7.081344723701477E-002;-8.946548332460225E-004;-1.818936900235713E-003;
2.420000000000000E+009;1.574126482009888E-001;-7.193124294281006E-002;-9.095566347241402E-004;-1.689491211436689E-003;
2.420166666666667E+009;1.562762260437012E-001;-7.287293672561646E-002;-1.007685204967856E-003;-1.756731886416674E-003;
2.420333333333334E+009;1.551559567451477E-001;-7.415392249822617E-002;-9.435532847419381E-004;-1.741293352097273E-003;
2.420500000000000E+009;1.542907357215881E-001;-7.522003352642059E-002;-1.026352634653449E-003;-1.717633800581098E-003;
2.420666666666667E+009;1.532206386327744E-001;-7.659304141998291E-002;-1.144523848779500E-003;-1.750165014527738E-003;
2.420833333333334E+009;1.524884849786758E-001;-7.804004848003388E-002;-1.036246540024877E-003;-1.723470049910247E-003;
2.421000000000000E+009;1.515352576971054E-001;-7.956751435995102E-002;-1.202410669066012E-003;-1.725788577459753E-003;
2.421166666666667E+009;1.506889313459396E-001;-8.099200576543808E-002;-1.245203777216375E-003;-1.491468166932464E-003;
2.421333333333334E+009;1.499603688716888E-001;-8.267900347709656E-002;-1.275761285796762E-003;-1.505292952060700E-003;
2.421500000000000E+009;1.493612974882126E-001;-8.405052125453949E-002;-1.176695222966373E-003;-1.493945252150297E-003;
2.421666666666667E+009;1.487298309803009E-001;-8.577156066894531E-002;-1.139502855949104E-003;-1.592629356309772E-003;
2.421833333333334E+009;1.483301520347595E-001;-8.742423355579376E-002;-1.234346069395542E-003;-1.437609898857772E-003;
2.422000000000000E+009;1.478185951709747E-001;-8.904146403074265E-002;-1.327463192865253E-003;-1.430888660252094E-003;
2.422166666666667E+009;1.474772244691849E-001;-9.085517376661301E-002;-1.315690227784216E-003;-1.485851244069636E-003;
2.422333333333334E+009;1.472008973360062E-001;-9.245289862155914E-002;-1.393718062900007E-003;-1.331792096607387E-003;
2.422500000000000E+009;1.470018029212952E-001;-9.406086802482605E-002;-1.442146720364690E-003;-1.470144488848746E-003;
2.422666666666667E+009;1.468062400817871E-001;-9.588869661092758E-002;-1.308856182731688E-003;-1.401243498548865E-003;
2.422833333333334E+009;1.468830257654190E-001;-9.757836908102036E-002;-1.260894350707531E-003;-1.323133008554578E-003;
2.423000000000000E+009;1.468346118927002E-001;-9.930773824453354E-002;-1.410996657796204E-003;-1.193768926896155E-003;
2.423166666666667E+009;1.470805257558823E-001;-1.009132564067841E-001;-1.423593377694488E-003;-1.269743777811527E-003;
2.423333333333334E+009;1.472782939672470E-001;-1.021486744284630E-001;-1.470836228691042E-003;-1.222150516696274E-003;
2.423500000000000E+009;1.474419832229614E-001;-1.039608418941498E-001;-1.520783058367670E-003;-1.077233464457095E-003;
2.423666666666667E+009;1.474542319774628E-001;-1.055215969681740E-001;-1.676431274972856E-003;-1.131143653765321E-003;
2.423833333333334E+009;1.479913592338562E-001;-1.069153472781181E-001;-1.743331435136497E-003;-1.041033188812435E-003;
2.424000000000000E+009;1.480011045932770E-001;-1.081277579069138E-001;-1.568452222272754E-003;-1.054257038049400E-003;
2.424166666666667E+009;1.483523398637772E-001;-1.095769852399826E-001;-1.583265373483300E-003;-1.116626313887537E-003;
2.424333333333334E+009;1.488350033760071E-001;-1.107251420617104E-001;-1.748897018842399E-003;-1.042508636601269E-003;
2.424500000000000E+009;1.491513550281525E-001;-1.121133714914322E-001;-1.913240295834839E-003;-9.033289388753474E-004;
2.424666666666667E+009;1.495791524648666E-001;-1.129878535866737E-001;-1.872862223535776E-003;-7.167582516558468E-004;
2.424833333333334E+009;1.498883664608002E-001;-1.140271425247192E-001;-1.924670301377773E-003;-6.138409371487796E-004;
2.425000000000000E+009;1.502318084239960E-001;-1.151047199964523E-001;-1.797874341718853E-003;-5.639650044031441E-004;
2.425166666666667E+009;1.504340320825577E-001;-1.158208250999451E-001;-1.973759382963181E-003;-5.515975644811988E-004;
2.425333333333334E+009;1.507185697555542E-001;-1.166650429368019E-001;-1.880475552752614E-003;-4.256402316968888E-004;
2.425500000000000E+009;1.511642187833786E-001;-1.174371466040611E-001;-1.702531706541777E-003;-2.392166643403471E-004;
2.425666666666667E+009;1.512458473443985E-001;-1.179326996207237E-001;-1.805994426831603E-003;-2.316063910257071E-004;
2.425833333333334E+009;1.514304727315903E-001;-1.186235323548317E-001;-1.740581239573658E-003;-2.366997068747878E-004;
2.426000000000000E+009;1.514897793531418E-001;-1.191500574350357E-001;-1.716889673843980E-003;7.222765816550236E-006;
2.426166666666667E+009;1.517939865589142E-001;-1.196650192141533E-001;-1.788639929145575E-003;5.341840733308345E-005;
2.426333333333334E+009;1.516407132148743E-001;-1.200246140360832E-001;-1.589371589943767E-003;1.226107851834968E-004;
2.426500000000000E+009;1.516822278499603E-001;-1.203048974275589E-001;-1.591428765095770E-003;2.488098980393261E-004;
2.426666666666667E+009;1.516783237457275E-001;-1.203842312097549E-001;-1.676610903814435E-003;2.272222482133657E-004;
2.426833333333334E+009;1.514090001583099E-001;-1.207676678895950E-001;-1.433668541722000E-003;1.435811282135546E-004;
2.427000000000000E+009;1.511225104331970E-001;-1.209967359900475E-001;-1.333519234322012E-003;2.870686585083604E-004;
2.427166666666667E+009;1.507786214351654E-001;-1.210390180349350E-001;-1.160237821750343E-003;3.425519389566034E-004;
2.427333333333334E+009;1.501590609550476E-001;-1.212364211678505E-001;-1.342631061561406E-003;4.823397612199187E-004;
2.427500000000000E+009;1.497245430946350E-001;-1.213861107826233E-001;-1.133544370532036E-003;2.949902846012265E-004;
2.427666666666667E+009;1.490602046251297E-001;-1.215882971882820E-001;-9.416256798431277E-004;3.268695145379752E-004;
