# Version 1.00
#
freq[Hz];re:Trc1_S11;im:Trc1_S11;re:Trc2_S21;im:Trc2_S21;
2.400000000000000E+009;1.611981838941574E-001;5.719967558979988E-002;-3.856332914438099E-004;4.120593424886465E-003;
2.400166666666667E+009;1.611238270998001E-001;5.560233443975449E-002;-5.099673871882260E-004;4.199407994747162E-003;
2.400333333333334E+009;1.614255607128143E-001;5.370518937706947E-002;-2.010100579354912E-004;4.360890481621027E-003;
2.400500000000000E+009;1.616207063198090E-001;5.204325169324875E-002;2.655273419804871E-005;4.344988614320755E-003;
2.400666666666667E+009;1.617228835821152E-001;4.999941959977150E-002;1.807915396057069E-005;4.664174281060696E-003;
2.400833333333334E+009;1.617781072854996E-001;4.837003722786903E-002;1.667108590481803E-004;4.492562729865313E-003;
2.401000000000000E+009;1.621077358722687E-001;4.626339673995972E-002;4.326307389419526E-004;4.633033648133278E-003;
2.401166666666667E+009;1.624922156333923E-001;4.449681565165520E-002;4.728153289761394E-004;4.562986548990011E-003;
2.401333333333334E+009;1.626613289117813E-001;4.248169809579849E-002;7.067255210131407E-004;4.672476556152105E-003;
2.401500000000000E+009;1.631017327308655E-001;4.071260243654251E-002;7.661631098017097E-004;4.758637398481369E-003;
2.401666666666667E+009;1.633791029453278E-001;3.888553008437157E-002;9.040754521265626E-004;4.749043844640255E-003;
2.401833333333334E+009;1.638573408126831E-001;3.700404614210129E-002;1.250840257853270E-003;4.977999255061150E-003;
2.402000000000000E+009;1.641659587621689E-001;3.525593876838684E-002;1.443613204173744E-003;4.904048051685095E-003;
2.402166666666667E+009;1.644968390464783E-001;3.338320180773735E-002;1.610548701137304E-003;4.773153457790613E-003;
2.402333333333334E+009;1.651882380247116E-001;3.178083896636963E-002;1.759151229634881E-003;4.859934560954571E-003;
2.402500000000000E+009;1.659670323133469E-001;3.006287105381489E-002;2.018723869696260E-003;4.752681590616703E-003;
2.402666666666667E+009;1.662418097257614E-001;2.853752300143242E-002;2.408352680504322E-003;4.660821519792080E-003;
2.402833333333334E+009;1.668354272842407E-001;2.694540098309517E-002;2.611964708194137E-003;4.772045649588108E-003;
2.403000000000000E+009;1.674560159444809E-001;2.550429850816727E-002;2.751135965809226E-003;4.493420943617821E-003;
2.403166666666667E+009;1.682276278734207E-001;2.411296404898167E-002;2.992492401972413E-003;4.550780169665813E-003;
2.403333333333334E+009;1.687773168087006E-001;2.270881459116936E-002;3.091904800385237E-003;4.388269037008286E-003;
2.403500000000000E+009;1.695219427347183E-001;2.134764008224011E-002;3.315010806545615E-003;4.214918706566095E-003;
2.403666666666667E+009;1.702391803264618E-001;2.014999650418758E-002;3.406131872907281E-003;4.011694341897965E-003;
2.403833333333334E+009;1.709958165884018E-001;1.897775195538998E-002;3.795660100877285E-003;3.828337416052818E-003;
2.404000000000000E+009;1.716618239879608E-001;1.779638417065144E-002;3.772455966100097E-003;3.814306342974305E-003;
2.404166666666667E+009;1.723371744155884E-001;1.680154912173748E-002;4.088389221578836E-003;3.568383632227778E-003;
2.404333333333334E+009;1.731354147195816E-001;1.605546660721302E-002;4.194923210889101E-003;3.339692018926144E-003;
2.404500000000000E+009;1.735141426324844E-001;1.498429756611586E-002;4.291059449315071E-003;3.105467651039362E-003;
2.404666666666667E+009;1.742379516363144E-001;1.420931704342365E-002;4.609404597431421E-003;2.930990653112531E-003;
2.404833333333334E+009;1.748909503221512E-001;1.335720438510180E-002;4.529500845819712E-003;2.690938301384449E-003;
2.405000000000000E+009;1.755904555320740E-001;1.272347755730152E-002;4.795940127223730E-003;2.531840931624174E-003;
2.405166666666667E+009;1.760267615318298E-001;1.212128903716803E-002;4.690219182521105E-003;2.225373871624470E-003;
2.405333333333334E+009;1.765334755182266E-001;1.138571742922068E-002;4.860572516918182E-003;1.893368200398982E-003;
2.405500000000000E+009;1.768946647644043E-001;1.102973707020283E-002;4.921373445540667E-003;1.751742325723171E-003;
2.405666666666667E+009;1.773443520069122E-001;1.047037914395332E-002;4.797069355845451E-003;1.448368653655052E-003;
2.405833333333334E+009;1.774874627590179E-001;1.012945733964443E-002;5.020093638449907E-003;1.494750147685409E-003;
2.406000000000000E+009;1.778638511896133E-001;9.353058412671089E-003;5.017620045691729E-003;1.152620185166597E-003;
2.406166666666667E+009;1.780889332294464E-001;9.350482374429703E-003;4.886516369879246E-003;9.621187928132713E-004;
2.406333333333334E+009;1.783281862735748E-001;8.850648067891598E-003;4.924017470330000E-003;7.072421140037477E-004;
2.406500000000000E+009;1.784013807773590E-001;8.331817574799061E-003;4.850851837545633E-003;3.966952499467880E-004;
2.406666666666667E+009;1.782530546188355E-001;7.977057248353958E-003;4.830805119127035E-003;3.974086721427739E-004;
2.406833333333334E+009;1.783534139394760E-001;7.557235192507505E-003;4.880364518612623E-003;1.385908253723756E-004;
2.407000000000000E+009;1.783439218997955E-001;7.044371217489243E-003;4.768558312207460E-003;-9.485577174928039E-005;
2.407166666666667E+009;1.784122288227081E-001;6.646013818681240E-003;4.687801003456116E-003;-3.517595469020307E-004;
2.407333333333334E+009;1.780235618352890E-001;6.061534397304058E-003;4.517236258834600E-003;-2.770037681329995E-004;
2.407500000000000E+009;1.776877343654633E-001;5.393665283918381E-003;4.390910267829895E-003;-5.728360847570002E-004;
2.407666666666667E+009;1.774554252624512E-001;4.966120701283217E-003;4.440481308847666E-003;-6.811961648054421E-004;
2.407833333333334E+009;1.770236045122147E-001;4.110213369131088E-003;4.294188227504492E-003;-8.596032275818288E-004;
2.408000000000000E+009;1.765241473913193E-001;3.328339196741581E-003;4.248792305588722E-003;-1.059646368958056E-003;
2.408166666666667E+009;1.759836226701737E-001;2.750064712017775E-003;4.122865386307240E-003;-1.311888336203992E-003;
2.408333333333334E+009;1.757657676935196E-001;2.002280903980136E-003;3.997925668954849E-003;-1.186863053590059E-003;
2.408500000000000E+009;1.752661615610123E-001;9.450472425669432E-004;3.752468619495630E-003;-1.320177805610001E-003;
2.408666666666667E+009;1.747175902128220E-001;-1.432163553545252E-004;3.620752831920981E-003;-1.516381744295359E-003;
2.408833333333334E+009;1.741141080856323E-001;-1.127910916693509E-003;3.610900137573481E-003;-1.766434055753052E-003;
2.409000000000000E+009;1.734849363565445E-001;-2.285578753799200E-003;3.409507451578975E-003;-1.756563433445990E-003;
2.409166666666667E+009;1.728477478027344E-001;-3.472167765721679E-003;3.344689728692174E-003;-1.747204689309001E-003;
2.409333333333334E+009;1.724893599748612E-001;-4.853886086493731E-003;3.271970199421048E-003;-1.801180187612772E-003;
2.409500000000000E+009;1.718326210975647E-001;-6.279799621552229E-003;3.036718815565109E-003;-1.794894807972014E-003;
2.409666666666667E+009;1.711878329515457E-001;-7.511082105338574E-003;2.994922921061516E-003;-1.926494995132089E-003;
2.409833333333334E+009;1.707367151975632E-001;-8.974246680736542E-003;2.811424434185028E-003;-1.976561732590199E-003;
2.410000000000000E+009;1.703784912824631E-001;-1.056221872568131E-002;2.723630052059889E-003;-1.845995197072625E-003;
2.410166666666667E+009;1.698873341083527E-001;-1.220100093632937E-002;2.690753899514675E-003;-1.972269266843796E-003;
2.410333333333334E+009;1.693665981292725E-001;-1.379590667784214E-002;2.610184019431472E-003;-1.926144585013390E-003;
2.410500000000000E+009;1.690883785486221E-001;-1.546210888773203E-002;2.452620072290301E-003;-1.945041818544269E-003;
2.410666666666667E+009;1.684614270925522E-001;-1.746751926839352E-002;2.429208019748330E-003;-1.907318946905434E-003;
2.410833333333334E+009;1.683233678340912E-001;-1.906110346317291E-002;2.453183988109231E-003;-2.000582637265325E-003;
2.411000000000000E+009;1.681521683931351E-001;-2.075799927115440E-002;2.191886538639665E-003;-1.885107252746820E-003;
2.411166666666667E+009;1.679346263408661E-001;-2.251284755766392E-002;2.303195185959339E-003;-1.739665400236845E-003;
2.411333333333334E+009;1.679025888442993E-001;-2.446831949055195E-002;2.270109485834837E-003;-1.793680945411325E-003;
2.411500000000000E+009;1.677419394254684E-001;-2.650734037160873E-002;2.208120888099074E-003;-1.957654021680355E-003;
2.411666666666667E+009;1.678350418806076E-001;-2.826969698071480E-002;2.272628014907241E-003;-1.951581216417253E-003;
2.411833333333334E+009;1.678536832332611E-001;-2.995019964873791E-002;2.106875181198120E-003;-2.137157833203673E-003;
2.412000000000000E+009;1.680062115192413E-001;-3.190495818853378E-002;2.249693265184760E-003;-2.044288674369454E-003;
2.412166666666667E+009;1.681582033634186E-001;-3.377997502684593E-002;2.101473743095994E-003;-2.087787492200732E-003;
2.412333333333334E+009;1.686183810234070E-001;-3.555531054735184E-002;2.128651132807136E-003;-2.168122911825776E-003;
2.412500000000000E+009;1.686770468950272E-001;-3.720814362168312E-002;2.122323028743267E-003;-2.059079706668854E-003;
2.412666666666667E+009;1.691972911357880E-001;-3.915078565478325E-002;2.185503020882607E-003;-2.294697100296617E-003;
2.412833333333334E+009;1.693020761013031E-001;-4.085271060466766E-002;2.053974196314812E-003;-2.390672452747822E-003;
2.413000000000000E+009;1.697690486907959E-001;-4.232260584831238E-002;2.098949160426855E-003;-2.309570554643869E-003;
2.413166666666667E+009;1.703401654958725E-001;-4.409133270382881E-002;1.843044883571565E-003;-2.477954141795635E-003;
2.413333333333334E+009;1.705512553453445E-001;-4.563554376363754E-002;1.841365592554212E-003;-2.616391284391284E-003;
2.413500000000000E+009;1.712143570184708E-001;-4.701645299792290E-002;1.704342430457473E-003;-2.564807888120413E-003;
2.413666666666667E+009;1.717188209295273E-001;-4.843939095735550E-002;1.629041624255478E-003;-2.770998515188694E-003;
2.413833333333334E+009;1.721548438072205E-001;-4.993577674031258E-002;1.561404671519995E-003;-2.679072553291917E-003;
2.414000000000000E+009;1.725948899984360E-001;-5.112832784652710E-002;1.401706249453127E-003;-2.823859918862581E-003;
2.414166666666667E+009;1.732940673828125E-001;-5.238416418433189E-002;1.468692091293633E-003;-2.918759826570749E-003;
2.414333333333334E+009;1.736142933368683E-001;-5.341956764459610E-002;1.280141761526465E-003;-2.895398298278451E-003;
2.414500000000000E+009;1.743749231100082E-001;-5.436053127050400E-002;1.032733824104071E-003;-2.871781820431352E-003;
2.414666666666667E+009;1.746216565370560E-001;-5.531031638383865E-002;9.896211558952928E-004;-2.935006516054273E-003;
2.414833333333334E+009;1.749463081359863E-001;-5.639689415693283E-002;8.740049088373780E-004;-3.033040557056665E-003;
2.415000000000000E+009;1.752675324678421E-001;-5.706239864230156E-002;7.307878113351762E-004;-2.984805498272181E-003;
2.415166666666667E+009;1.756844818592072E-001;-5.772694200277329E-002;6.095195421949029E-004;-3.050772473216057E-003;
2.415333333333334E+009;1.760759353637695E-001;-5.846913903951645E-002;4.641299019567668E-004;-2.794442465528846E-003;
2.415500000000000E+009;1.764093041419983E-001;-5.903459712862968E-002;4.185103171039373E-004;-2.853085286915302E-003;
2.415666666666667E+009;1.763915270566940E-001;-5.922798067331314E-002;2.565798640716821E-004;-2.880214015021920E-003;
2.415833333333334E+009;1.766284406185150E-001;-6.000996381044388E-002;2.122687437804416E-004;-3.019555006176233E-003;
2.416000000000000E+009;1.764914691448212E-001;-6.039251759648323E-002;1.855531263572630E-005;-2.829893026500940E-003;
2.416166666666667E+009;1.766862124204636E-001;-6.074734777212143E-002;-1.774953125277534E-004;-2.761224983260036E-003;
2.416333333333334E+009;1.764104068279266E-001;-6.093266978859901E-002;-1.053396190400235E-004;-2.811941551044583E-003;
2.416500000000000E+009;1.763424724340439E-001;-6.136746704578400E-002;-9.174576553050429E-005;-2.777192974463105E-003;
2.416666666666667E+009;1.760100573301315E-001;-6.147697940468788E-002;-2.503497526049614E-004;-2.629401162266731E-003;
2.416833333333334E+009;1.757200211286545E-001;-6.187799200415611E-002;-3.807746979873627E-004;-2.668464090675116E-003;
2.417000000000000E+009;1.750790923833847E-001;-6.208491325378418E-002;-4.314366087783128E-004;-2.510629128664732E-003;
2.417166666666667E+009;1.747742593288422E-001;-6.212929263710976E-002;-5.996666732244194E-004;-2.491544932126999E-003;
2.417333333333334E+009;1.740947514772415E-001;-6.245400011539459E-002;-5.466948496177793E-004;-2.343161497265101E-003;
2.417500000000000E+009;1.732894182205200E-001;-6.305611133575440E-002;-5.851649912074208E-004;-2.361904131248593E-003;
2.417666666666667E+009;1.727311462163925E-001;-6.299946457147598E-002;-5.647647776640952E-004;-2.368059940636158E-003;
2.417833333333334E+009;1.718464493751526E-001;-6.331840902566910E-002;-5.588987842202187E-004;-2.299430081620812E-003;
2.418000000000000E+009;1.709205955266953E-001;-6.380023807287216E-002;-6.294583436101675E-004;-2.141795819625258E-003;
2.418166666666667E+009;1.699273139238358E-001;-6.389459967613220E-002;-7.503681699745357E-004;-2.123364247381687E-003;
2.418333333333334E+009;1.691023111343384E-001;-6.448256969451904E-002;-7.706941105425358E-004;-2.181485528126359E-003;
2.418500000000000E+009;1.681181639432907E-001;-6.499909609556198E-002;-6.947439978830516E-004;-2.162309130653739E-003;
2.418666666666667E+009;1.669666022062302E-001;-6.547102332115173E-002;-7.666640449315310E-004;-1.966519281268120E-003;
2.418833333333334E+009;1.656362861394882E-001;-6.604388356208801E-002;-6.576285813935101E-004;-2.020881045609713E-003;
2.419000000000000E+009;1.644573360681534E-001;-6.662859022617340E-002;-6.883294554427266E-004;-1.946384203620255E-003;
2.419166666666667E+009;1.632243990898132E-001;-6.742291897535324E-002;-8.315680315718055E-004;-2.095925388857722E-003;
2.419333333333334E+009;1.620225459337235E-001;-6.789097189903259E-002;-7.853013230487704E-004;-1.942586735822260E-003;
2.419500000000000E+009;1.608096808195114E-001;-6.892278790473938E-002;-9.133607381954789E-004;-1.839889911934733E-003;
2.419666666666667E+009;1.598120778799057E-001;-6.994725763797760E-002;-8.506187587045133E-004;-1.825272687710822E-003;
2.419833333333334E+009;1.584848016500473E-001;-7.071430981159210E-002;-7.526222616434097E-004;-1.749695045873523E-003;
2.420000000000000E+009;1.573693156242371E-001;-7.180213928222656E-002;-9.794612415134907E-004;-1.891431165859103E-003;
2.420166666666667E+009;1.563690304756165E-001;-7.291071116924286E-002;-9.297892102040350E-004;-1.870807376690209E-003;
2.420333333333334E+009;1.552279293537140E-001;-7.428202778100967E-002;-1.042455201968551E-003;-1.749239512719214E-003;
2.420500000000000E+009;1.542909294366837E-001;-7.526314258575440E-002;-1.028274418786168E-003;-1.762738917022944E-003;
2.420666666666667E+009;1.531876176595688E-001;-7.651019841432571E-002;-1.074277097359300E-003;-1.754253869876266E-003;
2.420833333333334E+009;1.523519903421402E-001;-7.792065292596817E-002;-1.120864297263324E-003;-1.814600196667016E-003;
2.421000000000000E+009;1.514526009559631E-001;-7.946622371673584E-002;-1.186646521091461E-003;-1.759626436978579E-003;
2.421166666666667E+009;1.507768779993057E-001;-8.095729351043701E-002;-1.204470521770418E-003;-1.696238177828491E-003;
2.421333333333334E+009;1.500307172536850E-001;-8.253549039363861E-002;-1.221511862240732E-003;-1.725233159959316E-003;
2.421500000000000E+009;1.492378711700440E-001;-8.404970169067383E-002;-1.155721489340067E-003;-1.717921695671976E-003;
2.421666666666667E+009;1.487822234630585E-001;-8.576433360576630E-002;-1.191370887681842E-003;-1.579210162162781E-003;
2.421833333333334E+009;1.483246386051178E-001;-8.740863949060440E-002;-1.130972639657557E-003;-1.457691309042275E-003;
2.422000000000000E+009;1.478793770074844E-001;-8.914139866828919E-002;-1.254931325092912E-003;-1.453069504350424E-003;
2.422166666666667E+009;1.477009057998657E-001;-9.085434675216675E-002;-1.216364325955510E-003;-1.334730186499655E-003;
2.422333333333334E+009;1.473032534122467E-001;-9.235794842243195E-002;-1.444853493012488E-003;-1.258033909834921E-003;
2.422500000000000E+009;1.471111923456192E-001;-9.422273933887482E-002;-1.342130242846906E-003;-1.340184360742569E-003;
2.422666666666667E+009;1.469804942607880E-001;-9.588753432035446E-002;-1.286418177187443E-003;-1.251919195055962E-003;
2.422833333333334E+009;1.468713432550430E-001;-9.753020107746124E-002;-1.255255541764200E-003;-1.407043193466961E-003;
2.423000000000000E+009;1.469691246747971E-001;-9.926690906286240E-002;-1.457490026950836E-003;-1.331825158558786E-003;
2.423166666666667E+009;1.470854282379150E-001;-1.008287668228149E-001;-1.542847719974816E-003;-1.259348704479635E-003;
2.423333333333334E+009;1.472616195678711E-001;-1.022807285189629E-001;-1.556239556521177E-003;-1.195142278447747E-003;
2.423500000000000E+009;1.473387032747269E-001;-1.039516404271126E-001;-1.497807214036584E-003;-1.248536049388349E-003;
2.423666666666667E+009;1.475428789854050E-001;-1.054823547601700E-001;-1.552282948978245E-003;-1.076397253200412E-003;
2.423833333333334E+009;1.479474306106567E-001;-1.069577112793922E-001;-1.568727428093553E-003;-1.090636244043708E-003;
2.424000000000000E+009;1.482459008693695E-001;-1.081727370619774E-001;-1.723182271234691E-003;-1.131381723098457E-003;
2.424166666666667E+009;1.484019756317139E-001;-1.095228567719460E-001;-1.670703990384936E-003;-8.666350622661412E-004;
2.424333333333334E+009;1.488008648157120E-001;-1.107016056776047E-001;-1.874804613180459E-003;-7.787606446072459E-004;
2.424500000000000E+009;1.491815745830536E-001;-1.118828058242798E-001;-1.925781485624611E-003;-8.189455256797373E-004;
2.424666666666667E+009;1.496760696172714E-001;-1.128611788153648E-001;-1.859999611042440E-003;-7.588284788653255E-004;
2.424833333333334E+009;1.497349143028259E-001;-1.140592619776726E-001;-1.908571692183614E-003;-7.819193997420371E-004;
2.425000000000000E+009;1.502311825752258E-001;-1.149603202939034E-001;-1.829061191529036E-003;-6.457626004703343E-004;
2.425166666666667E+009;1.504473388195038E-001;-1.158878505229950E-001;-1.940272166393697E-003;-5.448430893011391E-004;
2.425333333333334E+009;1.508695930242539E-001;-1.166853010654450E-001;-1.902327989228070E-003;-3.204305248800665E-004;
2.425500000000000E+009;1.512918174266815E-001;-1.174237355589867E-001;-1.824278035201132E-003;-3.514041309244931E-004;
2.425666666666667E+009;1.512043923139572E-001;-1.178968772292137E-001;-1.894319662824273E-003;-2.331975701963529E-004;
2.425833333333334E+009;1.514175534248352E-001;-1.186177283525467E-001;-1.807186985388398E-003;-1.481363724451512E-004;
2.426000000000000E+009;1.515626311302185E-001;-1.190510094165802E-001;-1.880909316241741E-003;4.793038897332735E-005;
2.426166666666667E+009;1.517684310674667E-001;-1.196416541934013E-001;-1.601333613507450E-003;7.216377707663924E-005;
2.426333333333334E+009;1.517461538314819E-001;-1.199889183044434E-001;-1.637410605326295E-003;6.549464160343632E-005;
2.426500000000000E+009;1.517463624477387E-001;-1.203330159187317E-001;-1.812317874282599E-003;1.600312243681401E-004;
2.426666666666667E+009;1.516866534948349E-001;-1.203733757138252E-001;-1.624711439944804E-003;1.770725793903694E-004;
2.426833333333334E+009;1.514639705419540E-001;-1.206953302025795E-001;-1.320788753218949E-003;1.741728483466432E-004;
2.427000000000000E+009;1.511287838220596E-001;-1.209417432546616E-001;-1.430978649295867E-003;3.265826380811632E-004;
2.427166666666667E+009;1.507216691970825E-001;-1.211027950048447E-001;-1.315367291681469E-003;3.971192927565426E-004;
2.427333333333334E+009;1.502228230237961E-001;-1.212963908910751E-001;-1.256515039131045E-003;4.161665856372565E-004;
2.427500000000000E+009;1.498178392648697E-001;-1.214445903897286E-001;-1.271665794774890E-003;3.259495424572378E-004;
2.427666666666667E+009;1.490902900695801E-001;-1.215276196599007E-001;-1.126893912442029E-003;3.903481410816312E-004;
