# Version 1.00
#
freq[Hz];re:Trc1_S11;im:Trc1_S11;re:Trc2_S21;im:Trc2_S21;
2.400000000000000E+009;1.611031144857407E-001;5.708087980747223E-002;-2.184672339353710E-004;4.277493339031935E-003;
2.400166666666667E+009;1.612436324357987E-001;5.562237277626991E-002;-2.104467566823587E-004;4.345428664237261E-003;
2.400333333333334E+009;1.613218486309052E-001;5.380288884043694E-002;-1.887707185233012E-005;4.532109946012497E-003;
2.400500000000000E+009;1.615007668733597E-001;5.184948444366455E-002;7.775306585244834E-005;4.512727726250887E-003;
2.400666666666667E+009;1.616171896457672E-001;5.001700296998024E-002;1.543797116028145E-004;4.568148870021105E-003;
2.400833333333334E+009;1.620697081089020E-001;4.824934899806976E-002;3.474005206953734E-004;4.637292586266995E-003;
2.401000000000000E+009;1.620707660913467E-001;4.638382419943810E-002;4.402614722494036E-004;4.768577404320240E-003;
2.401166666666667E+009;1.623190343379974E-001;4.441821202635765E-002;5.225263885222375E-004;4.759278614073992E-003;
2.401333333333334E+009;1.625400930643082E-001;4.242872819304466E-002;6.804288714192808E-004;4.871311597526074E-003;
2.401500000000000E+009;1.629750430583954E-001;4.060655087232590E-002;9.062377503141761E-004;4.892504308372736E-003;
2.401666666666667E+009;1.633409559726715E-001;3.899104148149490E-002;1.172856427729130E-003;4.876237362623215E-003;
2.401833333333334E+009;1.637145727872849E-001;3.700506687164307E-002;1.506141736172140E-003;4.820803180336952E-003;
2.402000000000000E+009;1.641479283571243E-001;3.508798032999039E-002;1.564744976349175E-003;5.013121291995049E-003;
2.402166666666667E+009;1.646040380001068E-001;3.343418240547180E-002;1.706508570350707E-003;4.825530573725700E-003;
2.402333333333334E+009;1.650879681110382E-001;3.175655752420425E-002;1.995514146983624E-003;4.908568225800991E-003;
2.402500000000000E+009;1.659496277570725E-001;3.019480593502522E-002;2.356014447286725E-003;4.839402623474598E-003;
2.402666666666667E+009;1.661879867315292E-001;2.853726223111153E-002;2.493964973837137E-003;4.767035599797964E-003;
2.402833333333334E+009;1.669261306524277E-001;2.691406384110451E-002;2.706289058551192E-003;4.619466606527567E-003;
2.403000000000000E+009;1.674004197120667E-001;2.545649558305740E-002;2.878276631236076E-003;4.624598659574986E-003;
2.403166666666667E+009;1.682599186897278E-001;2.400883473455906E-002;3.111144993454218E-003;4.493753425776959E-003;
2.403333333333334E+009;1.689167767763138E-001;2.277239412069321E-002;3.342394949868321E-003;4.365551751106978E-003;
2.403500000000000E+009;1.695521771907806E-001;2.139185741543770E-002;3.599897725507617E-003;4.347408190369606E-003;
2.403666666666667E+009;1.703143268823624E-001;2.018527500331402E-002;3.731459844857454E-003;4.075107164680958E-003;
2.403833333333334E+009;1.710204333066940E-001;1.902073621749878E-002;3.969085868448019E-003;3.911145031452179E-003;
2.404000000000000E+009;1.716681122779846E-001;1.782466098666191E-002;4.042993299663067E-003;3.740541404113174E-003;
2.404166666666667E+009;1.723662912845612E-001;1.685646176338196E-002;4.229405894875526E-003;3.556729527190328E-003;
2.404333333333334E+009;1.730624586343765E-001;1.597181521356106E-002;4.635218996554613E-003;3.379247849807143E-003;
2.404500000000000E+009;1.735747009515762E-001;1.495912112295628E-002;4.585418850183487E-003;3.075745189562440E-003;
2.404666666666667E+009;1.741864532232285E-001;1.425118930637837E-002;4.733209032565355E-003;2.862414345145226E-003;
2.404833333333334E+009;1.748787760734558E-001;1.340920384973288E-002;4.818951245397329E-003;2.493335166946054E-003;
2.405000000000000E+009;1.753099262714386E-001;1.267047692090273E-002;4.900299478322268E-003;2.343919361010194E-003;
2.405166666666667E+009;1.758287996053696E-001;1.205427944660187E-002;5.032322369515896E-003;2.209044760093093E-003;
2.405333333333334E+009;1.764888316392899E-001;1.148354355245829E-002;5.122352391481400E-003;1.809632987715304E-003;
2.405500000000000E+009;1.768449842929840E-001;1.089766900986433E-002;4.845877178013325E-003;1.658965484239161E-003;
2.405666666666667E+009;1.774638146162033E-001;1.055655069649220E-002;5.201596766710281E-003;1.488512614741921E-003;
2.405833333333334E+009;1.774513274431229E-001;1.014528609812260E-002;5.000545643270016E-003;1.013866974972189E-003;
2.406000000000000E+009;1.779292076826096E-001;9.407567791640759E-003;5.005894694477320E-003;9.286124259233475E-004;
2.406166666666667E+009;1.779406219720841E-001;9.313759393990040E-003;5.097029730677605E-003;8.895102073438466E-004;
2.406333333333334E+009;1.784132719039917E-001;8.971621282398701E-003;4.996600560843945E-003;5.043100682087243E-004;
2.406500000000000E+009;1.783789843320847E-001;8.347831666469574E-003;4.976887255907059E-003;3.436507249716669E-004;
2.406666666666667E+009;1.781751513481140E-001;8.069478906691074E-003;4.948538728058338E-003;4.967247150489129E-005;
2.406833333333334E+009;1.782390624284744E-001;7.474701851606369E-003;4.983929451555014E-003;-1.470747229177505E-004;
2.407000000000000E+009;1.782329082489014E-001;7.213343400508165E-003;4.651051945984364E-003;-3.571095294319093E-004;
2.407166666666667E+009;1.781805604696274E-001;6.722834892570972E-003;4.671774804592133E-003;-4.387461231090128E-004;
2.407333333333334E+009;1.777851581573486E-001;6.129626650363207E-003;4.452898167073727E-003;-5.063369753770530E-004;
2.407500000000000E+009;1.777721047401428E-001;5.571787245571613E-003;4.566283430904150E-003;-7.441623602062464E-004;
2.407666666666667E+009;1.773589104413986E-001;4.956803284585476E-003;4.329226911067963E-003;-9.215776226483285E-004;
2.407833333333334E+009;1.768480539321899E-001;4.235297441482544E-003;4.463044926524162E-003;-1.076551037840545E-003;
2.408000000000000E+009;1.765790581703186E-001;3.502383362501860E-003;4.209331236779690E-003;-1.189205329865217E-003;
2.408166666666667E+009;1.760624498128891E-001;2.850198419764638E-003;4.094309173524380E-003;-1.365270931273699E-003;
2.408333333333334E+009;1.757383942604065E-001;2.039034385234118E-003;4.109479486942291E-003;-1.412877230904996E-003;
2.408500000000000E+009;1.751361042261124E-001;1.044369651935995E-003;3.735944861546159E-003;-1.562001183629036E-003;
2.408666666666667E+009;1.748064607381821E-001;-6.624615343753249E-005;3.762299893423915E-003;-1.724717556498945E-003;
2.408833333333334E+009;1.741511672735214E-001;-1.142343506217003E-003;3.683494171127677E-003;-1.827329862862825E-003;
2.409000000000000E+009;1.735232621431351E-001;-2.342793159186840E-003;3.495584009215236E-003;-1.966669457033277E-003;
2.409166666666667E+009;1.729440242052078E-001;-3.500955644994974E-003;3.370591672137380E-003;-1.878603012301028E-003;
2.409333333333334E+009;1.724980175495148E-001;-4.741516895592213E-003;3.201408078894019E-003;-2.028140937909484E-003;
2.409500000000000E+009;1.718703061342239E-001;-6.317459512501955E-003;3.059502923861146E-003;-1.939150504767895E-003;
2.409666666666667E+009;1.712512373924255E-001;-7.398625370115042E-003;2.937490586191416E-003;-2.036197809502482E-003;
2.409833333333334E+009;1.706219464540482E-001;-8.988504298031330E-003;2.827771706506610E-003;-2.043185755610466E-003;
2.410000000000000E+009;1.703877747058868E-001;-1.045016758143902E-002;2.751114079728723E-003;-2.080050762742758E-003;
2.410166666666667E+009;1.699651926755905E-001;-1.185378618538380E-002;2.696416806429625E-003;-2.047843765467405E-003;
2.410333333333334E+009;1.692711561918259E-001;-1.371797546744347E-002;2.607103902846575E-003;-2.100056037306786E-003;
2.410500000000000E+009;1.690542101860046E-001;-1.535230036824942E-002;2.542834030464292E-003;-2.080399077385664E-003;
2.410666666666667E+009;1.686357706785202E-001;-1.713963970541954E-002;2.373479772359133E-003;-2.070334739983082E-003;
2.410833333333334E+009;1.684035062789917E-001;-1.891761273145676E-002;2.234932733699679E-003;-2.117080613970757E-003;
2.411000000000000E+009;1.682200729846954E-001;-2.071876078844070E-002;2.341483952477574E-003;-1.944138552062213E-003;
2.411166666666667E+009;1.677661538124085E-001;-2.262700907886028E-002;2.257544547319412E-003;-2.182554919272661E-003;
2.411333333333334E+009;1.677626669406891E-001;-2.433059364557266E-002;2.220221096649766E-003;-2.045265864580870E-003;
2.411500000000000E+009;1.677821725606918E-001;-2.633911930024624E-002;2.190718427300453E-003;-2.007638802751899E-003;
2.411666666666667E+009;1.678426712751389E-001;-2.806259691715241E-002;2.145131118595600E-003;-2.004852984100580E-003;
2.411833333333334E+009;1.678413450717926E-001;-2.994481474161148E-002;2.169392770156264E-003;-2.190239727497101E-003;
2.412000000000000E+009;1.681049615144730E-001;-3.177828341722488E-002;2.145846374332905E-003;-2.046066801995039E-003;
2.412166666666667E+009;1.681616604328156E-001;-3.375528380274773E-002;2.121069235727191E-003;-2.245169132947922E-003;
2.412333333333334E+009;1.684932112693787E-001;-3.535918891429901E-002;2.050529466941953E-003;-2.210224978625774E-003;
2.412500000000000E+009;1.688555032014847E-001;-3.717517107725143E-002;2.034326083958149E-003;-2.318616723641753E-003;
2.412666666666667E+009;1.691201031208038E-001;-3.903990238904953E-002;1.926096971146762E-003;-2.367012668401003E-003;
2.412833333333334E+009;1.695229709148407E-001;-4.071697592735291E-002;1.986909424886107E-003;-2.441894495859742E-003;
2.413000000000000E+009;1.700277030467987E-001;-4.239531978964806E-002;1.864133402705193E-003;-2.582433167845011E-003;
2.413166666666667E+009;1.702401041984558E-001;-4.394577816128731E-002;1.741497195325792E-003;-2.743938239291310E-003;
2.413333333333334E+009;1.706065684556961E-001;-4.555457830429077E-002;1.824120292440057E-003;-2.711225533857942E-003;
2.413500000000000E+009;1.713580042123795E-001;-4.708527401089668E-002;1.637512585148215E-003;-2.761071780696511E-003;
2.413666666666667E+009;1.716978698968887E-001;-4.856609553098679E-002;1.420628977939487E-003;-2.897843718528748E-003;
2.413833333333334E+009;1.720976084470749E-001;-4.987282678484917E-002;1.347454614005983E-003;-2.938477788120508E-003;
2.414000000000000E+009;1.724940985441208E-001;-5.125552043318749E-002;1.294344197958708E-003;-2.855407539755106E-003;
2.414166666666667E+009;1.732346266508102E-001;-5.237790942192078E-002;1.168682938441634E-003;-2.936863573268056E-003;
2.414333333333334E+009;1.736753880977631E-001;-5.348293110728264E-002;1.105967559851706E-003;-3.077071625739336E-003;
2.414500000000000E+009;1.741596758365631E-001;-5.451533198356628E-002;8.519099210388959E-004;-3.080011112615466E-003;
2.414666666666667E+009;1.745730042457581E-001;-5.537110194563866E-002;7.953091990202665E-004;-2.983958926051855E-003;
2.414833333333334E+009;1.749742329120636E-001;-5.638264864683151E-002;6.704225088469684E-004;-2.994150854647160E-003;
2.415000000000000E+009;1.753447949886322E-001;-5.704069882631302E-002;5.531843053176999E-004;-3.028335515409708E-003;
2.415166666666667E+009;1.756956428289414E-001;-5.782482028007507E-002;3.565924416761845E-004;-3.135700710117817E-003;
2.415333333333334E+009;1.761267185211182E-001;-5.844419822096825E-002;1.560262753628194E-004;-2.974167698994279E-003;
2.415500000000000E+009;1.762694716453552E-001;-5.899753421545029E-002;6.837629189249128E-005;-2.951268339529634E-003;
2.415666666666667E+009;1.764210760593414E-001;-5.946775525808334E-002;4.549636651063338E-005;-2.821194706484675E-003;
2.415833333333334E+009;1.766363233327866E-001;-5.996107310056686E-002;-1.277644187211990E-004;-2.800343791022897E-003;
2.416000000000000E+009;1.763453334569931E-001;-6.039871275424957E-002;-2.373005991103128E-004;-2.859417116269469E-003;
2.416166666666667E+009;1.766244918107987E-001;-6.068655475974083E-002;-1.474120363127440E-004;-2.791116014122963E-003;
2.416333333333334E+009;1.763830929994583E-001;-6.092989444732666E-002;-2.265053626615554E-004;-2.660313155502081E-003;
2.416500000000000E+009;1.763023585081101E-001;-6.138752400875092E-002;-4.850388504564762E-004;-2.751990919932723E-003;
2.416666666666667E+009;1.759396642446518E-001;-6.149664148688316E-002;-5.825272528454661E-004;-2.662959275767207E-003;
2.416833333333334E+009;1.755833029747009E-001;-6.190193817019463E-002;-5.205964553169906E-004;-2.511292463168502E-003;
2.417000000000000E+009;1.751762479543686E-001;-6.203298643231392E-002;-7.014722214080393E-004;-2.459466224536300E-003;
2.417166666666667E+009;1.746274381875992E-001;-6.237297877669334E-002;-7.075769826769829E-004;-2.378683071583509E-003;
2.417333333333334E+009;1.740345954895020E-001;-6.243991106748581E-002;-8.486576844006777E-004;-2.316433936357498E-003;
2.417500000000000E+009;1.733544319868088E-001;-6.294864416122437E-002;-7.746521732769907E-004;-2.247269498184323E-003;
2.417666666666667E+009;1.727470904588699E-001;-6.298696994781494E-002;-7.341383607126772E-004;-2.234262647107244E-003;
2.417833333333334E+009;1.718606352806091E-001;-6.323701143264771E-002;-7.778383442200720E-004;-2.098359400406480E-003;
2.418000000000000E+009;1.708606034517288E-001;-6.377302855253220E-002;-9.094968554563820E-004;-2.208776539191604E-003;
2.418166666666667E+009;1.699642091989517E-001;-6.385860592126846E-002;-1.013503875583410E-003;-2.049386035650969E-003;
2.418333333333334E+009;1.692086309194565E-001;-6.443857401609421E-002;-7.134855259209871E-004;-1.793843694031239E-003;
2.418500000000000E+009;1.679511964321137E-001;-6.480449438095093E-002;-8.102816645987332E-004;-2.018114784732461E-003;
2.418666666666667E+009;1.670191884040833E-001;-6.542995572090149E-002;-7.296178373508155E-004;-1.822240068577230E-003;
2.418833333333334E+009;1.656258106231690E-001;-6.593276560306549E-002;-7.426605443470180E-004;-1.924104522913694E-003;
2.419000000000000E+009;1.642853468656540E-001;-6.658960878849030E-002;-8.944210712797940E-004;-1.720945117995143E-003;
2.419166666666667E+009;1.633089780807495E-001;-6.726791709661484E-002;-9.861931903287768E-004;-1.821558224037290E-003;
2.419333333333334E+009;1.618861854076386E-001;-6.789443641901016E-002;-8.020912646315992E-004;-1.770175527781248E-003;
2.419500000000000E+009;1.609032899141312E-001;-6.890977174043655E-002;-8.712886483408511E-004;-1.755218720063567E-003;
2.419666666666667E+009;1.598966270685196E-001;-6.983853131532669E-002;-9.211272699758411E-004;-1.762151252478361E-003;
2.419833333333334E+009;1.585102677345276E-001;-7.068158686161041E-002;-9.223815286532044E-004;-1.681994646787643E-003;
2.420000000000000E+009;1.574936807155609E-001;-7.181911170482636E-002;-9.333284688182175E-004;-1.692089368589222E-003;
2.420166666666667E+009;1.562223136425018E-001;-7.291242480278015E-002;-8.448894950561225E-004;-1.724007190205157E-003;
2.420333333333334E+009;1.552670896053314E-001;-7.404671609401703E-002;-1.085803029127419E-003;-1.756418845616281E-003;
2.420500000000000E+009;1.541783511638641E-001;-7.534415274858475E-002;-9.940393501892686E-004;-1.772417104803026E-003;
2.420666666666667E+009;1.531535685062408E-001;-7.659731060266495E-002;-1.074060099199414E-003;-1.558156218379736E-003;
2.420833333333334E+009;1.523535400629044E-001;-7.802463322877884E-002;-1.009488943964243E-003;-1.650172867812216E-003;
2.421000000000000E+009;1.513913869857788E-001;-7.950854301452637E-002;-1.157782156951726E-003;-1.588695799000561E-003;
2.421166666666667E+009;1.506266593933106E-001;-8.104109019041061E-002;-1.044271746650338E-003;-1.575916307047010E-003;
2.421333333333334E+009;1.499155312776566E-001;-8.256533741950989E-002;-1.094406004995108E-003;-1.473755226470530E-003;
2.421500000000000E+009;1.494171172380447E-001;-8.420842140913010E-002;-1.272406545467675E-003;-1.509786467067897E-003;
2.421666666666667E+009;1.486884653568268E-001;-8.575619757175446E-002;-1.178093953058124E-003;-1.439322135411203E-003;
2.421833333333334E+009;1.482495218515396E-001;-8.734895288944244E-002;-1.239379402250052E-003;-1.339378301054239E-003;
2.422000000000000E+009;1.476458013057709E-001;-8.899890631437302E-002;-1.275884453207254E-003;-1.424611662514508E-003;
2.422166666666667E+009;1.473789215087891E-001;-9.084221720695496E-002;-1.334910281002522E-003;-1.341670053079724E-003;
2.422333333333334E+009;1.471917033195496E-001;-9.235128760337830E-002;-1.225749030709267E-003;-1.342791016213596E-003;
2.422500000000000E+009;1.469199061393738E-001;-9.402849525213242E-002;-1.454674871638417E-003;-1.226576394401491E-003;
2.422666666666667E+009;1.466777026653290E-001;-9.562657773494721E-002;-1.387586467899382E-003;-1.333897816948593E-003;
2.422833333333334E+009;1.467038542032242E-001;-9.742803871631622E-002;-1.406586379744113E-003;-1.341595314443111E-003;
2.423000000000000E+009;1.468662619590759E-001;-9.903134405612946E-002;-1.447987742722035E-003;-1.179165788926184E-003;
2.423166666666667E+009;1.469384133815765E-001;-1.007159128785133E-001;-1.464712782762945E-003;-1.077168504707515E-003;
2.423333333333334E+009;1.472638994455338E-001;-1.022115796804428E-001;-1.609057770110667E-003;-1.215144176967442E-003;
2.423500000000000E+009;1.473993808031082E-001;-1.038348898291588E-001;-1.443935208953917E-003;-1.082556322216988E-003;
2.423666666666667E+009;1.475180238485336E-001;-1.053494811058044E-001;-1.649953657761216E-003;-1.058346475474536E-003;
2.423833333333334E+009;1.479070484638214E-001;-1.068456470966339E-001;-1.629058388061822E-003;-9.670456056483090E-004;
2.424000000000000E+009;1.480892151594162E-001;-1.080282330513001E-001;-1.629105652682483E-003;-9.461593581363559E-004;
2.424166666666667E+009;1.483919173479080E-001;-1.094512641429901E-001;-1.705496222712100E-003;-9.578508324921131E-004;
2.424333333333334E+009;1.487466990947723E-001;-1.105705499649048E-001;-1.749579678289592E-003;-8.046969305723906E-004;
2.424500000000000E+009;1.491538882255554E-001;-1.118795350193977E-001;-1.802428276278079E-003;-9.238864877261221E-004;
2.424666666666667E+009;1.496495157480240E-001;-1.128358840942383E-001;-1.706330687738955E-003;-6.768268067389727E-004;
2.424833333333334E+009;1.498528420925140E-001;-1.139039844274521E-001;-1.794013427570462E-003;-5.545093445107341E-004;
2.425000000000000E+009;1.502619087696075E-001;-1.149028390645981E-001;-1.812893082387745E-003;-6.838764529675245E-004;
2.425166666666667E+009;1.503519564867020E-001;-1.156579330563545E-001;-1.802116050384939E-003;-4.939619684591889E-004;
2.425333333333334E+009;1.508760750293732E-001;-1.165394186973572E-001;-1.742036780342460E-003;-3.632659791037440E-004;
2.425500000000000E+009;1.513137966394424E-001;-1.172995120286942E-001;-1.779328449629247E-003;-2.603879838716239E-004;
2.425666666666667E+009;1.511672288179398E-001;-1.179132685065270E-001;-1.834747497923672E-003;-1.964826951734722E-004;
2.425833333333334E+009;1.514936536550522E-001;-1.185065060853958E-001;-1.753086689859629E-003;-2.527325414121151E-004;
2.426000000000000E+009;1.516861319541931E-001;-1.190608888864517E-001;-1.842934521846473E-003;-7.809620001353324E-006;
2.426166666666667E+009;1.519149094820023E-001;-1.195497512817383E-001;-1.604550634510815E-003;1.043770753312856E-004;
2.426333333333334E+009;1.517846882343292E-001;-1.198315694928169E-001;-1.736796111799777E-003;1.282355078728870E-004;
2.426500000000000E+009;1.518175154924393E-001;-1.202147528529167E-001;-1.623182557523251E-003;9.538308222545311E-005;
2.426666666666667E+009;1.518541276454926E-001;-1.203452125191689E-001;-1.622736337594688E-003;1.376163418171927E-004;
2.426833333333334E+009;1.514473110437393E-001;-1.206424012780190E-001;-1.462473883293569E-003;2.701555204112083E-004;
2.427000000000000E+009;1.511427462100983E-001;-1.210853680968285E-001;-1.403155038133264E-003;3.445027978159487E-004;
2.427166666666667E+009;1.508383601903915E-001;-1.210217997431755E-001;-1.257818890735507E-003;3.828164481092244E-004;
2.427333333333334E+009;1.502726972103119E-001;-1.211750879883766E-001;-1.251100562512875E-003;2.735131711233407E-004;
2.427500000000000E+009;1.498618423938751E-001;-1.213704943656921E-001;-1.064211712218821E-003;2.715647278819233E-004;
2.427666666666667E+009;1.491860002279282E-001;-1.215111017227173E-001;-1.068920479156077E-003;3.627187979873270E-004;
