# Version 1.00
#
freq[Hz];re:Trc1_S11;im:Trc1_S11;re:Trc2_S21;im:Trc2_S21;
2.400000000000000E+009;1.611947268247604E-001;5.696640163660049E-002;-2.016448706854135E-004;4.111130721867085E-003;
2.400166666666667E+009;1.611432880163193E-001;5.570711195468903E-002;-2.588606439530850E-004;4.221550188958645E-003;
2.400333333333334E+009;1.613462567329407E-001;5.380268767476082E-002;-1.191886403830722E-004;4.306002985686064E-003;
2.400500000000000E+009;1.615325212478638E-001;5.198585987091065E-002;2.017216502281372E-005;4.423111677169800E-003;
2.400666666666667E+009;1.616902202367783E-001;5.016553401947022E-002;1.637499954085797E-004;4.439443349838257E-003;
2.400833333333334E+009;1.620612740516663E-001;4.822045192122459E-002;8.122984581859782E-005;4.527586977928877E-003;
2.401000000000000E+009;1.620779335498810E-001;4.636167362332344E-002;2.529188059270382E-004;4.575198516249657E-003;
2.401166666666667E+009;1.623817831277847E-001;4.443405941128731E-002;5.941955023445189E-004;4.582366440445185E-003;
2.401333333333334E+009;1.624990999698639E-001;4.249269515275955E-002;7.243566215038300E-004;4.730001091957092E-003;
2.401500000000000E+009;1.629482805728912E-001;4.068766534328461E-002;9.129191166721284E-004;4.711652174592018E-003;
2.401666666666667E+009;1.634336411952972E-001;3.893842920660973E-002;1.141066895797849E-003;4.757530521601439E-003;
2.401833333333334E+009;1.637792587280273E-001;3.699721768498421E-002;1.144887879490852E-003;4.810429178178310E-003;
2.402000000000000E+009;1.639915853738785E-001;3.507688269019127E-002;1.543918973766267E-003;4.918830469250679E-003;
2.402166666666667E+009;1.643894612789154E-001;3.318825736641884E-002;1.742436783388257E-003;4.826395306736231E-003;
2.402333333333334E+009;1.648878455162048E-001;3.162566572427750E-002;2.029100432991982E-003;4.747465252876282E-003;
2.402500000000000E+009;1.656608730554581E-001;2.994708344340324E-002;2.120301360264421E-003;4.813599865883589E-003;
2.402666666666667E+009;1.662783622741699E-001;2.835308946669102E-002;2.317023696377873E-003;4.708695225417614E-003;
2.402833333333334E+009;1.668568998575211E-001;2.689822204411030E-002;2.803147537633777E-003;4.622753709554672E-003;
2.403000000000000E+009;1.673920005559921E-001;2.543622627854347E-002;2.867920557036996E-003;4.506186582148075E-003;
2.403166666666667E+009;1.682089567184448E-001;2.386027574539185E-002;3.099775640293956E-003;4.198229406028986E-003;
2.403333333333334E+009;1.689461767673492E-001;2.283568680286408E-002;3.246579552069306E-003;4.234050400555134E-003;
2.403500000000000E+009;1.695208847522736E-001;2.138461172580719E-002;3.591176355257630E-003;4.119935445487499E-003;
2.403666666666667E+009;1.701349318027496E-001;2.021107822656632E-002;3.580624237656593E-003;3.945498727262020E-003;
2.403833333333334E+009;1.709597557783127E-001;1.894265972077847E-002;3.930576611310244E-003;3.776017110794783E-003;
2.404000000000000E+009;1.717616468667984E-001;1.771856844425201E-002;4.175154026597738E-003;3.638929221779108E-003;
2.404166666666667E+009;1.722390651702881E-001;1.677848771214485E-002;4.233190789818764E-003;3.291385946795344E-003;
2.404333333333334E+009;1.729983538389206E-001;1.587002724409103E-002;4.443422425538302E-003;3.451379714533687E-003;
2.404500000000000E+009;1.735446006059647E-001;1.486464776098728E-002;4.428914282470942E-003;3.079346148297191E-003;
2.404666666666667E+009;1.741670370101929E-001;1.421086397022009E-002;4.562305752187967E-003;2.868192037567496E-003;
2.404833333333334E+009;1.748318225145340E-001;1.340773981064558E-002;4.831311758607626E-003;2.565889619290829E-003;
2.405000000000000E+009;1.753854006528854E-001;1.274247001856566E-002;4.886110313236713E-003;2.259128494188190E-003;
2.405166666666667E+009;1.758078038692474E-001;1.202885247766972E-002;4.929792601615191E-003;2.111182780936360E-003;
2.405333333333334E+009;1.764843910932541E-001;1.143624447286129E-002;5.025046877563000E-003;1.878505339846015E-003;
2.405500000000000E+009;1.768500655889511E-001;1.102549955248833E-002;4.853184800595045E-003;1.632474362850189E-003;
2.405666666666667E+009;1.773555427789688E-001;1.055942010134459E-002;5.006335210055113E-003;1.475755125284195E-003;
2.405833333333334E+009;1.775864064693451E-001;1.000160723924637E-002;4.820717498660088E-003;1.164165907539427E-003;
2.406000000000000E+009;1.779879033565521E-001;9.577746503055096E-003;4.971764981746674E-003;9.399424889124930E-004;
2.406166666666667E+009;1.778341531753540E-001;9.240067563951016E-003;4.895729012787342E-003;8.334623416885734E-004;
2.406333333333334E+009;1.782092005014420E-001;8.756643161177635E-003;4.960314836353064E-003;7.090392755344510E-004;
2.406500000000000E+009;1.783014237880707E-001;8.242011070251465E-003;4.848238080739975E-003;2.676175790838897E-004;
2.406666666666667E+009;1.782070696353912E-001;7.996233180165291E-003;4.691886249929667E-003;1.121677778428420E-004;
2.406833333333334E+009;1.782505959272385E-001;7.496393751353025E-003;4.530244506895542E-003;-4.145860657445155E-006;
2.407000000000000E+009;1.781291961669922E-001;7.024020422250032E-003;4.547625314444304E-003;-2.755334717221558E-004;
2.407166666666667E+009;1.781561672687531E-001;6.631535012274981E-003;4.702521022409201E-003;-3.540753968991339E-004;
2.407333333333334E+009;1.778302490711212E-001;6.024890579283238E-003;4.485675599426031E-003;-5.955884698778391E-004;
2.407500000000000E+009;1.776549816131592E-001;5.554076284170151E-003;4.433396738022566E-003;-6.444700411520898E-004;
2.407666666666667E+009;1.773101687431335E-001;4.930268507450819E-003;4.305486101657152E-003;-8.574156672693789E-004;
2.407833333333334E+009;1.767820715904236E-001;4.042601678520441E-003;4.350203555077314E-003;-9.834764059633017E-004;
2.408000000000000E+009;1.764817237854004E-001;3.469094401225448E-003;4.266532137989998E-003;-1.281189499422908E-003;
2.408166666666667E+009;1.761702895164490E-001;2.827811753377318E-003;4.098226781934500E-003;-1.259251963347197E-003;
2.408333333333334E+009;1.757540255784988E-001;1.926340162754059E-003;3.983094822615385E-003;-1.340387039817870E-003;
2.408500000000000E+009;1.751005947589874E-001;9.916827548295260E-004;3.763601882383227E-003;-1.524170744232833E-003;
2.408666666666667E+009;1.746441274881363E-001;-7.442093919962645E-005;3.791249589994550E-003;-1.749546150676906E-003;
2.408833333333334E+009;1.740639656782150E-001;-9.807019960135222E-004;3.517267527058721E-003;-1.676395069807768E-003;
2.409000000000000E+009;1.734117418527603E-001;-2.250906312838197E-003;3.354771295562387E-003;-1.764179207384586E-003;
2.409166666666667E+009;1.729320138692856E-001;-3.485444700345397E-003;3.302827477455139E-003;-1.872739987447858E-003;
2.409333333333334E+009;1.724687367677689E-001;-4.789690487086773E-003;3.128269454464316E-003;-1.905957935377955E-003;
2.409500000000000E+009;1.718628704547882E-001;-6.221793126314879E-003;3.155697137117386E-003;-1.825123094022274E-003;
2.409666666666667E+009;1.712440550327301E-001;-7.544248830527067E-003;3.002767218276858E-003;-1.884844386950135E-003;
2.409833333333334E+009;1.706598848104477E-001;-8.979299105703831E-003;2.908880589529872E-003;-1.938422792591155E-003;
2.410000000000000E+009;1.702739745378494E-001;-1.050660293549299E-002;2.762953983619809E-003;-1.921432209201157E-003;
2.410166666666667E+009;1.696826219558716E-001;-1.209320686757565E-002;2.525350544601679E-003;-1.985240960493684E-003;
2.410333333333334E+009;1.693462282419205E-001;-1.380725111812353E-002;2.521430142223835E-003;-2.013266319409013E-003;
2.410500000000000E+009;1.690656393766403E-001;-1.550370547920466E-002;2.562876790761948E-003;-1.928597688674927E-003;
2.410666666666667E+009;1.685559600591660E-001;-1.727915741503239E-002;2.491811988875270E-003;-1.874941051937640E-003;
2.410833333333334E+009;1.682387441396713E-001;-1.886735297739506E-002;2.319171093404293E-003;-1.849002088420093E-003;
2.411000000000000E+009;1.681551039218903E-001;-2.079302817583084E-002;2.291909651830792E-003;-1.817946322262287E-003;
2.411166666666667E+009;1.679001897573471E-001;-2.262637391686440E-002;2.172659616917372E-003;-1.959679648280144E-003;
2.411333333333334E+009;1.678399592638016E-001;-2.434438280761242E-002;2.106478670611978E-003;-1.901088282465935E-003;
2.411500000000000E+009;1.677032113075256E-001;-2.636172994971275E-002;2.107376465573907E-003;-2.071044640615583E-003;
2.411666666666667E+009;1.676993072032929E-001;-2.828121185302734E-002;2.246740739792585E-003;-1.970888581126928E-003;
2.411833333333334E+009;1.679266691207886E-001;-3.000157698988915E-002;2.227714285254479E-003;-1.974753802642226E-003;
2.412000000000000E+009;1.678807437419891E-001;-3.184326365590096E-002;2.265284536406398E-003;-2.079931320622563E-003;
2.412166666666667E+009;1.678636521100998E-001;-3.374783694744110E-002;2.113213529810309E-003;-2.168657490983605E-003;
2.412333333333334E+009;1.685061752796173E-001;-3.541963547468185E-002;2.201804425567389E-003;-2.298695268109441E-003;
2.412500000000000E+009;1.685339957475662E-001;-3.705560043454170E-002;2.135882154107094E-003;-2.156339818611741E-003;
2.412666666666667E+009;1.690256595611572E-001;-3.904072195291519E-002;2.259803935885429E-003;-2.297394908964634E-003;
2.412833333333334E+009;1.694671362638474E-001;-4.075513407588005E-002;1.799710094928742E-003;-2.499821828678250E-003;
2.413000000000000E+009;1.696992516517639E-001;-4.244038462638855E-002;2.094781491905451E-003;-2.494275337085128E-003;
2.413166666666667E+009;1.701996326446533E-001;-4.387238994240761E-002;1.875630579888821E-003;-2.665125764906406E-003;
2.413333333333334E+009;1.705791354179382E-001;-4.555936902761459E-002;1.861053518950939E-003;-2.700291108340025E-003;
2.413500000000000E+009;1.711190193891525E-001;-4.706699773669243E-002;1.749922754243016E-003;-2.633161144331098E-003;
2.413666666666667E+009;1.716426759958267E-001;-4.850704967975617E-002;1.594804343767464E-003;-2.776609966531396E-003;
2.413833333333334E+009;1.722228378057480E-001;-4.991978406906128E-002;1.325435237959027E-003;-2.878730883821845E-003;
2.414000000000000E+009;1.725041568279266E-001;-5.112613737583160E-002;1.628914149478078E-003;-2.808286808431149E-003;
2.414166666666667E+009;1.731093227863312E-001;-5.228943005204201E-002;1.148587209172547E-003;-3.035133006051183E-003;
2.414333333333334E+009;1.735806316137314E-001;-5.332952365279198E-002;1.031792839057744E-003;-3.048267681151629E-003;
2.414500000000000E+009;1.743012368679047E-001;-5.436781793832779E-002;8.985177264548838E-004;-3.095309017226100E-003;
2.414666666666667E+009;1.746486425399780E-001;-5.529750883579254E-002;8.169687353074551E-004;-3.035007743164897E-003;
2.414833333333334E+009;1.751415431499481E-001;-5.623268336057663E-002;6.533837877213955E-004;-2.968595596030355E-003;
2.415000000000000E+009;1.752621829509735E-001;-5.706973373889923E-002;4.621665866579860E-004;-3.068290185183287E-003;
2.415166666666667E+009;1.756997108459473E-001;-5.758703127503395E-002;4.694341914728284E-004;-3.025630721822381E-003;
2.415333333333334E+009;1.760300248861313E-001;-5.841805785894394E-002;6.132362759672105E-004;-3.097087377682328E-003;
2.415500000000000E+009;1.762359142303467E-001;-5.890443548560143E-002;2.351512957829982E-004;-3.013041801750660E-003;
2.415666666666667E+009;1.763745993375778E-001;-5.934989452362061E-002;1.852334826253355E-004;-3.014685586094856E-003;
2.415833333333334E+009;1.765626221895218E-001;-5.998889729380608E-002;7.194167847046629E-005;-2.943709492683411E-003;
2.416000000000000E+009;1.763882488012314E-001;-6.037095189094544E-002;-1.114501646952704E-004;-2.909647068008781E-003;
2.416166666666667E+009;1.765993088483810E-001;-6.071367859840393E-002;-8.642348984722048E-005;-2.844364615157247E-003;
2.416333333333334E+009;1.764803379774094E-001;-6.098131090402603E-002;-2.737018803600222E-004;-2.574322046712041E-003;
2.416500000000000E+009;1.763353347778320E-001;-6.131902337074280E-002;-4.023879882879555E-004;-2.648044610396028E-003;
2.416666666666667E+009;1.760233044624329E-001;-6.147600710391998E-002;-3.756889782380313E-004;-2.551811281591654E-003;
2.416833333333334E+009;1.757070124149323E-001;-6.191824376583099E-002;-3.917172725778073E-004;-2.645405242219567E-003;
2.417000000000000E+009;1.751478910446167E-001;-6.222916394472122E-002;-7.151745958253741E-004;-2.479708287864924E-003;
2.417166666666667E+009;1.746727377176285E-001;-6.234277784824371E-002;-6.069556693546474E-004;-2.375430893152952E-003;
2.417333333333334E+009;1.741176247596741E-001;-6.245809793472290E-002;-7.159515516832471E-004;-2.446396974846721E-003;
2.417500000000000E+009;1.733923852443695E-001;-6.293091922998428E-002;-8.837806526571512E-004;-2.289142692461610E-003;
2.417666666666667E+009;1.727093905210495E-001;-6.300219148397446E-002;-7.805005297996104E-004;-2.174706896767020E-003;
2.417833333333334E+009;1.718114763498306E-001;-6.332061439752579E-002;-8.203352917917073E-004;-2.123275073245168E-003;
2.418000000000000E+009;1.709275990724564E-001;-6.377899646759033E-002;-8.156651747412980E-004;-2.160948701202869E-003;
2.418166666666667E+009;1.699554026126862E-001;-6.398561596870422E-002;-8.061608532443643E-004;-2.031116280704737E-003;
2.418333333333334E+009;1.692111492156982E-001;-6.445959955453873E-002;-7.597187068313360E-004;-2.197932219132781E-003;
2.418500000000000E+009;1.681209802627564E-001;-6.485115736722946E-002;-8.548261830583215E-004;-1.921286690048873E-003;
2.418666666666667E+009;1.669391989707947E-001;-6.547121703624725E-002;-8.651742828078568E-004;-1.949087483808398E-003;
2.418833333333334E+009;1.657221913337708E-001;-6.609849631786346E-002;-9.212543955072761E-004;-1.963561633601785E-003;
2.419000000000000E+009;1.644928604364395E-001;-6.656477600336075E-002;-1.024665543809533E-003;-1.880232593975961E-003;
2.419166666666667E+009;1.633794158697128E-001;-6.736614555120468E-002;-8.982516592368484E-004;-1.914277556352317E-003;
2.419333333333334E+009;1.620492935180664E-001;-6.788840889930725E-002;-8.047794108279049E-004;-1.787516986951232E-003;
2.419500000000000E+009;1.608428657054901E-001;-6.894515454769135E-002;-7.697410183027387E-004;-1.866569276899099E-003;
2.419666666666667E+009;1.597047746181488E-001;-6.993973255157471E-002;-1.051917904987931E-003;-1.899180468171835E-003;
2.419833333333334E+009;1.585182100534439E-001;-7.073500752449036E-002;-1.038259360939264E-003;-1.660539885051549E-003;
2.420000000000000E+009;1.573714613914490E-001;-7.187532633543015E-002;-1.069203601218760E-003;-1.827243715524674E-003;
2.420166666666667E+009;1.562196761369705E-001;-7.309426367282867E-002;-9.585627703927457E-004;-1.783345825970173E-003;
2.420333333333334E+009;1.552145332098007E-001;-7.416104525327683E-002;-1.078258152119815E-003;-1.671090140007436E-003;
2.420500000000000E+009;1.542945951223373E-001;-7.521665841341019E-002;-1.169710303656757E-003;-1.755420700646937E-003;
2.420666666666667E+009;1.532386243343353E-001;-7.664888352155685E-002;-1.220345613546670E-003;-1.712841331027448E-003;
2.420833333333334E+009;1.524452716112137E-001;-7.811824977397919E-002;-1.274402951821685E-003;-1.499576144851744E-003;
2.421000000000000E+009;1.514834612607956E-001;-7.961942255496979E-002;-1.187074347399175E-003;-1.657216809689999E-003;
2.421166666666667E+009;1.507827341556549E-001;-8.111026883125305E-002;-1.235456322319806E-003;-1.526622683741152E-003;
2.421333333333334E+009;1.498956680297852E-001;-8.259392529726028E-002;-1.217853510752320E-003;-1.476802397519350E-003;
2.421500000000000E+009;1.493340879678726E-001;-8.412213623523712E-002;-1.177946454845369E-003;-1.558924210257828E-003;
2.421666666666667E+009;1.487873643636704E-001;-8.575274795293808E-002;-1.338658272288740E-003;-1.404816284775734E-003;
2.421833333333334E+009;1.484362035989761E-001;-8.756486326456070E-002;-1.287195831537247E-003;-1.422382309101522E-003;
2.422000000000000E+009;1.478330343961716E-001;-8.923362940549851E-002;-1.304961391724646E-003;-1.438712468370795E-003;
2.422166666666667E+009;1.475835293531418E-001;-9.103479981422424E-002;-1.338204485364258E-003;-1.273159403353930E-003;
2.422333333333334E+009;1.471524238586426E-001;-9.252040088176727E-002;-1.328325597569346E-003;-1.324476907029748E-003;
2.422500000000000E+009;1.468484401702881E-001;-9.396311640739441E-002;-1.308017061091960E-003;-1.230433350428939E-003;
2.422666666666667E+009;1.468506455421448E-001;-9.591422975063324E-002;-1.347192097455263E-003;-1.338263391517103E-003;
2.422833333333334E+009;1.468807160854340E-001;-9.756667912006378E-002;-1.409946125932038E-003;-1.308565377257764E-003;
2.423000000000000E+009;1.468506902456284E-001;-9.902819991111755E-002;-1.548421336337924E-003;-1.313983346335590E-003;
2.423166666666667E+009;1.469489783048630E-001;-1.009374335408211E-001;-1.409832970239222E-003;-1.217945013195276E-003;
2.423333333333334E+009;1.472776383161545E-001;-1.020644828677177E-001;-1.558510586619377E-003;-1.149489195086062E-003;
2.423500000000000E+009;1.473144739866257E-001;-1.037251576781273E-001;-1.637170207686722E-003;-1.047875266522169E-003;
2.423666666666667E+009;1.474606543779373E-001;-1.054392531514168E-001;-1.571265980601311E-003;-1.080919755622745E-003;
2.423833333333334E+009;1.478701531887054E-001;-1.068669110536575E-001;-1.814901013858616E-003;-9.868018096312881E-004;
2.424000000000000E+009;1.480863243341446E-001;-1.081360727548599E-001;-1.462294603697956E-003;-1.082468428649008E-003;
2.424166666666667E+009;1.483853310346603E-001;-1.095052734017372E-001;-1.758174505084753E-003;-9.555753204040229E-004;
2.424333333333334E+009;1.487737745046616E-001;-1.106825098395348E-001;-1.740929321385920E-003;-8.101361454464495E-004;
2.424500000000000E+009;1.491999030113220E-001;-1.119637191295624E-001;-1.882275217212737E-003;-7.934971945360303E-004;
2.424666666666667E+009;1.495753824710846E-001;-1.127508729696274E-001;-1.661061425693333E-003;-8.227849029935896E-004;
2.424833333333334E+009;1.499484926462174E-001;-1.140289306640625E-001;-1.793407369405031E-003;-7.054597372189164E-004;
2.425000000000000E+009;1.503662914037705E-001;-1.150003671646118E-001;-1.776073477230966E-003;-4.651951894629747E-004;
2.425166666666667E+009;1.504572331905365E-001;-1.157901510596275E-001;-1.853514928370714E-003;-3.838111879304051E-004;
2.425333333333334E+009;1.508260965347290E-001;-1.165433228015900E-001;-1.937530003488064E-003;-4.501712101045996E-004;
2.425500000000000E+009;1.511607021093369E-001;-1.172988712787628E-001;-1.738327555358410E-003;-2.130945504177362E-004;
2.425666666666667E+009;1.512971222400665E-001;-1.179677695035934E-001;-1.761897699907422E-003;-2.103483566315845E-004;
2.425833333333334E+009;1.515778303146362E-001;-1.185622513294220E-001;-1.661128131672740E-003;-1.539354998385534E-004;
2.426000000000000E+009;1.515374630689621E-001;-1.191353946924210E-001;-1.686448929831386E-003;9.811879135668278E-005;
2.426166666666667E+009;1.518162488937378E-001;-1.196192577481270E-001;-1.656743232160807E-003;2.694734575925395E-005;
2.426333333333334E+009;1.517921835184097E-001;-1.199958026409149E-001;-1.622288138605654E-003;2.098998666042462E-004;
2.426500000000000E+009;1.517743468284607E-001;-1.203169748187065E-001;-1.638974761590362E-003;1.223985454998910E-004;
2.426666666666667E+009;1.516585648059845E-001;-1.205270141363144E-001;-1.382252667099237E-003;8.670642273500562E-005;
2.426833333333334E+009;1.513954252004623E-001;-1.208365932106972E-001;-1.441832631826401E-003;1.968879514606670E-004;
2.427000000000000E+009;1.511314660310745E-001;-1.210130602121353E-001;-1.292868866585195E-003;2.414366317680106E-004;
2.427166666666667E+009;1.507668197154999E-001;-1.210841387510300E-001;-1.302039134316146E-003;3.124500508420169E-004;
2.427333333333334E+009;1.501906216144562E-001;-1.213424429297447E-001;-1.118537504225969E-003;2.410037413937971E-004;
2.427500000000000E+009;1.497537493705750E-001;-1.214691102504730E-001;-1.088019227609038E-003;3.865236067213118E-004;
2.427666666666667E+009;1.490294635295868E-001;-1.215515807271004E-001;-1.148306997492909E-003;1.592480111867189E-004;
