# Version 1.00
#
freq[Hz];re:Trc1_S11;im:Trc1_S11;re:Trc2_S21;im:Trc2_S21;
2.400000000000000E+009;1.612180620431900E-001;5.713654309511185E-002;-5.359692149795592E-004;4.124597180634737E-003;
2.400166666666667E+009;1.613431572914124E-001;5.570754781365395E-002;-4.552685131784529E-004;4.279395565390587E-003;
2.400333333333334E+009;1.612197160720825E-001;5.385284870862961E-002;-3.034262044820935E-004;4.268848802894354E-003;
2.400500000000000E+009;1.616908162832260E-001;5.191068351268768E-002;-2.498183166608214E-004;4.359151702374220E-003;
2.400666666666667E+009;1.616203188896179E-001;5.012052133679390E-002;-1.518702192697674E-004;4.561169538646936E-003;
2.400833333333334E+009;1.618940681219101E-001;4.834887385368347E-002;3.564477083273232E-005;4.621276631951332E-003;
2.401000000000000E+009;1.620357632637024E-001;4.649809375405312E-002;2.051456103799865E-004;4.646873101592064E-003;
2.401166666666667E+009;1.624110788106918E-001;4.449332132935524E-002;2.835073100868613E-004;4.668346140533686E-003;
2.401333333333334E+009;1.625991165637970E-001;4.255013912916184E-002;6.924005574546754E-004;4.859840497374535E-003;
2.401500000000000E+009;1.628912985324860E-001;4.076707735657692E-002;7.934871246106923E-004;5.021057091653347E-003;
2.401666666666667E+009;1.634217500686646E-001;3.894802555441856E-002;9.713523904792965E-004;4.881439264863730E-003;
2.401833333333334E+009;1.638029664754868E-001;3.697080165147781E-002;1.269756350666285E-003;4.915389697998762E-003;
2.402000000000000E+009;1.640897095203400E-001;3.508140891790390E-002;1.342325471341610E-003;4.885627422481775E-003;
2.402166666666667E+009;1.645268946886063E-001;3.326233476400375E-002;1.598792849108577E-003;4.916198551654816E-003;
2.402333333333334E+009;1.651102751493454E-001;3.165753558278084E-002;1.821967540308833E-003;4.951248411089182E-003;
2.402500000000000E+009;1.659488528966904E-001;3.008402325212956E-002;2.124538645148277E-003;4.869714379310608E-003;
2.402666666666667E+009;1.663662344217300E-001;2.864430285990238E-002;2.277142135426402E-003;4.790298640727997E-003;
2.402833333333334E+009;1.669688075780869E-001;2.701848931610584E-002;2.464381512254477E-003;4.806713201105595E-003;
2.403000000000000E+009;1.675716787576675E-001;2.550552785396576E-002;2.632119227200747E-003;4.686277825385332E-003;
2.403166666666667E+009;1.683761626482010E-001;2.399953640997410E-002;2.862340770661831E-003;4.634674172848463E-003;
2.403333333333334E+009;1.690562367439270E-001;2.254952676594257E-002;3.252298338338733E-003;4.357961006462574E-003;
2.403500000000000E+009;1.694622337818146E-001;2.141716703772545E-002;3.258213633671403E-003;4.292204510420561E-003;
2.403666666666667E+009;1.702986508607864E-001;2.024201862514019E-002;3.726684022694826E-003;4.124562256038189E-003;
2.403833333333334E+009;1.710729598999023E-001;1.904048025608063E-002;3.670009318739176E-003;4.114709794521332E-003;
2.404000000000000E+009;1.718149185180664E-001;1.806766726076603E-002;4.039511084556580E-003;3.764140186831355E-003;
2.404166666666667E+009;1.724199205636978E-001;1.690845750272274E-002;4.110651090741158E-003;3.645419375970960E-003;
2.404333333333334E+009;1.730517894029617E-001;1.585206016898155E-002;4.358123056590557E-003;3.303722245618701E-003;
2.404500000000000E+009;1.734766364097595E-001;1.493958383798599E-002;4.560179542750120E-003;3.287945408374071E-003;
2.404666666666667E+009;1.742562800645828E-001;1.410418469458818E-002;4.501544870436192E-003;2.948843641206622E-003;
2.404833333333334E+009;1.748785078525543E-001;1.344289164990187E-002;4.789032042026520E-003;2.801915630698204E-003;
2.405000000000000E+009;1.754646003246307E-001;1.272486895322800E-002;4.652326460927725E-003;2.458116039633751E-003;
2.405166666666667E+009;1.758874207735062E-001;1.205458771437407E-002;4.876703955233097E-003;2.415126422420144E-003;
2.405333333333334E+009;1.765916049480438E-001;1.130717247724533E-002;4.887135233730078E-003;2.128918189555407E-003;
2.405500000000000E+009;1.769239604473114E-001;1.100655924528837E-002;4.901582375168800E-003;1.849084394052625E-003;
2.405666666666667E+009;1.772828400135040E-001;1.040639914572239E-002;4.897824954241514E-003;1.637643785215914E-003;
2.405833333333334E+009;1.774128228425980E-001;1.016661431640387E-002;4.907728172838688E-003;1.343371812254190E-003;
2.406000000000000E+009;1.778310090303421E-001;9.607773274183273E-003;4.964824300259352E-003;1.124117639847100E-003;
2.406166666666667E+009;1.779009848833084E-001;9.281571023166180E-003;4.939457867294550E-003;1.045113662257791E-003;
2.406333333333334E+009;1.783283799886704E-001;8.822660893201828E-003;5.054145120084286E-003;7.662026328034699E-004;
2.406500000000000E+009;1.782547980546951E-001;8.343296125531197E-003;4.935110453516245E-003;4.058160120621324E-004;
2.406666666666667E+009;1.781940460205078E-001;7.975617423653603E-003;4.852571990340948E-003;2.704515936784446E-004;
2.406833333333334E+009;1.782952398061752E-001;7.460108958184719E-003;4.675953648984432E-003;2.037777740042657E-004;
2.407000000000000E+009;1.783153265714645E-001;7.085793651640415E-003;4.759264178574085E-003;3.613765875343233E-005;
2.407166666666667E+009;1.781481653451920E-001;6.540293805301189E-003;4.641688894480467E-003;-2.090233028866351E-004;
2.407333333333334E+009;1.778172999620438E-001;5.992103833705187E-003;4.578007385134697E-003;-2.550805220380426E-004;
2.407500000000000E+009;1.776231676340103E-001;5.564120132476091E-003;4.482812248170376E-003;-7.129961159080267E-004;
2.407666666666667E+009;1.774042546749115E-001;4.986690357327461E-003;4.467314574867487E-003;-7.778639555908740E-004;
2.407833333333334E+009;1.768626272678375E-001;4.142045043408871E-003;4.263437353074551E-003;-9.827382164075971E-004;
2.408000000000000E+009;1.764868348836899E-001;3.467105794698000E-003;4.415718372911215E-003;-9.885837789624929E-004;
2.408166666666667E+009;1.760340929031372E-001;2.655569696798921E-003;4.120753146708012E-003;-1.232229871675372E-003;
2.408333333333334E+009;1.758068352937698E-001;1.950546400621533E-003;4.019737243652344E-003;-1.342119532637298E-003;
2.408500000000000E+009;1.751362979412079E-001;8.484907448291779E-004;3.865334670990706E-003;-1.416305778548122E-003;
2.408666666666667E+009;1.746048778295517E-001;-1.517231576144695E-004;3.934171516448259E-003;-1.394799910485745E-003;
2.408833333333334E+009;1.739758998155594E-001;-1.155769452452660E-003;3.782681189477444E-003;-1.594831352122128E-003;
2.409000000000000E+009;1.734628826379776E-001;-2.273708116263151E-003;3.480538260191679E-003;-1.762950443662703E-003;
2.409166666666667E+009;1.728157848119736E-001;-3.662761999294162E-003;3.406815463677049E-003;-1.962030306458473E-003;
2.409333333333334E+009;1.724609434604645E-001;-4.716717638075352E-003;3.266199957579374E-003;-1.682188827544451E-003;
2.409500000000000E+009;1.717661917209625E-001;-6.155958864837885E-003;3.106044838204980E-003;-1.925472752191126E-003;
2.409666666666667E+009;1.712946444749832E-001;-7.601167540997267E-003;3.040746087208390E-003;-2.047677058726549E-003;
2.409833333333334E+009;1.706814616918564E-001;-8.998592384159565E-003;2.784359967336059E-003;-1.900314236991108E-003;
2.410000000000000E+009;1.703330129384995E-001;-1.061429269611836E-002;2.710863016545773E-003;-1.996539765968919E-003;
2.410166666666667E+009;1.698335111141205E-001;-1.203876920044422E-002;2.502317773178220E-003;-1.936876680701971E-003;
2.410333333333334E+009;1.692261844873428E-001;-1.358296535909176E-002;2.654000651091337E-003;-1.973829464986920E-003;
2.410500000000000E+009;1.689546257257462E-001;-1.546019688248634E-002;2.480021910741925E-003;-1.949857920408249E-003;
2.410666666666667E+009;1.684598624706268E-001;-1.737838052213192E-002;2.455004723742604E-003;-1.885778969153762E-003;
2.410833333333334E+009;1.683637350797653E-001;-1.886628754436970E-002;2.300163498148322E-003;-1.860082847997546E-003;
2.411000000000000E+009;1.681052595376968E-001;-2.066528983414173E-002;2.350876107811928E-003;-1.970230136066675E-003;
2.411166666666667E+009;1.679674983024597E-001;-2.269181236624718E-002;2.328189788386226E-003;-1.940515241585672E-003;
2.411333333333334E+009;1.678182929754257E-001;-2.448599413037300E-002;2.339824801310897E-003;-1.911725150421262E-003;
2.411500000000000E+009;1.676968038082123E-001;-2.621533349156380E-002;2.295312238857150E-003;-1.821024226956070E-003;
2.411666666666667E+009;1.678416281938553E-001;-2.814084291458130E-002;2.249564044177532E-003;-1.946771866641939E-003;
2.411833333333334E+009;1.678580790758133E-001;-3.001384995877743E-002;2.168475417420268E-003;-1.887057791464031E-003;
2.412000000000000E+009;1.679341495037079E-001;-3.192716091871262E-002;2.250272314995527E-003;-2.064271597191691E-003;
2.412166666666667E+009;1.682418733835220E-001;-3.375518694519997E-002;2.218778943642974E-003;-1.969004748389125E-003;
2.412333333333334E+009;1.684799790382385E-001;-3.548832982778549E-002;2.239065710455179E-003;-2.020090818405151E-003;
2.412500000000000E+009;1.688240766525269E-001;-3.726145625114441E-002;2.296540886163712E-003;-2.200091956183314E-003;
2.412666666666667E+009;1.691130697727203E-001;-3.894541040062904E-002;2.108262619003654E-003;-2.249674871563911E-003;
2.412833333333334E+009;1.695335060358048E-001;-4.090141505002976E-002;2.092339796945453E-003;-2.462661359459162E-003;
2.413000000000000E+009;1.698116511106491E-001;-4.248569160699844E-002;1.947074080817401E-003;-2.462026197463274E-003;
2.413166666666667E+009;1.702619791030884E-001;-4.395322129130364E-002;1.980379922315478E-003;-2.489196602255106E-003;
2.413333333333334E+009;1.706185489892960E-001;-4.558558389544487E-002;1.866427250206471E-003;-2.587553346529603E-003;
2.413500000000000E+009;1.710261404514313E-001;-4.712980613112450E-002;1.811203546822071E-003;-2.552734455093741E-003;
2.413666666666667E+009;1.716610640287399E-001;-4.854900017380714E-002;1.630323822610080E-003;-2.831812482327223E-003;
2.413833333333334E+009;1.720646917819977E-001;-4.981929436326027E-002;1.638693152926862E-003;-2.924351952970028E-003;
2.414000000000000E+009;1.725092381238937E-001;-5.115040019154549E-002;1.419309759512544E-003;-2.907602582126856E-003;
2.414166666666667E+009;1.731866747140884E-001;-5.229594931006432E-002;1.226734602823854E-003;-2.977625699713826E-003;
2.414333333333334E+009;1.736667901277542E-001;-5.336340144276619E-002;1.085731550119817E-003;-3.024957841262221E-003;
2.414500000000000E+009;1.742296814918518E-001;-5.437297746539116E-002;1.139908912591636E-003;-2.903853310272098E-003;
2.414666666666667E+009;1.746584177017212E-001;-5.541978776454926E-002;1.112499274313450E-003;-2.996737603098154E-003;
2.414833333333334E+009;1.748837679624558E-001;-5.618193373084068E-002;8.368287817575038E-004;-3.143083304166794E-003;
2.415000000000000E+009;1.752188503742218E-001;-5.696428939700127E-002;7.257040706463158E-004;-3.064540913328528E-003;
2.415166666666667E+009;1.755691915750504E-001;-5.772562697529793E-002;7.179427775554359E-004;-3.058685222640634E-003;
2.415333333333334E+009;1.760946661233902E-001;-5.845715478062630E-002;4.207622259855270E-004;-2.987626940011978E-003;
2.415500000000000E+009;1.762474775314331E-001;-5.893128365278244E-002;2.651612740010023E-004;-2.991452813148499E-003;
2.415666666666667E+009;1.762682199478149E-001;-5.938166379928589E-002;2.335522585781291E-004;-2.959989011287689E-003;
2.415833333333334E+009;1.765547692775726E-001;-5.994676426053047E-002;-4.152147084823810E-006;-2.969603519886732E-003;
2.416000000000000E+009;1.765232235193253E-001;-6.030596047639847E-002;1.434926616639132E-005;-2.895209239795804E-003;
2.416166666666667E+009;1.766210645437241E-001;-6.059658154845238E-002;-7.908998668426648E-005;-2.910921117290855E-003;
2.416333333333334E+009;1.764597147703171E-001;-6.091229990124703E-002;-2.959869925689418E-005;-2.829778939485550E-003;
2.416500000000000E+009;1.762781739234924E-001;-6.125301122665405E-002;-2.647361252456904E-004;-2.705306978896260E-003;
2.416666666666667E+009;1.760504990816116E-001;-6.153335049748421E-002;-3.359810507390648E-004;-2.605076180770993E-003;
2.416833333333334E+009;1.757389754056931E-001;-6.178168579936028E-002;-4.548923752736300E-004;-2.727251965552568E-003;
2.417000000000000E+009;1.750453561544418E-001;-6.204158812761307E-002;-4.253507067915052E-004;-2.752520609647036E-003;
2.417166666666667E+009;1.746317446231842E-001;-6.226767599582672E-002;-4.559251829050481E-004;-2.519339090213180E-003;
2.417333333333334E+009;1.740958094596863E-001;-6.233768165111542E-002;-4.724668397102505E-004;-2.481848001480103E-003;
2.417500000000000E+009;1.733504235744476E-001;-6.281643360853195E-002;-5.413409089669585E-004;-2.290717093273997E-003;
2.417666666666667E+009;1.726938188076019E-001;-6.292316317558289E-002;-6.053776014596224E-004;-2.276117447763681E-003;
2.417833333333334E+009;1.718684732913971E-001;-6.315737217664719E-002;-5.848653963766992E-004;-2.177644753828645E-003;
2.418000000000000E+009;1.708104908466339E-001;-6.368143111467362E-002;-6.549411336891353E-004;-2.183714648708701E-003;
2.418166666666667E+009;1.699501723051071E-001;-6.392630934715271E-002;-6.987649248912931E-004;-2.113131573423743E-003;
2.418333333333334E+009;1.692091524600983E-001;-6.443307548761368E-002;-7.571406895294786E-004;-2.071077004075050E-003;
2.418500000000000E+009;1.679242700338364E-001;-6.486548483371735E-002;-7.149098673835397E-004;-2.070722868666053E-003;
2.418666666666667E+009;1.670439839363098E-001;-6.539636105298996E-002;-7.744298782199621E-004;-2.148782601580024E-003;
2.418833333333334E+009;1.656718254089356E-001;-6.598858535289764E-002;-8.761539356783032E-004;-2.027190988883376E-003;
2.419000000000000E+009;1.644461899995804E-001;-6.655951589345932E-002;-8.341156644746661E-004;-1.993609359487891E-003;
2.419166666666667E+009;1.633443981409073E-001;-6.736384332180023E-002;-7.379695889540017E-004;-1.944835064932704E-003;
2.419333333333334E+009;1.619584113359451E-001;-6.781671196222305E-002;-8.721048943698406E-004;-1.958268228918314E-003;
2.419500000000000E+009;1.608524769544601E-001;-6.887402385473251E-002;-8.136193500831723E-004;-2.151616616174579E-003;
2.419666666666667E+009;1.598344892263413E-001;-6.985176354646683E-002;-8.395584882237017E-004;-1.845875522121787E-003;
2.419833333333334E+009;1.584268212318420E-001;-7.078633457422257E-002;-1.059712376445532E-003;-1.821404555812478E-003;
2.420000000000000E+009;1.574828624725342E-001;-7.189098745584488E-002;-9.062806493602693E-004;-1.897901762276888E-003;
2.420166666666667E+009;1.563645750284195E-001;-7.290260493755341E-002;-1.023737830109894E-003;-1.972786150872707E-003;
2.420333333333334E+009;1.552366465330124E-001;-7.420454919338226E-002;-9.775737999007106E-004;-1.865861122496426E-003;
2.420500000000000E+009;1.542780548334122E-001;-7.518424093723297E-002;-1.084627816453576E-003;-1.878358423709869E-003;
2.420666666666667E+009;1.532717943191528E-001;-7.669011503458023E-002;-1.066432450897992E-003;-1.754488563165069E-003;
2.420833333333334E+009;1.523763090372086E-001;-7.804760336875916E-002;-1.239052740857005E-003;-1.556699629873037E-003;
2.421000000000000E+009;1.513823717832565E-001;-7.948254048824310E-002;-1.119469292461872E-003;-1.788005465641618E-003;
2.421166666666667E+009;1.507602632045746E-001;-8.101364970207214E-002;-1.197313657030463E-003;-1.647943397983909E-003;
2.421333333333334E+009;1.500465571880341E-001;-8.266868442296982E-002;-1.196107128635049E-003;-1.652941689826548E-003;
2.421500000000000E+009;1.493359059095383E-001;-8.405546098947525E-002;-1.262388308532536E-003;-1.632239436730743E-003;
2.421666666666667E+009;1.488064229488373E-001;-8.565405011177063E-002;-1.193506876006723E-003;-1.584487617947161E-003;
2.421833333333334E+009;1.484223157167435E-001;-8.744756132364273E-002;-1.290441490709782E-003;-1.534032635390759E-003;
2.422000000000000E+009;1.478951275348663E-001;-8.921653777360916E-002;-1.336790504865348E-003;-1.448502298444510E-003;
2.422166666666667E+009;1.475331485271454E-001;-9.105313569307327E-002;-1.392533886246383E-003;-1.413414138369262E-003;
2.422333333333334E+009;1.473572254180908E-001;-9.248322248458862E-002;-1.306401914916933E-003;-1.498104538768530E-003;
2.422500000000000E+009;1.469998359680176E-001;-9.408283233642578E-002;-1.431352109648287E-003;-1.437552971765399E-003;
2.422666666666667E+009;1.467991471290588E-001;-9.591824561357498E-002;-1.486736466176808E-003;-1.360971131362021E-003;
2.422833333333334E+009;1.468362659215927E-001;-9.759795665740967E-002;-1.522666658274829E-003;-1.298469258472323E-003;
2.423000000000000E+009;1.468283832073212E-001;-9.911756217479706E-002;-1.513546449132264E-003;-1.339866779744625E-003;
2.423166666666667E+009;1.469458937644959E-001;-1.007325574755669E-001;-1.709611969999969E-003;-1.244945568032563E-003;
2.423333333333334E+009;1.472936719655991E-001;-1.022594273090363E-001;-1.473145908676088E-003;-1.280999043956399E-003;
2.423500000000000E+009;1.473463475704193E-001;-1.039057448506355E-001;-1.543789985589683E-003;-1.389403245411813E-003;
2.423666666666667E+009;1.474029421806335E-001;-1.054496765136719E-001;-1.615960383787751E-003;-1.138794235885143E-003;
2.423833333333334E+009;1.479215621948242E-001;-1.069321185350418E-001;-1.789789297617972E-003;-1.217772834934294E-003;
2.424000000000000E+009;1.480628550052643E-001;-1.080999299883843E-001;-1.605037017725408E-003;-1.085709198378027E-003;
2.424166666666667E+009;1.483707427978516E-001;-1.095302179455757E-001;-1.728915725834668E-003;-9.513825061731041E-004;
2.424333333333334E+009;1.488348692655563E-001;-1.105637103319168E-001;-1.730717136524618E-003;-9.070802479982376E-004;
2.424500000000000E+009;1.490897089242935E-001;-1.119676604866982E-001;-1.853290828876197E-003;-7.778746658004820E-004;
2.424666666666667E+009;1.495391875505447E-001;-1.127890720963478E-001;-1.798203331418335E-003;-8.333469741046429E-004;
2.424833333333334E+009;1.497321724891663E-001;-1.140244528651238E-001;-1.832259818911552E-003;-5.805860855616629E-004;
2.425000000000000E+009;1.502907574176788E-001;-1.149881556630135E-001;-2.014586469158530E-003;-6.368098547682166E-004;
2.425166666666667E+009;1.504687219858170E-001;-1.158071234822273E-001;-1.847664592787623E-003;-4.982075770385563E-004;
2.425333333333334E+009;1.506747007369995E-001;-1.165948063135147E-001;-1.946638803929091E-003;-4.897214239463210E-004;
2.425500000000000E+009;1.511467695236206E-001;-1.173400729894638E-001;-1.881299540400505E-003;-3.140218323096633E-004;
2.425666666666667E+009;1.511727571487427E-001;-1.179556399583817E-001;-1.723583089187741E-003;-1.656866224948317E-004;
2.425833333333334E+009;1.515314131975174E-001;-1.185396313667297E-001;-1.814578427001834E-003;-7.645544246770442E-005;
2.426000000000000E+009;1.515706479549408E-001;-1.191209629178047E-001;-1.803357386961579E-003;-8.461592369712889E-005;
2.426166666666667E+009;1.517808139324188E-001;-1.195169165730476E-001;-1.854876871220768E-003;1.665797608438879E-004;
2.426333333333334E+009;1.517231017351151E-001;-1.200263202190399E-001;-1.552362111397088E-003;1.200555198010989E-004;
2.426500000000000E+009;1.517815291881561E-001;-1.203102767467499E-001;-1.511086360551417E-003;1.909791753860191E-004;
2.426666666666667E+009;1.516655236482620E-001;-1.204566583037376E-001;-1.666964846663177E-003;2.104438899550587E-004;
2.426833333333334E+009;1.514118611812592E-001;-1.207186132669449E-001;-1.390542252920568E-003;2.720282645896077E-004;
2.427000000000000E+009;1.510912030935288E-001;-1.210010945796967E-001;-1.440300722606480E-003;4.506354744080454E-004;
2.427166666666667E+009;1.507301330566406E-001;-1.210128366947174E-001;-1.336909597739577E-003;2.590182702988386E-004;
2.427333333333334E+009;1.502337455749512E-001;-1.212788447737694E-001;-1.278235344216228E-003;3.394371597096324E-004;
2.427500000000000E+009;1.497583836317062E-001;-1.214136406779289E-001;-1.049147103913128E-003;4.595207283273339E-004;
2.427666666666667E+009;1.491041630506516E-001;-1.214967593550682E-001;-9.783812565729022E-004;4.264762392267585E-004;
