# Version 1.00
#
freq[Hz];re:Trc1_S11;im:Trc1_S11;re:Trc2_S21;im:Trc2_S21;
2.400000000000000E+009;1.563309729099274E-001;6.027781218290329E-002;-1.860894379206002E-003;2.451579784974456E-003;
2.400166666666667E+009;1.564990729093552E-001;5.862038955092430E-002;-1.624832395464182E-003;2.363100415095687E-003;
2.400333333333334E+009;1.564765870571137E-001;5.657714232802391E-002;-1.595725887455046E-003;2.632465679198504E-003;
2.400500000000000E+009;1.567997038364410E-001;5.473267287015915E-002;-1.416511368006468E-003;2.543535549193621E-003;
2.400666666666667E+009;1.569815576076508E-001;5.254836380481720E-002;-1.485818647779524E-003;2.653529867529869E-003;
2.400833333333334E+009;1.570366770029068E-001;5.061801522970200E-002;-1.521245925687254E-003;2.616323530673981E-003;
2.401000000000000E+009;1.574658602476120E-001;4.848326370120049E-002;-1.475158613175154E-003;2.745828125625849E-003;
2.401166666666667E+009;1.579358130693436E-001;4.623287916183472E-002;-1.396082807332277E-003;2.643810119479895E-003;
2.401333333333334E+009;1.582544147968292E-001;4.401893168687820E-002;-1.424118061549962E-003;2.789203310385346E-003;
2.401500000000000E+009;1.589259952306747E-001;4.226524755358696E-002;-1.366645330563188E-003;2.753058448433876E-003;
2.401666666666667E+009;1.594766527414322E-001;4.038294404745102E-002;-1.250063534826040E-003;2.862467430531979E-003;
2.401833333333334E+009;1.600730121135712E-001;3.843803331255913E-002;-1.191813265904784E-003;3.082431154325604E-003;
2.402000000000000E+009;1.606507599353790E-001;3.645786643028259E-002;-1.248272368684411E-003;3.047914244234562E-003;
2.402166666666667E+009;1.613191515207291E-001;3.449310734868050E-002;-1.128916395828128E-003;3.158375388011336E-003;
2.402333333333334E+009;1.619910001754761E-001;3.296022862195969E-002;-1.080138259567320E-003;3.438935847952962E-003;
2.402500000000000E+009;1.631072312593460E-001;3.131755068898201E-002;-1.085005933418870E-003;3.324237884953618E-003;
2.402666666666667E+009;1.637794971466065E-001;2.975805103778839E-002;-9.881817968562245E-004;3.367049153894186E-003;
2.402833333333334E+009;1.646263748407364E-001;2.820283733308315E-002;-8.193352841772139E-004;3.587605664506555E-003;
2.403000000000000E+009;1.656745523214340E-001;2.686614170670509E-002;-7.410975522361696E-004;3.557670162990689E-003;
2.403166666666667E+009;1.665957123041153E-001;2.549874968826771E-002;-6.556328153237701E-004;3.574124770238996E-003;
2.403333333333334E+009;1.675940603017807E-001;2.431579120457172E-002;-5.589227075688541E-004;3.757599974051118E-003;
2.403500000000000E+009;1.684801727533341E-001;2.305144444108009E-002;-4.898963961750269E-004;3.873770823702216E-003;
2.403666666666667E+009;1.695998907089233E-001;2.176130376756191E-002;-1.921387447509915E-004;4.002010915428400E-003;
2.403833333333334E+009;1.706561297178268E-001;2.091773040592670E-002;-1.155422651208937E-004;4.075254313647747E-003;
2.404000000000000E+009;1.715173423290253E-001;1.997985877096653E-002;1.917497866088525E-005;4.199050832539797E-003;
2.404166666666667E+009;1.724285632371903E-001;1.908322051167488E-002;1.395884319208562E-004;4.238981753587723E-003;
2.404333333333334E+009;1.733061522245407E-001;1.835904084146023E-002;6.668852875009179E-004;4.272487014532089E-003;
2.404500000000000E+009;1.742014586925507E-001;1.750591397285461E-002;6.926648784428835E-004;4.452761262655258E-003;
2.404666666666667E+009;1.750711798667908E-001;1.677796244621277E-002;9.092098334804177E-004;4.211997147649527E-003;
2.404833333333334E+009;1.758781522512436E-001;1.636299490928650E-002;9.916716953739524E-004;4.468042403459549E-003;
2.405000000000000E+009;1.766200363636017E-001;1.572064124047756E-002;1.151504227891564E-003;4.422030411660671E-003;
2.405166666666667E+009;1.773159801959992E-001;1.533170323818922E-002;1.325536519289017E-003;4.487736150622368E-003;
2.405333333333334E+009;1.779058277606964E-001;1.493402384221554E-002;1.707083079963923E-003;4.443228710442781E-003;
2.405500000000000E+009;1.784255802631378E-001;1.459071598947048E-002;1.817287527956069E-003;4.240578040480614E-003;
2.405666666666667E+009;1.788989156484604E-001;1.431011874228716E-002;2.018749946728349E-003;4.222799092531204E-003;
2.405833333333334E+009;1.791417747735977E-001;1.393236126750708E-002;2.284107729792595E-003;4.126671236008406E-003;
2.406000000000000E+009;1.795727163553238E-001;1.351457741111517E-002;2.505064709112048E-003;4.077550489455462E-003;
2.406166666666667E+009;1.794652044773102E-001;1.341148186475039E-002;2.720972523093224E-003;3.975173924118280E-003;
2.406333333333334E+009;1.799563318490982E-001;1.307861041277647E-002;2.865713788196445E-003;4.060246516019106E-003;
2.406500000000000E+009;1.799282431602478E-001;1.270769629627466E-002;2.995073096826673E-003;3.797464538365603E-003;
2.406666666666667E+009;1.798319369554520E-001;1.244410872459412E-002;3.225203836336732E-003;3.658251371234655E-003;
2.406833333333334E+009;1.799450218677521E-001;1.216091960668564E-002;3.428414929658175E-003;3.518779762089253E-003;
2.407000000000000E+009;1.798095405101776E-001;1.162656582891941E-002;3.668611869215965E-003;3.593614557757974E-003;
2.407166666666667E+009;1.794944107532501E-001;1.140946522355080E-002;3.500928869470954E-003;3.203207626938820E-003;
2.407333333333334E+009;1.791523844003677E-001;1.071100216358900E-002;3.777804551646113E-003;3.076191758736968E-003;
2.407500000000000E+009;1.788653731346130E-001;1.023145206272602E-002;3.897121408954263E-003;2.868254203349352E-003;
2.407666666666667E+009;1.783578097820282E-001;9.700546972453594E-003;3.947529476135969E-003;2.814336214214563E-003;
2.407833333333334E+009;1.778050065040588E-001;8.765785954892635E-003;4.137628246098757E-003;2.641290659084916E-003;
2.408000000000000E+009;1.773946583271027E-001;7.992942817509174E-003;4.087243229150772E-003;2.520900918170810E-003;
2.408166666666667E+009;1.768392473459244E-001;7.370056584477425E-003;4.169470630586147E-003;2.340783830732107E-003;
2.408333333333334E+009;1.762702316045761E-001;6.340070161968470E-003;4.251015838235617E-003;2.044691937044263E-003;
2.408500000000000E+009;1.757631152868271E-001;5.338108167052269E-003;4.194504115730524E-003;1.946053118444979E-003;
2.408666666666667E+009;1.748846322298050E-001;4.066793713718653E-003;4.389744251966476E-003;1.792996190488339E-003;
2.408833333333334E+009;1.741901189088821E-001;2.924507716670632E-003;4.449289757758379E-003;1.717469887807965E-003;
2.409000000000000E+009;1.735391467809677E-001;1.703270943835378E-003;4.457314964383841E-003;1.420709653757513E-003;
2.409166666666667E+009;1.729452610015869E-001;3.399753768462688E-004;4.428686574101448E-003;1.279486343264580E-003;
2.409333333333334E+009;1.724292188882828E-001;-1.127981231547892E-003;4.395126830786467E-003;1.150797354057431E-003;
2.409500000000000E+009;1.717708557844162E-001;-2.695751143619418E-003;4.448252264410257E-003;1.027769059874117E-003;
2.409666666666667E+009;1.710148006677628E-001;-4.244219046086073E-003;4.430048633366823E-003;8.690949762240052E-004;
2.409833333333334E+009;1.703552156686783E-001;-5.795698147267103E-003;4.480978008359671E-003;6.406661123037338E-004;
2.410000000000000E+009;1.697818040847778E-001;-7.705203723162413E-003;4.622942768037319E-003;5.907208542339504E-004;
2.410166666666667E+009;1.695129424333572E-001;-9.436479769647121E-003;4.548121243715286E-003;3.589963598642498E-004;
2.410333333333334E+009;1.689319163560867E-001;-1.121126394718885E-002;4.437924362719059E-003;2.152679080609232E-004;
2.410500000000000E+009;1.684422194957733E-001;-1.301881950348616E-002;4.408264998346567E-003;1.444363733753562E-004;
2.410666666666667E+009;1.681479960680008E-001;-1.508600916713476E-002;4.442897625267506E-003;-8.933794561016839E-006;
2.410833333333334E+009;1.680281311273575E-001;-1.695339754223824E-002;4.394159186631441E-003;-1.266389008378610E-004;
2.411000000000000E+009;1.676666587591171E-001;-1.879901066422463E-002;4.257593769580126E-003;-3.288076259195805E-004;
2.411166666666667E+009;1.674646735191345E-001;-2.068586833775044E-002;4.438633564859629E-003;-3.253660979680717E-004;
2.411333333333334E+009;1.676873266696930E-001;-2.271055988967419E-002;4.313349723815918E-003;-6.298817461356521E-004;
2.411500000000000E+009;1.676766872406006E-001;-2.486699819564819E-002;4.132795147597790E-003;-6.275111809372902E-004;
2.411666666666667E+009;1.678514629602432E-001;-2.672666870057583E-002;4.000207409262657E-003;-6.510337698273361E-004;
2.411833333333334E+009;1.679660230875015E-001;-2.858677133917809E-002;4.158627241849899E-003;-1.041726791299880E-003;
2.412000000000000E+009;1.682931035757065E-001;-3.049750067293644E-002;4.183274228125811E-003;-1.001224853098393E-003;
2.412166666666667E+009;1.685699969530106E-001;-3.248792141675949E-002;4.086372908204794E-003;-1.167005044408143E-003;
2.412333333333334E+009;1.689842343330383E-001;-3.431953117251396E-002;3.994003403931856E-003;-8.754034060984850E-004;
2.412500000000000E+009;1.692329347133637E-001;-3.616447374224663E-002;4.008162301033735E-003;-1.197884441353381E-003;
2.412666666666667E+009;1.697850525379181E-001;-3.805072233080864E-002;4.067727830260992E-003;-1.348111545667052E-003;
2.412833333333334E+009;1.703742295503616E-001;-3.963824361562729E-002;3.871758701279759E-003;-1.491777831688523E-003;
2.413000000000000E+009;1.707809120416641E-001;-4.119732230901718E-002;3.874841611832380E-003;-1.523044425994158E-003;
2.413166666666667E+009;1.714559346437454E-001;-4.277808591723442E-002;3.660073736682534E-003;-1.565524493344128E-003;
2.413333333333334E+009;1.718888431787491E-001;-4.410476610064507E-002;3.668322227895260E-003;-1.614146749489009E-003;
2.413500000000000E+009;1.727205067873001E-001;-4.571905359625816E-002;3.654345404356718E-003;-1.580901560373604E-003;
2.413666666666667E+009;1.732796579599381E-001;-4.709048196673393E-002;3.745714668184519E-003;-1.712964382022619E-003;
2.413833333333334E+009;1.738209277391434E-001;-4.840421676635742E-002;3.691051155328751E-003;-2.044831169769168E-003;
2.414000000000000E+009;1.743290126323700E-001;-4.966074973344803E-002;3.678920213133097E-003;-2.025721129029989E-003;
2.414166666666667E+009;1.750704348087311E-001;-5.047342181205750E-002;3.540110774338245E-003;-2.121551660820842E-003;
2.414333333333334E+009;1.755947023630142E-001;-5.174848437309265E-002;3.513599280267954E-003;-2.354076830670238E-003;
2.414500000000000E+009;1.763729453086853E-001;-5.258141458034515E-002;3.586645238101482E-003;-2.402770565822721E-003;
2.414666666666667E+009;1.766407489776611E-001;-5.335281789302826E-002;3.475591307505965E-003;-2.715515904128552E-003;
2.414833333333334E+009;1.770944446325302E-001;-5.430525168776512E-002;3.357848851010203E-003;-2.707521198317409E-003;
2.415000000000000E+009;1.773414164781570E-001;-5.490808188915253E-002;3.269265405833721E-003;-2.684553153812885E-003;
2.415166666666667E+009;1.778014898300171E-001;-5.536504089832306E-002;3.221285296604037E-003;-2.893103286623955E-003;
2.415333333333334E+009;1.781676858663559E-001;-5.597618967294693E-002;3.039263421669602E-003;-2.904057502746582E-003;
2.415500000000000E+009;1.782681643962860E-001;-5.638888478279114E-002;3.108804114162922E-003;-3.219072008505464E-003;
2.415666666666667E+009;1.784464716911316E-001;-5.666162446141243E-002;2.914199838414788E-003;-3.121354617178440E-003;
2.415833333333334E+009;1.784593760967255E-001;-5.722108110785484E-002;2.902373671531677E-003;-3.408402670174837E-003;
2.416000000000000E+009;1.783502846956253E-001;-5.741786956787109E-002;2.765952842310071E-003;-3.457939950749278E-003;
2.416166666666667E+009;1.784900277853012E-001;-5.769197270274162E-002;2.715958748012781E-003;-3.515633521601558E-003;
2.416333333333334E+009;1.782741248607636E-001;-5.791240185499191E-002;2.560499822720885E-003;-3.641525981947780E-003;
2.416500000000000E+009;1.779367178678513E-001;-5.811227113008499E-002;2.233665436506271E-003;-3.724247217178345E-003;
2.416666666666667E+009;1.774895340204239E-001;-5.833856016397476E-002;2.260707085952163E-003;-3.841417841613293E-003;
2.416833333333334E+009;1.770930588245392E-001;-5.862518399953842E-002;1.997575862333179E-003;-3.910045139491558E-003;
2.417000000000000E+009;1.763402223587036E-001;-5.876288190484047E-002;1.867308164946735E-003;-4.090460017323494E-003;
2.417166666666667E+009;1.758073717355728E-001;-5.892656743526459E-002;1.843042438849807E-003;-4.082257393747568E-003;
2.417333333333334E+009;1.751306653022766E-001;-5.909070372581482E-002;1.607077778317034E-003;-4.120172467082739E-003;
2.417500000000000E+009;1.741135567426682E-001;-5.956755578517914E-002;1.655077678151429E-003;-4.161482211202383E-003;
2.417666666666667E+009;1.734031438827515E-001;-5.969171598553658E-002;1.384415547363460E-003;-4.265447612851858E-003;
2.417833333333334E+009;1.724048703908920E-001;-6.008166447281838E-002;1.412116340361536E-003;-4.324736539274454E-003;
2.418000000000000E+009;1.712662577629089E-001;-6.041633337736130E-002;1.095897401683033E-003;-4.344681277871132E-003;
2.418166666666667E+009;1.703070104122162E-001;-6.076614931225777E-002;9.592391434125602E-004;-4.231263417750597E-003;
2.418333333333334E+009;1.694455146789551E-001;-6.137965619564056E-002;7.366217905655503E-004;-4.287160933017731E-003;
2.418500000000000E+009;1.679396182298660E-001;-6.191415339708328E-002;7.428624667227268E-004;-4.416071344166994E-003;
2.418666666666667E+009;1.669698059558868E-001;-6.263151764869690E-002;5.406694253906608E-004;-4.319920670241118E-003;
2.418833333333334E+009;1.655245125293732E-001;-6.328555196523666E-002;4.593921185005456E-004;-4.168538376688957E-003;
2.419000000000000E+009;1.643436402082443E-001;-6.404913961887360E-002;2.757719485089183E-004;-4.319807980209589E-003;
2.419166666666667E+009;1.631157994270325E-001;-6.490697711706162E-002;5.197103746468201E-005;-4.360605962574482E-003;
2.419333333333334E+009;1.617896854877472E-001;-6.566211581230164E-002;-8.804252865957096E-005;-4.438265692442656E-003;
2.419500000000000E+009;1.607106626033783E-001;-6.682213395833969E-002;-9.671464067650959E-005;-4.211675841361284E-003;
2.419666666666667E+009;1.596169024705887E-001;-6.809230893850327E-002;-2.609697985462844E-004;-4.130870569497347E-003;
2.419833333333334E+009;1.584052145481110E-001;-6.909677386283875E-002;-5.209242808632553E-004;-4.066811874508858E-003;
2.420000000000000E+009;1.575158387422562E-001;-7.033953070640564E-002;-6.271486054174602E-004;-4.074118100106716E-003;
2.420166666666667E+009;1.562372893095017E-001;-7.163146883249283E-002;-6.401159334927797E-004;-4.052295349538326E-003;
2.420333333333334E+009;1.552873104810715E-001;-7.302340120077133E-002;-7.359549053944647E-004;-3.993510268628597E-003;
2.420500000000000E+009;1.544482111930847E-001;-7.430351525545120E-002;-1.009928411804140E-003;-3.920095972716808E-003;
2.420666666666667E+009;1.534925848245621E-001;-7.577057182788849E-002;-1.013728673569858E-003;-3.865417558699846E-003;
2.420833333333334E+009;1.528069525957108E-001;-7.738813757896423E-002;-1.127773197367787E-003;-3.737255698069930E-003;
2.421000000000000E+009;1.520543396472931E-001;-7.913994789123535E-002;-1.340889604762197E-003;-3.642482915893197E-003;
2.421166666666667E+009;1.513720303773880E-001;-8.065664023160934E-002;-1.324555836617947E-003;-3.648959333077073E-003;
2.421333333333334E+009;1.510206907987595E-001;-8.234824240207672E-002;-1.355410786345601E-003;-3.522193292155862E-003;
2.421500000000000E+009;1.504386365413666E-001;-8.384351432323456E-002;-1.550197834149003E-003;-3.501611994579434E-003;
2.421666666666667E+009;1.501609832048416E-001;-8.570972830057144E-002;-1.700287102721632E-003;-3.504483262076974E-003;
2.421833333333334E+009;1.499585509300232E-001;-8.742196112871170E-002;-1.725572044961155E-003;-3.544259350746870E-003;
2.422000000000000E+009;1.496392339468002E-001;-8.905851840972900E-002;-1.704526133835316E-003;-3.381954273208976E-003;
2.422166666666667E+009;1.494930237531662E-001;-9.085073322057724E-002;-1.915953587740660E-003;-3.375669242814183E-003;
2.422333333333334E+009;1.496773511171341E-001;-9.248062223196030E-002;-2.067569643259049E-003;-3.210371825844050E-003;
2.422500000000000E+009;1.495913267135620E-001;-9.406711906194687E-002;-2.039136132225394E-003;-3.133641090244055E-003;
2.422666666666667E+009;1.495563685894013E-001;-9.576750546693802E-002;-2.036929130554199E-003;-3.013430396094918E-003;
2.422833333333334E+009;1.499529927968979E-001;-9.750621765851975E-002;-2.224745694547892E-003;-3.103737020865083E-003;
2.423000000000000E+009;1.502800881862640E-001;-9.900369495153427E-002;-2.403424121439457E-003;-3.036564448848367E-003;
2.423166666666667E+009;1.507586836814880E-001;-1.005079150199890E-001;-2.251125173643231E-003;-2.810870995745063E-003;
2.423333333333334E+009;1.511503309011459E-001;-1.018357798457146E-001;-2.483143238350749E-003;-2.651654183864594E-003;
2.423500000000000E+009;1.513550579547882E-001;-1.034296900033951E-001;-2.582696499302983E-003;-2.571516903117299E-003;
2.423666666666667E+009;1.517930179834366E-001;-1.047215536236763E-001;-2.596647478640080E-003;-2.579052234068513E-003;
2.423833333333334E+009;1.523593366146088E-001;-1.060556843876839E-001;-2.710351021960378E-003;-2.478745067492127E-003;
2.424000000000000E+009;1.528917998075485E-001;-1.072203591465950E-001;-2.563313813880086E-003;-2.537696156650782E-003;
2.424166666666667E+009;1.533460319042206E-001;-1.083306670188904E-001;-2.672062255442143E-003;-2.347004832699895E-003;
2.424333333333334E+009;1.539298892021179E-001;-1.093633398413658E-001;-2.843224676325917E-003;-2.234659623354673E-003;
2.424500000000000E+009;1.544365584850311E-001;-1.103937998414040E-001;-2.948125824332237E-003;-2.050576731562614E-003;
2.424666666666667E+009;1.549672186374664E-001;-1.111729517579079E-001;-2.990847220644355E-003;-1.885581528767943E-003;
2.424833333333334E+009;1.552192121744156E-001;-1.119954288005829E-001;-2.949013607576489E-003;-1.808714005164802E-003;
2.425000000000000E+009;1.558412611484528E-001;-1.127703562378883E-001;-3.114669118076563E-003;-1.736012171022594E-003;
2.425166666666667E+009;1.559920907020569E-001;-1.135816723108292E-001;-3.073481377214193E-003;-1.671864651143551E-003;
2.425333333333334E+009;1.564489752054215E-001;-1.140879690647125E-001;-3.031822387129068E-003;-1.582325436174870E-003;
2.425500000000000E+009;1.567490696907044E-001;-1.146497651934624E-001;-3.047313075512648E-003;-1.308185863308609E-003;
2.425666666666667E+009;1.568360328674316E-001;-1.151802688837051E-001;-3.017167095094919E-003;-1.227566623128951E-003;
2.425833333333334E+009;1.570686548948288E-001;-1.154577136039734E-001;-3.058027941733599E-003;-1.123520894907415E-003;
2.426000000000000E+009;1.571733206510544E-001;-1.159031316637993E-001;-2.993108239024878E-003;-9.389860788360238E-004;
2.426166666666667E+009;1.572276204824448E-001;-1.162468045949936E-001;-3.012843197211623E-003;-9.192013530991972E-004;
2.426333333333334E+009;1.569687426090241E-001;-1.163945645093918E-001;-2.874700119718909E-003;-6.962945917621255E-004;
2.426500000000000E+009;1.570069044828415E-001;-1.165427863597870E-001;-2.876209793612361E-003;-7.297534029930830E-004;
2.426666666666667E+009;1.567698717117310E-001;-1.165352240204811E-001;-2.793455496430397E-003;-7.431434933096170E-004;
2.426833333333334E+009;1.563559472560883E-001;-1.167589575052261E-001;-2.975868294015527E-003;-4.419839824549854E-004;
2.427000000000000E+009;1.558636426925659E-001;-1.169059798121452E-001;-2.767520723864436E-003;-4.808136436622590E-004;
2.427166666666667E+009;1.553045511245728E-001;-1.169754490256310E-001;-2.796302083879709E-003;-4.637865931726992E-004;
2.427333333333334E+009;1.546989530324936E-001;-1.170457750558853E-001;-2.632304560393095E-003;-3.638045454863459E-004;
2.427500000000000E+009;1.540600210428238E-001;-1.172000244259834E-001;-2.620697487145662E-003;-3.956462023779750E-004;
2.427666666666667E+009;1.531758755445480E-001;-1.173893287777901E-001;-2.549661323428154E-003;-1.903690717881545E-004;
