# Version 1.00
#
freq[Hz];re:Trc1_S11;im:Trc1_S11;re:Trc2_S21;im:Trc2_S21;
2.400000000000000E+009;1.565119624137878E-001;6.040539965033531E-002;-1.709554693661630E-003;2.370111877098680E-003;
2.400166666666667E+009;1.564940512180328E-001;5.877995491027832E-002;-1.740117091685534E-003;2.344206441193819E-003;
2.400333333333334E+009;1.565403789281845E-001;5.673962086439133E-002;-1.586926053278148E-003;2.417163690552115E-003;
2.400500000000000E+009;1.568433493375778E-001;5.451012402772903E-002;-1.611664891242981E-003;2.493452979251742E-003;
2.400666666666667E+009;1.571176797151566E-001;5.254238471388817E-002;-1.576212584041059E-003;2.590361749753356E-003;
2.400833333333334E+009;1.573116928339005E-001;5.054066330194473E-002;-1.676135696470738E-003;2.570681506767869E-003;
2.401000000000000E+009;1.576900333166122E-001;4.844311624765396E-002;-1.388762961141765E-003;2.582000568509102E-003;
2.401166666666667E+009;1.581046581268311E-001;4.641249403357506E-002;-1.609046943485737E-003;2.720429096370935E-003;
2.401333333333334E+009;1.583732515573502E-001;4.440851509571075E-002;-1.452949712984264E-003;2.672318369150162E-003;
2.401500000000000E+009;1.590171009302139E-001;4.221932590007782E-002;-1.391707221046090E-003;2.614482073113322E-003;
2.401666666666667E+009;1.593966186046600E-001;4.028088971972466E-002;-1.322713098488748E-003;2.807557582855225E-003;
2.401833333333334E+009;1.601375192403793E-001;3.835298120975494E-002;-1.398311811499298E-003;2.856019185855985E-003;
2.402000000000000E+009;1.607663482427597E-001;3.636561334133148E-002;-1.375763327814639E-003;2.968915738165379E-003;
2.402166666666667E+009;1.614945530891419E-001;3.453634306788445E-002;-1.244487240910530E-003;3.115893807262182E-003;
2.402333333333334E+009;1.621684283018112E-001;3.274421393871307E-002;-1.152401790022850E-003;3.240643301978707E-003;
2.402500000000000E+009;1.631526350975037E-001;3.110424242913723E-002;-1.022467273287475E-003;3.268912201747298E-003;
2.402666666666667E+009;1.638167947530747E-001;2.957276999950409E-002;-9.268631110899150E-004;3.391851205378771E-003;
2.402833333333334E+009;1.648544222116470E-001;2.826713770627976E-002;-8.919435204006732E-004;3.378054127097130E-003;
2.403000000000000E+009;1.657504588365555E-001;2.669695205986500E-002;-9.611416026018560E-004;3.475874196738005E-003;
2.403166666666667E+009;1.667792201042175E-001;2.538136579096317E-002;-8.244020282290876E-004;3.767418907955289E-003;
2.403333333333334E+009;1.677160114049912E-001;2.419660985469818E-002;-7.358451257459819E-004;3.776519559323788E-003;
2.403500000000000E+009;1.685379892587662E-001;2.292523905634880E-002;-5.650263046845794E-004;4.146329127252102E-003;
2.403666666666667E+009;1.695405840873718E-001;2.165632881224155E-002;-4.643667780328542E-004;4.001648165285587E-003;
2.403833333333334E+009;1.706219464540482E-001;2.076216973364353E-002;-4.187125305179507E-004;4.235432483255863E-003;
2.404000000000000E+009;1.714918464422226E-001;2.000143006443977E-002;-1.504603369539836E-005;4.298577085137367E-003;
2.404166666666667E+009;1.725050359964371E-001;1.901940256357193E-002;4.037432881887071E-005;4.339109174907208E-003;
2.404333333333334E+009;1.733513325452805E-001;1.813786849379540E-002;1.931385922944173E-004;4.306815564632416E-003;
2.404500000000000E+009;1.739869415760040E-001;1.745675504207611E-002;4.013036377727985E-004;4.406510386615992E-003;
2.404666666666667E+009;1.749776899814606E-001;1.690277084708214E-002;6.521763280034065E-004;4.568465519696474E-003;
2.404833333333334E+009;1.756640970706940E-001;1.616283319890499E-002;7.058057235553861E-004;4.453984089195728E-003;
2.405000000000000E+009;1.764931678771973E-001;1.559790223836899E-002;9.868681663647294E-004;4.582936409860849E-003;
2.405166666666667E+009;1.771477311849594E-001;1.525253616273403E-002;1.354036852717400E-003;4.481541924178600E-003;
2.405333333333334E+009;1.778906434774399E-001;1.469821762293577E-002;1.592407817952335E-003;4.557111300528050E-003;
2.405500000000000E+009;1.784536987543106E-001;1.456855516880751E-002;1.577031565830112E-003;4.525805823504925E-003;
2.405666666666667E+009;1.787467896938324E-001;1.399117521941662E-002;1.818091957829893E-003;4.437984433025122E-003;
2.405833333333334E+009;1.791025251150131E-001;1.395359355956316E-002;2.114895032718778E-003;4.159898497164249E-003;
2.406000000000000E+009;1.795024275779724E-001;1.346831023693085E-002;2.502740127965808E-003;4.234108608216047E-003;
2.406166666666667E+009;1.796021610498428E-001;1.336115598678589E-002;2.484179567545652E-003;4.177081398665905E-003;
2.406333333333334E+009;1.799216717481613E-001;1.303226128220558E-002;2.677691867575049E-003;4.090372473001480E-003;
2.406500000000000E+009;1.798955500125885E-001;1.262539438903332E-002;2.890226664021611E-003;3.881193930283189E-003;
2.406666666666667E+009;1.797856837511063E-001;1.236728858202696E-002;3.066902514547110E-003;3.869106993079186E-003;
2.406833333333334E+009;1.797493845224381E-001;1.192170567810535E-002;3.221708349883556E-003;3.642476396635175E-003;
2.407000000000000E+009;1.796965450048447E-001;1.166453212499619E-002;3.324880264699459E-003;3.512592986226082E-003;
2.407166666666667E+009;1.795719712972641E-001;1.121062040328980E-002;3.569347318261862E-003;3.510290291160345E-003;
2.407333333333334E+009;1.790922582149506E-001;1.056430861353874E-002;3.752460237592459E-003;3.276936011388898E-003;
2.407500000000000E+009;1.788346767425537E-001;1.015471108257771E-002;3.889336483553052E-003;3.108223667368293E-003;
2.407666666666667E+009;1.783663928508759E-001;9.533701464533806E-003;3.913559019565582E-003;2.861978486180306E-003;
2.407833333333334E+009;1.777992993593216E-001;8.602553978562355E-003;3.751779673621059E-003;2.790158148854971E-003;
2.408000000000000E+009;1.773655116558075E-001;7.942856289446354E-003;4.013696219772100E-003;2.573384204879403E-003;
2.408166666666667E+009;1.767352521419525E-001;7.293619215488434E-003;4.068417474627495E-003;2.489422215148807E-003;
2.408333333333334E+009;1.763920783996582E-001;6.297183688730001E-003;4.138047806918621E-003;2.200953429564834E-003;
2.408500000000000E+009;1.755693703889847E-001;5.158351268619299E-003;4.241941031068564E-003;2.081053098663688E-003;
2.408666666666667E+009;1.749782264232636E-001;4.201556555926800E-003;4.325937945395708E-003;1.969146076589823E-003;
2.408833333333334E+009;1.740894764661789E-001;2.896649064496160E-003;4.400019533932209E-003;1.626185141503811E-003;
2.409000000000000E+009;1.733084470033646E-001;1.540350844152272E-003;4.316659644246101E-003;1.496303477324545E-003;
2.409166666666667E+009;1.728283166885376E-001;2.347035915590823E-004;4.325521644204855E-003;1.314019551500678E-003;
2.409333333333334E+009;1.721958965063095E-001;-1.268655876629055E-003;4.299411550164223E-003;1.326414640061557E-003;
2.409500000000000E+009;1.714373528957367E-001;-2.855779370293021E-003;4.442382603883743E-003;1.011082087643445E-003;
2.409666666666667E+009;1.708390116691589E-001;-4.407512024044991E-003;4.361687228083611E-003;9.714390616863966E-004;
2.409833333333334E+009;1.702243536710739E-001;-5.932866130024195E-003;4.271212965250015E-003;9.077981812879443E-004;
2.410000000000000E+009;1.697955578565598E-001;-7.553026545792818E-003;4.405852872878313E-003;6.767993909306824E-004;
2.410166666666667E+009;1.692888736724854E-001;-9.437231346964836E-003;4.321781918406487E-003;5.637943395413458E-004;
2.410333333333334E+009;1.688097715377808E-001;-1.113647595047951E-002;4.418210126459599E-003;3.635592584032565E-004;
2.410500000000000E+009;1.683014929294586E-001;-1.302876602858305E-002;4.402484279125929E-003;3.126218216493726E-004;
2.410666666666667E+009;1.680978685617447E-001;-1.510979514569044E-002;4.341431427747011E-003;1.428844843758270E-004;
2.410833333333334E+009;1.679066270589829E-001;-1.686640456318855E-002;4.293361678719521E-003;-2.051804585789796E-005;
2.411000000000000E+009;1.676021665334702E-001;-1.876348257064819E-002;4.253309685736895E-003;-1.321121235378087E-004;
2.411166666666667E+009;1.675670892000198E-001;-2.092663757503033E-002;4.268056247383356E-003;-3.851389046758413E-004;
2.411333333333334E+009;1.675165891647339E-001;-2.275040000677109E-002;4.200745373964310E-003;-3.960882895626128E-004;
2.411500000000000E+009;1.673990637063980E-001;-2.491146512329578E-002;4.130850546061993E-003;-5.430466844700277E-004;
2.411666666666667E+009;1.676955223083496E-001;-2.670471556484699E-002;4.194604698568583E-003;-6.974273128435016E-004;
2.411833333333334E+009;1.678166687488556E-001;-2.857040986418724E-002;4.123160149902105E-003;-6.712954491376877E-004;
2.412000000000000E+009;1.681424230337143E-001;-3.045334294438362E-002;4.137731157243252E-003;-8.078217506408691E-004;
2.412166666666667E+009;1.683137416839600E-001;-3.258551657199860E-002;4.032418597489595E-003;-8.223219192586839E-004;
2.412333333333334E+009;1.689621657133102E-001;-3.411977365612984E-002;4.002111963927746E-003;-9.659529314376414E-004;
2.412500000000000E+009;1.691695600748062E-001;-3.598141670227051E-002;3.998034168034792E-003;-9.382739663124085E-004;
2.412666666666667E+009;1.696490794420242E-001;-3.799653425812721E-002;3.895262721925974E-003;-1.145004876889288E-003;
2.412833333333334E+009;1.702218651771545E-001;-3.947988152503967E-002;3.923507872968912E-003;-1.277849776670337E-003;
2.413000000000000E+009;1.709336042404175E-001;-4.113253951072693E-002;3.896937007084489E-003;-1.320903073064983E-003;
2.413166666666667E+009;1.713927090167999E-001;-4.280835390090942E-002;3.842357778921723E-003;-1.374980784021318E-003;
2.413333333333334E+009;1.718663275241852E-001;-4.447630047798157E-002;3.805376589298248E-003;-1.446798793040216E-003;
2.413500000000000E+009;1.724109053611755E-001;-4.578653723001480E-002;3.711196593940258E-003;-1.569658401422203E-003;
2.413666666666667E+009;1.731634140014648E-001;-4.711264371871948E-002;3.758253296837211E-003;-1.790482318028808E-003;
2.413833333333334E+009;1.738308072090149E-001;-4.836068674921989E-002;3.815308911725879E-003;-1.896221074275672E-003;
2.414000000000000E+009;1.742390245199204E-001;-4.958277195692062E-002;3.663107985630631E-003;-1.875929534435272E-003;
2.414166666666667E+009;1.749636083841324E-001;-5.064112693071365E-002;3.661051159724593E-003;-1.844437560066581E-003;
2.414333333333334E+009;1.754382401704788E-001;-5.172618478536606E-002;3.672161372378469E-003;-2.062535844743252E-003;
2.414500000000000E+009;1.763123571872711E-001;-5.259193480014801E-002;3.474097931757569E-003;-2.248337958008051E-003;
2.414666666666667E+009;1.766198575496674E-001;-5.318711325526238E-002;3.571369918063283E-003;-2.391544403508306E-003;
2.414833333333334E+009;1.769248545169830E-001;-5.412311851978302E-002;3.530330490320921E-003;-2.502903575077653E-003;
2.415000000000000E+009;1.772343814373016E-001;-5.470963567495346E-002;3.231098875403404E-003;-2.644632011651993E-003;
2.415166666666667E+009;1.778307557106018E-001;-5.544945970177651E-002;3.476932412013412E-003;-2.847941126674414E-003;
2.415333333333334E+009;1.781003475189209E-001;-5.591579899191856E-002;3.381285117939115E-003;-3.048076061531901E-003;
2.415500000000000E+009;1.784209609031677E-001;-5.625037476420403E-002;3.291665110737085E-003;-3.065780038014054E-003;
2.415666666666667E+009;1.784714013338089E-001;-5.669003725051880E-002;2.992806956171989E-003;-3.169653471559286E-003;
2.415833333333334E+009;1.785642802715302E-001;-5.705367773771286E-002;3.001483390107751E-003;-3.323073731735349E-003;
2.416000000000000E+009;1.784770041704178E-001;-5.733388662338257E-002;2.850166987627745E-003;-3.347773104906082E-003;
2.416166666666667E+009;1.784878671169281E-001;-5.755439773201942E-002;2.910568146035075E-003;-3.595581511035562E-003;
2.416333333333334E+009;1.783186644315720E-001;-5.780089646577835E-002;2.767684869468212E-003;-3.591806860640645E-003;
2.416500000000000E+009;1.779266297817230E-001;-5.802666768431664E-002;2.498297486454248E-003;-3.939570393413305E-003;
2.416666666666667E+009;1.774845868349075E-001;-5.820966884493828E-002;2.468655817210674E-003;-3.806205233559012E-003;
2.416833333333334E+009;1.771606355905533E-001;-5.856421962380409E-002;2.255507046356797E-003;-4.010275937616825E-003;
2.417000000000000E+009;1.763621568679810E-001;-5.875898152589798E-002;2.143375342711806E-003;-3.936657682061195E-003;
2.417166666666667E+009;1.758005768060684E-001;-5.883248522877693E-002;1.938577624969184E-003;-4.020926076918840E-003;
2.417333333333334E+009;1.751064211130142E-001;-5.901561677455902E-002;1.950501115061343E-003;-4.009953700006008E-003;
2.417500000000000E+009;1.742885261774063E-001;-5.944069102406502E-002;1.656178617849946E-003;-4.302857443690300E-003;
2.417666666666667E+009;1.734803766012192E-001;-5.962943285703659E-002;1.432789838872850E-003;-4.346258006989956E-003;
2.417833333333334E+009;1.724275946617127E-001;-6.012367084622383E-002;1.568437437526882E-003;-4.301211796700954E-003;
2.418000000000000E+009;1.714044511318207E-001;-6.052981689572334E-002;1.200297847390175E-003;-4.316498059779406E-003;
2.418166666666667E+009;1.702709048986435E-001;-6.073896586894989E-002;1.025363686494529E-003;-4.340610932558775E-003;
2.418333333333334E+009;1.694244295358658E-001;-6.146107986569405E-002;9.356539230793715E-004;-4.256886895745993E-003;
2.418500000000000E+009;1.681786030530930E-001;-6.186012178659439E-002;8.577490225434303E-004;-4.226676654070616E-003;
2.418666666666667E+009;1.669645011425018E-001;-6.262783706188202E-002;6.370096234604716E-004;-4.321611952036619E-003;
2.418833333333334E+009;1.656426489353180E-001;-6.342250853776932E-002;6.019560969434679E-004;-4.181229043751955E-003;
2.419000000000000E+009;1.643673181533814E-001;-6.398710608482361E-002;3.474584664218128E-004;-4.340602550655603E-003;
2.419166666666667E+009;1.631637513637543E-001;-6.507241725921631E-002;1.860943448264152E-004;-4.229357000440359E-003;
2.419333333333334E+009;1.617832928895950E-001;-6.575919687747955E-002;3.787180685321800E-005;-4.169599153101444E-003;
2.419500000000000E+009;1.607341170310974E-001;-6.682430207729340E-002;-2.981125908263493E-005;-4.199936520308256E-003;
2.419666666666667E+009;1.596502512693405E-001;-6.815453618764877E-002;-1.998400402953848E-004;-4.164748359471560E-003;
2.419833333333334E+009;1.583468019962311E-001;-6.915073841810226E-002;-3.063386830035597E-004;-4.164077341556549E-003;
2.420000000000000E+009;1.572472900152206E-001;-7.025489211082459E-002;-4.026989045087248E-004;-4.158975556492806E-003;
2.420166666666667E+009;1.563221067190170E-001;-7.168389111757278E-002;-5.586904590018094E-004;-4.130446352064610E-003;
2.420333333333334E+009;1.553183794021606E-001;-7.297608256340027E-002;-6.682952516712248E-004;-3.941297531127930E-003;
2.420500000000000E+009;1.544317752122879E-001;-7.426096498966217E-002;-7.410158286802471E-004;-3.993371035903692E-003;
2.420666666666667E+009;1.535094976425171E-001;-7.578164339065552E-002;-8.368131821043789E-004;-3.960296511650085E-003;
2.420833333333334E+009;1.527310460805893E-001;-7.733568549156189E-002;-9.437340777367353E-004;-3.932586405426264E-003;
2.421000000000000E+009;1.519771516323090E-001;-7.899000495672226E-002;-1.034619519487023E-003;-3.772136056795716E-003;
2.421166666666667E+009;1.512962281703949E-001;-8.059699833393097E-002;-1.182209118269384E-003;-3.706119721755385E-003;
2.421333333333334E+009;1.510417610406876E-001;-8.236547559499741E-002;-1.263644895516336E-003;-3.737814025953412E-003;
2.421500000000000E+009;1.504176110029221E-001;-8.391767740249634E-002;-1.434544683434069E-003;-3.760438412427902E-003;
2.421666666666667E+009;1.501793563365936E-001;-8.557610213756561E-002;-1.525221858173609E-003;-3.705612616613507E-003;
2.421833333333334E+009;1.499299257993698E-001;-8.722716569900513E-002;-1.482263323850930E-003;-3.327855840325356E-003;
2.422000000000000E+009;1.498543024063110E-001;-8.916033804416657E-002;-1.506677595898509E-003;-3.469267161563039E-003;
2.422166666666667E+009;1.496279090642929E-001;-9.096860885620117E-002;-1.732375938445330E-003;-3.311943728476763E-003;
2.422333333333334E+009;1.496755629777908E-001;-9.240581095218658E-002;-1.655157655477524E-003;-3.370875492691994E-003;
2.422500000000000E+009;1.495920121669769E-001;-9.398208558559418E-002;-1.995260594412684E-003;-3.252175403758884E-003;
2.422666666666667E+009;1.496041864156723E-001;-9.578219801187515E-002;-2.031433861702681E-003;-3.063313197344542E-003;
2.422833333333334E+009;1.499797850847244E-001;-9.748240560293198E-002;-2.039034152403474E-003;-3.197279060259461E-003;
2.423000000000000E+009;1.503368765115738E-001;-9.903056919574738E-002;-2.127449493855238E-003;-2.938413992524147E-003;
2.423166666666667E+009;1.507286578416824E-001;-1.004956439137459E-001;-2.097404561936855E-003;-2.971302717924118E-003;
2.423333333333334E+009;1.510491669178009E-001;-1.019270941615105E-001;-2.267443342134357E-003;-2.810946665704250E-003;
2.423500000000000E+009;1.515458822250366E-001;-1.033911257982254E-001;-2.404154511168599E-003;-2.853917423635721E-003;
2.423666666666667E+009;1.519162207841873E-001;-1.048411205410957E-001;-2.457205904647708E-003;-2.719318959861994E-003;
2.423833333333334E+009;1.524907052516937E-001;-1.062128692865372E-001;-2.610422670841217E-003;-2.593830926343799E-003;
2.424000000000000E+009;1.528386026620865E-001;-1.073023527860642E-001;-2.634593285620213E-003;-2.536435611546040E-003;
2.424166666666667E+009;1.533349752426148E-001;-1.084305718541145E-001;-2.773395739495754E-003;-2.357171848416328E-003;
2.424333333333334E+009;1.538740396499634E-001;-1.094642952084541E-001;-2.803934738039970E-003;-2.306019887328148E-003;
2.424500000000000E+009;1.543782353401184E-001;-1.106327101588249E-001;-2.836802275851369E-003;-2.338105347007513E-003;
2.424666666666667E+009;1.551836729049683E-001;-1.112869158387184E-001;-3.031688742339611E-003;-1.958595123142004E-003;
2.424833333333334E+009;1.552613973617554E-001;-1.121819615364075E-001;-2.934047020971775E-003;-2.140663098543882E-003;
2.425000000000000E+009;1.558021754026413E-001;-1.128936409950256E-001;-2.930352697148919E-003;-1.837179064750671E-003;
2.425166666666667E+009;1.558643281459808E-001;-1.137178540229797E-001;-2.948332112282515E-003;-1.756196841597557E-003;
2.425333333333334E+009;1.563632190227509E-001;-1.141919791698456E-001;-3.033865010365844E-003;-1.571388333104551E-003;
2.425500000000000E+009;1.567302942276001E-001;-1.148573532700539E-001;-2.982100239023566E-003;-1.395563594996929E-003;
2.425666666666667E+009;1.568736732006073E-001;-1.152517795562744E-001;-2.972605405375361E-003;-1.398632535710931E-003;
2.425833333333334E+009;1.569503843784332E-001;-1.156251281499863E-001;-3.039209172129631E-003;-1.247268170118332E-003;
2.426000000000000E+009;1.570716649293900E-001;-1.159831285476685E-001;-3.104906994849443E-003;-1.190962153486908E-003;
2.426166666666667E+009;1.571979373693466E-001;-1.163058206439018E-001;-3.002888290211558E-003;-1.084843301214278E-003;
2.426333333333334E+009;1.571294814348221E-001;-1.165302097797394E-001;-3.038452938199043E-003;-9.383910219185054E-004;
2.426500000000000E+009;1.569044739007950E-001;-1.166846379637718E-001;-3.003229619935155E-003;-8.364400709979236E-004;
2.426666666666667E+009;1.568301767110825E-001;-1.167356595396996E-001;-2.989490982145071E-003;-7.941672229208052E-004;
2.426833333333334E+009;1.563134640455246E-001;-1.169032379984856E-001;-2.879355335608125E-003;-6.706890999339521E-004;
2.427000000000000E+009;1.558397114276886E-001;-1.171279400587082E-001;-2.743375487625599E-003;-7.370897801592946E-004;
2.427166666666667E+009;1.553123891353607E-001;-1.170387789607048E-001;-2.664196072146297E-003;-5.724547663703561E-004;
2.427333333333334E+009;1.545787304639816E-001;-1.172151267528534E-001;-2.734384266659617E-003;-5.176420672796667E-004;
2.427500000000000E+009;1.540941745042801E-001;-1.173342540860176E-001;-2.774667926132679E-003;-3.634431923273951E-004;
2.427666666666667E+009;1.530693769454956E-001;-1.174734756350517E-001;-2.531769918277860E-003;-3.318943490739912E-004;
