# Version 1.00
#
freq[Hz];re:Trc1_S11;im:Trc1_S11;re:Trc2_S21;im:Trc2_S21;
2.400000000000000E+009;1.565672755241394E-001;6.031906232237816E-002;-1.541817444376648E-003;2.657383214682341E-003;
2.400166666666667E+009;1.566150784492493E-001;5.853470042347908E-002;-1.578122493810952E-003;2.614967990666628E-003;
2.400333333333334E+009;1.566502004861832E-001;5.668413266539574E-002;-1.493138261139393E-003;2.737402683123946E-003;
2.400500000000000E+009;1.568433642387390E-001;5.435922369360924E-002;-1.529532717540860E-003;2.744384808465838E-003;
2.400666666666667E+009;1.571340858936310E-001;5.230786651372910E-002;-1.286558341234922E-003;2.679272554814816E-003;
2.400833333333334E+009;1.573663502931595E-001;5.044630542397499E-002;-1.397148706018925E-003;2.748710103332996E-003;
2.401000000000000E+009;1.577324122190476E-001;4.843373224139214E-002;-1.227764296345413E-003;2.686481224372983E-003;
2.401166666666667E+009;1.582251489162445E-001;4.614291712641716E-002;-1.117227249778807E-003;2.937996061518788E-003;
2.401333333333334E+009;1.583683937788010E-001;4.416177421808243E-002;-1.146854250691831E-003;2.905372763052583E-003;
2.401500000000000E+009;1.591904908418655E-001;4.212937876582146E-002;-1.023740973323584E-003;2.937005832791328E-003;
2.401666666666667E+009;1.596570611000061E-001;4.025667160749435E-002;-1.052767387591302E-003;3.042036434635520E-003;
2.401833333333334E+009;1.603025496006012E-001;3.833641856908798E-002;-1.078068744391203E-003;3.186412155628204E-003;
2.402000000000000E+009;1.607044935226440E-001;3.656638786196709E-002;-9.384287404827774E-004;3.154214704409242E-003;
2.402166666666667E+009;1.616465002298355E-001;3.432347998023033E-002;-9.467839845456183E-004;3.149185096845031E-003;
2.402333333333334E+009;1.621993482112885E-001;3.283295780420303E-002;-9.415171225555241E-004;3.374033141881228E-003;
2.402500000000000E+009;1.632620394229889E-001;3.114564903080463E-002;-8.588243508711457E-004;3.590470645576716E-003;
2.402666666666667E+009;1.640782207250595E-001;2.956731058657169E-002;-8.293478749692440E-004;3.492104820907116E-003;
2.402833333333334E+009;1.648290753364563E-001;2.813657559454441E-002;-7.171783363446593E-004;3.716258099302650E-003;
2.403000000000000E+009;1.657155156135559E-001;2.662957832217217E-002;-5.652111722156405E-004;3.798187477514148E-003;
2.403166666666667E+009;1.669351905584335E-001;2.535485476255417E-002;-4.059641214553267E-004;3.735115053132176E-003;
2.403333333333334E+009;1.677334904670715E-001;2.411213889718056E-002;-3.280435048509389E-004;3.886870574206114E-003;
2.403500000000000E+009;1.685891300439835E-001;2.301123552024365E-002;-1.924489188240841E-004;3.866518381983042E-003;
2.403666666666667E+009;1.695244461297989E-001;2.170028351247311E-002;1.155288409790956E-004;3.988716285675764E-003;
2.403833333333334E+009;1.706554591655731E-001;2.070636674761772E-002;1.735445257509127E-004;4.193838685750961E-003;
2.404000000000000E+009;1.714053303003311E-001;1.976351998746395E-002;5.333941953722388E-005;4.358293954282999E-003;
2.404166666666667E+009;1.724172234535217E-001;1.893820613622665E-002;3.706541610881686E-004;4.208791069686413E-003;
2.404333333333334E+009;1.732005774974823E-001;1.805376634001732E-002;6.210119463503361E-004;4.211463034152985E-003;
2.404500000000000E+009;1.740031093358994E-001;1.727250590920448E-002;9.750167373567820E-004;4.404366016387940E-003;
2.404666666666667E+009;1.750266402959824E-001;1.672535389661789E-002;1.053463551215828E-003;4.447916056960821E-003;
2.404833333333334E+009;1.757066696882248E-001;1.612695865333080E-002;1.261641038581729E-003;4.302104935050011E-003;
2.405000000000000E+009;1.765533685684204E-001;1.562697067856789E-002;1.509695313870907E-003;4.479870665818453E-003;
2.405166666666667E+009;1.773299574851990E-001;1.516545284539461E-002;1.675669685937464E-003;4.370981827378273E-003;
2.405333333333334E+009;1.778593808412552E-001;1.453770510852337E-002;1.782181439921260E-003;4.519586451351643E-003;
2.405500000000000E+009;1.784007400274277E-001;1.433952245861292E-002;1.967981690540910E-003;4.301335662603378E-003;
2.405666666666667E+009;1.789196431636810E-001;1.413982082158327E-002;2.457409864291549E-003;4.262012429535389E-003;
2.405833333333334E+009;1.790445297956467E-001;1.375077012926340E-002;2.409832319244742E-003;4.133866634219885E-003;
2.406000000000000E+009;1.794716268777847E-001;1.331679988652468E-002;2.565402537584305E-003;4.014536272734404E-003;
2.406166666666667E+009;1.795667409896851E-001;1.328265946358442E-002;2.754982095211744E-003;3.977024927735329E-003;
2.406333333333334E+009;1.799588650465012E-001;1.298782229423523E-002;3.122470341622829E-003;3.891073865815997E-003;
2.406500000000000E+009;1.799531728029251E-001;1.260670181363821E-002;3.219332313165069E-003;3.824584186077118E-003;
2.406666666666667E+009;1.796717494726181E-001;1.237252727150917E-002;3.413996426388621E-003;3.509449772536755E-003;
2.406833333333334E+009;1.798795759677887E-001;1.190633047372103E-002;3.566390369087458E-003;3.490778850391507E-003;
2.407000000000000E+009;1.797270923852921E-001;1.164533291012049E-002;3.627343103289604E-003;3.173153614625335E-003;
2.407166666666667E+009;1.795409917831421E-001;1.121752150356770E-002;3.867621999233961E-003;3.060291288420558E-003;
2.407333333333334E+009;1.790662556886673E-001;1.055322494357824E-002;3.958517219871283E-003;3.009551670402288E-003;
2.407500000000000E+009;1.786616146564484E-001;1.012995187193155E-002;3.995038568973541E-003;2.827186603099108E-003;
2.407666666666667E+009;1.783406883478165E-001;9.585416875779629E-003;4.157577175647020E-003;2.581705106422305E-003;
2.407833333333334E+009;1.778308749198914E-001;8.692649193108082E-003;4.249963443726301E-003;2.324251458048821E-003;
2.408000000000000E+009;1.771872639656067E-001;7.900631986558437E-003;4.285955801606178E-003;2.249172190204263E-003;
2.408166666666667E+009;1.767413318157196E-001;7.358339615166187E-003;4.416759591549635E-003;2.126682549715042E-003;
2.408333333333334E+009;1.762417256832123E-001;6.332935765385628E-003;4.302896093577147E-003;2.078221878036857E-003;
2.408500000000000E+009;1.754889488220215E-001;5.215376149863005E-003;4.502244759351015E-003;1.796265598386526E-003;
2.408666666666667E+009;1.748154759407044E-001;4.057016223669052E-003;4.356185905635357E-003;1.686202245764434E-003;
2.408833333333334E+009;1.740961521863937E-001;2.890109317377210E-003;4.559348803013563E-003;1.532282214611769E-003;
2.409000000000000E+009;1.734268367290497E-001;1.762693515047431E-003;4.580201115459204E-003;1.398242777213454E-003;
2.409166666666667E+009;1.727570444345474E-001;2.311002172064036E-004;4.638754297047854E-003;1.137760700657964E-003;
2.409333333333334E+009;1.722359955310822E-001;-1.151571865193546E-003;4.535869695246220E-003;9.787221206352115E-004;
2.409500000000000E+009;1.714626103639603E-001;-2.694657770916820E-003;4.549548495560885E-003;8.717780001461506E-004;
2.409666666666667E+009;1.708638817071915E-001;-4.375274758785963E-003;4.517737776041031E-003;5.372054292820394E-004;
2.409833333333334E+009;1.700128018856049E-001;-5.836586933583021E-003;4.577442537993193E-003;5.496215890161693E-004;
2.410000000000000E+009;1.697097271680832E-001;-7.515182718634605E-003;4.522755276411772E-003;4.546985146589577E-004;
2.410166666666667E+009;1.692605912685394E-001;-9.439592249691486E-003;4.536996129900217E-003;1.355425192741677E-004;
2.410333333333334E+009;1.686074584722519E-001;-1.112660579383373E-002;4.403971135616303E-003;1.002268327283673E-004;
2.410500000000000E+009;1.683246940374374E-001;-1.294090412557125E-002;4.354353062808514E-003;-1.026724639814347E-004;
2.410666666666667E+009;1.679043620824814E-001;-1.498134434223175E-002;4.465335980057716E-003;-2.188623329857364E-004;
2.410833333333334E+009;1.677936911582947E-001;-1.680161431431770E-002;4.303738940507174E-003;-2.076878299703822E-004;
2.411000000000000E+009;1.675744056701660E-001;-1.888091303408146E-002;4.339701496064663E-003;-4.056705511175096E-004;
2.411166666666667E+009;1.675606667995453E-001;-2.082647569477558E-002;4.282268229871988E-003;-6.382928695529699E-004;
2.411333333333334E+009;1.674348860979080E-001;-2.273122966289520E-002;4.102569539099932E-003;-5.877783987671137E-004;
2.411500000000000E+009;1.673577278852463E-001;-2.475406974554062E-002;4.069396294653416E-003;-7.872818969190121E-004;
2.411666666666667E+009;1.676282286643982E-001;-2.669408358633518E-002;4.145469982177019E-003;-9.840850252658129E-004;
2.411833333333334E+009;1.676478236913681E-001;-2.842344343662262E-002;4.101614002138376E-003;-1.120020984672010E-003;
2.412000000000000E+009;1.680907160043716E-001;-3.057248890399933E-002;4.126952961087227E-003;-1.051538041792810E-003;
2.412166666666667E+009;1.683244705200195E-001;-3.237824141979218E-002;4.010074771940708E-003;-1.134218531660736E-003;
2.412333333333334E+009;1.689814329147339E-001;-3.413389995694161E-002;4.047567024827004E-003;-1.324697281233966E-003;
2.412500000000000E+009;1.692424118518829E-001;-3.602806478738785E-002;3.763262880966067E-003;-1.312972977757454E-003;
2.412666666666667E+009;1.697339117527008E-001;-3.773311898112297E-002;3.888807725161314E-003;-1.426230533979833E-003;
2.412833333333334E+009;1.702560782432556E-001;-3.947796300053597E-002;3.755798330530524E-003;-1.457228208892047E-003;
2.413000000000000E+009;1.708087176084518E-001;-4.111548140645027E-002;3.800643840804696E-003;-1.689508557319641E-003;
2.413166666666667E+009;1.714302599430084E-001;-4.267294704914093E-002;3.676932537928224E-003;-1.728740287944675E-003;
2.413333333333334E+009;1.719675958156586E-001;-4.418126493692398E-002;3.585422644391656E-003;-1.839219010435045E-003;
2.413500000000000E+009;1.725219786167145E-001;-4.554551094770432E-002;3.573595546185970E-003;-1.973647391423583E-003;
2.413666666666667E+009;1.732953786849976E-001;-4.695559293031693E-002;3.729089628905058E-003;-2.095456002280116E-003;
2.413833333333334E+009;1.738714724779129E-001;-4.816116392612457E-002;3.709151176735759E-003;-2.080480800941587E-003;
2.414000000000000E+009;1.741851121187210E-001;-4.946097359061241E-002;3.479178994894028E-003;-2.221781061962247E-003;
2.414166666666667E+009;1.748933047056198E-001;-5.045492947101593E-002;3.606532933190465E-003;-2.413715003058314E-003;
2.414333333333334E+009;1.755174547433853E-001;-5.154861882328987E-002;3.471323056146503E-003;-2.417030045762658E-003;
2.414500000000000E+009;1.762629747390747E-001;-5.237675085663796E-002;3.523118561133742E-003;-2.495990833267570E-003;
2.414666666666667E+009;1.766537725925446E-001;-5.323903262615204E-002;3.527356544509530E-003;-2.572604920715094E-003;
2.414833333333334E+009;1.769908517599106E-001;-5.406420677900314E-002;3.242073347792029E-003;-2.712469780817628E-003;
2.415000000000000E+009;1.774557679891586E-001;-5.465842783451080E-002;3.250624053180218E-003;-2.958655823022127E-003;
2.415166666666667E+009;1.778003275394440E-001;-5.536600947380066E-002;3.180487547069788E-003;-2.860641805455089E-003;
2.415333333333334E+009;1.781196445226669E-001;-5.591809749603272E-002;3.190357703715563E-003;-3.162916749715805E-003;
2.415500000000000E+009;1.784103810787201E-001;-5.623700097203255E-002;3.054455388337374E-003;-3.153227502480149E-003;
2.415666666666667E+009;1.784217655658722E-001;-5.648805201053619E-002;2.964137122035027E-003;-3.223278559744358E-003;
2.415833333333334E+009;1.786480247974396E-001;-5.684701353311539E-002;2.745003206655383E-003;-3.471410600468516E-003;
2.416000000000000E+009;1.785439550876617E-001;-5.732793360948563E-002;2.805289113894105E-003;-3.536505624651909E-003;
2.416166666666667E+009;1.785250455141068E-001;-5.759052559733391E-002;2.640720922499895E-003;-3.804755629971623E-003;
2.416333333333334E+009;1.782911270856857E-001;-5.769474059343338E-002;2.483437303453684E-003;-3.826868953183293E-003;
2.416500000000000E+009;1.781197041273117E-001;-5.793943628668785E-002;2.340967766940594E-003;-3.846686566248536E-003;
2.416666666666667E+009;1.775433719158173E-001;-5.805616080760956E-002;2.339528640732169E-003;-4.130989313125610E-003;
2.416833333333334E+009;1.772477924823761E-001;-5.847973003983498E-002;2.090832684189081E-003;-4.159692674875259E-003;
2.417000000000000E+009;1.764944344758987E-001;-5.875927582383156E-002;1.876211608760059E-003;-4.151191096752882E-003;
2.417166666666667E+009;1.759399175643921E-001;-5.877369269728661E-002;1.777763478457928E-003;-4.167946055531502E-003;
2.417333333333334E+009;1.751078963279724E-001;-5.894397944211960E-002;1.608675229363143E-003;-4.191336687654257E-003;
2.417500000000000E+009;1.743607521057129E-001;-5.946946516633034E-002;1.528975670225918E-003;-4.235609900206327E-003;
2.417666666666667E+009;1.734896302223206E-001;-5.962422117590904E-002;1.442076405510306E-003;-4.221746232360601E-003;
2.417833333333334E+009;1.725771427154541E-001;-5.997654795646668E-002;1.188885071314871E-003;-4.325750283896923E-003;
2.418000000000000E+009;1.714339703321457E-001;-6.045741960406303E-002;1.141930115409195E-003;-4.441965837031603E-003;
2.418166666666667E+009;1.702967584133148E-001;-6.075438112020493E-002;8.108318434096873E-004;-4.326298367232084E-003;
2.418333333333334E+009;1.695262491703033E-001;-6.143965199589729E-002;7.715768879279494E-004;-4.238257184624672E-003;
2.418500000000000E+009;1.681921482086182E-001;-6.187497079372406E-002;5.399656947702169E-004;-4.320743493735790E-003;
2.418666666666667E+009;1.670481711626053E-001;-6.264947354793549E-002;3.049642255064100E-004;-4.422717727720738E-003;
2.418833333333334E+009;1.657549291849136E-001;-6.327372789382935E-002;3.520530590321869E-004;-4.372923634946346E-003;
2.419000000000000E+009;1.644349098205566E-001;-6.407025456428528E-002;1.080560468835756E-004;-4.294926300644875E-003;
2.419166666666667E+009;1.633035838603973E-001;-6.512507051229477E-002;4.899471605313011E-006;-4.339119885116816E-003;
2.419333333333334E+009;1.618138998746872E-001;-6.573820859193802E-002;-1.768152869772166E-004;-4.293584730476141E-003;
2.419500000000000E+009;1.607304215431213E-001;-6.685429811477661E-002;-3.824404848273844E-004;-4.307189490646124E-003;
2.419666666666667E+009;1.597161889076233E-001;-6.801993399858475E-002;-3.145540249533951E-004;-4.108560271561146E-003;
2.419833333333334E+009;1.584565788507462E-001;-6.900483369827271E-002;-5.073604988865554E-004;-4.232123959809542E-003;
2.420000000000000E+009;1.575025320053101E-001;-7.043903321027756E-002;-6.449423963204026E-004;-4.082448314875364E-003;
2.420166666666667E+009;1.563818901777268E-001;-7.171256840229034E-002;-7.314227987080813E-004;-4.206398036330938E-003;
2.420333333333334E+009;1.555149555206299E-001;-7.306418567895889E-002;-9.543577907606959E-004;-4.065904766321182E-003;
2.420500000000000E+009;1.546040922403336E-001;-7.433182001113892E-002;-1.021655276417732E-003;-3.944003488868475E-003;
2.420666666666667E+009;1.535655111074448E-001;-7.590318471193314E-002;-1.117071951739490E-003;-3.897788468748331E-003;
2.420833333333334E+009;1.529888361692429E-001;-7.760222256183624E-002;-1.328453188762069E-003;-3.832019399851561E-003;
2.421000000000000E+009;1.522141695022583E-001;-7.912005484104157E-002;-1.388187753036618E-003;-3.802185412496328E-003;
2.421166666666667E+009;1.515629142522812E-001;-8.063077926635742E-002;-1.366923446767032E-003;-3.701331559568644E-003;
2.421333333333334E+009;1.510778665542603E-001;-8.234330266714096E-002;-1.432658638805151E-003;-3.669718746095896E-003;
2.421500000000000E+009;1.505164057016373E-001;-8.409108966588974E-002;-1.675628125667572E-003;-3.697204869240522E-003;
2.421666666666667E+009;1.502354294061661E-001;-8.575854450464249E-002;-1.569215441122651E-003;-3.591915592551231E-003;
2.421833333333334E+009;1.500965505838394E-001;-8.745840191841126E-002;-1.994057558476925E-003;-3.433096222579479E-003;
2.422000000000000E+009;1.497827321290970E-001;-8.921211212873459E-002;-1.737321843393147E-003;-3.371125785633922E-003;
2.422166666666667E+009;1.497130990028381E-001;-9.091081470251083E-002;-1.908929203636944E-003;-3.329386468976736E-003;
2.422333333333334E+009;1.495053917169571E-001;-9.250564873218536E-002;-2.079692436382175E-003;-3.282142337411642E-003;
2.422500000000000E+009;1.496526896953583E-001;-9.418011456727982E-002;-2.176427980884910E-003;-3.183316439390183E-003;
2.422666666666667E+009;1.498079597949982E-001;-9.605021774768829E-002;-2.249342622235417E-003;-3.177648875862360E-003;
2.422833333333334E+009;1.499720811843872E-001;-9.761492908000946E-002;-2.434051362797618E-003;-3.006408689543605E-003;
2.423000000000000E+009;1.503879427909851E-001;-9.916853904724121E-002;-2.470773179084063E-003;-2.986606908962131E-003;
2.423166666666667E+009;1.506959497928619E-001;-1.006258651614189E-001;-2.417633309960365E-003;-2.847226336598396E-003;
2.423333333333334E+009;1.510946601629257E-001;-1.020974740386009E-001;-2.552010817453265E-003;-2.790593309327960E-003;
2.423500000000000E+009;1.514680683612824E-001;-1.034014746546745E-001;-2.550539094954729E-003;-2.855877624824643E-003;
2.423666666666667E+009;1.518009752035141E-001;-1.049656569957733E-001;-2.607424277812243E-003;-2.640802646055818E-003;
2.423833333333334E+009;1.523880660533905E-001;-1.060973927378655E-001;-2.831887220963836E-003;-2.583094174042344E-003;
2.424000000000000E+009;1.527899503707886E-001;-1.073025241494179E-001;-2.783459145575762E-003;-2.503890078514814E-003;
2.424166666666667E+009;1.533043682575226E-001;-1.085936203598976E-001;-2.895508427172899E-003;-2.235526219010353E-003;
2.424333333333334E+009;1.538959294557571E-001;-1.094587817788124E-001;-3.037013579159975E-003;-2.183931879699230E-003;
2.424500000000000E+009;1.543804556131363E-001;-1.105397194623947E-001;-3.002151846885681E-003;-2.099235774949193E-003;
2.424666666666667E+009;1.550076156854630E-001;-1.113530620932579E-001;-3.073181491345167E-003;-1.984668662771583E-003;
2.424833333333334E+009;1.552090644836426E-001;-1.122931241989136E-001;-3.137674648314714E-003;-1.808883156627417E-003;
2.425000000000000E+009;1.557796895503998E-001;-1.129247993230820E-001;-3.129253629595041E-003;-1.749867806211114E-003;
2.425166666666667E+009;1.559150665998459E-001;-1.137233301997185E-001;-3.151861252263188E-003;-1.621523755602539E-003;
2.425333333333334E+009;1.564012169837952E-001;-1.141820400953293E-001;-3.192587289959192E-003;-1.518797595053911E-003;
2.425500000000000E+009;1.567852646112442E-001;-1.147538125514984E-001;-3.135353559628129E-003;-1.343120471574366E-003;
2.425666666666667E+009;1.567981541156769E-001;-1.151368245482445E-001;-3.185246838256717E-003;-1.280149328522384E-003;
2.425833333333334E+009;1.570224165916443E-001;-1.155427470803261E-001;-3.237679135054350E-003;-1.205998356454074E-003;
2.426000000000000E+009;1.571172773838043E-001;-1.159880682826042E-001;-3.245142055675387E-003;-9.429809870198369E-004;
2.426166666666667E+009;1.572404801845551E-001;-1.162939071655273E-001;-3.232038812711835E-003;-8.463732665404677E-004;
2.426333333333334E+009;1.569695174694061E-001;-1.164605319499970E-001;-3.037478076294065E-003;-6.718560471199453E-004;
2.426500000000000E+009;1.569080203771591E-001;-1.166598871350288E-001;-3.014534013345838E-003;-5.610369262285531E-004;
2.426666666666667E+009;1.567652225494385E-001;-1.166794300079346E-001;-2.847500843927264E-003;-5.762838409282267E-004;
2.426833333333334E+009;1.563148051500320E-001;-1.168866083025932E-001;-2.877651015296578E-003;-5.102484719827771E-004;
2.427000000000000E+009;1.558162271976471E-001;-1.170340552926064E-001;-2.864393871277571E-003;-3.560487530194223E-004;
2.427166666666667E+009;1.551799476146698E-001;-1.169779449701309E-001;-2.819523913785815E-003;-4.516840854194015E-004;
2.427333333333334E+009;1.545518487691879E-001;-1.170608624815941E-001;-2.757268259301782E-003;-2.198508882429451E-004;
2.427500000000000E+009;1.539343148469925E-001;-1.172182783484459E-001;-2.753967652097344E-003;-1.878358161775395E-004;
2.427666666666667E+009;1.530117541551590E-001;-1.174557209014893E-001;-2.570391865447164E-003;-2.060260449070483E-004;
