# Version 1.00
#
freq[Hz];re:Trc1_S11;im:Trc1_S11;re:Trc2_S21;im:Trc2_S21;
2.400000000000000E+009;1.502916961908341E-001;1.130582392215729E-001;1.787628047168255E-003;-2.259041648358107E-003;
2.400166666666667E+009;1.500288844108582E-001;1.108116135001183E-001;1.898284768685699E-003;-2.281323773786426E-003;
2.400333333333334E+009;1.501859724521637E-001;1.085987687110901E-001;1.944619463756681E-003;-2.246053889393807E-003;
2.400500000000000E+009;1.501237004995346E-001;1.060425788164139E-001;1.843304256908596E-003;-2.539352513849735E-003;
2.400666666666667E+009;1.503209173679352E-001;1.036653593182564E-001;1.921926508657634E-003;-2.565170638263226E-003;
2.400833333333334E+009;1.503615379333496E-001;1.006639450788498E-001;1.938519882969558E-003;-2.602651948109269E-003;
2.401000000000000E+009;1.507170349359512E-001;9.797886759042740E-002;1.950431964360178E-003;-2.780842361971736E-003;
2.401166666666667E+009;1.508661210536957E-001;9.530425816774368E-002;1.755196833983064E-003;-3.054056083783507E-003;
2.401333333333334E+009;1.512442976236343E-001;9.243849664926529E-002;1.637079054489732E-003;-3.185932990163565E-003;
2.401500000000000E+009;1.518602222204208E-001;8.973148465156555E-002;1.593855558894575E-003;-3.257587086409330E-003;
2.401666666666667E+009;1.523780375719070E-001;8.685912191867828E-002;1.341558760032058E-003;-3.290373366326094E-003;
2.401833333333334E+009;1.530877500772476E-001;8.429177850484848E-002;1.201169216074050E-003;-3.400520887225866E-003;
2.402000000000000E+009;1.539963334798813E-001;8.144673705101013E-002;8.474556379951537E-004;-3.519767196848989E-003;
2.402166666666667E+009;1.548150926828384E-001;7.894788682460785E-002;6.980679463595152E-004;-3.579895477741957E-003;
2.402333333333334E+009;1.560463607311249E-001;7.628576457500458E-002;4.169979947619140E-004;-3.518643556162715E-003;
2.402500000000000E+009;1.572927981615067E-001;7.382433861494064E-002;1.926981203723699E-004;-3.280109958723187E-003;
2.402666666666667E+009;1.587267369031906E-001;7.141847908496857E-002;-8.363310917047784E-005;-3.297593444585800E-003;
2.402833333333334E+009;1.599646061658859E-001;6.905560195446014E-002;-1.878069306258112E-004;-3.289557993412018E-003;
2.403000000000000E+009;1.616787761449814E-001;6.667325645685196E-002;-4.010463308077306E-004;-3.171102376654744E-003;
2.403166666666667E+009;1.634521931409836E-001;6.463219225406647E-002;-4.753752436954528E-004;-2.878600964322686E-003;
2.403333333333334E+009;1.652726829051971E-001;6.239883974194527E-002;-5.788870621472597E-004;-3.005188656970859E-003;
2.403500000000000E+009;1.672529578208923E-001;6.059763580560684E-002;-6.032208912074566E-004;-2.738887909799814E-003;
2.403666666666667E+009;1.692246347665787E-001;5.848248302936554E-002;-5.608272622339428E-004;-2.670332556590438E-003;
2.403833333333334E+009;1.710961759090424E-001;5.651496723294258E-002;-5.710569093935192E-004;-2.435083035379648E-003;
2.404000000000000E+009;1.728357672691345E-001;5.487037450075150E-002;-5.973415100015700E-004;-2.423033118247986E-003;
2.404166666666667E+009;1.747585833072662E-001;5.336093530058861E-002;-5.642043543048203E-004;-2.280406188219786E-003;
2.404333333333334E+009;1.765971779823303E-001;5.188458785414696E-002;-4.814123094547540E-004;-2.240763977169991E-003;
2.404500000000000E+009;1.784740984439850E-001;5.041310563683510E-002;-6.134990835562348E-004;-2.348215552046895E-003;
2.404666666666667E+009;1.801766008138657E-001;4.929289221763611E-002;-4.886859096586704E-004;-2.205626107752323E-003;
2.404833333333334E+009;1.821553707122803E-001;4.796127974987030E-002;-5.663906922563911E-004;-2.281477209180594E-003;
2.405000000000000E+009;1.838190257549286E-001;4.728339239954948E-002;-5.967851611785591E-004;-2.326122019439936E-003;
2.405166666666667E+009;1.853372007608414E-001;4.657696187496185E-002;-5.069052567705512E-004;-2.295312471687794E-003;
2.405333333333334E+009;1.871501952409744E-001;4.610507935285568E-002;-7.062024669721723E-004;-2.212879713624716E-003;
2.405500000000000E+009;1.886288225650787E-001;4.564037919044495E-002;-6.778953247703612E-004;-2.503779018297792E-003;
2.405666666666667E+009;1.899925768375397E-001;4.515876248478890E-002;-7.044193334877491E-004;-2.318301703780890E-003;
2.405833333333334E+009;1.914723068475723E-001;4.493138566613197E-002;-7.924556848593056E-004;-2.320828381925821E-003;
2.406000000000000E+009;1.926340609788895E-001;4.483942687511444E-002;-1.059596892446280E-003;-2.436806214973331E-003;
2.406166666666667E+009;1.938000172376633E-001;4.450086876749992E-002;-9.190535056404769E-004;-2.409612294286490E-003;
2.406333333333334E+009;1.947921365499497E-001;4.450782015919685E-002;-1.061573158949614E-003;-2.331658033654094E-003;
2.406500000000000E+009;1.958661973476410E-001;4.461207613348961E-002;-1.164594548754394E-003;-2.312194788828492E-003;
2.406666666666667E+009;1.965767592191696E-001;4.457459226250649E-002;-1.310974243097007E-003;-2.309064846485853E-003;
2.406833333333334E+009;1.971507221460342E-001;4.441341757774353E-002;-1.202023006044328E-003;-2.353622112423182E-003;
2.407000000000000E+009;1.977414041757584E-001;4.459179937839508E-002;-1.308011240325868E-003;-2.242972608655691E-003;
2.407166666666667E+009;1.981251090764999E-001;4.426489397883415E-002;-1.366356969811022E-003;-2.228015102446079E-003;
2.407333333333334E+009;1.982091069221497E-001;4.449878633022308E-002;-1.401742338202894E-003;-2.206529956310988E-003;
2.407500000000000E+009;1.980708539485931E-001;4.444476217031479E-002;-1.677107647992671E-003;-2.027864335104823E-003;
2.407666666666667E+009;1.983003467321396E-001;4.422520473599434E-002;-1.689210883341730E-003;-1.991976052522659E-003;
2.407833333333334E+009;1.978303492069244E-001;4.410025849938393E-002;-1.716446713544428E-003;-2.019379986450076E-003;
2.408000000000000E+009;1.977062523365021E-001;4.376626014709473E-002;-1.752614276483655E-003;-1.981187146157026E-003;
2.408166666666667E+009;1.972102820873261E-001;4.352773725986481E-002;-1.740682520903647E-003;-1.797695760615170E-003;
2.408333333333334E+009;1.966183781623840E-001;4.283347353339195E-002;-1.798225915990770E-003;-1.850885921157897E-003;
2.408500000000000E+009;1.958901882171631E-001;4.246772825717926E-002;-1.855346024967730E-003;-1.715832157060504E-003;
2.408666666666667E+009;1.952933371067047E-001;4.201992228627205E-002;-1.919768867082894E-003;-1.601107418537140E-003;
2.408833333333334E+009;1.944643557071686E-001;4.107512161135674E-002;-2.018063561990857E-003;-1.534823561087251E-003;
2.409000000000000E+009;1.933121085166931E-001;4.016319289803505E-002;-1.816641306504607E-003;-1.587352599017322E-003;
2.409166666666667E+009;1.924931406974793E-001;3.904439881443977E-002;-1.796156051568687E-003;-1.496019773185253E-003;
2.409333333333334E+009;1.914018243551254E-001;3.809030726552010E-002;-1.832754001952708E-003;-1.296398113481700E-003;
2.409500000000000E+009;1.899917572736740E-001;3.676412254571915E-002;-1.726494636386633E-003;-1.363024814054370E-003;
2.409666666666667E+009;1.890731900930405E-001;3.537726774811745E-002;-1.693948986940086E-003;-1.371328951790929E-003;
2.409833333333334E+009;1.878298819065094E-001;3.373188152909279E-002;-1.752144307829440E-003;-1.463318010792136E-003;
2.410000000000000E+009;1.868410855531693E-001;3.208100795745850E-002;-1.778161618858576E-003;-1.362458337098360E-003;
2.410166666666667E+009;1.855445802211762E-001;3.031415492296219E-002;-1.811557798646390E-003;-1.376986270770431E-003;
2.410333333333334E+009;1.846231669187546E-001;2.849294804036617E-002;-1.680894172750413E-003;-1.551477005705237E-003;
2.410500000000000E+009;1.836233586072922E-001;2.660074457526207E-002;-1.754930941388011E-003;-1.498754601925612E-003;
2.410666666666667E+009;1.825636625289917E-001;2.424146234989166E-002;-1.769252936355770E-003;-1.610483275726438E-003;
2.410833333333334E+009;1.818280667066574E-001;2.218643389642239E-002;-1.875992747955024E-003;-1.556274248287082E-003;
2.411000000000000E+009;1.809337586164475E-001;1.984610594809055E-002;-1.952459220774472E-003;-1.651066704653204E-003;
2.411166666666667E+009;1.802558451890945E-001;1.781227067112923E-002;-2.091264119371772E-003;-1.711383461952210E-003;
2.411333333333334E+009;1.796617209911346E-001;1.521772984415293E-002;-2.247409429401159E-003;-1.807131920941174E-003;
2.411500000000000E+009;1.793252229690552E-001;1.283152308315039E-002;-2.279425272718072E-003;-1.753611722961068E-003;
2.411666666666667E+009;1.789850592613220E-001;1.036957465112209E-002;-2.354426076635718E-003;-1.847195671871305E-003;
2.411833333333334E+009;1.787149459123612E-001;7.901540957391262E-003;-2.622202970087528E-003;-1.823003869503737E-003;
2.412000000000000E+009;1.786788403987885E-001;5.375685170292854E-003;-2.878401195630431E-003;-1.620775670744479E-003;
2.412166666666667E+009;1.786369383335114E-001;2.984458813443780E-003;-3.068405203521252E-003;-1.576586393639445E-003;
2.412333333333334E+009;1.788663417100906E-001;3.982878406532109E-004;-3.057186258956790E-003;-1.579172560013831E-003;
2.412500000000000E+009;1.793943345546722E-001;-2.114058239385486E-003;-3.218017285689712E-003;-1.392546691931784E-003;
2.412666666666667E+009;1.797838956117630E-001;-4.636056255549192E-003;-3.603059332817793E-003;-1.281111151911318E-003;
2.412833333333334E+009;1.804377883672714E-001;-7.044188678264618E-003;-3.645835677161813E-003;-9.747692383825779E-004;
2.413000000000000E+009;1.812152266502380E-001;-9.446273557841778E-003;-3.747872076928616E-003;-8.321412024088204E-004;
2.413166666666667E+009;1.819493323564529E-001;-1.165307313203812E-002;-3.952690400183201E-003;-6.551845581270754E-004;
2.413333333333334E+009;1.829631626605988E-001;-1.409499719738960E-002;-4.024506546556950E-003;-4.303940513636917E-004;
2.413500000000000E+009;1.837677955627441E-001;-1.646381989121437E-002;-3.927162382751703E-003;-9.769887401489541E-005;
2.413666666666667E+009;1.848682016134262E-001;-1.855748333036900E-002;-3.890039864927530E-003;2.823618997354060E-004;
2.413833333333334E+009;1.861071139574051E-001;-2.066714502871037E-002;-3.956035245209932E-003;3.141834749840200E-004;
2.414000000000000E+009;1.872681379318237E-001;-2.247139811515808E-002;-3.865445032715797E-003;7.746369810774922E-004;
2.414166666666667E+009;1.884304881095886E-001;-2.442758157849312E-002;-3.755862824618816E-003;7.981726666912437E-004;
2.414333333333334E+009;1.895748227834702E-001;-2.623972296714783E-002;-3.763503860682249E-003;1.072217011824250E-003;
2.414500000000000E+009;1.909169256687164E-001;-2.777362428605557E-002;-3.544908482581377E-003;1.319928676821291E-003;
2.414666666666667E+009;1.921396255493164E-001;-2.922619692981243E-002;-3.588790539652109E-003;1.411914243362844E-003;
2.414833333333334E+009;1.932366043329239E-001;-3.058737143874168E-002;-3.437017090618610E-003;1.628628233447671E-003;
2.415000000000000E+009;1.944106519222260E-001;-3.171949833631516E-002;-3.453207667917013E-003;1.610081992112100E-003;
2.415166666666667E+009;1.958672851324081E-001;-3.294699639081955E-002;-3.289197105914354E-003;1.868255552835763E-003;
2.415333333333334E+009;1.968193203210831E-001;-3.380566462874413E-002;-3.182716201990843E-003;1.918751746416092E-003;
2.415500000000000E+009;1.980249434709549E-001;-3.455666825175285E-002;-3.266450716182590E-003;2.065303036943078E-003;
2.415666666666667E+009;1.991336494684219E-001;-3.529320657253265E-002;-2.854248508810997E-003;2.162629971280694E-003;
2.415833333333334E+009;1.999346315860748E-001;-3.591431677341461E-002;-2.980892313644290E-003;2.250031568109989E-003;
2.416000000000000E+009;2.008233517408371E-001;-3.649961948394775E-002;-2.718521049246192E-003;2.370002912357450E-003;
2.416166666666667E+009;2.015951871871948E-001;-3.695042803883553E-002;-2.612639218568802E-003;2.556496998295188E-003;
2.416333333333334E+009;2.023130953311920E-001;-3.712900355458260E-002;-2.439928939566016E-003;2.694244263693690E-003;
2.416500000000000E+009;2.027768343687058E-001;-3.734967485070229E-002;-2.347022294998169E-003;2.705305814743042E-003;
2.416666666666667E+009;2.031274586915970E-001;-3.757629916071892E-002;-2.151548396795988E-003;2.900918712839484E-003;
2.416833333333334E+009;2.033280432224274E-001;-3.744605183601379E-002;-1.978170126676559E-003;2.784438431262970E-003;
2.417000000000000E+009;2.035955190658569E-001;-3.756422176957130E-002;-1.860663411207497E-003;2.955824369564652E-003;
2.417166666666667E+009;2.034199386835098E-001;-3.734390810132027E-002;-1.734730671159923E-003;2.965322462841868E-003;
2.417333333333334E+009;2.032784223556519E-001;-3.708175942301750E-002;-1.570515334606171E-003;2.979811048135161E-003;
2.417500000000000E+009;2.029873132705689E-001;-3.702290356159210E-002;-1.389495562762022E-003;3.017242066562176E-003;
2.417666666666667E+009;2.025623470544815E-001;-3.672395646572113E-002;-1.247806590981782E-003;2.981950761750341E-003;
2.417833333333334E+009;2.022502720355988E-001;-3.644313663244247E-002;-9.768658783286810E-004;2.975892508402467E-003;
2.418000000000000E+009;2.015915513038635E-001;-3.608197718858719E-002;-8.956590318121016E-004;2.968116663396359E-003;
2.418166666666667E+009;2.009645551443100E-001;-3.587569668889046E-002;-7.251728675328195E-004;3.000358352437615E-003;
2.418333333333334E+009;1.999283134937286E-001;-3.573564812541008E-002;-6.290057208389044E-004;2.876688726246357E-003;
2.418500000000000E+009;1.990932375192642E-001;-3.582953661680222E-002;-5.338104092516005E-004;2.940596081316471E-003;
2.418666666666667E+009;1.982303559780121E-001;-3.550073504447937E-002;-4.414475406520069E-004;2.768923295661807E-003;
2.418833333333334E+009;1.971928477287293E-001;-3.561168536543846E-002;-3.142433415632695E-004;2.707357751205564E-003;
2.419000000000000E+009;1.958785802125931E-001;-3.587118908762932E-002;-2.113784285029396E-004;2.502453979104757E-003;
2.419166666666667E+009;1.947020292282105E-001;-3.598371148109436E-002;-2.265776129206643E-004;2.506601857021451E-003;
2.419333333333334E+009;1.932289600372315E-001;-3.649690374732018E-002;-1.560654054628685E-004;2.312744967639446E-003;
2.419500000000000E+009;1.919342577457428E-001;-3.698563575744629E-002;4.561288733384572E-005;2.229016041383147E-003;
2.419666666666667E+009;1.904223859310150E-001;-3.780612722039223E-002;7.991963502718136E-005;2.313971053808928E-003;
2.419833333333334E+009;1.887506693601608E-001;-3.844362869858742E-002;-6.707017018925399E-005;2.138736424967647E-003;
2.420000000000000E+009;1.871513277292252E-001;-3.929695114493370E-002;-1.339986483799294E-004;2.123444341123104E-003;
2.420166666666667E+009;1.857877075672150E-001;-4.034291580319405E-002;-1.412836572853848E-004;2.075140131637454E-003;
2.420333333333334E+009;1.841143220663071E-001;-4.142189398407936E-002;-8.168839849531651E-005;2.021744381636381E-003;
2.420500000000000E+009;1.825323551893234E-001;-4.278169944882393E-002;-2.344486856600270E-004;2.019787672907114E-003;
2.420666666666667E+009;1.808805316686630E-001;-4.390572756528854E-002;-2.269736578455195E-004;2.178283641114831E-003;
2.420833333333334E+009;1.792063713073731E-001;-4.551309347152710E-002;-2.986384497489780E-004;2.265349728986621E-003;
2.421000000000000E+009;1.776670068502426E-001;-4.702038317918778E-002;-2.088197943521664E-004;2.219036919996142E-003;
2.421166666666667E+009;1.762519925832748E-001;-4.864505305886269E-002;-2.505903830751777E-004;2.206118777394295E-003;
2.421333333333334E+009;1.745623052120209E-001;-5.023496598005295E-002;-5.657158544636332E-005;2.275255741551518E-003;
2.421500000000000E+009;1.732974946498871E-001;-5.235570669174194E-002;-9.294210758525878E-005;2.363082254305482E-003;
2.421666666666667E+009;1.719958782196045E-001;-5.421126261353493E-002;-1.349976628262084E-005;2.300184220075607E-003;
2.421833333333334E+009;1.709626168012619E-001;-5.615376308560371E-002;2.085398045892362E-005;2.390594221651554E-003;
2.422000000000000E+009;1.697213798761368E-001;-5.796720460057259E-002;4.716697367257439E-005;2.297270111739636E-003;
2.422166666666667E+009;1.690139770507813E-001;-6.002950295805931E-002;2.741226053331047E-004;2.182717435061932E-003;
2.422333333333334E+009;1.679366528987885E-001;-6.208075582981110E-002;2.202980394940823E-004;2.186258323490620E-003;
2.422500000000000E+009;1.671742200851440E-001;-6.401208043098450E-002;3.111045516561717E-004;2.156953094527125E-003;
2.422666666666667E+009;1.666455119848251E-001;-6.611627340316773E-002;3.346575540490449E-004;2.310540992766619E-003;
2.422833333333334E+009;1.661476343870163E-001;-6.832543015480042E-002;3.254891780670732E-004;2.248561242595315E-003;
2.423000000000000E+009;1.656606793403626E-001;-7.021252810955048E-002;3.641803050413728E-004;2.244525821879506E-003;
2.423166666666667E+009;1.653506606817246E-001;-7.222557812929153E-002;5.372598534449935E-004;2.222944283857942E-003;
2.423333333333334E+009;1.652878820896149E-001;-7.427482306957245E-002;5.720737972296774E-004;2.259715460240841E-003;
2.423500000000000E+009;1.651539653539658E-001;-7.618866860866547E-002;6.395174423232675E-004;2.345444168895483E-003;
2.423666666666667E+009;1.653053611516953E-001;-7.806412875652313E-002;6.739341188222170E-004;2.337652025744319E-003;
2.423833333333334E+009;1.653939187526703E-001;-7.981237769126892E-002;6.611146964132786E-004;2.369364490732551E-003;
2.424000000000000E+009;1.655022203922272E-001;-8.166979253292084E-002;8.741170167922974E-004;2.329936949536204E-003;
2.424166666666667E+009;1.656474173069000E-001;-8.342011272907257E-002;9.252586169168353E-004;2.477237489074469E-003;
2.424333333333334E+009;1.660689115524292E-001;-8.482000976800919E-002;9.509810479357839E-004;2.433534245938063E-003;
2.424500000000000E+009;1.664734929800034E-001;-8.669874072074890E-002;1.123933354392648E-003;2.346687018871307E-003;
2.424666666666667E+009;1.668913513422012E-001;-8.801522105932236E-002;1.260232413187623E-003;2.227639779448509E-003;
2.424833333333334E+009;1.674680411815643E-001;-8.947379142045975E-002;1.163550419732928E-003;2.252109581604600E-003;
2.425000000000000E+009;1.680721342563629E-001;-9.061989933252335E-002;1.307106111198664E-003;2.306377515196800E-003;
2.425166666666667E+009;1.684179753065109E-001;-9.181205928325653E-002;1.385706826113164E-003;2.223341958597302E-003;
2.425333333333334E+009;1.688217520713806E-001;-9.277477115392685E-002;1.410814933478832E-003;2.211139071732760E-003;
2.425500000000000E+009;1.695429086685181E-001;-9.368367493152618E-002;1.469441107474268E-003;2.148743951693177E-003;
2.425666666666667E+009;1.700241118669510E-001;-9.451252967119217E-002;1.613980508409441E-003;2.224843017756939E-003;
2.425833333333334E+009;1.704855412244797E-001;-9.531495720148087E-002;1.686519128270447E-003;2.218959154561162E-003;
2.426000000000000E+009;1.710548996925354E-001;-9.582902491092682E-002;1.713129458948970E-003;2.068191533908248E-003;
2.426166666666667E+009;1.715384572744370E-001;-9.642136096954346E-002;1.759709673933685E-003;2.066908404231072E-003;
2.426333333333334E+009;1.717985123395920E-001;-9.694049507379532E-002;1.878582057543099E-003;1.875979942269623E-003;
2.426500000000000E+009;1.723936796188355E-001;-9.732776135206223E-002;2.041320549324155E-003;1.973234117031097E-003;
2.426666666666667E+009;1.726939529180527E-001;-9.765675663948059E-002;2.053099684417248E-003;1.901068491861224E-003;
2.426833333333334E+009;1.730589419603348E-001;-9.806381165981293E-002;2.131838817149401E-003;1.811812282539904E-003;
2.427000000000000E+009;1.732038557529450E-001;-9.839010983705521E-002;2.362408908084035E-003;1.705785165540874E-003;
2.427166666666667E+009;1.734086126089096E-001;-9.841530025005341E-002;2.407441847026348E-003;1.730170333757997E-003;
2.427333333333334E+009;1.733114570379257E-001;-9.880831092596054E-002;2.557174535468221E-003;1.581161632202566E-003;
2.427500000000000E+009;1.731786429882050E-001;-9.914643317461014E-002;2.669924870133400E-003;1.331227482296526E-003;
2.427666666666667E+009;1.729702800512314E-001;-9.917653352022171E-002;2.723823767155409E-003;1.307886210270226E-003;
