# Version 1.00
#
freq[Hz];re:Trc1_S11;im:Trc1_S11;re:Trc2_S21;im:Trc2_S21;
2.400000000000000E+009;1.552847325801849E-001;1.068706363439560E-001;-6.714400369673967E-003;1.025594542625186E-006;
2.400166666666667E+009;1.550329476594925E-001;1.047025322914124E-001;-6.651085801422596E-003;5.345694371499121E-004;
2.400333333333334E+009;1.550523787736893E-001;1.022558212280273E-001;-6.666362751275301E-003;7.985228439792991E-004;
2.400500000000000E+009;1.551013141870499E-001;9.937690198421478E-002;-6.737270858138800E-003;1.352024963125587E-003;
2.400666666666667E+009;1.550137251615524E-001;9.705547243356705E-002;-6.520067341625691E-003;1.711904187686741E-003;
2.400833333333334E+009;1.550236493349075E-001;9.410250931978226E-002;-6.372208707034588E-003;2.006815047934651E-003;
2.401000000000000E+009;1.553293615579605E-001;9.134728461503983E-002;-5.971900653094053E-003;2.385887550190091E-003;
2.401166666666667E+009;1.554964631795883E-001;8.855433762073517E-002;-5.892688408493996E-003;2.664149971678853E-003;
2.401333333333334E+009;1.557063758373261E-001;8.563380688428879E-002;-5.508739501237869E-003;2.859066007658839E-003;
2.401500000000000E+009;1.561848372220993E-001;8.269602060317993E-002;-5.176083650439978E-003;2.942256163805723E-003;
2.401666666666667E+009;1.565781980752945E-001;7.980663329362869E-002;-5.052549764513969E-003;3.240036778151989E-003;
2.401833333333334E+009;1.568861752748489E-001;7.709820568561554E-002;-4.801021423190832E-003;3.094261744990945E-003;
2.402000000000000E+009;1.577818840742111E-001;7.422574609518051E-002;-4.472093656659126E-003;3.350625280290842E-003;
2.402166666666667E+009;1.587059944868088E-001;7.161455601453781E-002;-4.294508602470160E-003;3.170530544593930E-003;
2.402333333333334E+009;1.596980988979340E-001;6.896986067295075E-002;-4.134966060519218E-003;3.075683256611228E-003;
2.402500000000000E+009;1.607758998870850E-001;6.635729223489761E-002;-3.887218190357089E-003;3.248536493629217E-003;
2.402666666666667E+009;1.619162261486054E-001;6.391441822052002E-002;-3.771259216591716E-003;3.129775170236826E-003;
2.402833333333334E+009;1.631321012973785E-001;6.165384128689766E-002;-3.807289991527796E-003;3.340184222906828E-003;
2.403000000000000E+009;1.646963506937027E-001;5.908006057143211E-002;-3.725428367033601E-003;3.125269198790193E-003;
2.403166666666667E+009;1.663499474525452E-001;5.701315775513649E-002;-3.696080297231674E-003;3.200223203748465E-003;
2.403333333333334E+009;1.678018569946289E-001;5.475682392716408E-002;-3.550462890416384E-003;3.301019081845880E-003;
2.403500000000000E+009;1.692581772804260E-001;5.256757512688637E-002;-3.640789771452546E-003;3.244097344577313E-003;
2.403666666666667E+009;1.709125190973282E-001;5.071866139769554E-002;-3.535160562023521E-003;3.473539371043444E-003;
2.403833333333334E+009;1.728012710809708E-001;4.890305921435356E-002;-3.432788886129856E-003;3.672971623018384E-003;
2.404000000000000E+009;1.742095947265625E-001;4.714534059166908E-002;-3.291546599939466E-003;3.631274215877056E-003;
2.404166666666667E+009;1.759150177240372E-001;4.552580788731575E-002;-3.201219253242016E-003;3.874865360558033E-003;
2.404333333333334E+009;1.777223646640778E-001;4.404714703559876E-002;-3.057157155126333E-003;4.002162721008062E-003;
2.404500000000000E+009;1.791448593139648E-001;4.264287278056145E-002;-2.658361801877618E-003;3.991468809545040E-003;
2.404666666666667E+009;1.809005141258240E-001;4.160412400960922E-002;-2.608506241813302E-003;3.972624428570271E-003;
2.404833333333334E+009;1.824633926153183E-001;4.047051817178726E-002;-2.568793250247836E-003;3.946417011320591E-003;
2.405000000000000E+009;1.838704794645309E-001;3.994987532496452E-002;-2.586337272077799E-003;4.221260081976652E-003;
2.405166666666667E+009;1.854799389839172E-001;3.903573378920555E-002;-2.295776270329952E-003;4.107800312340260E-003;
2.405333333333334E+009;1.867284178733826E-001;3.873397409915924E-002;-2.190809929743409E-003;4.166406579315662E-003;
2.405500000000000E+009;1.881825327873230E-001;3.825879096984863E-002;-2.073456998914480E-003;4.278124310076237E-003;
2.405666666666667E+009;1.894227862358093E-001;3.789140284061432E-002;-1.962859183549881E-003;4.218386951833963E-003;
2.405833333333334E+009;1.907251477241516E-001;3.770555555820465E-002;-1.974919345229864E-003;4.150524735450745E-003;
2.406000000000000E+009;1.916787624359131E-001;3.747843205928803E-002;-1.724281697534025E-003;4.090924281626940E-003;
2.406166666666667E+009;1.926854848861694E-001;3.741710260510445E-002;-1.593237975612283E-003;4.143294412642717E-003;
2.406333333333334E+009;1.936516016721726E-001;3.735594078898430E-002;-1.529153552837670E-003;4.071932751685381E-003;
2.406500000000000E+009;1.942959427833557E-001;3.743604943156242E-002;-1.316365669481456E-003;3.999233245849609E-003;
2.406666666666667E+009;1.950389146804810E-001;3.757927939295769E-002;-1.414733473211527E-003;4.073077347129583E-003;
2.406833333333334E+009;1.955893486738205E-001;3.757563605904579E-002;-1.240996993146837E-003;4.210258368402720E-003;
2.407000000000000E+009;1.958444863557816E-001;3.773219138383865E-002;-1.288617379032075E-003;4.107374232262373E-003;
2.407166666666667E+009;1.963504403829575E-001;3.768564760684967E-002;-1.127628143876791E-003;4.102332983165979E-003;
2.407333333333334E+009;1.961302757263184E-001;3.799453377723694E-002;-9.775747312232852E-004;4.103681072592735E-003;
2.407500000000000E+009;1.960997581481934E-001;3.809431195259094E-002;-1.030588871799409E-003;4.141889978200197E-003;
2.407666666666667E+009;1.961820572614670E-001;3.791676461696625E-002;-7.901956560090184E-004;4.218923393636942E-003;
2.407833333333334E+009;1.958107203245163E-001;3.807241469621658E-002;-7.424032664857805E-004;4.085973370820284E-003;
2.408000000000000E+009;1.956607401371002E-001;3.773752599954605E-002;-5.816861521452665E-004;4.213695880025625E-003;
2.408166666666667E+009;1.951602697372437E-001;3.748027980327606E-002;-6.404216983355582E-004;4.143803380429745E-003;
2.408333333333334E+009;1.947993934154511E-001;3.722770139575005E-002;-4.112000751774758E-004;4.188178572803736E-003;
2.408500000000000E+009;1.940668225288391E-001;3.679344803094864E-002;-5.209167138673365E-004;4.115281160920858E-003;
2.408666666666667E+009;1.933158338069916E-001;3.629230707883835E-002;-2.133043308276683E-004;4.331441130489111E-003;
2.408833333333334E+009;1.927600204944611E-001;3.552197664976120E-002;-2.333159209229052E-004;4.227214958518744E-003;
2.409000000000000E+009;1.918535083532333E-001;3.465288504958153E-002;-1.912880106829107E-004;4.208046942949295E-003;
2.409166666666667E+009;1.909110695123673E-001;3.369621187448502E-002;3.281138924648985E-005;4.291589837521315E-003;
2.409333333333334E+009;1.901082843542099E-001;3.275069594383240E-002;-1.089285215130076E-004;4.296666011214256E-003;
2.409500000000000E+009;1.888960152864456E-001;3.133150562644005E-002;7.232064672280103E-005;4.237018991261721E-003;
2.409666666666667E+009;1.880440115928650E-001;3.000742569565773E-002;1.077107735909522E-004;4.436117596924305E-003;
2.409833333333334E+009;1.868569552898407E-001;2.844588272273541E-002;9.526993380859494E-005;4.380248021334410E-003;
2.410000000000000E+009;1.858152449131012E-001;2.663841284811497E-002;4.175614158157259E-004;4.529089201241732E-003;
2.410166666666667E+009;1.847861111164093E-001;2.503393962979317E-002;3.313134366180748E-004;4.509347025305033E-003;
2.410333333333334E+009;1.840176135301590E-001;2.308663167059422E-002;4.080494400113821E-004;4.486615769565105E-003;
2.410500000000000E+009;1.829797327518463E-001;2.103728987276554E-002;7.127143908292055E-004;4.785770550370216E-003;
2.410666666666667E+009;1.821335703134537E-001;1.899630762636662E-002;1.040060073137283E-003;4.632056225091219E-003;
2.410833333333334E+009;1.813368052244186E-001;1.668832823634148E-002;9.801036212593317E-004;4.609476774930954E-003;
2.411000000000000E+009;1.805591732263565E-001;1.448511984199286E-002;1.136029488407075E-003;4.559924826025963E-003;
2.411166666666667E+009;1.799259036779404E-001;1.213704142719507E-002;1.538521726615727E-003;4.606863018125296E-003;
2.411333333333334E+009;1.794957518577576E-001;9.760056622326374E-003;1.635895110666752E-003;4.408312961459160E-003;
2.411500000000000E+009;1.789461672306061E-001;7.282880134880543E-003;1.863067504018545E-003;4.584288224577904E-003;
2.411666666666667E+009;1.787935942411423E-001;4.916219506412745E-003;1.903304830193520E-003;4.344200249761343E-003;
2.411833333333334E+009;1.784823536872864E-001;2.485385630279779E-003;2.117208205163479E-003;4.275913815945387E-003;
2.412000000000000E+009;1.786669343709946E-001;-1.965647825272754E-004;2.332184929400682E-003;4.202007316052914E-003;
2.412166666666667E+009;1.787904500961304E-001;-2.515733009204269E-003;2.566512906923890E-003;4.075458273291588E-003;
2.412333333333334E+009;1.789552718400955E-001;-4.939953796565533E-003;2.552049933001399E-003;3.938352689146996E-003;
2.412500000000000E+009;1.794309318065643E-001;-7.569429930299521E-003;2.686457708477974E-003;3.766625653952360E-003;
2.412666666666667E+009;1.798930615186691E-001;-1.003054156899452E-002;2.736693015322089E-003;3.793839598074555E-003;
2.412833333333334E+009;1.804306358098984E-001;-1.255887560546398E-002;2.846354618668556E-003;3.587942803278565E-003;
2.413000000000000E+009;1.813927739858627E-001;-1.489824522286654E-002;2.828093711286783E-003;3.370687831193209E-003;
2.413166666666667E+009;1.821429282426834E-001;-1.707116514444351E-002;2.772065578028560E-003;3.284087870270014E-003;
2.413333333333334E+009;1.831852048635483E-001;-1.929551362991333E-002;2.940797712653875E-003;3.136170795187354E-003;
2.413500000000000E+009;1.840695738792419E-001;-2.191258780658245E-002;2.992938505485654E-003;3.070609876886010E-003;
2.413666666666667E+009;1.852633804082871E-001;-2.398100681602955E-002;2.924100728705525E-003;3.030914347618818E-003;
2.413833333333334E+009;1.862479746341705E-001;-2.601983398199081E-002;3.066683653742075E-003;2.895594108849764E-003;
2.414000000000000E+009;1.873116344213486E-001;-2.809638343751431E-002;2.967744600027800E-003;2.951420145109296E-003;
2.414166666666667E+009;1.886665374040604E-001;-2.981819026172161E-002;3.058354137465358E-003;2.872593468055129E-003;
2.414333333333334E+009;1.896460950374603E-001;-3.185210376977921E-002;3.136561717838049E-003;2.735648769885302E-003;
2.414500000000000E+009;1.909697800874710E-001;-3.334222733974457E-002;3.297531744465232E-003;2.857455983757973E-003;
2.414666666666667E+009;1.920306980609894E-001;-3.491673618555069E-002;3.268491942435503E-003;2.633179305121303E-003;
2.414833333333334E+009;1.932620704174042E-001;-3.623901680111885E-002;3.346665529534221E-003;2.594110555946827E-003;
2.415000000000000E+009;1.943298429250717E-001;-3.760504722595215E-002;3.613442881032825E-003;2.429444808512926E-003;
2.415166666666667E+009;1.956028193235397E-001;-3.854986652731895E-002;3.649849910289049E-003;2.346881432458758E-003;
2.415333333333334E+009;1.967995166778565E-001;-3.958384320139885E-002;3.671398619189858E-003;2.028288319706917E-003;
2.415500000000000E+009;1.976469308137894E-001;-4.035857692360878E-002;3.705318551510572E-003;2.096166368573904E-003;
2.415666666666667E+009;1.986662894487381E-001;-4.126935824751854E-002;3.827362554147840E-003;1.998197985813022E-003;
2.415833333333334E+009;1.994974762201309E-001;-4.177938774228096E-002;3.777886042371392E-003;1.793755218386650E-003;
2.416000000000000E+009;2.003004252910614E-001;-4.239175468683243E-002;3.869665320962668E-003;1.671537640504539E-003;
2.416166666666667E+009;2.009316980838776E-001;-4.282324761152268E-002;3.883059602230787E-003;1.617549336515367E-003;
2.416333333333334E+009;2.016018778085709E-001;-4.315059259533882E-002;4.022558219730854E-003;1.331422827206552E-003;
2.416500000000000E+009;2.020422071218491E-001;-4.326632618904114E-002;3.924911841750145E-003;1.141468412242830E-003;
2.416666666666667E+009;2.022613584995270E-001;-4.356827214360237E-002;4.096185788512230E-003;1.128005445934832E-003;
2.416833333333334E+009;2.024518996477127E-001;-4.353230446577072E-002;4.054364282637835E-003;9.941612370312214E-004;
2.417000000000000E+009;2.025077342987061E-001;-4.364612326025963E-002;3.926787525415421E-003;8.480463293381035E-004;
2.417166666666667E+009;2.022791355848312E-001;-4.362495243549347E-002;4.009888041764498E-003;7.432628772221506E-004;
2.417333333333334E+009;2.020878195762634E-001;-4.333750158548355E-002;4.019062034785748E-003;6.024217582307756E-004;
2.417500000000000E+009;2.018431872129440E-001;-4.339759424328804E-002;3.951485268771648E-003;5.782755324617028E-004;
2.417666666666667E+009;2.012085616588593E-001;-4.312906041741371E-002;3.894893685355783E-003;6.369761540554464E-004;
2.417833333333334E+009;2.007977366447449E-001;-4.283944144845009E-002;3.901290008798242E-003;3.217865887563676E-004;
2.418000000000000E+009;2.000963538885117E-001;-4.259098693728447E-002;4.028894007205963E-003;3.638566995505244E-004;
2.418166666666667E+009;1.993170380592346E-001;-4.255926981568337E-002;4.033075645565987E-003;1.699701824691147E-004;
2.418333333333334E+009;1.983171403408051E-001;-4.236301779747009E-002;4.192650318145752E-003;2.701969351619482E-004;
2.418500000000000E+009;1.973929852247238E-001;-4.240027815103531E-002;4.197613801807165E-003;1.108427459257655E-004;
2.418666666666667E+009;1.963296830654144E-001;-4.226148501038551E-002;4.245702177286148E-003;6.086754001444206E-005;
2.418833333333334E+009;1.950463801622391E-001;-4.229638725519180E-002;4.377087578177452E-003;-1.829614629969001E-004;
2.419000000000000E+009;1.938312053680420E-001;-4.251243919134140E-002;4.425469785928726E-003;-2.351749571971595E-004;
2.419166666666667E+009;1.924709081649780E-001;-4.281019046902657E-002;4.391589201986790E-003;-4.956718184985220E-004;
2.419333333333334E+009;1.910359561443329E-001;-4.322916269302368E-002;4.433197434991598E-003;-7.399133173748851E-004;
2.419500000000000E+009;1.895371675491333E-001;-4.357190430164337E-002;4.437275230884552E-003;-9.501621243543923E-004;
2.419666666666667E+009;1.878339648246765E-001;-4.444565251469612E-002;4.399197176098824E-003;-1.149756368249655E-003;
2.419833333333334E+009;1.862068474292755E-001;-4.504228010773659E-002;4.297059495002031E-003;-1.424781396053731E-003;
2.420000000000000E+009;1.847477704286575E-001;-4.586865380406380E-002;4.102223087102175E-003;-1.597612397745252E-003;
2.420166666666667E+009;1.829275339841843E-001;-4.683231562376022E-002;3.989793825894594E-003;-1.916055451147258E-003;
2.420333333333334E+009;1.815047115087509E-001;-4.799652472138405E-002;3.829807741567493E-003;-2.000817330554128E-003;
2.420500000000000E+009;1.797106564044952E-001;-4.916119575500488E-002;3.596395952627063E-003;-2.188715385273099E-003;
2.420666666666667E+009;1.780926585197449E-001;-5.047430843114853E-002;3.449618583545089E-003;-2.181993098929524E-003;
2.420833333333334E+009;1.765760332345963E-001;-5.191783979535103E-002;3.144512185826898E-003;-2.216105349361897E-003;
2.421000000000000E+009;1.750914752483368E-001;-5.353596806526184E-002;2.983916783705354E-003;-2.397661330178380E-003;
2.421166666666667E+009;1.737181097269058E-001;-5.527931079268456E-002;2.825071336701512E-003;-2.328461501747370E-003;
2.421333333333334E+009;1.719296574592590E-001;-5.666458606719971E-002;2.562235109508038E-003;-2.252406673505902E-003;
2.421500000000000E+009;1.707888096570969E-001;-5.863957852125168E-002;2.530130790546536E-003;-2.310180105268955E-003;
2.421666666666667E+009;1.694486588239670E-001;-6.043753027915955E-002;2.331261290237308E-003;-2.424637321382761E-003;
2.421833333333334E+009;1.683097183704376E-001;-6.228068470954895E-002;2.239256165921688E-003;-2.160567790269852E-003;
2.422000000000000E+009;1.672165393829346E-001;-6.428416073322296E-002;2.168904757127166E-003;-2.182108815759420E-003;
2.422166666666667E+009;1.662072837352753E-001;-6.620670855045319E-002;2.139982068911195E-003;-2.308721421286464E-003;
2.422333333333334E+009;1.653189957141876E-001;-6.837417185306549E-002;2.022402593865991E-003;-2.168887294828892E-003;
2.422500000000000E+009;1.644885838031769E-001;-7.020621746778488E-002;2.107310108840466E-003;-2.063757041469216E-003;
2.422666666666667E+009;1.640467345714569E-001;-7.230686396360397E-002;1.966671785339713E-003;-2.108896384015679E-003;
2.422833333333334E+009;1.634441465139389E-001;-7.448113709688187E-002;1.729342387989163E-003;-2.129864646121860E-003;
2.423000000000000E+009;1.629901826381683E-001;-7.651526480913162E-002;1.827941508963704E-003;-2.169264247640967E-003;
2.423166666666667E+009;1.626969426870346E-001;-7.834056019783020E-002;1.755548059009016E-003;-2.160612493753433E-003;
2.423333333333334E+009;1.624506711959839E-001;-8.038242161273956E-002;1.884506549686194E-003;-2.195867011323571E-003;
2.423500000000000E+009;1.623120009899139E-001;-8.230777084827423E-002;1.717348350211978E-003;-2.135364338755608E-003;
2.423666666666667E+009;1.624313145875931E-001;-8.409684896469116E-002;1.683304668404162E-003;-2.227773191407323E-003;
2.423833333333334E+009;1.624389886856079E-001;-8.597674220800400E-002;1.633197767660022E-003;-2.199013950303197E-003;
2.424000000000000E+009;1.625050157308579E-001;-8.781601488590241E-002;1.647665980271995E-003;-2.257812768220902E-003;
2.424166666666667E+009;1.625761538743973E-001;-8.933088183403015E-002;1.563963363878429E-003;-2.236396307125688E-003;
2.424333333333334E+009;1.628462970256805E-001;-9.086817502975464E-002;1.426560222171247E-003;-2.186837140470743E-003;
2.424500000000000E+009;1.634020507335663E-001;-9.264501929283142E-002;1.621876261197031E-003;-2.120984252542257E-003;
2.424666666666667E+009;1.636259555816650E-001;-9.397071599960327E-002;1.254377188161016E-003;-2.125631552189589E-003;
2.424833333333334E+009;1.641284525394440E-001;-9.523233771324158E-002;1.285518868826330E-003;-2.070263493806124E-003;
2.425000000000000E+009;1.645644754171372E-001;-9.643729776144028E-002;1.221991726197302E-003;-2.142759039998055E-003;
2.425166666666667E+009;1.648088544607163E-001;-9.750301390886307E-002;1.282748300582171E-003;-1.998906722292304E-003;
2.425333333333334E+009;1.652632504701614E-001;-9.856754541397095E-002;1.229971298016608E-003;-2.189647872000933E-003;
2.425500000000000E+009;1.657840907573700E-001;-9.953811019659042E-002;1.276301569305360E-003;-2.133076777681708E-003;
2.425666666666667E+009;1.662293672561646E-001;-1.001247689127922E-001;1.123793190345168E-003;-2.126469975337386E-003;
2.425833333333334E+009;1.665074825286865E-001;-1.009633019566536E-001;1.183604821562767E-003;-2.029857598245144E-003;
2.426000000000000E+009;1.668636500835419E-001;-1.014816164970398E-001;1.272043213248253E-003;-2.072061412036419E-003;
2.426166666666667E+009;1.672775596380234E-001;-1.019662171602249E-001;1.221792772412300E-003;-2.260517096146941E-003;
2.426333333333334E+009;1.674498021602631E-001;-1.024383604526520E-001;1.069489168003202E-003;-2.317232778295875E-003;
2.426500000000000E+009;1.677823960781097E-001;-1.027003526687622E-001;1.070920727215707E-003;-2.210924867540598E-003;
2.426666666666667E+009;1.681181788444519E-001;-1.029617935419083E-001;1.096805091947317E-003;-2.206332050263882E-003;
2.426833333333334E+009;1.683630198240280E-001;-1.033237203955650E-001;1.030571758747101E-003;-2.261669142171741E-003;
2.427000000000000E+009;1.683029234409332E-001;-1.034875810146332E-001;9.078267612494528E-004;-2.322656800970435E-003;
2.427166666666667E+009;1.684059500694275E-001;-1.035925596952438E-001;9.410149068571627E-004;-2.332675503566861E-003;
2.427333333333334E+009;1.683544665575028E-001;-1.037329509854317E-001;8.323445217683911E-004;-2.345765475183725E-003;
2.427500000000000E+009;1.680049300193787E-001;-1.039042621850967E-001;7.253888761624694E-004;-2.510269405320287E-003;
2.427666666666667E+009;1.677023619413376E-001;-1.039593890309334E-001;7.275126408785582E-004;-2.492407104000449E-003;
2.427833333333334E+009;1.674285829067230E-001;-1.041002720594406E-001;6.598700419999659E-004;-2.312761265784502E-003;
