# Version 1.00
#
freq[Hz];re:Trc1_S11;im:Trc1_S11;re:Trc2_S21;im:Trc2_S21;
2.400000000000000E+009;1.550619900226593E-001;1.065788194537163E-001;-6.720713339745998E-003;1.532914611743763E-004;
2.400166666666667E+009;1.546853482723236E-001;1.044091433286667E-001;-6.726314779371023E-003;5.448171868920326E-004;
2.400333333333334E+009;1.548033207654953E-001;1.020424962043762E-001;-6.716300267726183E-003;9.179550106637180E-004;
2.400500000000000E+009;1.547904163599014E-001;9.926201403141022E-002;-6.694666575640440E-003;1.201262697577477E-003;
2.400666666666667E+009;1.548525243997574E-001;9.676392376422882E-002;-6.376780103892088E-003;1.702317036688328E-003;
2.400833333333334E+009;1.548940539360046E-001;9.378075599670410E-002;-6.307462230324745E-003;2.124316757544875E-003;
2.401000000000000E+009;1.549498140811920E-001;9.101681411266327E-002;-6.214553024619818E-003;2.380845136940479E-003;
2.401166666666667E+009;1.550346165895462E-001;8.829183876514435E-002;-5.765570793300867E-003;2.650705166161060E-003;
2.401333333333334E+009;1.553877145051956E-001;8.534608781337738E-002;-5.517004057765007E-003;2.904559718444943E-003;
2.401500000000000E+009;1.557724326848984E-001;8.257770538330078E-002;-5.188575014472008E-003;3.071592422202230E-003;
2.401666666666667E+009;1.564597934484482E-001;7.952721416950226E-002;-4.996778909116983E-003;3.034463850781322E-003;
2.401833333333334E+009;1.566440165042877E-001;7.681717723608017E-002;-4.725344944745302E-003;3.330419072881341E-003;
2.402000000000000E+009;1.575362831354141E-001;7.402591407299042E-002;-4.525175783783197E-003;3.274512942880392E-003;
2.402166666666667E+009;1.582057327032089E-001;7.153575122356415E-002;-4.275887738913298E-003;3.260474884882569E-003;
2.402333333333334E+009;1.593895405530930E-001;6.868726760149002E-002;-4.082627594470978E-003;3.267779946327210E-003;
2.402500000000000E+009;1.603592038154602E-001;6.618236005306244E-002;-3.958767279982567E-003;3.451538970693946E-003;
2.402666666666667E+009;1.614184379577637E-001;6.381107121706009E-002;-3.750312607735395E-003;3.197839250788093E-003;
2.402833333333334E+009;1.627517640590668E-001;6.138589605689049E-002;-3.720264649018645E-003;3.375211497768760E-003;
2.403000000000000E+009;1.641318500041962E-001;5.897742509841919E-002;-3.728929674252868E-003;3.262836020439863E-003;
2.403166666666667E+009;1.659374982118607E-001;5.672996491193771E-002;-3.523319726809859E-003;3.212575567886233E-003;
2.403333333333334E+009;1.672167629003525E-001;5.467324331402779E-002;-3.461067099124193E-003;3.225187771022320E-003;
2.403500000000000E+009;1.689453125000000E-001;5.250415205955505E-002;-3.587235463783145E-003;3.424680791795254E-003;
2.403666666666667E+009;1.708375811576843E-001;5.061303824186325E-002;-3.427543444558978E-003;3.487437497824431E-003;
2.403833333333334E+009;1.724109798669815E-001;4.881608858704567E-002;-3.398706903681159E-003;3.486418863758445E-003;
2.404000000000000E+009;1.737860292196274E-001;4.702358320355415E-002;-3.176670987159014E-003;3.594664623960853E-003;
2.404166666666667E+009;1.756661981344223E-001;4.544013738632202E-002;-3.148149466142058E-003;3.806321183219552E-003;
2.404333333333334E+009;1.773567795753479E-001;4.388193041086197E-002;-2.948918379843235E-003;3.938687499612570E-003;
2.404500000000000E+009;1.788453906774521E-001;4.260395467281342E-002;-2.938322490081191E-003;4.003439098596573E-003;
2.404666666666667E+009;1.804640144109726E-001;4.153528064489365E-002;-2.629204420372844E-003;4.012919496744871E-003;
2.404833333333334E+009;1.821405589580536E-001;4.054152965545654E-002;-2.539314329624176E-003;4.051803611218929E-003;
2.405000000000000E+009;1.835634261369705E-001;3.976372256875038E-002;-2.377631841227412E-003;4.027076531201601E-003;
2.405166666666667E+009;1.850017756223679E-001;3.902761638164520E-002;-2.352140843868256E-003;4.153749439865351E-003;
2.405333333333334E+009;1.864490807056427E-001;3.858317434787750E-002;-2.139794174581766E-003;4.221719689667225E-003;
2.405500000000000E+009;1.878168731927872E-001;3.824091702699661E-002;-1.955861225724220E-003;4.089582245796919E-003;
2.405666666666667E+009;1.890676021575928E-001;3.788301348686218E-002;-1.827217056415975E-003;4.270244855433703E-003;
2.405833333333334E+009;1.904041767120361E-001;3.762410208582878E-002;-1.719433697871864E-003;4.072380252182484E-003;
2.406000000000000E+009;1.913966536521912E-001;3.743422031402588E-002;-1.768562477082014E-003;4.132158588618040E-003;
2.406166666666667E+009;1.922923177480698E-001;3.734745830297470E-002;-1.668177428655326E-003;4.042961169034243E-003;
2.406333333333334E+009;1.932843327522278E-001;3.733125701546669E-002;-1.531039248220623E-003;4.048031754791737E-003;
2.406500000000000E+009;1.940690428018570E-001;3.747346252202988E-002;-1.356450025923550E-003;4.009542055428028E-003;
2.406666666666667E+009;1.946270316839218E-001;3.752557560801506E-002;-1.176079036667943E-003;4.041289445012808E-003;
2.406833333333334E+009;1.951346099376679E-001;3.772518783807755E-002;-1.105780946090818E-003;4.104682710021734E-003;
2.407000000000000E+009;1.954204291105270E-001;3.788761422038078E-002;-1.368818688206375E-003;4.214723128825426E-003;
2.407166666666667E+009;1.958940923213959E-001;3.773519396781921E-002;-1.209635287523270E-003;4.176846239715815E-003;
2.407333333333334E+009;1.956900060176849E-001;3.797310963273048E-002;-8.636016864329577E-004;4.130662418901920E-003;
2.407500000000000E+009;1.957550346851349E-001;3.808818012475967E-002;-9.527466027066112E-004;4.129906650632620E-003;
2.407666666666667E+009;1.959165334701538E-001;3.815035894513130E-002;-8.119737030938268E-004;4.051148425787687E-003;
2.407833333333334E+009;1.954491734504700E-001;3.817849606275559E-002;-7.558371871709824E-004;4.129223525524139E-003;
2.408000000000000E+009;1.953182071447372E-001;3.795612975955010E-002;-4.900363855995238E-004;4.196082707494497E-003;
2.408166666666667E+009;1.946742683649063E-001;3.773402050137520E-002;-5.543637671507895E-004;4.168488550931215E-003;
2.408333333333334E+009;1.943050175905228E-001;3.727657347917557E-002;-4.966239794157445E-004;4.114294890314341E-003;
2.408500000000000E+009;1.935721486806870E-001;3.694138675928116E-002;-4.733284295070916E-004;4.313773009926081E-003;
2.408666666666667E+009;1.930473744869232E-001;3.647055476903915E-002;-2.049274626187980E-004;4.157470073550940E-003;
2.408833333333334E+009;1.924677491188049E-001;3.565926104784012E-002;-2.494112704880536E-004;4.143750295042992E-003;
2.409000000000000E+009;1.914168149232864E-001;3.487583622336388E-002;-2.079957484966144E-004;4.183002747595310E-003;
2.409166666666667E+009;1.905094087123871E-001;3.390433266758919E-002;-1.487582194386050E-004;4.176452290266752E-003;
2.409333333333334E+009;1.896794438362122E-001;3.294562175869942E-002;1.212009738082998E-004;4.353307653218508E-003;
2.409500000000000E+009;1.886081248521805E-001;3.157487139105797E-002;1.626544108148664E-004;4.161199089139700E-003;
2.409666666666667E+009;1.875489205121994E-001;3.029296174645424E-002;9.685448958407505E-007;4.348262213170528E-003;
2.409833333333334E+009;1.865323930978775E-001;2.879894711077213E-002;7.469954289263114E-005;4.373184870928526E-003;
2.410000000000000E+009;1.855656355619431E-001;2.707733772695065E-002;2.606841153465211E-004;4.349090624600649E-003;
2.410166666666667E+009;1.845031082630158E-001;2.519670315086842E-002;2.813295868691057E-004;4.482250660657883E-003;
2.410333333333334E+009;1.835316717624664E-001;2.343864738941193E-002;6.525394273921847E-004;4.618300125002861E-003;
2.410500000000000E+009;1.826006919145584E-001;2.142928913235664E-002;6.403819425031543E-004;4.456840921193361E-003;
2.410666666666667E+009;1.817408204078674E-001;1.928373053669930E-002;8.334279991686344E-004;4.698815755546093E-003;
2.410833333333334E+009;1.810795068740845E-001;1.708790101110935E-002;1.072828774340451E-003;4.742729011923075E-003;
2.411000000000000E+009;1.803386211395264E-001;1.489936839789152E-002;1.358043751679361E-003;4.470360931009054E-003;
2.411166666666667E+009;1.797120124101639E-001;1.262441091239452E-002;1.464272500015795E-003;4.695220850408077E-003;
2.411333333333334E+009;1.792899668216705E-001;1.023017615079880E-002;1.647721161134541E-003;4.563805181533098E-003;
2.411500000000000E+009;1.787485629320145E-001;7.713150698691607E-003;1.863498473539949E-003;4.509270656853914E-003;
2.411666666666667E+009;1.785551458597183E-001;5.366539582610130E-003;2.051808172836900E-003;4.514987114816904E-003;
2.411833333333334E+009;1.783207952976227E-001;2.961825812235475E-003;2.120922086760402E-003;4.186838399618864E-003;
2.412000000000000E+009;1.785294264554977E-001;3.437369887251407E-004;2.239193767309189E-003;4.288569558411837E-003;
2.412166666666667E+009;1.785163283348084E-001;-2.131319604814053E-003;2.374356146901846E-003;4.005407448858023E-003;
2.412333333333334E+009;1.786043196916580E-001;-4.644016735255718E-003;2.535506850108504E-003;3.774749813601375E-003;
2.412500000000000E+009;1.792012751102448E-001;-6.938116159290075E-003;2.574742771685123E-003;3.686419455334544E-003;
2.412666666666667E+009;1.798494458198547E-001;-9.707581251859665E-003;2.674563555046916E-003;3.489976050332189E-003;
2.412833333333334E+009;1.804535388946533E-001;-1.209118217229843E-002;2.732698107138276E-003;3.455427475273609E-003;
2.413000000000000E+009;1.812977492809296E-001;-1.445135287940502E-002;2.917939098551869E-003;3.228270914405584E-003;
2.413166666666667E+009;1.819908469915390E-001;-1.664970628917217E-002;2.841476351022720E-003;3.217459423467517E-003;
2.413333333333334E+009;1.830758750438690E-001;-1.913334429264069E-002;2.806518226861954E-003;3.166596638038755E-003;
2.413500000000000E+009;1.839604675769806E-001;-2.140077576041222E-002;2.956319600343704E-003;3.005965845659375E-003;
2.413666666666667E+009;1.852010935544968E-001;-2.366517297923565E-002;2.900947816669941E-003;3.152176737785339E-003;
2.413833333333334E+009;1.860950738191605E-001;-2.573272399604321E-002;2.916999161243439E-003;2.937001874670386E-003;
2.414000000000000E+009;1.874299198389053E-001;-2.768696658313274E-002;2.936769975349307E-003;3.009252715855837E-003;
2.414166666666667E+009;1.884605735540390E-001;-2.960512228310108E-002;3.113865619525313E-003;2.859276486560702E-003;
2.414333333333334E+009;1.896043866872788E-001;-3.150464966893196E-002;3.087907331064344E-003;2.762370510026813E-003;
2.414500000000000E+009;1.909248232841492E-001;-3.304417058825493E-002;3.279449185356498E-003;2.657878678292036E-003;
2.414666666666667E+009;1.922152340412140E-001;-3.454824537038803E-002;3.343235701322556E-003;2.627589274197817E-003;
2.414833333333334E+009;1.931396126747131E-001;-3.587922453880310E-002;3.374855266883969E-003;2.456639660522342E-003;
2.415000000000000E+009;1.943140178918839E-001;-3.729481995105743E-002;3.432310651987791E-003;2.422290621325374E-003;
2.415166666666667E+009;1.955913454294205E-001;-3.834911063313484E-002;3.552173031494021E-003;2.274041995406151E-003;
2.415333333333334E+009;1.966778337955475E-001;-3.926596790552139E-002;3.654932603240013E-003;2.209109021350741E-003;
2.415500000000000E+009;1.978009045124054E-001;-3.995270654559135E-002;3.699152264744043E-003;2.143480116501451E-003;
2.415666666666667E+009;1.987109631299973E-001;-4.081525281071663E-002;3.786757122725248E-003;1.837274641729891E-003;
2.415833333333334E+009;1.995843797922134E-001;-4.145686700940132E-002;3.873530309647322E-003;1.850386499427259E-003;
2.416000000000000E+009;2.003454118967056E-001;-4.188370704650879E-002;3.844008781015873E-003;1.679502311162651E-003;
2.416166666666667E+009;2.011297941207886E-001;-4.251653701066971E-002;4.208508878946304E-003;1.502776052802801E-003;
2.416333333333334E+009;2.017835229635239E-001;-4.275424778461456E-002;4.018675070255995E-003;1.337081077508628E-003;
2.416500000000000E+009;2.021104991436005E-001;-4.302752763032913E-002;4.043695051223040E-003;1.308976789005101E-003;
2.416666666666667E+009;2.023822814226151E-001;-4.329432547092438E-002;4.003316629678011E-003;1.067791599780321E-003;
2.416833333333334E+009;2.026564180850983E-001;-4.331455752253532E-002;4.129937849938870E-003;8.810769650153816E-004;
2.417000000000000E+009;2.026370018720627E-001;-4.335290193557739E-002;4.088849294930697E-003;7.375816348940134E-004;
2.417166666666667E+009;2.023523300886154E-001;-4.317213222384453E-002;4.022717010229826E-003;7.054394809529185E-004;
2.417333333333334E+009;2.022737264633179E-001;-4.305967316031456E-002;3.838790347799659E-003;7.687209872528911E-004;
2.417500000000000E+009;2.019497156143189E-001;-4.303208366036415E-002;3.846137318760157E-003;5.086422315798700E-004;
2.417666666666667E+009;2.014294117689133E-001;-4.269916564226151E-002;4.107648506760597E-003;3.778070386033505E-004;
2.417833333333334E+009;2.010369598865509E-001;-4.256463795900345E-002;3.972650039941073E-003;5.614521214738488E-004;
2.418000000000000E+009;2.002995908260346E-001;-4.230273887515068E-002;4.028380848467350E-003;2.585015899967402E-004;
2.418166666666667E+009;1.995355337858200E-001;-4.222833737730980E-002;4.017771687358618E-003;3.098367888014764E-004;
2.418333333333334E+009;1.985931545495987E-001;-4.190852120518684E-002;4.080521874129772E-003;1.757534337230027E-004;
2.418500000000000E+009;1.975296735763550E-001;-4.205290973186493E-002;4.283145070075989E-003;3.158735489705578E-005;
2.418666666666667E+009;1.966715306043625E-001;-4.193462431430817E-002;4.185423254966736E-003;-1.871013955678791E-005;
2.418833333333334E+009;1.953374147415161E-001;-4.205989837646484E-002;4.395945463329554E-003;-6.836968532297760E-005;
2.419000000000000E+009;1.940261423587799E-001;-4.223207384347916E-002;4.367092624306679E-003;-3.075432905461639E-004;
2.419166666666667E+009;1.927846968173981E-001;-4.248788580298424E-002;4.372607916593552E-003;-4.963523242622614E-004;
2.419333333333334E+009;1.912680715322495E-001;-4.305763542652130E-002;4.343843553215265E-003;-8.069996838457882E-004;
2.419500000000000E+009;1.897593736648560E-001;-4.335874319076538E-002;4.338255617767572E-003;-8.837877539917827E-004;
2.419666666666667E+009;1.881711035966873E-001;-4.420010745525360E-002;4.346089903265238E-003;-1.139988657087088E-003;
2.419833333333334E+009;1.866655498743057E-001;-4.471639916300774E-002;4.170666448771954E-003;-1.467765774577856E-003;
2.420000000000000E+009;1.849399954080582E-001;-4.568774998188019E-002;4.152287263423204E-003;-1.703222631476820E-003;
2.420166666666667E+009;1.833956986665726E-001;-4.665507748723030E-002;3.974576946347952E-003;-1.877144328318536E-003;
2.420333333333334E+009;1.817728877067566E-001;-4.772111028432846E-002;3.763000248000026E-003;-2.041897270828486E-003;
2.420500000000000E+009;1.802033632993698E-001;-4.916305840015411E-002;3.664248855784535E-003;-2.098926575854421E-003;
2.420666666666667E+009;1.784073859453201E-001;-5.014972388744354E-002;3.336713416501880E-003;-2.217326778918505E-003;
2.420833333333334E+009;1.768234521150589E-001;-5.188202485442162E-002;3.085210453718901E-003;-2.338396152481437E-003;
2.421000000000000E+009;1.753508746623993E-001;-5.330232530832291E-002;2.976453630253673E-003;-2.374186413362622E-003;
2.421166666666667E+009;1.741286814212799E-001;-5.506112426519394E-002;2.794912084937096E-003;-2.374983625486493E-003;
2.421333333333334E+009;1.722367107868195E-001;-5.661710351705551E-002;2.709635067731142E-003;-2.429589629173279E-003;
2.421500000000000E+009;1.710882335901260E-001;-5.853692814707756E-002;2.501634880900383E-003;-2.406269777566195E-003;
2.421666666666667E+009;1.699254363775253E-001;-6.026570498943329E-002;2.345370827242732E-003;-2.193884924054146E-003;
2.421833333333334E+009;1.686531007289887E-001;-6.226395443081856E-002;2.242726273834705E-003;-2.234593499451876E-003;
2.422000000000000E+009;1.674675643444061E-001;-6.397898495197296E-002;2.327423309907317E-003;-2.136169467121363E-003;
2.422166666666667E+009;1.666831523180008E-001;-6.633953005075455E-002;1.990962773561478E-003;-2.060690661892295E-003;
2.422333333333334E+009;1.656137108802795E-001;-6.837740540504456E-002;1.948707504197955E-003;-2.146992599591613E-003;
2.422500000000000E+009;1.648966223001480E-001;-7.037268579006195E-002;2.010319149121642E-003;-2.091934438794851E-003;
2.422666666666667E+009;1.642083972692490E-001;-7.234273105859757E-002;1.976940082386136E-003;-1.988287083804607E-003;
2.422833333333334E+009;1.636854708194733E-001;-7.439351826906204E-002;1.901678740978241E-003;-2.292767167091370E-003;
2.423000000000000E+009;1.632460802793503E-001;-7.646550983190537E-002;2.013206016272306E-003;-2.107983687892556E-003;
2.423166666666667E+009;1.628920584917069E-001;-7.846347242593765E-002;1.816492876969278E-003;-1.998216146603227E-003;
2.423333333333334E+009;1.628099977970123E-001;-8.043323457241058E-002;1.674452098086476E-003;-2.237067325040698E-003;
2.423500000000000E+009;1.627447605133057E-001;-8.225946873426437E-002;1.771544455550611E-003;-2.146089915186167E-003;
2.423666666666667E+009;1.627295762300491E-001;-8.404108881950378E-002;1.525682164356113E-003;-2.064191736280918E-003;
2.423833333333334E+009;1.626633852720261E-001;-8.592224121093750E-002;1.638630288653076E-003;-2.086703432723880E-003;
2.424000000000000E+009;1.627832353115082E-001;-8.776623010635376E-002;1.603638520464301E-003;-2.123665995895863E-003;
2.424166666666667E+009;1.629120409488678E-001;-8.932449668645859E-002;1.621149480342865E-003;-1.981820678338409E-003;
2.424333333333334E+009;1.631582230329514E-001;-9.088206291198731E-002;1.315093017183244E-003;-2.236672677099705E-003;
2.424500000000000E+009;1.636146306991577E-001;-9.269062429666519E-002;1.330294297076762E-003;-2.161943586543202E-003;
2.424666666666667E+009;1.638541370630264E-001;-9.400311857461929E-002;1.391249708831310E-003;-2.179556293413043E-003;
2.424833333333334E+009;1.642812788486481E-001;-9.531784802675247E-002;1.147901173681021E-003;-2.095479052513838E-003;
2.425000000000000E+009;1.648421138525009E-001;-9.646564722061157E-002;1.265857252292335E-003;-2.063061809167266E-003;
2.425166666666667E+009;1.651362925767899E-001;-9.762383252382278E-002;1.173128839582205E-003;-2.136054681614041E-003;
2.425333333333334E+009;1.654980182647705E-001;-9.853444248437882E-002;1.290024723857641E-003;-2.166610676795244E-003;
2.425500000000000E+009;1.658586114645004E-001;-9.955479204654694E-002;1.184698427096009E-003;-2.012877259403467E-003;
2.425666666666667E+009;1.663687825202942E-001;-1.001315712928772E-001;1.234994735568762E-003;-2.270579105243087E-003;
2.425833333333334E+009;1.668134480714798E-001;-1.010000333189964E-001;1.181838684715331E-003;-2.203411888331175E-003;
2.426000000000000E+009;1.672273278236389E-001;-1.015023365616798E-001;1.076049637049437E-003;-2.248775679618120E-003;
2.426166666666667E+009;1.676002442836762E-001;-1.020679324865341E-001;1.037561916746199E-003;-2.114684553816915E-003;
2.426333333333334E+009;1.677130311727524E-001;-1.024423688650131E-001;1.125404494814575E-003;-2.268242184072733E-003;
2.426500000000000E+009;1.680517345666885E-001;-1.027979105710983E-001;1.088381162844598E-003;-2.309986623004079E-003;
2.426666666666667E+009;1.683255583047867E-001;-1.031370982527733E-001;9.372361237183213E-004;-2.256546169519424E-003;
2.426833333333334E+009;1.685135513544083E-001;-1.033120155334473E-001;9.954062988981605E-004;-2.345543820410967E-003;
2.427000000000000E+009;1.685854494571686E-001;-1.035664752125740E-001;9.263802785426378E-004;-2.247084863483906E-003;
2.427166666666667E+009;1.686010956764221E-001;-1.036271154880524E-001;8.166537154465914E-004;-2.418660325929523E-003;
2.427333333333334E+009;1.685111522674561E-001;-1.038705930113792E-001;9.399742702953517E-004;-2.432168694213033E-003;
2.427500000000000E+009;1.683280616998673E-001;-1.039609163999558E-001;9.619735064916313E-004;-2.404104685410857E-003;
2.427666666666667E+009;1.678845733404160E-001;-1.040350422263145E-001;8.661138126626611E-004;-2.464876044541597E-003;
2.427833333333334E+009;1.675963103771210E-001;-1.041403934359551E-001;9.189265547320247E-004;-2.431913744658232E-003;
