# Version 1.00
#
freq[Hz];re:Trc1_S11;im:Trc1_S11;re:Trc2_S21;im:Trc2_S21;
2.400000000000000E+009;1.550550758838654E-001;1.072830930352211E-001;-6.707731168717146E-003;3.784205764532089E-004;
2.400166666666667E+009;1.548670828342438E-001;1.049332991242409E-001;-6.763234268873930E-003;6.790044135414064E-004;
2.400333333333334E+009;1.548021435737610E-001;1.024854779243469E-001;-6.762897595763207E-003;1.048506237566471E-003;
2.400500000000000E+009;1.547780185937882E-001;9.995222836732864E-002;-6.605490576475859E-003;1.420457498170435E-003;
2.400666666666667E+009;1.548936963081360E-001;9.739892184734345E-002;-6.478553637862206E-003;1.975221093744040E-003;
2.400833333333334E+009;1.548722237348557E-001;9.434675425291061E-002;-6.311398930847645E-003;2.365156309679151E-003;
2.401000000000000E+009;1.551476866006851E-001;9.171909093856812E-002;-6.246777717024088E-003;2.628580667078495E-003;
2.401166666666667E+009;1.552366614341736E-001;8.867534250020981E-002;-5.807924550026655E-003;2.749729668721557E-003;
2.401333333333334E+009;1.555451154708862E-001;8.590024709701538E-002;-5.507023073732853E-003;3.010730491951108E-003;
2.401500000000000E+009;1.560241729021072E-001;8.301925659179688E-002;-5.213638767600060E-003;3.240874968469143E-003;
2.401666666666667E+009;1.562833636999130E-001;7.998280972242355E-002;-4.809728823602200E-003;3.285028273239732E-003;
2.401833333333334E+009;1.568133831024170E-001;7.741834968328476E-002;-4.767830949276686E-003;3.472282318398356E-003;
2.402000000000000E+009;1.577117890119553E-001;7.458993047475815E-002;-4.487032536417246E-003;3.414314240217209E-003;
2.402166666666667E+009;1.584321856498718E-001;7.197649031877518E-002;-4.159440752118826E-003;3.424906171858311E-003;
2.402333333333334E+009;1.594773977994919E-001;6.940899044275284E-002;-4.048451781272888E-003;3.392246318981051E-003;
2.402500000000000E+009;1.606165766716003E-001;6.666240096092224E-002;-3.834197763353586E-003;3.453132463619113E-003;
2.402666666666667E+009;1.617705971002579E-001;6.424272060394287E-002;-3.817879129201174E-003;3.280655946582556E-003;
2.402833333333334E+009;1.632076501846314E-001;6.174902990460396E-002;-3.690870478749275E-003;3.345836652442813E-003;
2.403000000000000E+009;1.644356250762940E-001;5.931156128644943E-002;-3.629206912592053E-003;3.397102933377028E-003;
2.403166666666667E+009;1.662037223577499E-001;5.720283836126328E-002;-3.486388362944126E-003;3.397470805794001E-003;
2.403333333333334E+009;1.676718294620514E-001;5.498125404119492E-002;-3.557441523298621E-003;3.436048282310367E-003;
2.403500000000000E+009;1.693811714649200E-001;5.297229439020157E-002;-3.392121288925409E-003;3.473326563835144E-003;
2.403666666666667E+009;1.711405664682388E-001;5.101428553462029E-002;-3.429644973948598E-003;3.561292774975300E-003;
2.403833333333334E+009;1.725959032773972E-001;4.913591220974922E-002;-3.122642170637846E-003;3.575140377506614E-003;
2.404000000000000E+009;1.741846650838852E-001;4.740940779447556E-002;-3.184986999258399E-003;3.757199272513390E-003;
2.404166666666667E+009;1.758454442024231E-001;4.594787210226059E-002;-3.021737327799201E-003;3.884252626448870E-003;
2.404333333333334E+009;1.776591539382935E-001;4.443872347474098E-002;-2.916241530328989E-003;4.032898228615522E-003;
2.404500000000000E+009;1.791600286960602E-001;4.304350912570953E-002;-2.707587089389563E-003;4.018221516162157E-003;
2.404666666666667E+009;1.808651834726334E-001;4.177939519286156E-002;-2.489701844751835E-003;4.119279328733683E-003;
2.404833333333334E+009;1.824526339769363E-001;4.082883894443512E-002;-2.273455262184143E-003;4.185565281659365E-003;
2.405000000000000E+009;1.838596910238266E-001;4.014106839895248E-002;-2.275027800351381E-003;4.280710127204657E-003;
2.405166666666667E+009;1.853649765253067E-001;3.948993980884552E-002;-2.219775691628456E-003;4.199801012873650E-003;
2.405333333333334E+009;1.867510229349136E-001;3.894638270139694E-002;-2.034294651821256E-003;4.209882579743862E-003;
2.405500000000000E+009;1.881984621286392E-001;3.848858922719955E-002;-1.826435909606516E-003;4.226965364068747E-003;
2.405666666666667E+009;1.893974691629410E-001;3.831007331609726E-002;-1.728413044475019E-003;4.147670231759548E-003;
2.405833333333334E+009;1.907232999801636E-001;3.801576048135757E-002;-1.746361027471721E-003;4.092583898454905E-003;
2.406000000000000E+009;1.916663050651550E-001;3.786368295550346E-002;-1.569497864693403E-003;4.277768544852734E-003;
2.406166666666667E+009;1.925897002220154E-001;3.772491589188576E-002;-1.580032752826810E-003;4.301173146814108E-003;
2.406333333333334E+009;1.935886442661285E-001;3.780630230903626E-002;-1.310178777202964E-003;4.275418352335692E-003;
2.406500000000000E+009;1.943740397691727E-001;3.774682059884071E-002;-1.239054254256189E-003;4.144087433815002E-003;
2.406666666666667E+009;1.950713247060776E-001;3.796887397766113E-002;-1.169944647699595E-003;4.265124443918467E-003;
2.406833333333334E+009;1.955555379390717E-001;3.804093599319458E-002;-9.540759492665529E-004;4.311776254326105E-003;
2.407000000000000E+009;1.958809047937393E-001;3.830823302268982E-002;-1.110337441787124E-003;4.239775706082583E-003;
2.407166666666667E+009;1.963124424219132E-001;3.809182718396187E-002;-7.361794705502689E-004;4.136967938393354E-003;
2.407333333333334E+009;1.962411254644394E-001;3.833285346627235E-002;-7.031928398646414E-004;4.167546052485704E-003;
2.407500000000000E+009;1.962219327688217E-001;3.845272213220596E-002;-6.305395509116352E-004;4.123491235077381E-003;
2.407666666666667E+009;1.961879283189774E-001;3.835840523242950E-002;-6.432675290852785E-004;4.286403302103281E-003;
2.407833333333334E+009;1.959071010351181E-001;3.834268823266029E-002;-5.823738174512982E-004;4.247248638421297E-003;
2.408000000000000E+009;1.957298219203949E-001;3.820266947150230E-002;-4.276852705515921E-004;4.252281505614519E-003;
2.408166666666667E+009;1.953230351209641E-001;3.785886988043785E-002;-4.205479635857046E-004;4.165785387158394E-003;
2.408333333333334E+009;1.948173940181732E-001;3.750930726528168E-002;-2.971976937260479E-004;4.237757064402103E-003;
2.408500000000000E+009;1.941949874162674E-001;3.728815540671349E-002;-3.089589299634099E-004;4.212529398500919E-003;
2.408666666666667E+009;1.934269815683365E-001;3.667493164539337E-002;-1.997978688450530E-004;4.314320161938667E-003;
2.408833333333334E+009;1.929719448089600E-001;3.600929304957390E-002;-8.283876377390698E-005;4.243797622621059E-003;
2.409000000000000E+009;1.920088678598404E-001;3.506034985184670E-002;-2.326355570403393E-005;4.216207657009363E-003;
2.409166666666667E+009;1.910196840763092E-001;3.388468176126480E-002;1.911806975840591E-005;4.185202997177839E-003;
2.409333333333334E+009;1.901491582393646E-001;3.300687298178673E-002;1.217987155541778E-004;4.209094680845738E-003;
2.409500000000000E+009;1.891332417726517E-001;3.167761862277985E-002;1.446071109967306E-004;4.114905837923288E-003;
2.409666666666667E+009;1.881534010171890E-001;3.032236360013485E-002;2.988030901178718E-004;4.478677175939083E-003;
2.409833333333334E+009;1.871102899312973E-001;2.878351323306561E-002;4.430709523148835E-004;4.365388769656420E-003;
2.410000000000000E+009;1.861887872219086E-001;2.708461880683899E-002;4.436180170159787E-004;4.404760897159576E-003;
2.410166666666667E+009;1.852557659149170E-001;2.525435015559197E-002;5.953359650447965E-004;4.389172885566950E-003;
2.410333333333334E+009;1.841485053300858E-001;2.340556308627129E-002;6.269640871323645E-004;4.500192590057850E-003;
2.410500000000000E+009;1.831689476966858E-001;2.146424725651741E-002;7.954437169246376E-004;4.569226410239935E-003;
2.410666666666667E+009;1.823235154151917E-001;1.925700157880783E-002;9.591704583726823E-004;4.514917731285095E-003;
2.410833333333334E+009;1.815186440944672E-001;1.692307367920876E-002;1.030974206514657E-003;4.564944189041853E-003;
2.411000000000000E+009;1.809271425008774E-001;1.464204769581556E-002;1.349995029158890E-003;4.654187709093094E-003;
2.411166666666667E+009;1.802878081798554E-001;1.247871574014425E-002;1.517093507573009E-003;4.625845234841108E-003;
2.411333333333334E+009;1.797906905412674E-001;9.788494557142258E-003;1.672748825512826E-003;4.608319606631994E-003;
2.411500000000000E+009;1.793505698442459E-001;7.689749822020531E-003;1.812195056118071E-003;4.394499585032463E-003;
2.411666666666667E+009;1.790729165077210E-001;5.155920982360840E-003;1.984075875952840E-003;4.332654643803835E-003;
2.411833333333334E+009;1.787932068109512E-001;2.677296055480838E-003;2.185960765928030E-003;4.068781156092882E-003;
2.412000000000000E+009;1.788540929555893E-001;9.862547449301928E-005;2.482052892446518E-003;4.090046044439077E-003;
2.412166666666667E+009;1.791075319051743E-001;-2.317552920430899E-003;2.567345043644309E-003;3.910095896571875E-003;
2.412333333333334E+009;1.790985763072968E-001;-4.810850601643324E-003;2.619569189846516E-003;3.855304326862097E-003;
2.412500000000000E+009;1.796328574419022E-001;-7.407351862639189E-003;2.728722291067243E-003;3.561425255611539E-003;
2.412666666666667E+009;1.802064925432205E-001;-9.885925799608231E-003;2.808682387694717E-003;3.436879720538855E-003;
2.412833333333334E+009;1.809620559215546E-001;-1.238030474632978E-002;2.763795200735331E-003;3.357286332175136E-003;
2.413000000000000E+009;1.815270781517029E-001;-1.476052589714527E-002;2.724137855693698E-003;3.170985262840986E-003;
2.413166666666667E+009;1.824005544185638E-001;-1.701197586953640E-002;2.934876363724470E-003;3.169758478179574E-003;
2.413333333333334E+009;1.834330111742020E-001;-1.940744929015636E-002;2.993892878293991E-003;3.080083057284355E-003;
2.413500000000000E+009;1.842765808105469E-001;-2.171688899397850E-002;2.935370896011591E-003;2.821479691192508E-003;
2.413666666666667E+009;1.855489313602448E-001;-2.390143461525440E-002;2.885050838813186E-003;2.817571628838778E-003;
2.413833333333334E+009;1.864860802888870E-001;-2.610649727284908E-002;2.963960403576493E-003;2.776260953396559E-003;
2.414000000000000E+009;1.877447068691254E-001;-2.797054126858711E-002;3.116148756816983E-003;2.725976752117276E-003;
2.414166666666667E+009;1.889164745807648E-001;-2.984807826578617E-002;3.106923308223486E-003;2.650461858138442E-003;
2.414333333333334E+009;1.900799721479416E-001;-3.196857869625092E-002;3.301355289295316E-003;2.613353077322245E-003;
2.414500000000000E+009;1.912503987550736E-001;-3.340439870953560E-002;3.269029315561056E-003;2.633234951645136E-003;
2.414666666666667E+009;1.923330426216126E-001;-3.481088951230049E-002;3.317108144983649E-003;2.364352811127901E-003;
2.414833333333334E+009;1.935298293828964E-001;-3.639073669910431E-002;3.495658515021205E-003;2.365592634305358E-003;
2.415000000000000E+009;1.946291625499725E-001;-3.759432956576347E-002;3.581582801416516E-003;2.257310552522540E-003;
2.415166666666667E+009;1.958702355623245E-001;-3.860704228281975E-002;3.530056215822697E-003;2.226496813818812E-003;
2.415333333333334E+009;1.969810128211975E-001;-3.969351202249527E-002;3.750765928998590E-003;2.014369005337358E-003;
2.415500000000000E+009;1.979122310876846E-001;-4.040852189064026E-002;3.845329629257321E-003;1.979957101866603E-003;
2.415666666666667E+009;1.990459859371185E-001;-4.116339981555939E-002;3.797536017373204E-003;1.795612741261721E-003;
2.415833333333334E+009;1.998838186264038E-001;-4.174407944083214E-002;3.929097205400467E-003;1.667269971221685E-003;
2.416000000000000E+009;2.006359547376633E-001;-4.245049506425858E-002;3.945863340049982E-003;1.558140851557255E-003;
2.416166666666667E+009;2.013816982507706E-001;-4.284447431564331E-002;3.984472714364529E-003;1.441135653294623E-003;
2.416333333333334E+009;2.018445432186127E-001;-4.309986904263496E-002;4.036129452288151E-003;1.213735202327371E-003;
2.416500000000000E+009;2.024070024490356E-001;-4.339305311441422E-002;4.166104365140200E-003;1.101834350265563E-003;
2.416666666666667E+009;2.026413679122925E-001;-4.367867112159729E-002;3.993558231741190E-003;9.037692216224968E-004;
2.416833333333334E+009;2.028287053108215E-001;-4.354046657681465E-002;3.997309599071741E-003;8.900949032977223E-004;
2.417000000000000E+009;2.028238624334335E-001;-4.379888251423836E-002;4.014070145785809E-003;6.736252107657492E-004;
2.417166666666667E+009;2.026264816522598E-001;-4.355163872241974E-002;4.032605327665806E-003;6.687595159746707E-004;
2.417333333333334E+009;2.023640722036362E-001;-4.333848878741264E-002;4.070352297276259E-003;4.912049043923616E-004;
2.417500000000000E+009;2.020907700061798E-001;-4.343178123235703E-002;4.081412684172392E-003;3.912813554052264E-004;
2.417666666666667E+009;2.016040831804276E-001;-4.306572675704956E-002;3.981308080255985E-003;5.193139659240842E-004;
2.417833333333334E+009;2.011913061141968E-001;-4.299237206578255E-002;3.895454807206988E-003;2.669925743248314E-004;
2.418000000000000E+009;2.003585249185562E-001;-4.272814095020294E-002;4.049838054925203E-003;3.836064424831420E-004;
2.418166666666667E+009;1.996721923351288E-001;-4.259633272886276E-002;4.199188202619553E-003;1.480917853768915E-004;
2.418333333333334E+009;1.985928714275360E-001;-4.248882457613945E-002;4.116731695830822E-003;1.327615755144507E-004;
2.418500000000000E+009;1.975725591182709E-001;-4.254191741347313E-002;4.232079256325960E-003;9.830690396483988E-005;
2.418666666666667E+009;1.966787278652191E-001;-4.228685051202774E-002;4.333214368671179E-003;4.119303412153386E-005;
2.418833333333334E+009;1.952454298734665E-001;-4.242257401347160E-002;4.245711490511894E-003;-2.633174299262464E-004;
2.419000000000000E+009;1.939544975757599E-001;-4.270542785525322E-002;4.447701852768660E-003;-4.868387186434120E-004;
2.419166666666667E+009;1.926829218864441E-001;-4.300433769822121E-002;4.517415072768927E-003;-5.815605982206762E-004;
2.419333333333334E+009;1.912767291069031E-001;-4.335216432809830E-002;4.618612583726645E-003;-7.554948097094894E-004;
2.419500000000000E+009;1.897224485874176E-001;-4.375374317169190E-002;4.398484714329243E-003;-1.205067615956068E-003;
2.419666666666667E+009;1.883339434862137E-001;-4.449284076690674E-002;4.394538234919310E-003;-1.209600246511400E-003;
2.419833333333334E+009;1.866124123334885E-001;-4.523703455924988E-002;4.266183357685804E-003;-1.684186048805714E-003;
2.420000000000000E+009;1.848820000886917E-001;-4.604132100939751E-002;4.238635767251253E-003;-1.769852591678500E-003;
2.420166666666667E+009;1.832559406757355E-001;-4.705258086323738E-002;3.953766543418169E-003;-1.996892271563411E-003;
2.420333333333334E+009;1.817208230495453E-001;-4.819405078887940E-002;3.781964769586921E-003;-2.211685990914702E-003;
2.420500000000000E+009;1.800772100687027E-001;-4.946130514144898E-002;3.592057619243860E-003;-2.290211617946625E-003;
2.420666666666667E+009;1.784735769033432E-001;-5.064068362116814E-002;3.516016993671656E-003;-2.352838171645999E-003;
2.420833333333334E+009;1.768065541982651E-001;-5.207830667495728E-002;3.168995259329677E-003;-2.424336271360517E-003;
2.421000000000000E+009;1.751646697521210E-001;-5.376907065510750E-002;2.895379671826959E-003;-2.521991962566972E-003;
2.421166666666667E+009;1.737738847732544E-001;-5.533339828252792E-002;2.827233169227839E-003;-2.669627079740167E-003;
2.421333333333334E+009;1.721545457839966E-001;-5.691282078623772E-002;2.509735058993101E-003;-2.483104122802615E-003;
2.421500000000000E+009;1.708400398492813E-001;-5.894772708415985E-002;2.522984985262156E-003;-2.546880859881640E-003;
2.421666666666667E+009;1.696882545948029E-001;-6.087291985750198E-002;2.218882553279400E-003;-2.342452527955174E-003;
2.421833333333334E+009;1.684251427650452E-001;-6.247392669320107E-002;2.191197359934449E-003;-2.510610502213240E-003;
2.422000000000000E+009;1.674481928348541E-001;-6.448986381292343E-002;1.981436973437667E-003;-2.285232767462730E-003;
2.422166666666667E+009;1.665456146001816E-001;-6.658411026000977E-002;1.922419178299606E-003;-2.410631161183119E-003;
2.422333333333334E+009;1.656038463115692E-001;-6.863528490066528E-002;1.971068559214473E-003;-2.332665724679828E-003;
2.422500000000000E+009;1.647196263074875E-001;-7.070603966712952E-002;1.901447423733771E-003;-2.375698881223798E-003;
2.422666666666667E+009;1.640452742576599E-001;-7.254812866449356E-002;1.884984900243580E-003;-2.291650045663118E-003;
2.422833333333334E+009;1.635313034057617E-001;-7.462475448846817E-002;1.685266965068877E-003;-2.068445086479187E-003;
2.423000000000000E+009;1.632113456726074E-001;-7.680141925811768E-002;1.674325205385685E-003;-2.263915259391069E-003;
2.423166666666667E+009;1.627040207386017E-001;-7.864835113286972E-002;1.576017239131033E-003;-2.244821982458234E-003;
2.423333333333334E+009;1.625199317932129E-001;-8.077040314674377E-002;1.518058939836919E-003;-2.323173684999347E-003;
2.423500000000000E+009;1.624911874532700E-001;-8.250414580106735E-002;1.623971387743950E-003;-2.321252133697271E-003;
2.423666666666667E+009;1.624057888984680E-001;-8.437819778919220E-002;1.500053680501878E-003;-2.468837192282081E-003;
2.423833333333334E+009;1.624001413583756E-001;-8.618512749671936E-002;1.359958667308092E-003;-2.249509328976274E-003;
2.424000000000000E+009;1.627378910779953E-001;-8.788278698921204E-002;1.431507291272283E-003;-2.161672338843346E-003;
2.424166666666667E+009;1.626884639263153E-001;-8.954202383756638E-002;1.293844543397427E-003;-2.193083520978689E-003;
2.424333333333334E+009;1.628471314907074E-001;-9.115276485681534E-002;1.283973222598434E-003;-2.221392700448632E-003;
2.424500000000000E+009;1.633422970771790E-001;-9.294023364782333E-002;1.197655336000025E-003;-2.227171557024121E-003;
2.424666666666667E+009;1.634966135025024E-001;-9.423647820949554E-002;1.088342745788395E-003;-2.219010842964053E-003;
2.424833333333334E+009;1.641711741685867E-001;-9.548835456371307E-002;1.105277915485203E-003;-1.992118777707219E-003;
2.425000000000000E+009;1.645268946886063E-001;-9.668069332838059E-002;1.164685818366706E-003;-2.137061441317201E-003;
2.425166666666667E+009;1.648773998022080E-001;-9.780297428369522E-002;1.108925789594650E-003;-2.050547162070870E-003;
2.425333333333334E+009;1.652705073356628E-001;-9.876578301191330E-002;1.122293761000037E-003;-2.049418864771724E-003;
2.425500000000000E+009;1.657067984342575E-001;-9.976343065500259E-002;1.095658051781356E-003;-2.222875598818064E-003;
2.425666666666667E+009;1.661618053913117E-001;-1.004000753164291E-001;1.005333266220987E-003;-2.228077268227935E-003;
2.425833333333334E+009;1.664621084928513E-001;-1.012047082185745E-001;1.036591711454094E-003;-2.257762709632516E-003;
2.426000000000000E+009;1.669386923313141E-001;-1.015796586871147E-001;1.072279526852071E-003;-2.225230680778623E-003;
2.426166666666667E+009;1.673377305269241E-001;-1.021821051836014E-001;1.054770196788013E-003;-2.348553389310837E-003;
2.426333333333334E+009;1.674757599830627E-001;-1.026286184787750E-001;1.013947650790215E-003;-2.238034503534436E-003;
2.426500000000000E+009;1.679152399301529E-001;-1.028667762875557E-001;8.297832682728767E-004;-2.337274374440312E-003;
2.426666666666667E+009;1.680978238582611E-001;-1.031901985406876E-001;8.420319063588977E-004;-2.195325680077076E-003;
2.426833333333334E+009;1.684312224388123E-001;-1.033788919448853E-001;9.228183771483600E-004;-2.360644517466426E-003;
2.427000000000000E+009;1.684040427207947E-001;-1.035547032952309E-001;7.443306967616081E-004;-2.446261234581471E-003;
2.427166666666667E+009;1.684037744998932E-001;-1.036866158246994E-001;8.218980510719121E-004;-2.426532097160816E-003;
2.427333333333334E+009;1.682868897914887E-001;-1.039277017116547E-001;6.377848912961781E-004;-2.554663922637701E-003;
2.427500000000000E+009;1.680345982313156E-001;-1.041100770235062E-001;7.826349465176463E-004;-2.443940844386816E-003;
2.427666666666667E+009;1.677179187536240E-001;-1.041724234819412E-001;5.664657801389694E-004;-2.379687735810876E-003;
2.427833333333334E+009;1.673263907432556E-001;-1.043221876025200E-001;6.755013600923121E-004;-2.560269553214312E-003;
