# Version 1.00
#
freq[Hz];re:Trc1_S11;im:Trc1_S11;re:Trc2_S21;im:Trc2_S21;
2.400000000000000E+009;1.552732735872269E-001;1.069733798503876E-001;-6.752086337655783E-003;1.754229015205056E-004;
2.400166666666667E+009;1.549159437417984E-001;1.047010794281960E-001;-6.758611183613539E-003;5.668984376825392E-004;
2.400333333333334E+009;1.550405770540237E-001;1.023228615522385E-001;-6.656045559793711E-003;9.609942208044231E-004;
2.400500000000000E+009;1.549715995788574E-001;9.969548881053925E-002;-6.632785778492689E-003;1.273141358979046E-003;
2.400666666666667E+009;1.549158841371536E-001;9.706179052591324E-002;-6.458076648414135E-003;1.690672244876623E-003;
2.400833333333334E+009;1.552044749259949E-001;9.406054019927979E-002;-6.370811723172665E-003;2.258180407807231E-003;
2.401000000000000E+009;1.554165780544281E-001;9.134286642074585E-002;-6.113572977483273E-003;2.329150214791298E-003;
2.401166666666667E+009;1.554068922996521E-001;8.860694617033005E-002;-5.777911283075810E-003;2.664239378646016E-003;
2.401333333333334E+009;1.557835489511490E-001;8.571952581405640E-002;-5.626360420137644E-003;2.983112586662173E-003;
2.401500000000000E+009;1.563022136688232E-001;8.269879966974258E-002;-5.170327145606279E-003;3.097432432696223E-003;
2.401666666666667E+009;1.564347296953201E-001;8.000920712947846E-002;-4.996425006538630E-003;3.164437133818865E-003;
2.401833333333334E+009;1.568978428840637E-001;7.701966911554337E-002;-4.537646658718586E-003;3.158959560096264E-003;
2.402000000000000E+009;1.579615622758865E-001;7.441635429859161E-002;-4.388015717267990E-003;3.029931336641312E-003;
2.402166666666667E+009;1.586842983961105E-001;7.172228395938873E-002;-4.204653669148684E-003;3.258714219555259E-003;
2.402333333333334E+009;1.596459746360779E-001;6.904876232147217E-002;-3.950324840843678E-003;3.279228927567601E-003;
2.402500000000000E+009;1.609466075897217E-001;6.648168712854385E-002;-3.936960827559233E-003;3.301138523966074E-003;
2.402666666666667E+009;1.619487106800079E-001;6.410302221775055E-002;-3.751209005713463E-003;3.230246482416987E-003;
2.402833333333334E+009;1.632298380136490E-001;6.163693219423294E-002;-3.658088855445385E-003;3.154836595058441E-003;
2.403000000000000E+009;1.648087799549103E-001;5.921458452939987E-002;-3.551677800714970E-003;3.059556009247899E-003;
2.403166666666667E+009;1.664544939994812E-001;5.699091404676437E-002;-3.498789854347706E-003;3.203554544597864E-003;
2.403333333333334E+009;1.679043173789978E-001;5.458726361393929E-002;-3.538703545928001E-003;3.261606441810727E-003;
2.403500000000000E+009;1.694917380809784E-001;5.268565565347672E-002;-3.465613117441535E-003;3.220781916752458E-003;
2.403666666666667E+009;1.712920069694519E-001;5.075306817889214E-002;-3.341482020914555E-003;3.338105976581574E-003;
2.403833333333334E+009;1.729110330343247E-001;4.879885166883469E-002;-3.349405247718096E-003;3.493546042591333E-003;
2.404000000000000E+009;1.744237095117569E-001;4.709180444478989E-002;-3.241159487515688E-003;3.504416439682245E-003;
2.404166666666667E+009;1.760736852884293E-001;4.570499062538147E-002;-3.140176646411419E-003;3.637774148955941E-003;
2.404333333333334E+009;1.777715384960175E-001;4.423081874847412E-002;-2.946438733488321E-003;3.815873060375452E-003;
2.404500000000000E+009;1.792908161878586E-001;4.272643104195595E-002;-2.820882014930248E-003;3.725347109138966E-003;
2.404666666666667E+009;1.809822469949722E-001;4.154739156365395E-002;-2.731025218963623E-003;3.917426336556673E-003;
2.404833333333334E+009;1.827149540185928E-001;4.041798412799835E-002;-2.492254832759500E-003;3.857054281979799E-003;
2.405000000000000E+009;1.839112788438797E-001;3.999130055308342E-002;-2.466134727001190E-003;3.936036955565214E-003;
2.405166666666667E+009;1.854408234357834E-001;3.914197161793709E-002;-2.258265856653452E-003;4.208190832287073E-003;
2.405333333333334E+009;1.869084537029266E-001;3.870052099227905E-002;-2.084073843434453E-003;4.171816632151604E-003;
2.405500000000000E+009;1.882553100585938E-001;3.825274854898453E-002;-2.076085656881332E-003;4.149139858782291E-003;
2.405666666666667E+009;1.894697695970535E-001;3.780455514788628E-002;-1.932062208652496E-003;4.164140205830336E-003;
2.405833333333334E+009;1.908083409070969E-001;3.766041621565819E-002;-1.837651128880680E-003;4.052324220538139E-003;
2.406000000000000E+009;1.917656660079956E-001;3.755687549710274E-002;-1.665470423176885E-003;4.110214300453663E-003;
2.406166666666667E+009;1.928264200687408E-001;3.735197335481644E-002;-1.570045831613243E-003;4.271265119314194E-003;
2.406333333333334E+009;1.937841027975082E-001;3.742036595940590E-002;-1.458496903069317E-003;4.278962966054678E-003;
2.406500000000000E+009;1.944226324558258E-001;3.749515488743782E-002;-1.401733723469079E-003;4.143211059272289E-003;
2.406666666666667E+009;1.951082348823547E-001;3.757150471210480E-002;-1.219077850691974E-003;4.274644888937473E-003;
2.406833333333334E+009;1.956740468740463E-001;3.766010701656342E-002;-1.187757821753621E-003;4.184622783213854E-003;
2.407000000000000E+009;1.958410292863846E-001;3.795278072357178E-002;-1.080424990504980E-003;4.232035484164953E-003;
2.407166666666667E+009;1.963475048542023E-001;3.768019750714302E-002;-1.052454928867519E-003;4.223670810461044E-003;
2.407333333333334E+009;1.962986588478088E-001;3.794926404953003E-002;-9.328107116743922E-004;4.157125949859619E-003;
2.407500000000000E+009;1.961871236562729E-001;3.808920085430145E-002;-8.242244366556406E-004;4.186089150607586E-003;
2.407666666666667E+009;1.962276250123978E-001;3.798542171716690E-002;-7.943329983390868E-004;4.220696631819010E-003;
2.407833333333334E+009;1.957684308290482E-001;3.788496926426888E-002;-7.511550793424249E-004;4.183941055089235E-003;
2.408000000000000E+009;1.958465725183487E-001;3.784326091408730E-002;-5.361817893572152E-004;4.275875631719828E-003;
2.408166666666667E+009;1.951104998588562E-001;3.760394081473351E-002;-5.561891011893749E-004;4.269699566066265E-003;
2.408333333333334E+009;1.948437839746475E-001;3.712899610400200E-002;-4.695440293289721E-004;4.289316479116678E-003;
2.408500000000000E+009;1.941370666027069E-001;3.674639388918877E-002;-4.770852974615991E-004;4.187784623354673E-003;
2.408666666666667E+009;1.934222728013992E-001;3.622100129723549E-002;-3.513041592668742E-004;4.076615441590548E-003;
2.408833333333334E+009;1.928989440202713E-001;3.561607748270035E-002;-2.300137130077928E-004;4.285718780010939E-003;
2.409000000000000E+009;1.917430758476257E-001;3.465614095330238E-002;-2.821709203999490E-004;4.259284585714340E-003;
2.409166666666667E+009;1.909840703010559E-001;3.358181938529015E-002;-1.595852227183059E-004;4.172055050730705E-003;
2.409333333333334E+009;1.899992525577545E-001;3.273871913552284E-002;-1.155880818259902E-004;4.208084195852280E-003;
2.409500000000000E+009;1.889633089303970E-001;3.129198402166367E-002;8.627107308711857E-005;4.410656634718180E-003;
2.409666666666667E+009;1.880066394805908E-001;2.999157831072807E-002;4.385308784549125E-005;4.305687267333269E-003;
2.409833333333334E+009;1.869084239006043E-001;2.841793745756149E-002;9.579011384630576E-005;4.296474158763886E-003;
2.410000000000000E+009;1.861663907766342E-001;2.688171528279781E-002;8.825062832329422E-005;4.502294585108757E-003;
2.410166666666667E+009;1.849071383476257E-001;2.490938454866409E-002;3.579547337722033E-004;4.419065546244383E-003;
2.410333333333334E+009;1.839257776737213E-001;2.317127026617527E-002;4.220192495267838E-004;4.635882098227739E-003;
2.410500000000000E+009;1.829287707805634E-001;2.110544219613075E-002;5.513360956683755E-004;4.624263849109411E-003;
2.410666666666667E+009;1.820863932371140E-001;1.895301789045334E-002;6.199163035489619E-004;4.639423917979002E-003;
2.410833333333334E+009;1.813483089208603E-001;1.669228449463844E-002;9.030164801515639E-004;4.647677764296532E-003;
2.411000000000000E+009;1.806593537330627E-001;1.436975877732039E-002;1.203149673528969E-003;4.639147315174341E-003;
2.411166666666667E+009;1.798561960458756E-001;1.214433088898659E-002;1.285608741454780E-003;4.670589230954647E-003;
2.411333333333334E+009;1.794250309467316E-001;9.595310315489769E-003;1.491371891461313E-003;4.593040794134140E-003;
2.411500000000000E+009;1.789244562387466E-001;7.238335907459259E-003;1.713599078357220E-003;4.511700011789799E-003;
2.411666666666667E+009;1.788436919450760E-001;4.840308334678412E-003;1.877499860711396E-003;4.387659486383200E-003;
2.411833333333334E+009;1.783407181501389E-001;2.522019669413567E-003;2.063064835965633E-003;4.301676526665688E-003;
2.412000000000000E+009;1.787558495998383E-001;-2.891431213356555E-004;2.187222940847278E-003;4.207349848002195E-003;
2.412166666666667E+009;1.786117851734161E-001;-2.385421656072140E-003;2.329319249838591E-003;3.972254227846861E-003;
2.412333333333334E+009;1.790439933538437E-001;-5.128255113959312E-003;2.495159395039082E-003;3.905802033841610E-003;
2.412500000000000E+009;1.792658716440201E-001;-7.573842070996761E-003;2.501727780327201E-003;3.803166095167399E-003;
2.412666666666667E+009;1.799537986516953E-001;-1.008573826402426E-002;2.704144455492497E-003;3.615921363234520E-003;
2.412833333333334E+009;1.806690245866776E-001;-1.242995169013739E-002;2.790287835523486E-003;3.589087165892124E-003;
2.413000000000000E+009;1.812932193279266E-001;-1.497025322169066E-002;2.821728587150574E-003;3.269742010161281E-003;
2.413166666666667E+009;1.821798980236054E-001;-1.717824116349220E-002;2.825143979862332E-003;3.217478049919009E-003;
2.413333333333334E+009;1.832990944385529E-001;-1.960363611578941E-002;2.874072408303618E-003;3.182898974046111E-003;
2.413500000000000E+009;1.840563267469406E-001;-2.180975675582886E-002;2.809198107570410E-003;3.090807702392340E-003;
2.413666666666667E+009;1.851987093687058E-001;-2.405125088989735E-002;3.013776848092675E-003;2.945523709058762E-003;
2.413833333333334E+009;1.862741857767105E-001;-2.611816488206387E-002;2.860063454136252E-003;2.960756886750460E-003;
2.414000000000000E+009;1.873982846736908E-001;-2.808348461985588E-002;3.103218274191022E-003;2.833702601492405E-003;
2.414166666666667E+009;1.885535269975662E-001;-2.985099144279957E-002;3.019627649337053E-003;2.763683442026377E-003;
2.414333333333334E+009;1.897117942571640E-001;-3.192323446273804E-002;3.208088222891092E-003;2.707272535189986E-003;
2.414500000000000E+009;1.909236013889313E-001;-3.341940045356751E-002;3.221905790269375E-003;2.581951208412647E-003;
2.414666666666667E+009;1.920608580112457E-001;-3.503238409757614E-002;3.314676927402616E-003;2.605559071525931E-003;
2.414833333333334E+009;1.932865828275681E-001;-3.639913350343704E-002;3.438562387600541E-003;2.488030586391687E-003;
2.415000000000000E+009;1.942457705736160E-001;-3.765441477298737E-002;3.607550635933876E-003;2.324909437447786E-003;
2.415166666666667E+009;1.954915225505829E-001;-3.887612372636795E-002;3.520794911310077E-003;2.262990688905120E-003;
2.415333333333334E+009;1.967570036649704E-001;-3.971808031201363E-002;3.850804641842842E-003;2.126603852957487E-003;
2.415500000000000E+009;1.977064311504364E-001;-4.048406705260277E-002;3.842451376840472E-003;1.999148866161704E-003;
2.415666666666667E+009;1.988562196493149E-001;-4.134301841259003E-002;3.774642711505294E-003;1.952503924258053E-003;
2.415833333333334E+009;1.995702534914017E-001;-4.202809557318687E-002;3.905129618942738E-003;1.787699060514569E-003;
2.416000000000000E+009;2.003471553325653E-001;-4.253806918859482E-002;3.728447249159217E-003;1.656541950069368E-003;
2.416166666666667E+009;2.008682638406754E-001;-4.304297268390656E-002;4.074389580637217E-003;1.498414669185877E-003;
2.416333333333334E+009;2.015850991010666E-001;-4.316931590437889E-002;4.057175479829311E-003;1.338791800662875E-003;
2.416500000000000E+009;2.019844502210617E-001;-4.339404031634331E-002;4.067365080118179E-003;1.172785414382815E-003;
2.416666666666667E+009;2.023380845785141E-001;-4.373335838317871E-002;4.002344794571400E-003;1.183188520371914E-003;
2.416833333333334E+009;2.024529427289963E-001;-4.374641180038452E-002;3.963903523981571E-003;8.423283579759300E-004;
2.417000000000000E+009;2.024781107902527E-001;-4.378246515989304E-002;3.951257560402155E-003;8.151914225891233E-004;
2.417166666666667E+009;2.021840661764145E-001;-4.372737184166908E-002;4.038519226014614E-003;7.108571007847786E-004;
2.417333333333334E+009;2.020772695541382E-001;-4.349849000573158E-002;3.926130011677742E-003;6.474974215961993E-004;
2.417500000000000E+009;2.017554491758347E-001;-4.334710910916328E-002;3.991453908383846E-003;6.356101366691291E-004;
2.417666666666667E+009;2.013304680585861E-001;-4.308689013123512E-002;4.115459509193897E-003;5.120813148096204E-004;
2.417833333333334E+009;2.008097320795059E-001;-4.302673041820526E-002;3.920127172023058E-003;5.119523848406971E-004;
2.418000000000000E+009;2.000800669193268E-001;-4.262663796544075E-002;4.061864688992500E-003;3.349151229485869E-004;
2.418166666666667E+009;1.992794573307037E-001;-4.246658459305763E-002;4.125173669308424E-003;3.494623233564198E-004;
2.418333333333334E+009;1.984196156263351E-001;-4.239725321531296E-002;3.966987133026123E-003;3.498126170597971E-004;
2.418500000000000E+009;1.973266601562500E-001;-4.234324395656586E-002;4.153169691562653E-003;1.403169444529340E-004;
2.418666666666667E+009;1.962811797857285E-001;-4.232200607657433E-002;4.304956644773483E-003;4.087329944013618E-005;
2.418833333333334E+009;1.949821859598160E-001;-4.234962537884712E-002;4.338204860687256E-003;-2.000820968532935E-004;
2.419000000000000E+009;1.937119960784912E-001;-4.248790442943573E-002;4.458100069314241E-003;-2.483686257619411E-004;
2.419166666666667E+009;1.924691647291184E-001;-4.294181987643242E-002;4.425674211233854E-003;-5.455188220366836E-004;
2.419333333333334E+009;1.909719258546829E-001;-4.331456124782562E-002;4.512696992605925E-003;-6.928059738129377E-004;
2.419500000000000E+009;1.894967406988144E-001;-4.364367946982384E-002;4.471672233194113E-003;-8.157096453942359E-004;
2.419666666666667E+009;1.879844367504120E-001;-4.457747936248779E-002;4.360749386250973E-003;-1.184749766252935E-003;
2.419833333333334E+009;1.862002164125443E-001;-4.504215717315674E-002;4.261826165020466E-003;-1.367536606267095E-003;
2.420000000000000E+009;1.847529113292694E-001;-4.584182426333427E-002;4.040095489472151E-003;-1.524804392829537E-003;
2.420166666666667E+009;1.829562485218048E-001;-4.696987196803093E-002;3.963377326726914E-003;-1.819249242544174E-003;
2.420333333333334E+009;1.815553307533264E-001;-4.808348417282105E-002;3.797336248680949E-003;-1.865916186943650E-003;
2.420500000000000E+009;1.797705441713333E-001;-4.936185851693153E-002;3.601278876885772E-003;-1.975357998162508E-003;
2.420666666666667E+009;1.781758517026901E-001;-5.042792484164238E-002;3.552227281033993E-003;-2.194543601945043E-003;
2.420833333333334E+009;1.765613853931427E-001;-5.199570208787918E-002;3.247602144256234E-003;-2.284398535266519E-003;
2.421000000000000E+009;1.750134974718094E-001;-5.349845066666603E-002;2.915469929575920E-003;-2.360249403864145E-003;
2.421166666666667E+009;1.735870242118835E-001;-5.530570447444916E-002;2.733187749981880E-003;-2.454300876706839E-003;
2.421333333333334E+009;1.718075424432755E-001;-5.660433694720268E-002;2.548974938690662E-003;-2.342619234696031E-003;
2.421500000000000E+009;1.707285791635513E-001;-5.877878516912460E-002;2.564210677519441E-003;-2.233916660770774E-003;
2.421666666666667E+009;1.692984402179718E-001;-6.054296717047691E-002;2.365213818848133E-003;-2.326640533283353E-003;
2.421833333333334E+009;1.682143509387970E-001;-6.241883710026741E-002;2.367846434935927E-003;-2.104381797835231E-003;
2.422000000000000E+009;1.671138107776642E-001;-6.433279812335968E-002;2.169066341593862E-003;-2.219468355178833E-003;
2.422166666666667E+009;1.662821769714356E-001;-6.635499000549316E-002;2.055025659501553E-003;-2.243643393740058E-003;
2.422333333333334E+009;1.652431786060333E-001;-6.839280575513840E-002;1.983546419069171E-003;-2.053751843050122E-003;
2.422500000000000E+009;1.645787358283997E-001;-7.039435207843781E-002;1.897903275676072E-003;-2.163527999073267E-003;
2.422666666666667E+009;1.638523042201996E-001;-7.235477864742279E-002;1.870904699899256E-003;-2.152140252292156E-003;
2.422833333333334E+009;1.635269373655319E-001;-7.452272623777390E-002;1.812343718484044E-003;-2.001126762479544E-003;
2.423000000000000E+009;1.628886908292770E-001;-7.651719450950623E-002;1.839626464061439E-003;-2.135841874405742E-003;
2.423166666666667E+009;1.626070737838745E-001;-7.848998159170151E-002;1.783021492883563E-003;-2.095561241731048E-003;
2.423333333333334E+009;1.623715460300446E-001;-8.063653111457825E-002;1.683610375039280E-003;-2.105991821736097E-003;
2.423500000000000E+009;1.623348742723465E-001;-8.230268955230713E-002;1.750191557221115E-003;-2.022108063101769E-003;
2.423666666666667E+009;1.623748987913132E-001;-8.412774652242661E-002;1.707047573290765E-003;-2.121480414643884E-003;
2.423833333333334E+009;1.623264849185944E-001;-8.582349866628647E-002;1.582319848239422E-003;-2.126112114638090E-003;
2.424000000000000E+009;1.625294089317322E-001;-8.775826543569565E-002;1.596936373971403E-003;-2.126079984009266E-003;
2.424166666666667E+009;1.626464277505875E-001;-8.928171545267105E-002;1.535924966447055E-003;-2.171168336644769E-003;
2.424333333333334E+009;1.628450751304627E-001;-9.096689522266388E-002;1.426162431016564E-003;-2.096614567562938E-003;
2.424500000000000E+009;1.633288413286209E-001;-9.265808016061783E-002;1.413940684869885E-003;-2.042973879724741E-003;
2.424666666666667E+009;1.636050641536713E-001;-9.407421946525574E-002;1.439828076399863E-003;-2.084362087771297E-003;
2.424833333333334E+009;1.639805436134338E-001;-9.541275352239609E-002;1.430116710253060E-003;-2.047802321612835E-003;
2.425000000000000E+009;1.644782871007919E-001;-9.661190211772919E-002;1.386400661431253E-003;-2.102568512782455E-003;
2.425166666666667E+009;1.646668910980225E-001;-9.757056087255478E-002;1.389552373439074E-003;-2.060395432636142E-003;
2.425333333333334E+009;1.651645451784134E-001;-9.851479530334473E-002;1.313993590883911E-003;-2.212738152593374E-003;
2.425500000000000E+009;1.655338853597641E-001;-9.951043128967285E-002;1.322950469329953E-003;-2.094807568937540E-003;
2.425666666666667E+009;1.660922765731812E-001;-1.001307740807533E-001;1.372701139189303E-003;-2.138833515346050E-003;
2.425833333333334E+009;1.663990914821625E-001;-1.010277792811394E-001;1.267554820515215E-003;-2.241479232907295E-003;
2.426000000000000E+009;1.667782366275787E-001;-1.013815626502037E-001;1.219030353240669E-003;-2.230198355391622E-003;
2.426166666666667E+009;1.672140657901764E-001;-1.019324585795403E-001;1.227996777743101E-003;-2.258532680571079E-003;
2.426333333333334E+009;1.673916131258011E-001;-1.024955883622170E-001;1.144313020631671E-003;-2.255028812214732E-003;
2.426500000000000E+009;1.677860915660858E-001;-1.026933416724205E-001;1.204464002512395E-003;-2.304612426087260E-003;
2.426666666666667E+009;1.680669784545898E-001;-1.029525846242905E-001;1.101657631807029E-003;-2.341181039810181E-003;
2.426833333333334E+009;1.682995408773422E-001;-1.032396033406258E-001;1.156167127192020E-003;-2.239333232864738E-003;
2.427000000000000E+009;1.683664768934250E-001;-1.033483594655991E-001;9.030865621753037E-004;-2.531812991946936E-003;
2.427166666666667E+009;1.683388054370880E-001;-1.034329906105995E-001;8.350340649485588E-004;-2.437691204249859E-003;
2.427333333333334E+009;1.682158708572388E-001;-1.038331389427185E-001;1.107073971070349E-003;-2.420837758108974E-003;
2.427500000000000E+009;1.680158972740173E-001;-1.039218902587891E-001;8.501947741024196E-004;-2.540227025747299E-003;
2.427666666666667E+009;1.676228791475296E-001;-1.038004010915756E-001;8.328687981702387E-004;-2.476877532899380E-003;
2.427833333333334E+009;1.672751307487488E-001;-1.039705798029900E-001;8.600742439739406E-004;-2.589493989944458E-003;
