# Version 1.00
#
freq[Hz];re:Trc1_S11;im:Trc1_S11;re:Trc2_S21;im:Trc2_S21;
2.400000000000000E+009;1.555459052324295E-001;1.083222553133965E-001;-3.125302260741592E-003;-4.238269757479429E-003;
2.400166666666667E+009;1.551405489444733E-001;1.060528606176376E-001;-3.334347391501069E-003;-4.431649576872587E-003;
2.400333333333334E+009;1.552130132913590E-001;1.036668047308922E-001;-3.481849795207381E-003;-4.395162221044302E-003;
2.400500000000000E+009;1.551344245672226E-001;1.008325368165970E-001;-3.947866149246693E-003;-4.206744022667408E-003;
2.400666666666667E+009;1.551424413919449E-001;9.845463931560516E-002;-4.104178864508867E-003;-4.133663140237331E-003;
2.400833333333334E+009;1.551489979028702E-001;9.558121860027313E-002;-4.289498087018728E-003;-4.107095301151276E-003;
2.401000000000000E+009;1.550869047641754E-001;9.260082989931107E-002;-4.549794830381870E-003;-3.986473195254803E-003;
2.401166666666667E+009;1.552946865558624E-001;8.981072902679443E-002;-4.742804914712906E-003;-3.744659014046192E-003;
2.401333333333334E+009;1.553912162780762E-001;8.697089552879334E-002;-4.988103173673153E-003;-3.453270765021443E-003;
2.401500000000000E+009;1.558615416288376E-001;8.393172174692154E-002;-5.061264149844647E-003;-3.349896753206849E-003;
2.401666666666667E+009;1.560383141040802E-001;8.115681260824204E-002;-5.338183604180813E-003;-3.184232395142317E-003;
2.401833333333334E+009;1.565771400928497E-001;7.813034206628799E-002;-5.543057341128588E-003;-3.018293995410204E-003;
2.402000000000000E+009;1.574551463127136E-001;7.547178864479065E-002;-5.586793646216393E-003;-2.913422882556915E-003;
2.402166666666667E+009;1.581663042306900E-001;7.279057800769806E-002;-5.701319314539433E-003;-2.443438628688455E-003;
2.402333333333334E+009;1.590101122856140E-001;6.996276229619980E-002;-5.798669531941414E-003;-2.343748230487108E-003;
2.402500000000000E+009;1.602398455142975E-001;6.730148196220398E-002;-5.900735501199961E-003;-2.158533083274961E-003;
2.402666666666667E+009;1.612233817577362E-001;6.502761691808701E-002;-6.180347409099340E-003;-1.951470854692161E-003;
2.402833333333334E+009;1.627735942602158E-001;6.243483349680901E-002;-6.129227112978697E-003;-1.668064738623798E-003;
2.403000000000000E+009;1.639416366815567E-001;5.990939959883690E-002;-6.267185788601637E-003;-1.520533813163638E-003;
2.403166666666667E+009;1.659038960933685E-001;5.788338556885719E-002;-6.606793031096458E-003;-1.244161278009415E-003;
2.403333333333334E+009;1.671247482299805E-001;5.547073483467102E-002;-6.764917168766260E-003;-9.698673384264112E-004;
2.403500000000000E+009;1.690871566534042E-001;5.338073521852493E-002;-6.476854905486107E-003;-5.937112146057189E-004;
2.403666666666667E+009;1.707194447517395E-001;5.151324346661568E-002;-6.765547674149275E-003;-2.501110138837248E-004;
2.403833333333334E+009;1.725111305713654E-001;4.953395947813988E-002;-6.669704336673021E-003;1.762893371051177E-004;
2.404000000000000E+009;1.742529720067978E-001;4.765395075082779E-002;-6.602123379707336E-003;5.052611813880503E-004;
2.404166666666667E+009;1.760860830545425E-001;4.622533172369003E-002;-6.691060960292816E-003;4.904083907604218E-004;
2.404333333333334E+009;1.777176111936569E-001;4.463844001293182E-002;-6.485241930931807E-003;9.751659235917032E-004;
2.404500000000000E+009;1.794721633195877E-001;4.303016513586044E-002;-6.393628660589457E-003;1.396791427396238E-003;
2.404666666666667E+009;1.813182830810547E-001;4.202127456665039E-002;-6.427094805985689E-003;1.631911494769156E-003;
2.404833333333334E+009;1.829705089330673E-001;4.084024950861931E-002;-6.178695242851973E-003;1.958599081262946E-003;
2.405000000000000E+009;1.844403743743897E-001;4.024019837379456E-002;-6.128361914306879E-003;2.131861168891192E-003;
2.405166666666667E+009;1.859351098537445E-001;3.928225859999657E-002;-6.068070884793997E-003;2.371288137510419E-003;
2.405333333333334E+009;1.873590201139450E-001;3.885658457875252E-002;-5.856512580066919E-003;2.612695796415210E-003;
2.405500000000000E+009;1.888917833566666E-001;3.842877969145775E-002;-5.639382638037205E-003;2.806147793307900E-003;
2.405666666666667E+009;1.900379657745361E-001;3.801861777901650E-002;-5.563583225011826E-003;2.973353257402778E-003;
2.405833333333334E+009;1.913536936044693E-001;3.771331533789635E-002;-5.242396611720324E-003;3.223039442673326E-003;
2.406000000000000E+009;1.925911158323288E-001;3.756703808903694E-002;-5.088888574391604E-003;3.422464709728956E-003;
2.406166666666667E+009;1.936355680227280E-001;3.753825649619103E-002;-5.000856705009937E-003;3.462853841483593E-003;
2.406333333333334E+009;1.945308446884155E-001;3.767684847116470E-002;-4.719242919236422E-003;3.854628885164857E-003;
2.406500000000000E+009;1.954052895307541E-001;3.781262412667275E-002;-4.469001665711403E-003;3.891546977683902E-003;
2.406666666666667E+009;1.960030496120453E-001;3.784822300076485E-002;-4.250474274158478E-003;3.978856373578310E-003;
2.406833333333334E+009;1.966295093297958E-001;3.795071691274643E-002;-3.940495662391186E-003;4.076245240867138E-003;
2.407000000000000E+009;1.969446390867233E-001;3.817770257592201E-002;-3.874670946970582E-003;4.184585064649582E-003;
2.407166666666667E+009;1.973428279161453E-001;3.823209181427956E-002;-3.639544360339642E-003;4.184477962553501E-003;
2.407333333333334E+009;1.973774433135986E-001;3.846378251910210E-002;-3.373390063643456E-003;4.191031213849783E-003;
2.407500000000000E+009;1.972740143537521E-001;3.871747478842735E-002;-3.053555730730295E-003;4.223550669848919E-003;
2.407666666666667E+009;1.972503215074539E-001;3.873576596379280E-002;-3.079788759350777E-003;4.264185205101967E-003;
2.407833333333334E+009;1.969042122364044E-001;3.876309096813202E-002;-2.765255048871040E-003;4.165254998952150E-003;
2.408000000000000E+009;1.967269927263260E-001;3.877069428563118E-002;-2.749201143160462E-003;4.346718080341816E-003;
2.408166666666667E+009;1.961708962917328E-001;3.849045559763908E-002;-2.516037318855524E-003;4.216650500893593E-003;
2.408333333333334E+009;1.957536637783051E-001;3.799885511398315E-002;-2.323559485375881E-003;4.258526023477316E-003;
2.408500000000000E+009;1.951016038656235E-001;3.791952133178711E-002;-2.214726991951466E-003;4.122806247323751E-003;
2.408666666666667E+009;1.944295465946198E-001;3.753710538148880E-002;-2.158785006031394E-003;4.219462163746357E-003;
2.408833333333334E+009;1.936238110065460E-001;3.686286509037018E-002;-1.902571995742619E-003;4.036254715174437E-003;
2.409000000000000E+009;1.926888823509216E-001;3.608401119709015E-002;-1.904247561469674E-003;4.039096646010876E-003;
2.409166666666667E+009;1.917653679847717E-001;3.519275039434433E-002;-1.787269255146384E-003;3.942304756492376E-003;
2.409333333333334E+009;1.907022744417191E-001;3.438341245055199E-002;-1.820334116928279E-003;3.847185522317886E-003;
2.409500000000000E+009;1.895296275615692E-001;3.307545930147171E-002;-1.674176775850356E-003;3.821598133072257E-003;
2.409666666666667E+009;1.884425878524780E-001;3.164879977703095E-002;-1.719566178508103E-003;3.997365478426218E-003;
2.409833333333334E+009;1.874213516712189E-001;3.027775324881077E-002;-1.646951539441943E-003;3.974745515733957E-003;
2.410000000000000E+009;1.863066703081131E-001;2.876593917608261E-002;-1.601453986950219E-003;3.834502771496773E-003;
2.410166666666667E+009;1.851827800273895E-001;2.705369330942631E-002;-1.447952352464199E-003;3.878241637721658E-003;
2.410333333333334E+009;1.843426674604416E-001;2.530609257519245E-002;-1.550785847939551E-003;3.788199741393328E-003;
2.410500000000000E+009;1.831429302692413E-001;2.342102304100990E-002;-1.371653052046895E-003;3.722174558788538E-003;
2.410666666666667E+009;1.822664737701416E-001;2.108151838183403E-002;-1.228110399097204E-003;3.776091383770108E-003;
2.410833333333334E+009;1.815295368432999E-001;1.897645369172096E-002;-1.460549305193126E-003;3.747923299670219E-003;
2.411000000000000E+009;1.807627379894257E-001;1.681025512516499E-002;-1.284347963519394E-003;3.913430031388998E-003;
2.411166666666667E+009;1.798617392778397E-001;1.463945582509041E-002;-1.228459994308651E-003;3.901266027241945E-003;
2.411333333333334E+009;1.795304417610169E-001;1.220072153955698E-002;-1.190294511616230E-003;3.845328465104103E-003;
2.411500000000000E+009;1.790212392807007E-001;9.780504740774632E-003;-1.187053276225925E-003;3.831506241112948E-003;
2.411666666666667E+009;1.786466091871262E-001;7.307157851755619E-003;-1.180912251584232E-003;3.891019150614739E-003;
2.411833333333334E+009;1.783255785703659E-001;4.886280745267868E-003;-1.207713386975229E-003;4.000278189778328E-003;
2.412000000000000E+009;1.784917563199997E-001;2.128641819581389E-003;-1.053295447491109E-003;3.889748593792319E-003;
2.412166666666667E+009;1.785603910684586E-001;-1.331402454525232E-004;-1.161487190984190E-003;3.936181310564280E-003;
2.412333333333334E+009;1.785674840211868E-001;-2.684667240828276E-003;-1.122164772823453E-003;4.041743464767933E-003;
2.412500000000000E+009;1.791408360004425E-001;-5.066481418907642E-003;-1.205846783705056E-003;4.174395930022001E-003;
2.412666666666667E+009;1.796022653579712E-001;-7.702339440584183E-003;-1.052872277796269E-003;4.201247822493315E-003;
2.412833333333334E+009;1.804628968238831E-001;-1.019506435841322E-002;-9.794767247512937E-004;4.172890447080135E-003;
2.413000000000000E+009;1.811259686946869E-001;-1.252239942550659E-002;-7.818214362487197E-004;4.476270172744989E-003;
2.413166666666667E+009;1.819152683019638E-001;-1.480280887335539E-002;-9.425759199075401E-004;4.452348686754704E-003;
2.413333333333334E+009;1.830835342407227E-001;-1.729256100952625E-002;-8.896821527741849E-004;4.786980804055929E-003;
2.413500000000000E+009;1.838829517364502E-001;-1.954263076186180E-002;-6.970221875235438E-004;4.771850071847439E-003;
2.413666666666667E+009;1.850964576005936E-001;-2.195526473224163E-002;-6.861055153422058E-004;4.934156313538551E-003;
2.413833333333334E+009;1.863456368446350E-001;-2.394017949700356E-002;-4.677559772972018E-004;5.092491861432791E-003;
2.414000000000000E+009;1.874518841505051E-001;-2.601854875683785E-002;-3.131575358565897E-004;5.195514764636755E-003;
2.414166666666667E+009;1.886551827192307E-001;-2.785282582044601E-002;1.742674976412673E-005;5.350010935217142E-003;
2.414333333333334E+009;1.899901181459427E-001;-3.001806326210499E-002;1.156586804427207E-004;5.327208433300257E-003;
2.414500000000000E+009;1.913613379001617E-001;-3.130361065268517E-002;8.999322017189115E-005;5.449582822620869E-003;
2.414666666666667E+009;1.925975680351257E-001;-3.289756551384926E-002;5.100508569739759E-004;5.439482629299164E-003;
2.414833333333334E+009;1.938737630844116E-001;-3.433733060956001E-002;7.757704006507993E-004;5.707845557481051E-003;
2.415000000000000E+009;1.951188445091248E-001;-3.570053353905678E-002;8.636584389023483E-004;5.652706138789654E-003;
2.415166666666667E+009;1.963237822055817E-001;-3.682893142104149E-002;1.128973439335823E-003;5.758136510848999E-003;
2.415333333333334E+009;1.977656930685043E-001;-3.779455274343491E-002;1.499115722253919E-003;5.637642461806536E-003;
2.415500000000000E+009;1.988641172647476E-001;-3.862595930695534E-002;1.682906644418836E-003;5.686264019459486E-003;
2.415666666666667E+009;1.999334394931793E-001;-3.942569717764854E-002;1.846110215410590E-003;5.716606974601746E-003;
2.415833333333334E+009;2.009112983942032E-001;-4.009566456079483E-002;2.227786229923368E-003;5.683186929672957E-003;
2.416000000000000E+009;2.017386704683304E-001;-4.064909368753433E-002;2.538310363888741E-003;5.647281650453806E-003;
2.416166666666667E+009;2.025634646415710E-001;-4.119566082954407E-002;2.745124278590083E-003;5.653451662510634E-003;
2.416333333333334E+009;2.032441347837448E-001;-4.142222553491592E-002;2.977269003167749E-003;5.626604426652193E-003;
2.416500000000000E+009;2.038561850786209E-001;-4.187196120619774E-002;3.270507557317615E-003;5.545667372643948E-003;
2.416666666666667E+009;2.041998207569122E-001;-4.204223304986954E-002;3.514762502163649E-003;5.406872835010290E-003;
2.416833333333334E+009;2.043328136205673E-001;-4.198683053255081E-002;3.819482866674662E-003;5.128194577991962E-003;
2.417000000000000E+009;2.045882046222687E-001;-4.219042882323265E-002;4.081889055669308E-003;5.060807336121798E-003;
2.417166666666667E+009;2.043285518884659E-001;-4.197132214903832E-002;4.261755850166082E-003;4.897907841950655E-003;
2.417333333333334E+009;2.041825950145721E-001;-4.182437807321549E-002;4.552665166556835E-003;4.634473938494921E-003;
2.417500000000000E+009;2.038903087377548E-001;-4.176312685012817E-002;4.714217968285084E-003;4.485080018639565E-003;
2.417666666666667E+009;2.034097164869309E-001;-4.145255684852600E-002;4.792982712388039E-003;4.299728199839592E-003;
2.417833333333334E+009;2.029273211956024E-001;-4.126258939504623E-002;4.946528468281031E-003;3.843166166916490E-003;
2.418000000000000E+009;2.022015452384949E-001;-4.086144268512726E-002;5.096628796309233E-003;3.727467497810721E-003;
2.418166666666667E+009;2.015042006969452E-001;-4.072115197777748E-002;5.206802394241095E-003;3.466509981080890E-003;
2.418333333333334E+009;2.005260884761810E-001;-4.051044583320618E-002;5.326047539710999E-003;3.110271412879229E-003;
2.418500000000000E+009;1.994730979204178E-001;-4.050231352448463E-002;5.112410522997379E-003;3.208791138604283E-003;
2.418666666666667E+009;1.985778808593750E-001;-4.026585072278976E-002;5.288731306791306E-003;2.880871761590242E-003;
2.418833333333334E+009;1.973625868558884E-001;-4.035397991538048E-002;5.468291230499744E-003;2.708865329623222E-003;
2.419000000000000E+009;1.957793831825256E-001;-4.044700786471367E-002;5.370352882891893E-003;2.526517957448959E-003;
2.419166666666667E+009;1.946243941783905E-001;-4.064679890871048E-002;5.502990446984768E-003;2.426799153909087E-003;
2.419333333333334E+009;1.931859552860260E-001;-4.122701659798622E-002;5.532702896744013E-003;2.256428822875023E-003;
2.419500000000000E+009;1.916909366846085E-001;-4.151749610900879E-002;5.556072108447552E-003;2.016933867707849E-003;
2.419666666666667E+009;1.899713277816773E-001;-4.237890988588333E-002;5.695356521755457E-003;1.920450595207512E-003;
2.419833333333334E+009;1.883624047040939E-001;-4.289459064602852E-002;5.620307289063931E-003;1.794149284251034E-003;
2.420000000000000E+009;1.867063194513321E-001;-4.375653341412544E-002;5.773484706878662E-003;1.667534932494164E-003;
2.420166666666667E+009;1.849645376205444E-001;-4.464015364646912E-002;5.782486870884895E-003;1.566291786730290E-003;
2.420333333333334E+009;1.832875162363052E-001;-4.584194347262383E-002;5.926785059273243E-003;1.312931533902884E-003;
2.420500000000000E+009;1.814528852701187E-001;-4.726501181721687E-002;5.824110470712185E-003;1.067025703378022E-003;
2.420666666666667E+009;1.798623502254486E-001;-4.821420833468437E-002;5.933048669248819E-003;9.352558990940452E-004;
2.420833333333334E+009;1.781914234161377E-001;-4.992467910051346E-002;6.112920120358467E-003;6.856296677142382E-004;
2.421000000000000E+009;1.764616668224335E-001;-5.142132937908173E-002;6.109353620558977E-003;5.674659623764455E-004;
2.421166666666667E+009;1.751691997051239E-001;-5.312735959887505E-002;6.241948809474707E-003;2.909089671447873E-004;
2.421333333333334E+009;1.734672188758850E-001;-5.457552522420883E-002;6.180663127452135E-003;8.101877756416798E-005;
2.421500000000000E+009;1.720443665981293E-001;-5.676590278744698E-002;6.293476093560457E-003;-1.970654266187921E-004;
2.421666666666667E+009;1.707312911748886E-001;-5.845369771122932E-002;6.001576781272888E-003;-3.337587113492191E-004;
2.421833333333334E+009;1.695547699928284E-001;-6.059411168098450E-002;6.037605460733175E-003;-7.669720216654241E-004;
2.422000000000000E+009;1.684123575687408E-001;-6.254395097494125E-002;6.007874384522438E-003;-9.647755068726838E-004;
2.422166666666667E+009;1.675336211919785E-001;-6.486331671476364E-002;5.900629330426455E-003;-1.178547507151961E-003;
2.422333333333334E+009;1.664449721574783E-001;-6.684584915637970E-002;5.800129380077124E-003;-1.217125449329615E-003;
2.422500000000000E+009;1.656782776117325E-001;-6.897480785846710E-002;5.700153298676014E-003;-1.611794228665531E-003;
2.422666666666667E+009;1.650233566761017E-001;-7.107240706682205E-002;5.670395679771900E-003;-1.809917856007814E-003;
2.422833333333334E+009;1.644791364669800E-001;-7.317546010017395E-002;5.336137022823095E-003;-1.900605275295675E-003;
2.423000000000000E+009;1.641113907098770E-001;-7.554095238447189E-002;5.444339010864496E-003;-2.146184677258134E-003;
2.423166666666667E+009;1.637031137943268E-001;-7.745635509490967E-002;5.313307046890259E-003;-2.416342729702592E-003;
2.423333333333334E+009;1.634258031845093E-001;-7.953152060508728E-002;5.132754798978567E-003;-2.448355546221137E-003;
2.423500000000000E+009;1.633311212062836E-001;-8.150257915258408E-002;4.968853201717138E-003;-2.653839066624641E-003;
2.423666666666667E+009;1.634439677000046E-001;-8.338961005210877E-002;4.816600121557713E-003;-2.680483972653747E-003;
2.423833333333334E+009;1.632972359657288E-001;-8.541827648878098E-002;4.672470968216658E-003;-2.863776171579957E-003;
2.424000000000000E+009;1.635666042566299E-001;-8.730667084455490E-002;4.522480070590973E-003;-2.911134855821729E-003;
2.424166666666667E+009;1.637381911277771E-001;-8.896955102682114E-002;4.305227193981409E-003;-3.054133849218488E-003;
2.424333333333334E+009;1.641181856393814E-001;-9.073232859373093E-002;4.294164944440126E-003;-3.018877236172557E-003;
2.424500000000000E+009;1.644771397113800E-001;-9.258749336004257E-002;4.082701634615660E-003;-3.311648499220610E-003;
2.424666666666667E+009;1.647345274686813E-001;-9.400391578674316E-002;3.891078988090158E-003;-3.282083664089441E-003;
2.424833333333334E+009;1.655414253473282E-001;-9.534107893705368E-002;3.976264037191868E-003;-3.447515191510320E-003;
2.425000000000000E+009;1.659023463726044E-001;-9.651176631450653E-002;3.786299377679825E-003;-3.394863801077008E-003;
2.425166666666667E+009;1.662985235452652E-001;-9.776591509580612E-002;3.549506422132254E-003;-3.469119314104319E-003;
2.425333333333334E+009;1.667453795671463E-001;-9.877909719944000E-002;3.368043573573232E-003;-3.531282069161534E-003;
2.425500000000000E+009;1.672558486461639E-001;-9.965060651302338E-002;3.339655464515090E-003;-3.562755417078733E-003;
2.425666666666667E+009;1.679076403379440E-001;-1.004777774214745E-001;3.146671922877431E-003;-3.738031722605228E-003;
2.425833333333334E+009;1.682779192924500E-001;-1.014093756675720E-001;3.080847905948758E-003;-3.788214409723878E-003;
2.426000000000000E+009;1.688110679388046E-001;-1.019451767206192E-001;2.988862805068493E-003;-3.680426627397537E-003;
2.426166666666667E+009;1.693747043609619E-001;-1.024294942617416E-001;3.070548642426729E-003;-3.613414941355586E-003;
2.426333333333334E+009;1.695339530706406E-001;-1.029760167002678E-001;2.895669545978308E-003;-3.874027403071523E-003;
2.426500000000000E+009;1.700133830308914E-001;-1.031993627548218E-001;2.668794943019748E-003;-3.903908422216773E-003;
2.426666666666667E+009;1.704386472702026E-001;-1.035895496606827E-001;2.653239760547876E-003;-3.843361744657159E-003;
2.426833333333334E+009;1.707710027694702E-001;-1.038083806633949E-001;2.643529092893004E-003;-3.976525273174048E-003;
2.427000000000000E+009;1.708428561687470E-001;-1.038725152611733E-001;2.558216219767928E-003;-3.960784524679184E-003;
2.427166666666667E+009;1.709578186273575E-001;-1.039968281984329E-001;2.297871047630906E-003;-4.092645831406117E-003;
2.427333333333334E+009;1.709372401237488E-001;-1.041845083236694E-001;2.304111374542117E-003;-4.092639777809382E-003;
2.427500000000000E+009;1.708025783300400E-001;-1.042459309101105E-001;2.093698596581817E-003;-4.269050899893045E-003;
2.427666666666667E+009;1.705415993928909E-001;-1.042425855994225E-001;1.985610695555806E-003;-4.240439273416996E-003;
2.427833333333334E+009;1.703062504529953E-001;-1.043321713805199E-001;1.826115418225527E-003;-4.294908139854670E-003;
