# Version 1.00
#
freq[Hz];re:Trc1_S11;im:Trc1_S11;re:Trc2_S21;im:Trc2_S21;
2.400000000000000E+009;1.552858650684357E-001;1.084354743361473E-001;-3.030226798728108E-003;-4.272057209163904E-003;
2.400166666666667E+009;1.549108624458313E-001;1.061145216226578E-001;-3.145326394587755E-003;-4.272587131708860E-003;
2.400333333333334E+009;1.549319028854370E-001;1.036547645926476E-001;-3.471896285191178E-003;-4.328381735831499E-003;
2.400500000000000E+009;1.548916250467300E-001;1.010598540306091E-001;-3.622758202254772E-003;-4.265169147402048E-003;
2.400666666666667E+009;1.548001170158386E-001;9.847705066204071E-002;-3.831093665212393E-003;-4.092225804924965E-003;
2.400833333333334E+009;1.546857506036758E-001;9.562359750270844E-002;-4.330187104642391E-003;-3.983264788985252E-003;
2.401000000000000E+009;1.549137681722641E-001;9.266745299100876E-002;-4.688909742981195E-003;-3.459620056673884E-003;
2.401166666666667E+009;1.547286361455917E-001;9.004887193441391E-002;-4.206725396215916E-003;-4.205128178000450E-003;
2.401333333333334E+009;1.552561968564987E-001;8.725043386220932E-002;-3.566384082660079E-003;-3.746900241822004E-003;
2.401500000000000E+009;1.553426831960678E-001;8.412612229585648E-002;-4.648470319807529E-003;-1.969198230654001E-003;
2.401666666666667E+009;1.558889150619507E-001;8.100892603397369E-002;-5.716592539101839E-003;-3.044974291697145E-003;
2.401833333333334E+009;1.565216481685638E-001;7.821255922317505E-002;-6.446953397244215E-003;-3.700036788359284E-003;
2.402000000000000E+009;1.571209132671356E-001;7.557897269725800E-002;-5.133392754942179E-003;-2.645470201969147E-003;
2.402166666666667E+009;1.579300314188004E-001;7.277619838714600E-002;-5.671688821166754E-003;-2.746756887063384E-003;
2.402333333333334E+009;1.589496731758118E-001;7.007784396409988E-002;-6.218489725142717E-003;-3.435912774875760E-003;
2.402500000000000E+009;1.601345390081406E-001;6.760831177234650E-002;-4.617380909621716E-003;-2.722456119954586E-003;
2.402666666666667E+009;1.611343473196030E-001;6.519088149070740E-002;-5.688169971108437E-003;-2.361770952120423E-003;
2.402833333333334E+009;1.624269485473633E-001;6.266003102064133E-002;-6.272532045841217E-003;-1.960587222129107E-003;
2.403000000000000E+009;1.638212352991104E-001;6.018268689513207E-002;-6.205828394740820E-003;-1.688458141870797E-003;
2.403166666666667E+009;1.656973510980606E-001;5.806112289428711E-002;-6.375608965754509E-003;-1.409956137649715E-003;
2.403333333333334E+009;1.672248542308807E-001;5.573481693863869E-002;-6.606072187423706E-003;-1.124521018937230E-003;
2.403500000000000E+009;1.688982844352722E-001;5.361977592110634E-002;-6.614200770854950E-003;-7.309516659006476E-004;
2.403666666666667E+009;1.707358807325363E-001;5.155601724982262E-002;-6.742673460394144E-003;-5.564724560827017E-004;
2.403833333333334E+009;1.724107265472412E-001;4.974179714918137E-002;-6.675503682345152E-003;-1.041548530338332E-004;
2.404000000000000E+009;1.738574951887131E-001;4.797642305493355E-002;-6.727647967636585E-003;3.128362586721778E-004;
2.404166666666667E+009;1.757277250289917E-001;4.642898216843605E-002;-6.788201164454222E-003;5.652774125337601E-004;
2.404333333333334E+009;1.775176674127579E-001;4.483256861567497E-002;-6.549786776304245E-003;1.004551886580885E-003;
2.404500000000000E+009;1.788988113403320E-001;4.335874691605568E-002;-6.481184624135494E-003;1.253305119462311E-003;
2.404666666666667E+009;1.808956861495972E-001;4.226323589682579E-002;-6.486343219876289E-003;1.491405768319964E-003;
2.404833333333334E+009;1.826807558536530E-001;4.112158343195915E-002;-6.161384750157595E-003;1.824019011110067E-003;
2.405000000000000E+009;1.840038448572159E-001;4.043340682983398E-002;-6.042237859219313E-003;2.136878669261932E-003;
2.405166666666667E+009;1.856749355792999E-001;3.975842148065567E-002;-6.017374806106091E-003;2.269018208608031E-003;
2.405333333333334E+009;1.870933324098587E-001;3.925155103206635E-002;-5.832473747432232E-003;2.471623010933399E-003;
2.405500000000000E+009;1.884042173624039E-001;3.875941783189774E-002;-5.628636572510004E-003;2.730465261265636E-003;
2.405666666666667E+009;1.898204982280731E-001;3.830480575561523E-002;-5.474640987813473E-003;2.858034102246165E-003;
2.405833333333334E+009;1.911307424306870E-001;3.817279636859894E-002;-5.252187140285969E-003;3.140329848974943E-003;
2.406000000000000E+009;1.921714544296265E-001;3.807518258690834E-002;-5.123666953295469E-003;3.229562425985932E-003;
2.406166666666667E+009;1.933226436376572E-001;3.794118762016296E-002;-5.040330812335014E-003;3.413018072023988E-003;
2.406333333333334E+009;1.943961679935455E-001;3.804784268140793E-002;-4.610107745975256E-003;3.648583777248859E-003;
2.406500000000000E+009;1.951058804988861E-001;3.818791732192040E-002;-4.576713778078556E-003;3.734464058652520E-003;
2.406666666666667E+009;1.957740187644959E-001;3.830613195896149E-002;-4.213861655443907E-003;3.768127178773284E-003;
2.406833333333334E+009;1.963767707347870E-001;3.833462297916412E-002;-4.239486996084452E-003;3.949616570025682E-003;
2.407000000000000E+009;1.966723799705505E-001;3.868325799703598E-002;-3.758015111088753E-003;4.083933774381876E-003;
2.407166666666667E+009;1.972131580114365E-001;3.861952573060989E-002;-3.614181885495782E-003;4.048332106322050E-003;
2.407333333333334E+009;1.971331834793091E-001;3.892166540026665E-002;-3.465192392468453E-003;3.940740134567022E-003;
2.407500000000000E+009;1.970117241144180E-001;3.908949345350266E-002;-3.090197453275323E-003;4.164340905845165E-003;
2.407666666666667E+009;1.971512883901596E-001;3.916064277291298E-002;-3.094596555456519E-003;4.071820992976427E-003;
2.407833333333334E+009;1.967000961303711E-001;3.921897336840630E-002;-2.859547734260559E-003;4.107524640858173E-003;
2.408000000000000E+009;1.967307627201080E-001;3.921021893620491E-002;-2.666161162778735E-003;3.996001090854406E-003;
2.408166666666667E+009;1.961539834737778E-001;3.895868733525276E-002;-2.567823277786374E-003;4.069952759891748E-003;
2.408333333333334E+009;1.956952065229416E-001;3.868175670504570E-002;-2.407553605735302E-003;3.980421461164951E-003;
2.408500000000000E+009;1.949102282524109E-001;3.840635344386101E-002;-2.273099729791284E-003;3.991238307207823E-003;
2.408666666666667E+009;1.943222582340241E-001;3.797401115298271E-002;-2.178663620725274E-003;4.103041719645262E-003;
2.408833333333334E+009;1.936462670564652E-001;3.736011311411858E-002;-2.193540567532182E-003;3.956130705773830E-003;
2.409000000000000E+009;1.927534639835358E-001;3.642868995666504E-002;-1.915399217978120E-003;4.006497561931610E-003;
2.409166666666667E+009;1.916625052690506E-001;3.548694401979446E-002;-1.908194855786860E-003;3.885749261826277E-003;
2.409333333333334E+009;1.907759159803391E-001;3.473702445626259E-002;-1.925117569044232E-003;3.901651827618480E-003;
2.409500000000000E+009;1.896223127841950E-001;3.357923775911331E-002;-1.844009850174189E-003;3.864030353724957E-003;
2.409666666666667E+009;1.885967999696732E-001;3.219253942370415E-002;-1.717639155685902E-003;3.839621087536216E-003;
2.409833333333334E+009;1.874216645956039E-001;3.072733618319035E-002;-1.714051235467196E-003;3.862250596284866E-003;
2.410000000000000E+009;1.863786280155182E-001;2.920918911695480E-002;-1.623586867935956E-003;3.796407720074058E-003;
2.410166666666667E+009;1.853528022766113E-001;2.740440890192986E-002;-1.582311233505607E-003;3.785853041335940E-003;
2.410333333333334E+009;1.844372153282166E-001;2.552563883364201E-002;-1.527628279291093E-003;3.868155181407929E-003;
2.410500000000000E+009;1.833485364913940E-001;2.373378537595272E-002;-1.550106564536691E-003;3.792324569076300E-003;
2.410666666666667E+009;1.823723167181015E-001;2.144814096391201E-002;-1.520213787443936E-003;3.851486137136817E-003;
2.410833333333334E+009;1.816743761301041E-001;1.937882229685783E-002;-1.391393248923123E-003;3.667166223749518E-003;
2.411000000000000E+009;1.807471811771393E-001;1.719381101429462E-002;-1.508676912635565E-003;3.890559775754809E-003;
2.411166666666667E+009;1.801944077014923E-001;1.494805142283440E-002;-1.460063271224499E-003;3.932392690330744E-003;
2.411333333333334E+009;1.796213239431381E-001;1.242549158632755E-002;-1.228312845341861E-003;3.782053710892797E-003;
2.411500000000000E+009;1.791732013225555E-001;9.988181293010712E-003;-1.272210851311684E-003;3.874186659231782E-003;
2.411666666666667E+009;1.789944469928742E-001;7.550534326583147E-003;-1.291298773139715E-003;3.966241143643856E-003;
2.411833333333334E+009;1.784667670726776E-001;5.082382820546627E-003;-1.352352206595242E-003;3.928304649889469E-003;
2.412000000000000E+009;1.787442415952683E-001;2.484151860699058E-003;-1.427225884981453E-003;4.045996349304915E-003;
2.412166666666667E+009;1.788089573383331E-001;3.055628621950746E-004;-1.317800371907651E-003;4.194959998130798E-003;
2.412333333333334E+009;1.789208352565765E-001;-2.369418507441878E-003;-1.206651329994202E-003;4.224146250635386E-003;
2.412500000000000E+009;1.794607490301132E-001;-4.849246237426996E-003;-1.140387612394989E-003;4.371019080281258E-003;
2.412666666666667E+009;1.800013780593872E-001;-7.439829409122467E-003;-1.023777876980603E-003;4.266900476068258E-003;
2.412833333333334E+009;1.807846873998642E-001;-9.885479696094990E-003;-1.067466801032424E-003;4.300530068576336E-003;
2.413000000000000E+009;1.814892590045929E-001;-1.232448313385248E-002;-9.897998534142971E-004;4.535800777375698E-003;
2.413166666666667E+009;1.821867823600769E-001;-1.477560587227345E-002;-9.754623170010746E-004;4.633299540728331E-003;
2.413333333333334E+009;1.834814548492432E-001;-1.725066080689430E-002;-9.781916160136461E-004;4.824574571102858E-003;
2.413500000000000E+009;1.842705756425858E-001;-1.935148425400257E-002;-7.867972599342465E-004;4.990905523300171E-003;
2.413666666666667E+009;1.854611337184906E-001;-2.169265784323216E-002;-7.216965896077454E-004;4.931188654154539E-003;
2.413833333333334E+009;1.866515874862671E-001;-2.369942516088486E-002;-5.329353734850884E-004;5.257435142993927E-003;
2.414000000000000E+009;1.877612918615341E-001;-2.584785036742687E-002;-3.616892499849200E-004;5.335574969649315E-003;
2.414166666666667E+009;1.892304122447968E-001;-2.768191881477833E-002;-2.525755844544619E-004;5.448912736028433E-003;
2.414333333333334E+009;1.903205662965775E-001;-2.979301288723946E-002;3.327572630951181E-005;5.592609290033579E-003;
2.414500000000000E+009;1.915561556816101E-001;-3.131419047713280E-002;2.781283401418477E-004;5.759928841143847E-003;
2.414666666666667E+009;1.928764432668686E-001;-3.280319273471832E-002;5.386320408433676E-004;5.809547379612923E-003;
2.414833333333334E+009;1.941841095685959E-001;-3.434838727116585E-002;7.493212469853461E-004;5.729087162762880E-003;
2.415000000000000E+009;1.954353153705597E-001;-3.561774641275406E-002;9.485515183769167E-004;5.758682265877724E-003;
2.415166666666667E+009;1.967797428369522E-001;-3.685041517019272E-002;1.232742099091411E-003;5.885319318622351E-003;
2.415333333333334E+009;1.979818940162659E-001;-3.790680691599846E-002;1.503032865002751E-003;5.855442024767399E-003;
2.415500000000000E+009;1.991304606199265E-001;-3.848686441779137E-002;1.556086703203619E-003;5.775519181042910E-003;
2.415666666666667E+009;2.003095895051956E-001;-3.945309296250343E-002;1.949258730746806E-003;5.835962481796742E-003;
2.415833333333334E+009;2.011898010969162E-001;-4.007075354456902E-002;2.270410768687725E-003;5.847424734383822E-003;
2.416000000000000E+009;2.021642625331879E-001;-4.059225693345070E-002;2.474369015544653E-003;5.814677570015192E-003;
2.416166666666667E+009;2.029369175434113E-001;-4.125633090734482E-002;2.694105263799429E-003;5.744903814047575E-003;
2.416333333333334E+009;2.035503834486008E-001;-4.148705303668976E-002;3.207248169928789E-003;5.811530165374279E-003;
2.416500000000000E+009;2.041369974613190E-001;-4.179729148745537E-002;3.342630807310343E-003;5.578457377851009E-003;
2.416666666666667E+009;2.044672518968582E-001;-4.213263839483261E-002;3.444320755079389E-003;5.491354502737522E-003;
2.416833333333334E+009;2.046570777893066E-001;-4.213926196098328E-002;3.836006624624133E-003;5.322626326233149E-003;
2.417000000000000E+009;2.047436684370041E-001;-4.221806675195694E-002;4.175601527094841E-003;5.274864379316568E-003;
2.417166666666667E+009;2.044757604598999E-001;-4.204095527529717E-002;4.394051618874073E-003;5.057307425886393E-003;
2.417333333333334E+009;2.042895704507828E-001;-4.180898889899254E-002;4.607767332345247E-003;4.796947352588177E-003;
2.417500000000000E+009;2.040655016899109E-001;-4.176879674196243E-002;4.887909628450871E-003;4.492276813834906E-003;
2.417666666666667E+009;2.035106867551804E-001;-4.150134697556496E-002;4.988232161849737E-003;4.277631174772978E-003;
2.417833333333334E+009;2.031694799661636E-001;-4.118382185697556E-002;5.196666810661554E-003;4.027418792247772E-003;
2.418000000000000E+009;2.024907022714615E-001;-4.088625311851502E-002;5.237118806689978E-003;3.823615144938231E-003;
2.418166666666667E+009;2.016240358352661E-001;-4.076785966753960E-002;5.329084116965532E-003;3.538903780281544E-003;
2.418333333333334E+009;2.007379680871964E-001;-4.050054773688316E-002;5.350460298359394E-003;3.373460611328483E-003;
2.418500000000000E+009;1.997552067041397E-001;-4.049201682209969E-002;5.465881898999214E-003;3.097544191405177E-003;
2.418666666666667E+009;1.987328678369522E-001;-4.031399264931679E-002;5.522752646356821E-003;2.921493956819177E-003;
2.418833333333334E+009;1.973274797201157E-001;-4.045324027538300E-002;5.403953138738871E-003;2.848439849913120E-003;
2.419000000000000E+009;1.960718333721161E-001;-4.055640473961830E-002;5.623679608106613E-003;2.581376349553466E-003;
2.419166666666667E+009;1.947842091321945E-001;-4.088705405592918E-002;5.739232990890741E-003;2.515512518584728E-003;
2.419333333333334E+009;1.933764368295670E-001;-4.130423814058304E-002;5.716323852539063E-003;2.272980986163020E-003;
2.419500000000000E+009;1.916802376508713E-001;-4.163442552089691E-002;5.584569182246923E-003;2.097872551530600E-003;
2.419666666666667E+009;1.900390088558197E-001;-4.239885136485100E-002;5.725068505853415E-003;1.915174303576350E-003;
2.419833333333334E+009;1.884328871965408E-001;-4.303013533353806E-002;5.873014219105244E-003;1.720666652545333E-003;
2.420000000000000E+009;1.868047267198563E-001;-4.381497204303742E-002;5.817929282784462E-003;1.513252500444651E-003;
2.420166666666667E+009;1.851346194744110E-001;-4.488758742809296E-002;5.956915672868490E-003;1.406713970936835E-003;
2.420333333333334E+009;1.834338605403900E-001;-4.588011652231216E-002;5.910796578973532E-003;1.343098585493863E-003;
2.420500000000000E+009;1.816956549882889E-001;-4.726466909050942E-002;6.059523206204176E-003;1.045351382344961E-003;
2.420666666666667E+009;1.800235509872437E-001;-4.826103895902634E-002;6.336192600429058E-003;9.066443890333176E-004;
2.420833333333334E+009;1.782004982233048E-001;-5.001981183886528E-002;6.089716218411923E-003;7.493788725696504E-004;
2.421000000000000E+009;1.768468320369721E-001;-5.148651450872421E-002;6.224256940186024E-003;4.916666075587273E-004;
2.421166666666667E+009;1.753171086311340E-001;-5.334356799721718E-002;6.216941867023706E-003;1.269592758035287E-004;
2.421333333333334E+009;1.733687818050385E-001;-5.467878282070160E-002;6.247636862099171E-003;8.624162728665397E-005;
2.421500000000000E+009;1.720730662345886E-001;-5.674017965793610E-002;6.279554683715105E-003;-2.552794176153839E-004;
2.421666666666667E+009;1.708590239286423E-001;-5.873870849609375E-002;6.177380681037903E-003;-3.867262275889516E-004;
2.421833333333334E+009;1.694785505533218E-001;-6.054974719882011E-002;6.173622328788042E-003;-6.533269770443440E-004;
2.422000000000000E+009;1.685493141412735E-001;-6.259099394083023E-002;6.106301676481962E-003;-8.371993899345398E-004;
2.422166666666667E+009;1.676373332738876E-001;-6.486318260431290E-002;6.093032658100128E-003;-1.092617399990559E-003;
2.422333333333334E+009;1.664955019950867E-001;-6.695304065942764E-002;5.811141803860664E-003;-1.410566153936088E-003;
2.422500000000000E+009;1.658455133438110E-001;-6.905305385589600E-002;5.943212192505598E-003;-1.571632223203778E-003;
2.422666666666667E+009;1.649577170610428E-001;-7.116660475730896E-002;5.861287470906973E-003;-1.935803331434727E-003;
2.422833333333334E+009;1.645021587610245E-001;-7.331062108278275E-002;5.568628665059805E-003;-2.086033578962088E-003;
2.423000000000000E+009;1.639177799224854E-001;-7.567984610795975E-002;5.395855754613876E-003;-2.231577411293984E-003;
2.423166666666667E+009;1.635841876268387E-001;-7.752844691276550E-002;5.297843832522631E-003;-2.321277512237430E-003;
2.423333333333334E+009;1.633522063493729E-001;-7.962701469659805E-002;5.272471811622381E-003;-2.457732101902366E-003;
2.423500000000000E+009;1.634119600057602E-001;-8.156327158212662E-002;5.098699126392603E-003;-2.810173202306032E-003;
2.423666666666667E+009;1.634635776281357E-001;-8.361200988292694E-002;4.921369254589081E-003;-2.716627903282642E-003;
2.423833333333334E+009;1.634328514337540E-001;-8.550550043582916E-002;4.742298740893602E-003;-2.981486963108182E-003;
2.424000000000000E+009;1.636490523815155E-001;-8.741708099842072E-002;4.478772170841694E-003;-2.991319866850972E-003;
2.424166666666667E+009;1.637567430734634E-001;-8.892127126455307E-002;4.456293303519487E-003;-3.138750558719039E-003;
2.424333333333334E+009;1.640992015600205E-001;-9.070295095443726E-002;4.367533605545759E-003;-3.148995805531740E-003;
2.424500000000000E+009;1.644753813743591E-001;-9.252308309078217E-002;4.079481586813927E-003;-3.381930990144610E-003;
2.424666666666667E+009;1.647290438413620E-001;-9.402024000883102E-002;4.026520997285843E-003;-3.424692666158080E-003;
2.424833333333334E+009;1.653855592012405E-001;-9.531246870756149E-002;3.969374578446150E-003;-3.492271061986685E-003;
2.425000000000000E+009;1.660540103912354E-001;-9.672100841999054E-002;3.820767858996987E-003;-3.506348934024572E-003;
2.425166666666667E+009;1.662685275077820E-001;-9.782069921493530E-002;3.705969545990229E-003;-3.569931723177433E-003;
2.425333333333334E+009;1.667293906211853E-001;-9.884782135486603E-002;3.283398924395442E-003;-3.776395460590720E-003;
2.425500000000000E+009;1.672465950250626E-001;-9.992871433496475E-002;3.334473120048642E-003;-3.784429514780641E-003;
2.425666666666667E+009;1.678910553455353E-001;-1.005316898226738E-001;3.197487443685532E-003;-3.685925621539354E-003;
2.425833333333334E+009;1.682397425174713E-001;-1.014288067817688E-001;3.002581652253866E-003;-3.854477778077126E-003;
2.426000000000000E+009;1.687577068805695E-001;-1.018952503800392E-001;2.954590832814574E-003;-3.936366643756628E-003;
2.426166666666667E+009;1.693206727504730E-001;-1.024494692683220E-001;2.888355869799852E-003;-3.877938026562333E-003;
2.426333333333334E+009;1.695230156183243E-001;-1.029823571443558E-001;2.822852460667491E-003;-3.983679227530956E-003;
2.426500000000000E+009;1.700446903705597E-001;-1.031829267740250E-001;2.749330131337047E-003;-3.983159549534321E-003;
2.426666666666667E+009;1.703633815050125E-001;-1.035035252571106E-001;2.497489564120770E-003;-3.929479513317347E-003;
2.426833333333334E+009;1.707514971494675E-001;-1.038614660501480E-001;2.420783042907715E-003;-4.201802425086498E-003;
2.427000000000000E+009;1.707777231931686E-001;-1.039831638336182E-001;2.264911076053977E-003;-4.176820628345013E-003;
2.427166666666667E+009;1.708400845527649E-001;-1.040187031030655E-001;2.245333045721054E-003;-4.135481081902981E-003;
2.427333333333334E+009;1.709781885147095E-001;-1.042102947831154E-001;2.108494285494089E-003;-4.299441818147898E-003;
2.427500000000000E+009;1.708058714866638E-001;-1.043160185217857E-001;1.879971823655069E-003;-4.419490694999695E-003;
2.427666666666667E+009;1.705356985330582E-001;-1.043368428945541E-001;1.945113996043801E-003;-4.408224485814571E-003;
2.427833333333334E+009;1.701582223176956E-001;-1.043719053268433E-001;1.719490159302950E-003;-4.381949547678232E-003;
