# Version 1.00
#
freq[Hz];re:Trc1_S11;im:Trc1_S11;re:Trc2_S21;im:Trc2_S21;
2.400000000000000E+009;1.552868336439133E-001;1.084994375705719E-001;-3.135843202471733E-003;-4.289339762181044E-003;
2.400166666666667E+009;1.550951898097992E-001;1.059636026620865E-001;-3.320636460557580E-003;-4.418888129293919E-003;
2.400333333333334E+009;1.549708396196365E-001;1.037656813859940E-001;-3.539770841598511E-003;-4.269067198038101E-003;
2.400500000000000E+009;1.548990905284882E-001;1.010335609316826E-001;-3.747096052393317E-003;-4.439737182110548E-003;
2.400666666666667E+009;1.548610627651215E-001;9.842424094676971E-002;-3.897841786965728E-003;-4.254859872162342E-003;
2.400833333333334E+009;1.548447310924530E-001;9.541768580675125E-002;-4.278937820345163E-003;-3.982373978942633E-003;
2.401000000000000E+009;1.547841280698776E-001;9.266498684883118E-002;-4.398214630782604E-003;-4.083069507032633E-003;
2.401166666666667E+009;1.549087911844254E-001;8.981709182262421E-002;-4.714251495897770E-003;-3.711147001013160E-003;
2.401333333333334E+009;1.551396101713181E-001;8.702041953802109E-002;-4.793052095919848E-003;-3.445346839725971E-003;
2.401500000000000E+009;1.552869230508804E-001;8.391188830137253E-002;-5.021107383072376E-003;-3.432681551203132E-003;
2.401666666666667E+009;1.557333618402481E-001;8.114490658044815E-002;-5.264915991574526E-003;-3.330207662656903E-003;
2.401833333333334E+009;1.562227159738541E-001;7.828663289546967E-002;-5.258034449070692E-003;-3.162063192576170E-003;
2.402000000000000E+009;1.570543646812439E-001;7.553557306528091E-002;-5.501779261976481E-003;-2.845199313014746E-003;
2.402166666666667E+009;1.576454788446426E-001;7.296005636453629E-002;-5.647122394293547E-003;-2.741193631663919E-003;
2.402333333333334E+009;1.587679237127304E-001;7.000887393951416E-002;-5.648639053106308E-003;-2.557737287133932E-003;
2.402500000000000E+009;1.597376614809036E-001;6.742037087678909E-002;-5.879307631403208E-003;-2.321234671398997E-003;
2.402666666666667E+009;1.609327197074890E-001;6.518494337797165E-002;-5.901661235839129E-003;-2.030717441812158E-003;
2.402833333333334E+009;1.623269617557526E-001;6.259639561176300E-002;-6.050318013876677E-003;-1.819597790017724E-003;
2.403000000000000E+009;1.635790914297104E-001;6.010567396879196E-002;-6.245478056371212E-003;-1.618976471945643E-003;
2.403166666666667E+009;1.654671281576157E-001;5.804711207747459E-002;-6.327487993985415E-003;-1.250533736310899E-003;
2.403333333333334E+009;1.668854057788849E-001;5.570327118039131E-002;-6.470825523138046E-003;-1.237191259860992E-003;
2.403500000000000E+009;1.687314361333847E-001;5.364382639527321E-002;-6.710202898830175E-003;-8.485895232297480E-004;
2.403666666666667E+009;1.704472750425339E-001;5.161576345562935E-002;-6.665019318461418E-003;-4.589311138261110E-004;
2.403833333333334E+009;1.722216308116913E-001;4.958538711071014E-002;-6.671187933534384E-003;-1.005479352897964E-004;
2.404000000000000E+009;1.737757325172424E-001;4.800515621900559E-002;-6.664692889899015E-003;2.425452403258532E-004;
2.404166666666667E+009;1.756918132305145E-001;4.635369032621384E-002;-6.556934677064419E-003;5.454996135085821E-004;
2.404333333333334E+009;1.773422956466675E-001;4.495025053620338E-002;-6.738406606018543E-003;8.940901607275009E-004;
2.404500000000000E+009;1.791419535875320E-001;4.349095001816750E-002;-6.400016136467457E-003;1.229580724611878E-003;
2.404666666666667E+009;1.808038502931595E-001;4.247963801026344E-002;-6.427362561225891E-003;1.540083438158035E-003;
2.404833333333334E+009;1.823652535676956E-001;4.113468900322914E-002;-6.164020393043757E-003;1.815073657780886E-003;
2.405000000000000E+009;1.837877631187439E-001;4.048989340662956E-002;-6.093271076679230E-003;1.954613486304879E-003;
2.405166666666667E+009;1.854646801948547E-001;3.966720774769783E-002;-6.005376577377319E-003;2.311798511072993E-003;
2.405333333333334E+009;1.868497133255005E-001;3.928794339299202E-002;-5.786572583019733E-003;2.528927987441421E-003;
2.405500000000000E+009;1.883602589368820E-001;3.879007324576378E-002;-5.648204125463963E-003;2.750705461949110E-003;
2.405666666666667E+009;1.896945685148239E-001;3.844541311264038E-002;-5.378836765885353E-003;2.943489467725158E-003;
2.405833333333334E+009;1.909745186567307E-001;3.818736970424652E-002;-5.255051422864199E-003;3.138289786875248E-003;
2.406000000000000E+009;1.921976655721664E-001;3.824041411280632E-002;-5.138594657182694E-003;3.168955678120256E-003;
2.406166666666667E+009;1.931695491075516E-001;3.795157372951508E-002;-4.881367553025484E-003;3.425081726163626E-003;
2.406333333333334E+009;1.941788047552109E-001;3.818377479910851E-002;-4.675184842199087E-003;3.732932964339852E-003;
2.406500000000000E+009;1.949225813150406E-001;3.818931803107262E-002;-4.626754205673933E-003;3.921019844710827E-003;
2.406666666666667E+009;1.956373304128647E-001;3.828341141343117E-002;-4.370569717139006E-003;3.884672885760665E-003;
2.406833333333334E+009;1.962928473949432E-001;3.829450160264969E-002;-3.946996293962002E-003;3.974523860961199E-003;
2.407000000000000E+009;1.965444087982178E-001;3.884018585085869E-002;-3.903006901964545E-003;4.210746381431818E-003;
2.407166666666667E+009;1.970382332801819E-001;3.875936195254326E-002;-3.646640339866281E-003;4.106265958398581E-003;
2.407333333333334E+009;1.969719678163528E-001;3.899143263697624E-002;-3.446401329711080E-003;4.169948864728212E-003;
2.407500000000000E+009;1.969446539878845E-001;3.921883180737495E-002;-3.259904915466905E-003;4.202508367598057E-003;
2.407666666666667E+009;1.970937401056290E-001;3.933122009038925E-002;-3.030271269381046E-003;4.120802041143179E-003;
2.407833333333334E+009;1.966190934181213E-001;3.934117406606674E-002;-2.948390319943428E-003;4.099229816347361E-003;
2.408000000000000E+009;1.965254992246628E-001;3.925876691937447E-002;-2.836987143382430E-003;4.048652481287718E-003;
2.408166666666667E+009;1.960180103778839E-001;3.906886652112007E-002;-2.590272575616837E-003;4.050864372402430E-003;
2.408333333333334E+009;1.955648511648178E-001;3.870913013815880E-002;-2.457202179357410E-003;4.078016150742769E-003;
2.408500000000000E+009;1.949197649955750E-001;3.852750733494759E-002;-2.440402051433921E-003;3.830881323665381E-003;
2.408666666666667E+009;1.942601799964905E-001;3.810444846749306E-002;-2.194924745708704E-003;3.956463653594255E-003;
2.408833333333334E+009;1.935738772153854E-001;3.753632307052612E-002;-2.116053132340312E-003;3.975987900048494E-003;
2.409000000000000E+009;1.926656663417816E-001;3.676236793398857E-002;-2.041066996753216E-003;3.978721331804991E-003;
2.409166666666667E+009;1.916483342647553E-001;3.577687963843346E-002;-1.978565705940127E-003;4.048659000545740E-003;
2.409333333333334E+009;1.907626390457153E-001;3.489020094275475E-002;-1.943097449839115E-003;3.929216880351305E-003;
2.409500000000000E+009;1.896934509277344E-001;3.360289707779884E-002;-1.766308210790157E-003;3.973020240664482E-003;
2.409666666666667E+009;1.884897798299789E-001;3.226884081959724E-002;-1.661827089264989E-003;3.793085925281048E-003;
2.409833333333334E+009;1.874806731939316E-001;3.088972531259060E-002;-1.736768055707216E-003;3.764782566577196E-003;
2.410000000000000E+009;1.865204423666000E-001;2.936196327209473E-002;-1.568538369610906E-003;3.804827108979225E-003;
2.410166666666667E+009;1.852337121963501E-001;2.766126208007336E-002;-1.653264393098652E-003;3.835258772596717E-003;
2.410333333333334E+009;1.844632327556610E-001;2.594464831054211E-002;-1.609258702956140E-003;3.835874143987894E-003;
2.410500000000000E+009;1.834638118743897E-001;2.383794635534287E-002;-1.557273557409644E-003;3.757647937163711E-003;
2.410666666666667E+009;1.824035793542862E-001;2.175586856901646E-002;-1.411139266565442E-003;3.746141446754336E-003;
2.410833333333334E+009;1.818209141492844E-001;1.959774456918240E-002;-1.607090001925826E-003;3.721176646649838E-003;
2.411000000000000E+009;1.810377687215805E-001;1.740445010364056E-002;-1.494107535108924E-003;3.717538900673389E-003;
2.411166666666667E+009;1.801672428846359E-001;1.513624656945467E-002;-1.382675953209400E-003;3.818333614617586E-003;
2.411333333333334E+009;1.797317564487457E-001;1.264357659965754E-002;-1.328661339357495E-003;3.928031772375107E-003;
2.411500000000000E+009;1.794109046459198E-001;1.033245865255594E-002;-1.338108209893107E-003;4.015540704131126E-003;
2.411666666666667E+009;1.789552718400955E-001;7.972134277224541E-003;-1.274014241062105E-003;4.013862460851669E-003;
2.411833333333334E+009;1.786552965641022E-001;5.397924222052097E-003;-1.250302302651107E-003;4.011817276477814E-003;
2.412000000000000E+009;1.787147670984268E-001;2.664195373654366E-003;-1.301729818806052E-003;4.009752534329891E-003;
2.412166666666667E+009;1.789328008890152E-001;3.935000568162650E-004;-1.076276297681034E-003;4.152011591941118E-003;
2.412333333333334E+009;1.792033910751343E-001;-2.387177199125290E-003;-1.227883505634964E-003;4.036279395222664E-003;
2.412500000000000E+009;1.796777099370956E-001;-4.658828023821116E-003;-1.261866651475430E-003;4.218467045575380E-003;
2.412666666666667E+009;1.800111532211304E-001;-7.264269515872002E-003;-1.156979473307729E-003;4.230779130011797E-003;
2.412833333333334E+009;1.809050440788269E-001;-9.680677205324173E-003;-1.177048194222152E-003;4.400286357849836E-003;
2.413000000000000E+009;1.816198676824570E-001;-1.229228079319000E-002;-1.090596197172999E-003;4.616208840161562E-003;
2.413166666666667E+009;1.823468059301376E-001;-1.451432425528765E-002;-9.382727439515293E-004;4.625847097486258E-003;
2.413333333333334E+009;1.834488660097122E-001;-1.702771149575710E-002;-9.895768016576767E-004;4.856391809880734E-003;
2.413500000000000E+009;1.843470335006714E-001;-1.941826380789280E-002;-8.037733496166766E-004;4.867351148277521E-003;
2.413666666666667E+009;1.856934130191803E-001;-2.168335393071175E-002;-8.523925207555294E-004;5.002815276384354E-003;
2.413833333333334E+009;1.867794841527939E-001;-2.376644499599934E-002;-5.362657248042524E-004;5.187227390706539E-003;
2.414000000000000E+009;1.880931705236435E-001;-2.553607523441315E-002;-3.551541594788432E-004;5.347891710698605E-003;
2.414166666666667E+009;1.893994063138962E-001;-2.755975164473057E-002;-3.102336486335844E-004;5.486142355948687E-003;
2.414333333333334E+009;1.903772503137589E-001;-2.981090731918812E-002;-1.024225275614299E-004;5.551743321120739E-003;
2.414500000000000E+009;1.918450295925140E-001;-3.125591948628426E-002;3.612760920077562E-004;5.673374515026808E-003;
2.414666666666667E+009;1.929690539836884E-001;-3.277871385216713E-002;4.021959903184325E-004;5.906398873776197E-003;
2.414833333333334E+009;1.943086534738541E-001;-3.415755555033684E-002;8.100818376988173E-004;5.842512007802725E-003;
2.415000000000000E+009;1.954577714204788E-001;-3.563901782035828E-002;8.597780833952129E-004;5.812422372400761E-003;
2.415166666666667E+009;1.967743188142777E-001;-3.662113472819328E-002;1.178207108750939E-003;5.726163275539875E-003;
2.415333333333334E+009;1.979869604110718E-001;-3.774173930287361E-002;1.483611064031720E-003;5.753413308411837E-003;
2.415500000000000E+009;1.992677748203278E-001;-3.839524462819099E-002;1.671156962402165E-003;5.859427154064179E-003;
2.415666666666667E+009;2.004593461751938E-001;-3.932452574372292E-002;2.095802221447229E-003;5.872629582881928E-003;
2.415833333333334E+009;2.013559341430664E-001;-4.002805054187775E-002;2.140002092346549E-003;5.838330835103989E-003;
2.416000000000000E+009;2.021132558584213E-001;-4.058723524212837E-002;2.483890624716878E-003;5.881758872419596E-003;
2.416166666666667E+009;2.029711902141571E-001;-4.121395573019981E-002;2.791433827951551E-003;5.744802765548229E-003;
2.416333333333334E+009;2.036970257759094E-001;-4.143216088414192E-002;3.009111620485783E-003;5.721811205148697E-003;
2.416500000000000E+009;2.042338848114014E-001;-4.172294959425926E-002;3.422512905672193E-003;5.600007250905037E-003;
2.416666666666667E+009;2.045413106679916E-001;-4.212477058172226E-002;3.567945444956422E-003;5.506559275090694E-003;
2.416833333333334E+009;2.046781331300736E-001;-4.210518673062325E-002;3.856951836496592E-003;5.276375450193882E-003;
2.417000000000000E+009;2.048345208168030E-001;-4.222955927252770E-002;4.315787926316261E-003;5.277236457914114E-003;
2.417166666666667E+009;2.047621756792069E-001;-4.206490144133568E-002;4.389474634081125E-003;4.886558279395104E-003;
2.417333333333334E+009;2.044644057750702E-001;-4.171462729573250E-002;4.617555066943169E-003;4.773424472659826E-003;
2.417500000000000E+009;2.042312473058701E-001;-4.172575101256371E-002;4.788467660546303E-003;4.554602783173323E-003;
2.417666666666667E+009;2.036458104848862E-001;-4.150217399001122E-002;4.955232143402100E-003;4.315649159252644E-003;
2.417833333333334E+009;2.031855285167694E-001;-4.131606593728066E-002;4.946374800056219E-003;3.936849068850279E-003;
2.418000000000000E+009;2.025266885757446E-001;-4.081879183650017E-002;5.047524813562632E-003;3.726712660863996E-003;
2.418166666666667E+009;2.017436623573303E-001;-4.075111448764801E-002;5.296930670738220E-003;3.623476019129157E-003;
2.418333333333334E+009;2.008533179759979E-001;-4.049858823418617E-002;5.448214709758759E-003;3.369127167388797E-003;
2.418500000000000E+009;1.997592002153397E-001;-4.049020260572434E-002;5.515467841178179E-003;2.963958075270057E-003;
2.418666666666667E+009;1.989058703184128E-001;-4.026484116911888E-002;5.496660247445107E-003;2.888369606807828E-003;
2.418833333333334E+009;1.975684165954590E-001;-4.043060913681984E-002;5.533322226256132E-003;2.878158353269100E-003;
2.419000000000000E+009;1.963055431842804E-001;-4.056288301944733E-002;5.639928858727217E-003;2.576605416834354E-003;
2.419166666666667E+009;1.949001103639603E-001;-4.094892740249634E-002;5.691763944923878E-003;2.378928475081921E-003;
2.419333333333334E+009;1.935626268386841E-001;-4.135757312178612E-002;5.622406490147114E-003;2.139661228284240E-003;
2.419500000000000E+009;1.918686777353287E-001;-4.151905700564385E-002;5.778839811682701E-003;2.111454727128148E-003;
2.419666666666667E+009;1.902264952659607E-001;-4.245078191161156E-002;5.745859351009131E-003;1.937091117724776E-003;
2.419833333333334E+009;1.886069923639298E-001;-4.309362545609474E-002;5.842956248670816E-003;1.855527982115746E-003;
2.420000000000000E+009;1.868863254785538E-001;-4.390490800142288E-002;5.880888085812330E-003;1.650149119086564E-003;
2.420166666666667E+009;1.853646785020828E-001;-4.485578462481499E-002;5.954254884272814E-003;1.332128304056823E-003;
2.420333333333334E+009;1.835233122110367E-001;-4.601977020502091E-002;6.022979505360127E-003;1.370132202282548E-003;
2.420500000000000E+009;1.817928552627564E-001;-4.729527607560158E-002;5.961669143289328E-003;1.067742588929832E-003;
2.420666666666667E+009;1.801362335681915E-001;-4.845560714602470E-002;6.094865500926971E-003;8.151899673976004E-004;
2.420833333333334E+009;1.784143894910812E-001;-5.007529258728027E-002;6.291060242801905E-003;6.240769871510565E-004;
2.421000000000000E+009;1.767498850822449E-001;-5.147313699126244E-002;6.191897671669722E-003;6.029326468706131E-004;
2.421166666666667E+009;1.754326671361923E-001;-5.345157533884049E-002;6.195563357323408E-003;2.440763055346906E-004;
2.421333333333334E+009;1.736075729131699E-001;-5.500853434205055E-002;6.248509511351585E-003;-1.300313742831349E-004;
2.421500000000000E+009;1.721742600202560E-001;-5.674171447753906E-002;6.197880022227764E-003;-2.338595950277522E-004;
2.421666666666667E+009;1.709982007741928E-001;-5.876820534467697E-002;6.286313291639090E-003;-4.785665078088641E-004;
2.421833333333334E+009;1.698486059904099E-001;-6.063581258058548E-002;6.203913595527411E-003;-7.148393779061735E-004;
2.422000000000000E+009;1.685409098863602E-001;-6.273908913135529E-002;6.113974377512932E-003;-9.757612133398652E-004;
2.422166666666667E+009;1.678048372268677E-001;-6.495065242052078E-002;6.044123321771622E-003;-1.260898192413151E-003;
2.422333333333334E+009;1.667286306619644E-001;-6.704103201627731E-002;5.946253426373005E-003;-1.393886283040047E-003;
2.422500000000000E+009;1.658539772033691E-001;-6.902147084474564E-002;5.896086338907480E-003;-1.749732764437795E-003;
2.422666666666667E+009;1.650602966547012E-001;-7.116170227527618E-002;5.743440706282854E-003;-1.934134634211659E-003;
2.422833333333334E+009;1.646309494972229E-001;-7.322652637958527E-002;5.737720057368279E-003;-2.071982249617577E-003;
2.423000000000000E+009;1.639517992734909E-001;-7.555318623781204E-002;5.473758559674025E-003;-2.118768403306603E-003;
2.423166666666667E+009;1.636399775743485E-001;-7.754513621330261E-002;5.323771387338638E-003;-2.395546762272716E-003;
2.423333333333334E+009;1.635943353176117E-001;-7.970264554023743E-002;5.188103765249252E-003;-2.546848729252815E-003;
2.423500000000000E+009;1.635293364524841E-001;-8.163660764694214E-002;5.104089155793190E-003;-2.660527592524886E-003;
2.423666666666667E+009;1.636163890361786E-001;-8.368448168039322E-002;4.946996457874775E-003;-2.716186922043562E-003;
2.423833333333334E+009;1.634150296449661E-001;-8.563597500324249E-002;4.832881502807140E-003;-2.771793166175485E-003;
2.424000000000000E+009;1.637018024921417E-001;-8.750699460506439E-002;4.530313424766064E-003;-3.133307211101055E-003;
2.424166666666667E+009;1.638596951961517E-001;-8.923631161451340E-002;4.318697843700647E-003;-3.219736739993095E-003;
2.424333333333334E+009;1.641685515642166E-001;-9.077393263578415E-002;4.306442569941282E-003;-3.298213705420494E-003;
2.424500000000000E+009;1.646753996610642E-001;-9.275815635919571E-002;4.114390350878239E-003;-3.347670426592231E-003;
2.424666666666667E+009;1.647811979055405E-001;-9.422585368156433E-002;4.125549923628569E-003;-3.429870121181011E-003;
2.424833333333334E+009;1.655093282461166E-001;-9.545984119176865E-002;4.024885594844818E-003;-3.596163587644696E-003;
2.425000000000000E+009;1.660704463720322E-001;-9.673933684825897E-002;3.652183338999748E-003;-3.743383102118969E-003;
2.425166666666667E+009;1.664104610681534E-001;-9.791639447212219E-002;3.618231276050210E-003;-3.550672437995672E-003;
2.425333333333334E+009;1.669185906648636E-001;-9.907358139753342E-002;3.567923558875918E-003;-3.690787823870778E-003;
2.425500000000000E+009;1.674600839614868E-001;-1.000424027442932E-001;3.302143886685371E-003;-3.754890756681562E-003;
2.425666666666667E+009;1.679643392562866E-001;-1.007571443915367E-001;3.185461508110166E-003;-3.734178375452757E-003;
2.425833333333334E+009;1.684667319059372E-001;-1.016444638371468E-001;3.097260836511850E-003;-3.865455742925406E-003;
2.426000000000000E+009;1.688888370990753E-001;-1.021918803453445E-001;3.009878098964691E-003;-3.863261546939611E-003;
2.426166666666667E+009;1.693232804536820E-001;-1.026557981967926E-001;2.832189435139298E-003;-3.950820770114660E-003;
2.426333333333334E+009;1.694992184638977E-001;-1.031171008944511E-001;2.822518115863204E-003;-3.904361743479967E-003;
2.426500000000000E+009;1.701342910528183E-001;-1.033992245793343E-001;2.672220114618540E-003;-4.028311464935541E-003;
2.426666666666667E+009;1.704267859458923E-001;-1.036778092384338E-001;2.641172381117940E-003;-4.147557541728020E-003;
2.426833333333334E+009;1.707565635442734E-001;-1.040323302149773E-001;2.489236649125814E-003;-4.233281128108501E-003;
2.427000000000000E+009;1.708891242742539E-001;-1.041274815797806E-001;2.391555812209845E-003;-4.152666777372360E-003;
2.427166666666667E+009;1.709712743759155E-001;-1.040950194001198E-001;2.353407442569733E-003;-4.319527186453342E-003;
2.427333333333334E+009;1.709552258253098E-001;-1.044657900929451E-001;2.216375665739179E-003;-4.406128078699112E-003;
2.427500000000000E+009;1.707908511161804E-001;-1.044793054461479E-001;2.073065610602498E-003;-4.248098470270634E-003;
2.427666666666667E+009;1.705528050661087E-001;-1.044446527957916E-001;1.792206778191030E-003;-4.391320049762726E-003;
2.427833333333334E+009;1.703033447265625E-001;-1.045621484518051E-001;1.735200174152851E-003;-4.403781611472368E-003;
