# Version 1.00
#
freq[Hz];re:Trc1_S11;im:Trc1_S11;re:Trc2_S21;im:Trc2_S21;
2.400000000000000E+009;1.557297259569168E-001;1.084036752581596E-001;-2.765010809525847E-003;-3.950279206037521E-003;
2.400166666666667E+009;1.553475707769394E-001;1.059180647134781E-001;-3.558699972927570E-003;-4.288537427783012E-003;
2.400333333333334E+009;1.554944366216660E-001;1.035688593983650E-001;-3.293080488219857E-003;-5.595809780061245E-003;
2.400500000000000E+009;1.552502810955048E-001;1.009765714406967E-001;-3.753032302483916E-003;-4.262566566467285E-003;
2.400666666666667E+009;1.551133096218109E-001;9.830801188945770E-002;-4.495804198086262E-003;-3.759605577215552E-003;
2.400833333333334E+009;1.549148261547089E-001;9.571387618780136E-002;-3.821330610662699E-003;-2.947618486359716E-003;
2.401000000000000E+009;1.552476435899735E-001;9.288949519395828E-002;-4.511625040322542E-003;-4.265419673174620E-003;
2.401166666666667E+009;1.551751494407654E-001;8.972847461700440E-002;-4.749346524477005E-003;-3.797646379098296E-003;
2.401333333333334E+009;1.554112434387207E-001;8.706848323345184E-002;-4.846327938139439E-003;-3.675733925774694E-003;
2.401500000000000E+009;1.557936668395996E-001;8.392921090126038E-002;-4.950682632625103E-003;-3.431360004469752E-003;
2.401666666666667E+009;1.561465412378311E-001;8.112620562314987E-002;-5.274116061627865E-003;-3.084160154685378E-003;
2.401833333333334E+009;1.565793603658676E-001;7.829283177852631E-002;-5.600654054433107E-003;-2.948854584246874E-003;
2.402000000000000E+009;1.573325842618942E-001;7.542257010936737E-002;-5.573694594204426E-003;-2.875095000490546E-003;
2.402166666666667E+009;1.580372899770737E-001;7.287928462028503E-002;-5.785230081528425E-003;-2.678983379155397E-003;
2.402333333333334E+009;1.591529399156570E-001;7.009931653738022E-002;-5.877560004591942E-003;-2.453763270750642E-003;
2.402500000000000E+009;1.602833718061447E-001;6.743618845939636E-002;-6.035549566149712E-003;-2.171531086787581E-003;
2.402666666666667E+009;1.613364070653915E-001;6.493912637233734E-002;-6.169190164655447E-003;-1.963992603123188E-003;
2.402833333333334E+009;1.626705974340439E-001;6.250648200511932E-002;-6.204523611813784E-003;-1.796570606529713E-003;
2.403000000000000E+009;1.641219109296799E-001;6.009073927998543E-002;-6.579609122127295E-003;-1.594378729350865E-003;
2.403166666666667E+009;1.656841039657593E-001;5.789463967084885E-002;-6.373932119458914E-003;-1.269887783564627E-003;
2.403333333333334E+009;1.673987209796906E-001;5.536666139960289E-002;-6.557165645062923E-003;-9.851267095655203E-004;
2.403500000000000E+009;1.689551919698715E-001;5.333273857831955E-002;-6.659472826868296E-003;-4.812494735233486E-004;
2.403666666666667E+009;1.708344370126724E-001;5.155091732740402E-002;-6.600993685424328E-003;-4.389097739476711E-004;
2.403833333333334E+009;1.725667715072632E-001;4.965129867196083E-002;-6.730861961841583E-003;-1.532243368274067E-005;
2.404000000000000E+009;1.740555018186569E-001;4.773683845996857E-002;-6.627529393881559E-003;2.807717246469110E-004;
2.404166666666667E+009;1.759647428989410E-001;4.621150717139244E-002;-6.686905398964882E-003;5.049885367043316E-004;
2.404333333333334E+009;1.776200085878372E-001;4.465280845761299E-002;-6.545675452798605E-003;9.109348757192493E-004;
2.404500000000000E+009;1.794775873422623E-001;4.307119920849800E-002;-6.585460621863604E-003;1.239551813341677E-003;
2.404666666666667E+009;1.811068952083588E-001;4.206258803606033E-002;-6.351438350975514E-003;1.510244328528643E-003;
2.404833333333334E+009;1.827604919672012E-001;4.090130329132080E-002;-6.266871467232704E-003;1.913056941702962E-003;
2.405000000000000E+009;1.842391192913055E-001;4.022693634033203E-002;-6.079318467527628E-003;2.031102776527405E-003;
2.405166666666667E+009;1.858541369438171E-001;3.943909704685211E-002;-6.000478286296129E-003;2.346458379179239E-003;
2.405333333333334E+009;1.872123032808304E-001;3.887561708688736E-002;-5.941038019955158E-003;2.541891299188137E-003;
2.405500000000000E+009;1.887135952711105E-001;3.837542235851288E-002;-5.717068910598755E-003;2.696106908842921E-003;
2.405666666666667E+009;1.900450587272644E-001;3.810636699199677E-002;-5.563321523368359E-003;2.818221691995859E-003;
2.405833333333334E+009;1.913287788629532E-001;3.784091398119927E-002;-5.217890255153179E-003;3.199651138857007E-003;
2.406000000000000E+009;1.925267279148102E-001;3.779902309179306E-002;-5.043573211878538E-003;3.357446053996682E-003;
2.406166666666667E+009;1.935245096683502E-001;3.772329911589623E-002;-5.025793332606554E-003;3.417126834392548E-003;
2.406333333333334E+009;1.944206506013870E-001;3.771186992526054E-002;-4.671367350965738E-003;3.658062778413296E-003;
2.406500000000000E+009;1.952945142984390E-001;3.790472820401192E-002;-4.565882962197065E-003;3.848474938422442E-003;
2.406666666666667E+009;1.958642005920410E-001;3.805806860327721E-002;-4.341098945587874E-003;3.987338393926621E-003;
2.406833333333334E+009;1.964445561170578E-001;3.781622275710106E-002;-4.161430057138205E-003;4.026041831821203E-003;
2.407000000000000E+009;1.967879384756088E-001;3.826113417744637E-002;-3.881561104208231E-003;4.142696503549814E-003;
2.407166666666667E+009;1.973180919885635E-001;3.817645832896233E-002;-3.629398765042424E-003;4.168137907981873E-003;
2.407333333333334E+009;1.972670257091522E-001;3.846353292465210E-002;-3.381179878488183E-003;4.144753795117140E-003;
2.407500000000000E+009;1.972859352827072E-001;3.859581798315048E-002;-3.100570756942034E-003;4.220610950142145E-003;
2.407666666666667E+009;1.972751915454865E-001;3.876681998372078E-002;-3.067423822358251E-003;4.199104849249125E-003;
2.407833333333334E+009;1.968087106943131E-001;3.869371116161346E-002;-2.952410606667399E-003;4.210294224321842E-003;
2.408000000000000E+009;1.966858506202698E-001;3.869168087840080E-002;-2.830663230270147E-003;4.261363763362169E-003;
2.408166666666667E+009;1.961160004138947E-001;3.838265687227249E-002;-2.540138782933354E-003;4.196603782474995E-003;
2.408333333333334E+009;1.956998109817505E-001;3.807186335325241E-002;-2.459552371874452E-003;4.208833444863558E-003;
2.408500000000000E+009;1.948792934417725E-001;3.782312572002411E-002;-2.243679482489824E-003;4.145582206547260E-003;
2.408666666666667E+009;1.943392902612686E-001;3.735987469553947E-002;-2.289772033691406E-003;4.106699489057064E-003;
2.408833333333334E+009;1.935139894485474E-001;3.686590120196343E-002;-2.105913590639830E-003;3.943192306905985E-003;
2.409000000000000E+009;1.925071924924851E-001;3.592646494507790E-002;-1.894730143249035E-003;3.994875121861696E-003;
2.409166666666667E+009;1.915735751390457E-001;3.508390486240387E-002;-1.974235987290740E-003;4.019558429718018E-003;
2.409333333333334E+009;1.905754059553146E-001;3.422489389777184E-002;-1.700497232377529E-003;4.004949703812599E-003;
2.409500000000000E+009;1.894285082817078E-001;3.297848254442215E-002;-1.799596240743995E-003;3.929771017283201E-003;
2.409666666666667E+009;1.884210705757141E-001;3.171149268746376E-002;-1.655790838412941E-003;3.897570539265871E-003;
2.409833333333334E+009;1.872497797012329E-001;3.029042109847069E-002;-1.609788276255131E-003;3.919246606528759E-003;
2.410000000000000E+009;1.862052232027054E-001;2.871741913259029E-002;-1.582750352099538E-003;3.805421525612474E-003;
2.410166666666667E+009;1.851488947868347E-001;2.707065269351006E-002;-1.510584144853056E-003;3.878779010847211E-003;
2.410333333333334E+009;1.841776669025421E-001;2.517585828900337E-002;-1.521945931017399E-003;3.774558426812291E-003;
2.410500000000000E+009;1.830279976129532E-001;2.335668541491032E-002;-1.518983626738191E-003;3.835388226434588E-003;
2.410666666666667E+009;1.821160316467285E-001;2.106698416173458E-002;-1.345036085695028E-003;3.854230046272278E-003;
2.410833333333334E+009;1.815376579761505E-001;1.894368603825569E-002;-1.372782513499260E-003;3.741500433534384E-003;
2.411000000000000E+009;1.805967390537262E-001;1.676951721310616E-002;-1.407619332894683E-003;3.968280740082264E-003;
2.411166666666667E+009;1.798830181360245E-001;1.460538152605295E-002;-1.371611258946359E-003;3.779373364523053E-003;
2.411333333333334E+009;1.793808043003082E-001;1.199174951761961E-002;-1.294712419621646E-003;3.854827024042606E-003;
2.411500000000000E+009;1.788186430931091E-001;9.581072255969048E-003;-1.235633739270270E-003;3.921323455870152E-003;
2.411666666666667E+009;1.787130534648895E-001;7.282970007508993E-003;-1.336967223323882E-003;3.769765142351389E-003;
2.411833333333334E+009;1.781494617462158E-001;5.027925595641136E-003;-1.227513072080910E-003;4.040125291794539E-003;
2.412000000000000E+009;1.784328818321228E-001;2.356577664613724E-003;-1.153306220658124E-003;3.991294652223587E-003;
2.412166666666667E+009;1.783299893140793E-001;-1.071314836735837E-004;-1.104701776057482E-003;3.982184454798698E-003;
2.412333333333334E+009;1.786615103483200E-001;-2.773067215457559E-003;-1.045793993398547E-003;4.079429898411036E-003;
2.412500000000000E+009;1.790564805269241E-001;-5.232252646237612E-003;-1.077364664524794E-003;4.146262537688017E-003;
2.412666666666667E+009;1.794232875108719E-001;-7.667076308280230E-003;-9.522889740765095E-004;4.281860310584307E-003;
2.412833333333334E+009;1.801920235157013E-001;-1.008867379277945E-002;-1.066134194843471E-003;4.230823367834091E-003;
2.413000000000000E+009;1.811279207468033E-001;-1.254919171333313E-002;-1.184290274977684E-003;4.365828353911638E-003;
2.413166666666667E+009;1.818418651819229E-001;-1.486215833574534E-002;-8.551641949452460E-004;4.486262798309326E-003;
2.413333333333334E+009;1.830595433712006E-001;-1.723301038146019E-002;-8.723048376850784E-004;4.592738579958677E-003;
2.413500000000000E+009;1.837648004293442E-001;-1.959891244769096E-002;-7.829334354028106E-004;4.807312972843647E-003;
2.413666666666667E+009;1.851550936698914E-001;-2.196571603417397E-002;-5.989444325678051E-004;5.014337133616209E-003;
2.413833333333334E+009;1.861381232738495E-001;-2.401843294501305E-002;-5.844829138368368E-004;5.117055494338274E-003;
2.414000000000000E+009;1.874586343765259E-001;-2.606302127242088E-002;-3.611642459873110E-004;5.168233066797257E-003;
2.414166666666667E+009;1.887210607528687E-001;-2.768426015973091E-002;-1.525590050732717E-004;5.291692912578583E-003;
2.414333333333334E+009;1.897743642330170E-001;-2.985129505395889E-002;1.460371277062222E-004;5.402352195233107E-003;
2.414500000000000E+009;1.913605779409409E-001;-3.134273737668991E-002;2.874649071600288E-004;5.484408698976040E-003;
2.414666666666667E+009;1.924242675304413E-001;-3.296279162168503E-002;4.589441814459860E-004;5.639506038278341E-003;
2.414833333333334E+009;1.937676519155502E-001;-3.430174663662911E-002;6.322977133095264E-004;5.746545735746622E-003;
2.415000000000000E+009;1.949893832206726E-001;-3.554222732782364E-002;1.081422320567071E-003;5.659535527229309E-003;
2.415166666666667E+009;1.961425393819809E-001;-3.678134083747864E-002;1.195535995066166E-003;5.703929346054792E-003;
2.415333333333334E+009;1.974687278270721E-001;-3.779990598559380E-002;1.428869320079684E-003;5.848678760230541E-003;
2.415500000000000E+009;1.987305432558060E-001;-3.853328898549080E-002;1.616764464415610E-003;5.882004741579294E-003;
2.415666666666667E+009;1.998051106929779E-001;-3.930826485157013E-002;1.878042705357075E-003;5.615534726530314E-003;
2.415833333333334E+009;2.007133662700653E-001;-3.984470665454865E-002;2.141894539818168E-003;5.700757261365652E-003;
2.416000000000000E+009;2.016454786062241E-001;-4.042580723762512E-002;2.421259414404631E-003;5.744117312133312E-003;
2.416166666666667E+009;2.024672031402588E-001;-4.113203287124634E-002;2.674151677638292E-003;5.709984339773655E-003;
2.416333333333334E+009;2.031419426202774E-001;-4.132626578211784E-002;3.037073416635394E-003;5.635516252368689E-003;
2.416500000000000E+009;2.037579864263535E-001;-4.160690680146217E-002;3.363742958754301E-003;5.555307958275080E-003;
2.416666666666667E+009;2.040180414915085E-001;-4.189956188201904E-002;3.574398579075933E-003;5.491445306688547E-003;
2.416833333333334E+009;2.043570429086685E-001;-4.183509945869446E-002;3.857133444398642E-003;5.373608786612749E-003;
2.417000000000000E+009;2.044094204902649E-001;-4.200480505824089E-002;4.147692583501339E-003;5.098247900605202E-003;
2.417166666666667E+009;2.041846662759781E-001;-4.191095009446144E-002;4.444783087819815E-003;4.812018945813179E-003;
2.417333333333334E+009;2.041112631559372E-001;-4.153675958514214E-002;4.681465215981007E-003;4.640856292098761E-003;
2.417500000000000E+009;2.036544382572174E-001;-4.160639643669128E-002;4.723191261291504E-003;4.386584740132093E-003;
2.417666666666667E+009;2.032358199357987E-001;-4.139246419072151E-002;4.732370376586914E-003;4.152339417487383E-003;
2.417833333333334E+009;2.028564512729645E-001;-4.106978327035904E-002;5.049129482358694E-003;3.983423579484224E-003;
2.418000000000000E+009;2.021332383155823E-001;-4.067851975560188E-002;5.069903563708067E-003;3.820962505415082E-003;
2.418166666666667E+009;2.012538909912109E-001;-4.050654172897339E-002;5.261560901999474E-003;3.448589472100139E-003;
2.418333333333334E+009;2.004468590021133E-001;-4.022746160626411E-002;5.275490228086710E-003;3.240206046029925E-003;
2.418500000000000E+009;1.992824971675873E-001;-4.035854712128639E-002;5.362262483686209E-003;2.997931558638811E-003;
2.418666666666667E+009;1.983814984560013E-001;-4.021396860480309E-002;5.393448751419783E-003;2.894913312047720E-003;
2.418833333333334E+009;1.972393393516541E-001;-4.017002508044243E-002;5.604707170277834E-003;2.778458409011364E-003;
2.419000000000000E+009;1.958074718713760E-001;-4.033406078815460E-002;5.485546309500933E-003;2.547608455643058E-003;
2.419166666666667E+009;1.945934146642685E-001;-4.059056192636490E-002;5.547187756747007E-003;2.380149438977242E-003;
2.419333333333334E+009;1.931570917367935E-001;-4.093037918210030E-002;5.601927638053894E-003;2.218650653958321E-003;
2.419500000000000E+009;1.915031969547272E-001;-4.137797653675079E-002;5.554401315748692E-003;2.135997638106346E-003;
2.419666666666667E+009;1.900259256362915E-001;-4.211224988102913E-002;5.703454837203026E-003;1.847088453359902E-003;
2.419833333333334E+009;1.882058233022690E-001;-4.270728304982185E-002;5.725762806832790E-003;1.741352723911405E-003;
2.420000000000000E+009;1.865517348051071E-001;-4.356611892580986E-002;5.847391672432423E-003;1.678117550909519E-003;
2.420166666666667E+009;1.848699152469635E-001;-4.447449743747711E-002;5.860642530024052E-003;1.492058159783483E-003;
2.420333333333334E+009;1.832645833492279E-001;-4.579634964466095E-002;5.829704925417900E-003;1.301453332416713E-003;
2.420500000000000E+009;1.814905703067780E-001;-4.685375094413757E-002;5.914396140724421E-003;1.021018950268626E-003;
2.420666666666667E+009;1.797115802764893E-001;-4.797592014074326E-002;6.149017717689276E-003;8.662611944600940E-004;
2.420833333333334E+009;1.780425906181335E-001;-4.963445663452148E-002;6.120129954069853E-003;6.835524109192193E-004;
2.421000000000000E+009;1.765288263559341E-001;-5.115335434675217E-002;6.235824432224035E-003;4.116093041375279E-004;
2.421166666666667E+009;1.751914322376251E-001;-5.295464396476746E-002;6.075463723391295E-003;1.986897113965824E-004;
2.421333333333334E+009;1.734058856964111E-001;-5.456747487187386E-002;6.057862192392349E-003;-2.771132312773261E-005;
2.421500000000000E+009;1.720184087753296E-001;-5.657731369137764E-002;6.145367864519358E-003;-1.222445425810292E-004;
2.421666666666667E+009;1.708478480577469E-001;-5.838835984468460E-002;6.124112755060196E-003;-4.164387937635183E-004;
2.421833333333334E+009;1.695723831653595E-001;-6.037773564457893E-002;6.151340436190367E-003;-6.949470262043178E-004;
2.422000000000000E+009;1.683235913515091E-001;-6.225279718637466E-002;6.025429349392653E-003;-9.662535157985985E-004;
2.422166666666667E+009;1.675657927989960E-001;-6.443881988525391E-002;5.918469745665789E-003;-1.132871373556554E-003;
2.422333333333334E+009;1.663801670074463E-001;-6.652574241161346E-002;5.946940742433071E-003;-1.403789501637220E-003;
2.422500000000000E+009;1.656336784362793E-001;-6.872037798166275E-002;5.727981217205524E-003;-1.584316836670041E-003;
2.422666666666667E+009;1.651385128498077E-001;-7.082045078277588E-002;5.694585852324963E-003;-1.780101563781500E-003;
2.422833333333334E+009;1.645326167345047E-001;-7.312858849763870E-002;5.576765630394220E-003;-2.103113802149892E-003;
2.423000000000000E+009;1.639112830162048E-001;-7.533077150583267E-002;5.549896974116564E-003;-2.168079139664769E-003;
2.423166666666667E+009;1.635575592517853E-001;-7.722433656454086E-002;5.303047131747007E-003;-2.415266819298267E-003;
2.423333333333334E+009;1.633778065443039E-001;-7.933150231838226E-002;5.210733506828547E-003;-2.428333507850766E-003;
2.423500000000000E+009;1.632918566465378E-001;-8.124530315399170E-002;5.053611006587744E-003;-2.723578596487641E-003;
2.423666666666667E+009;1.634367704391480E-001;-8.338886499404907E-002;4.769600462168455E-003;-2.843650290742517E-003;
2.423833333333334E+009;1.633976697921753E-001;-8.523894846439362E-002;4.620329942554236E-003;-2.978144213557243E-003;
2.424000000000000E+009;1.635200232267380E-001;-8.706236630678177E-002;4.569987766444683E-003;-2.910397015511990E-003;
2.424166666666667E+009;1.636714488267899E-001;-8.869816362857819E-002;4.369416274130344E-003;-3.042115829885006E-003;
2.424333333333334E+009;1.640217900276184E-001;-9.045451134443283E-002;4.263428039848805E-003;-3.205262124538422E-003;
2.424500000000000E+009;1.645735502243042E-001;-9.241037070751190E-002;4.223381169140339E-003;-3.132708836346865E-003;
2.424666666666667E+009;1.647837460041046E-001;-9.375374019145966E-002;3.922891803085804E-003;-3.369203303009272E-003;
2.424833333333334E+009;1.653934270143509E-001;-9.504026919603348E-002;3.890465013682842E-003;-3.290036460384727E-003;
2.425000000000000E+009;1.660584509372711E-001;-9.648444503545761E-002;3.863618941977620E-003;-3.541290760040283E-003;
2.425166666666667E+009;1.664202511310577E-001;-9.758658707141876E-002;3.524062223732472E-003;-3.493240801617503E-003;
2.425333333333334E+009;1.670073568820953E-001;-9.859110414981842E-002;3.515986725687981E-003;-3.517987206578255E-003;
2.425500000000000E+009;1.673434823751450E-001;-9.970911592245102E-002;3.387815784662962E-003;-3.751741722226143E-003;
2.425666666666667E+009;1.679703295230866E-001;-1.003566905856133E-001;3.095620544627309E-003;-3.566025290638208E-003;
2.425833333333334E+009;1.682706177234650E-001;-1.012278795242310E-001;3.142729634419084E-003;-3.734171856194735E-003;
2.426000000000000E+009;1.689342558383942E-001;-1.016639098525047E-001;3.220761427655816E-003;-3.814435098320246E-003;
2.426166666666667E+009;1.694359183311462E-001;-1.022372245788574E-001;2.928321715444326E-003;-3.819962730631232E-003;
2.426333333333334E+009;1.696116626262665E-001;-1.027844026684761E-001;2.798310481011868E-003;-3.813420655205846E-003;
2.426500000000000E+009;1.701794266700745E-001;-1.029831916093826E-001;2.864936599507928E-003;-3.917527850717306E-003;
2.426666666666667E+009;1.705343425273895E-001;-1.033402457833290E-001;2.721222816035152E-003;-3.865393809974194E-003;
2.426833333333334E+009;1.709295064210892E-001;-1.035575643181801E-001;2.475379500538111E-003;-3.993269987404347E-003;
2.427000000000000E+009;1.708867102861404E-001;-1.037304773926735E-001;2.210843609645963E-003;-4.250280093401671E-003;
2.427166666666667E+009;1.710283607244492E-001;-1.037624850869179E-001;2.284792251884937E-003;-4.156057257205248E-003;
2.427333333333334E+009;1.710840165615082E-001;-1.040098294615746E-001;2.230586018413305E-003;-4.191025625914335E-003;
2.427500000000000E+009;1.709868758916855E-001;-1.042080000042915E-001;2.073229290544987E-003;-4.318284802138805E-003;
2.427666666666667E+009;1.707459241151810E-001;-1.041049435734749E-001;1.946688746102154E-003;-4.260999616235495E-003;
2.427833333333334E+009;1.704913526773453E-001;-1.041699349880219E-001;1.784201129339635E-003;-4.379922524094582E-003;
