# Version 1.00
#
freq[Hz];re:Trc1_S11;im:Trc1_S11;re:Trc2_S21;im:Trc2_S21;
2.400000000000000E+009;1.553224921226502E-001;1.083341836929321E-001;-3.163713729009032E-003;-4.288264550268650E-003;
2.400166666666667E+009;1.549091339111328E-001;1.060052886605263E-001;-3.229237627238035E-003;-4.164196085184813E-003;
2.400333333333334E+009;1.549362540245056E-001;1.037332490086556E-001;-3.681031987071037E-003;-4.221883136779070E-003;
2.400500000000000E+009;1.547617018222809E-001;1.007505282759666E-001;-3.762316424399614E-003;-4.336905665695667E-003;
2.400666666666667E+009;1.547254323959351E-001;9.849690645933151E-002;-4.143318161368370E-003;-4.067054949700832E-003;
2.400833333333334E+009;1.546939313411713E-001;9.549623727798462E-002;-4.388361237943173E-003;-4.077174235135317E-003;
2.401000000000000E+009;1.549043059349060E-001;9.271386265754700E-002;-4.654234740883112E-003;-3.843320766463876E-003;
2.401166666666667E+009;1.548384577035904E-001;8.980540186166763E-002;-4.826347809284926E-003;-3.775021061301231E-003;
2.401333333333334E+009;1.551611721515656E-001;8.700756728649139E-002;-4.946663510054350E-003;-3.470383817330003E-003;
2.401500000000000E+009;1.554446071386337E-001;8.385843783617020E-002;-5.084773059934378E-003;-3.433036152273417E-003;
2.401666666666667E+009;1.558071076869965E-001;8.124545216560364E-002;-5.187053233385086E-003;-3.069544676691294E-003;
2.401833333333334E+009;1.561812460422516E-001;7.823472470045090E-002;-5.238675978034735E-003;-2.996154129505158E-003;
2.402000000000000E+009;1.571527719497681E-001;7.570084929466248E-002;-5.564650055021048E-003;-2.713287482038140E-003;
2.402166666666667E+009;1.577592194080353E-001;7.281152158975601E-002;-5.794474855065346E-003;-2.642270177602768E-003;
2.402333333333334E+009;1.587691754102707E-001;6.987443566322327E-002;-5.784712266176939E-003;-2.493630163371563E-003;
2.402500000000000E+009;1.598573923110962E-001;6.738817691802979E-002;-5.946819670498371E-003;-2.201940165832639E-003;
2.402666666666667E+009;1.609796434640884E-001;6.504306197166443E-002;-5.973513238132000E-003;-1.961726928129792E-003;
2.402833333333334E+009;1.623270958662033E-001;6.269325315952301E-002;-6.303677335381508E-003;-1.812685048207641E-003;
2.403000000000000E+009;1.639323383569717E-001;6.002152338624001E-002;-6.307626608759165E-003;-1.547954161651433E-003;
2.403166666666667E+009;1.655335724353790E-001;5.787495523691177E-002;-6.530386395752430E-003;-1.180800725705922E-003;
2.403333333333334E+009;1.670759469270706E-001;5.558149144053459E-002;-6.591786630451679E-003;-8.359031053259969E-004;
2.403500000000000E+009;1.688118427991867E-001;5.344578251242638E-002;-6.625664420425892E-003;-6.221235962584615E-004;
2.403666666666667E+009;1.705608516931534E-001;5.148958787322044E-002;-6.684103049337864E-003;-3.718604275491089E-004;
2.403833333333334E+009;1.723179072141647E-001;4.954700917005539E-002;-6.780464202165604E-003;-1.969100412679836E-005;
2.404000000000000E+009;1.738838553428650E-001;4.767692089080811E-002;-6.725672632455826E-003;3.059409791603684E-004;
2.404166666666667E+009;1.759410500526428E-001;4.624633863568306E-002;-6.604080554097891E-003;6.094762939028442E-004;
2.404333333333334E+009;1.776163578033447E-001;4.459959268569946E-002;-6.654227618128061E-003;1.026405487209559E-003;
2.404500000000000E+009;1.792059093713760E-001;4.310964047908783E-002;-6.311370059847832E-003;1.196422148495913E-003;
2.404666666666667E+009;1.808746904134750E-001;4.196003824472427E-002;-6.433099973946810E-003;1.544906408526003E-003;
2.404833333333334E+009;1.826825141906738E-001;4.090046137571335E-002;-6.257278844714165E-003;1.823264406993985E-003;
2.405000000000000E+009;1.840706169605255E-001;4.026703909039497E-002;-6.208535749465227E-003;2.118970965966582E-003;
2.405166666666667E+009;1.856765151023865E-001;3.943277522921562E-002;-6.017223000526428E-003;2.328421222046018E-003;
2.405333333333334E+009;1.871159523725510E-001;3.880584612488747E-002;-5.812362767755985E-003;2.518791006878018E-003;
2.405500000000000E+009;1.885433942079544E-001;3.843723610043526E-002;-5.663071759045124E-003;2.811019774526358E-003;
2.405666666666667E+009;1.897456496953964E-001;3.820279985666275E-002;-5.415502935647965E-003;3.029351122677326E-003;
2.405833333333334E+009;1.913467943668366E-001;3.787425905466080E-002;-5.340396892279387E-003;3.196526784449816E-003;
2.406000000000000E+009;1.922339797019959E-001;3.790134564042091E-002;-5.160522647202015E-003;3.386801341548562E-003;
2.406166666666667E+009;1.933587044477463E-001;3.780707716941834E-002;-4.906834103167057E-003;3.552935551851988E-003;
2.406333333333334E+009;1.944057345390320E-001;3.784818202257156E-002;-4.742413759231567E-003;3.769780509173870E-003;
2.406500000000000E+009;1.949987411499023E-001;3.791820257902145E-002;-4.552484024316073E-003;3.768750000745058E-003;
2.406666666666667E+009;1.957788765430450E-001;3.810761123895645E-002;-4.264968447387219E-003;4.019039217382669E-003;
2.406833333333334E+009;1.964914202690125E-001;3.814166039228439E-002;-3.861506236717105E-003;3.977327607572079E-003;
2.407000000000000E+009;1.966637223958969E-001;3.859018161892891E-002;-3.955893218517304E-003;4.130810033529997E-003;
2.407166666666667E+009;1.970687657594681E-001;3.841176629066467E-002;-3.414924954995513E-003;4.218283109366894E-003;
2.407333333333334E+009;1.970735341310501E-001;3.883400559425354E-002;-3.416993655264378E-003;4.298335406929255E-003;
2.407500000000000E+009;1.970234364271164E-001;3.903866186738014E-002;-3.321573836728931E-003;4.224708769470453E-003;
2.407666666666667E+009;1.970692723989487E-001;3.904097154736519E-002;-2.922157291322947E-003;4.171106033027172E-003;
2.407833333333334E+009;1.966545730829239E-001;3.895198553800583E-002;-2.990654204040766E-003;4.205083474516869E-003;
2.408000000000000E+009;1.966412663459778E-001;3.896396607160568E-002;-2.596566220745444E-003;4.232942592352629E-003;
2.408166666666667E+009;1.959578990936279E-001;3.877409547567368E-002;-2.438870957121253E-003;4.172333981841803E-003;
2.408333333333334E+009;1.955717802047730E-001;3.848667442798615E-002;-2.409246750175953E-003;4.154558759182692E-003;
2.408500000000000E+009;1.947540193796158E-001;3.829936683177948E-002;-2.190707717090845E-003;4.156234674155712E-003;
2.408666666666667E+009;1.942476332187653E-001;3.781483694911003E-002;-2.198512898758054E-003;4.094410222023726E-003;
2.408833333333334E+009;1.934652328491211E-001;3.733170777559280E-002;-1.955372514203191E-003;4.084650427103043E-003;
2.409000000000000E+009;1.925258934497833E-001;3.632806241512299E-002;-1.830321154557169E-003;4.026177804917097E-003;
2.409166666666667E+009;1.915725469589233E-001;3.557734563946724E-002;-1.808673026971519E-003;3.889055689796805E-003;
2.409333333333334E+009;1.905939579010010E-001;3.454700857400894E-002;-1.635477296076715E-003;3.950998652726412E-003;
2.409500000000000E+009;1.894056349992752E-001;3.341853991150856E-002;-1.637125737033784E-003;3.873251611366868E-003;
2.409666666666667E+009;1.883526444435120E-001;3.203469887375832E-002;-1.596645452082157E-003;3.846884937956929E-003;
2.409833333333334E+009;1.872707754373550E-001;3.070455789566040E-002;-1.633666106499732E-003;3.884045174345374E-003;
2.410000000000000E+009;1.861923336982727E-001;2.914806082844734E-002;-1.613918226212263E-003;3.790624439716339E-003;
2.410166666666667E+009;1.850610822439194E-001;2.738203853368759E-002;-1.473364536650479E-003;3.851640503853560E-003;
2.410333333333334E+009;1.838916689157486E-001;2.564779110252857E-002;-1.430804841220379E-003;3.793350886553526E-003;
2.410500000000000E+009;1.830948889255524E-001;2.378949336707592E-002;-1.395512837916613E-003;3.862263634800911E-003;
2.410666666666667E+009;1.819698512554169E-001;2.152657322585583E-002;-1.434925012290478E-003;3.801684826612473E-003;
2.410833333333334E+009;1.814782917499542E-001;1.938244141638279E-002;-1.341224764473736E-003;3.851229324936867E-003;
2.411000000000000E+009;1.804855018854141E-001;1.732225529849529E-002;-1.352715771645308E-003;3.770060138776898E-003;
2.411166666666667E+009;1.797997951507568E-001;1.495970785617828E-002;-1.334640546701849E-003;3.859712509438396E-003;
2.411333333333334E+009;1.794066876173019E-001;1.235606800764799E-002;-1.304086530581117E-003;3.693253500387073E-003;
2.411500000000000E+009;1.788671761751175E-001;9.911641478538513E-003;-1.247603329829872E-003;3.840107936412096E-003;
2.411666666666667E+009;1.786256730556488E-001;7.545538246631622E-003;-1.164961373433471E-003;3.747578244656324E-003;
2.411833333333334E+009;1.783879697322846E-001;5.343390163034201E-003;-1.066242111846805E-003;3.826287807896733E-003;
2.412000000000000E+009;1.783366352319717E-001;2.636403311043978E-003;-1.082052709534764E-003;3.844302613288164E-003;
2.412166666666667E+009;1.784304082393646E-001;1.441482017980889E-004;-1.117489649914205E-003;4.022409208118916E-003;
2.412333333333334E+009;1.786564439535141E-001;-2.389046596363187E-003;-1.142865628935397E-003;3.969395998865366E-003;
2.412500000000000E+009;1.791127324104309E-001;-4.837905988097191E-003;-9.696873021312058E-004;4.060580395162106E-003;
2.412666666666667E+009;1.796416193246841E-001;-7.392012514173985E-003;-1.001134980469942E-003;4.295354243367910E-003;
2.412833333333334E+009;1.803487539291382E-001;-9.942358359694481E-003;-1.069921068847179E-003;4.352365154772997E-003;
2.413000000000000E+009;1.811785697937012E-001;-1.230409275740385E-002;-8.540155249647796E-004;4.227136727422476E-003;
2.413166666666667E+009;1.818965226411820E-001;-1.460930332541466E-002;-8.526519523002207E-004;4.480984993278980E-003;
2.413333333333334E+009;1.830516606569290E-001;-1.698775961995125E-002;-8.613080135546625E-004;4.675502423197031E-003;
2.413500000000000E+009;1.839598268270493E-001;-1.916010864078999E-002;-8.292821003124118E-004;4.681020043790340E-003;
2.413666666666667E+009;1.852597594261169E-001;-2.163924649357796E-002;-6.916302954778075E-004;4.851699341088533E-003;
2.413833333333334E+009;1.863306462764740E-001;-2.349249087274075E-002;-4.369365051388741E-004;4.921926185488701E-003;
2.414000000000000E+009;1.875817477703095E-001;-2.561254985630512E-002;-2.596533158794045E-004;5.207993090152741E-003;
2.414166666666667E+009;1.888785511255264E-001;-2.752859890460968E-002;-1.141870452556759E-004;5.325092934072018E-003;
2.414333333333334E+009;1.901783198118210E-001;-2.956706099212170E-002;-5.402494207373820E-005;5.402516108006239E-003;
2.414500000000000E+009;1.912410557270050E-001;-3.110923804342747E-002;1.557838550070301E-004;5.447011440992355E-003;
2.414666666666667E+009;1.927728354930878E-001;-3.262989595532417E-002;5.828817375004292E-004;5.607474595308304E-003;
2.414833333333334E+009;1.940189003944397E-001;-3.412360325455666E-002;7.587414002045989E-004;5.634161178022623E-003;
2.415000000000000E+009;1.952093243598938E-001;-3.544867038726807E-002;8.874543127603829E-004;5.599421914666891E-003;
2.415166666666667E+009;1.965776681900024E-001;-3.657503426074982E-002;1.126424758695066E-003;5.616543348878622E-003;
2.415333333333334E+009;1.977818161249161E-001;-3.761911019682884E-002;1.334395608864725E-003;5.700423382222652E-003;
2.415500000000000E+009;1.989936977624893E-001;-3.832523897290230E-002;1.723114284686744E-003;5.855401512235403E-003;
2.415666666666667E+009;2.000657618045807E-001;-3.917236998677254E-002;1.823155209422112E-003;5.787461064755917E-003;
2.415833333333334E+009;2.010139822959900E-001;-3.979654610157013E-002;2.212746767327189E-003;5.646882578730583E-003;
2.416000000000000E+009;2.019483596086502E-001;-4.037666693329811E-002;2.295922022312880E-003;5.715656094253063E-003;
2.416166666666667E+009;2.027556151151657E-001;-4.095328599214554E-002;2.708044601604343E-003;5.679484922438860E-003;
2.416333333333334E+009;2.032972276210785E-001;-4.120090976357460E-002;2.797131892293692E-003;5.665515549480915E-003;
2.416500000000000E+009;2.038903087377548E-001;-4.143782332539558E-002;3.180959029123187E-003;5.384591873735189E-003;
2.416666666666667E+009;2.042467594146729E-001;-4.177459701895714E-002;3.605941310524941E-003;5.494486074894667E-003;
2.416833333333334E+009;2.045664042234421E-001;-4.189578071236610E-002;3.857492934912443E-003;5.211871583014727E-003;
2.417000000000000E+009;2.047501504421234E-001;-4.188852757215500E-002;3.884787671267986E-003;5.095625761896372E-003;
2.417166666666667E+009;2.044979780912399E-001;-4.172473400831223E-002;4.280729684978724E-003;4.814115352928639E-003;
2.417333333333334E+009;2.042976766824722E-001;-4.159968718886375E-002;4.436912015080452E-003;4.705282393842936E-003;
2.417500000000000E+009;2.040969431400299E-001;-4.157384857535362E-002;4.716429859399796E-003;4.316782113164663E-003;
2.417666666666667E+009;2.035480290651321E-001;-4.124878346920013E-002;4.903202410787344E-003;4.184761550277472E-003;
2.417833333333334E+009;2.031162083148956E-001;-4.103328287601471E-002;5.033317953348160E-003;3.993863705545664E-003;
2.418000000000000E+009;2.024996131658554E-001;-4.070043191313744E-002;5.100300069898367E-003;3.788132918998599E-003;
2.418166666666667E+009;2.015454471111298E-001;-4.053951799869537E-002;5.171615630388260E-003;3.368826117366552E-003;
2.418333333333334E+009;2.006852030754089E-001;-4.026121273636818E-002;5.304622929543257E-003;3.391560632735491E-003;
2.418500000000000E+009;1.997118741273880E-001;-4.017775878310204E-002;5.269417073577642E-003;3.017474897205830E-003;
2.418666666666667E+009;1.987298578023911E-001;-4.019481316208839E-002;5.240694154053927E-003;2.869662130251527E-003;
2.418833333333334E+009;1.974687725305557E-001;-4.019977897405624E-002;5.417292471975088E-003;2.642632462084293E-003;
2.419000000000000E+009;1.960920691490173E-001;-4.019652307033539E-002;5.543626844882965E-003;2.599730156362057E-003;
2.419166666666667E+009;1.948272436857224E-001;-4.053115099668503E-002;5.482643377035856E-003;2.341460436582565E-003;
2.419333333333334E+009;1.934640705585480E-001;-4.096464067697525E-002;5.490899551659823E-003;2.229219768196344E-003;
2.419500000000000E+009;1.918991804122925E-001;-4.145379364490509E-002;5.581574980169535E-003;2.127201994881034E-003;
2.419666666666667E+009;1.902301460504532E-001;-4.214043542742729E-002;5.703708622604609E-003;2.100724726915360E-003;
2.419833333333334E+009;1.885050088167191E-001;-4.276030883193016E-002;5.668254103511572E-003;1.772270305082202E-003;
2.420000000000000E+009;1.869999021291733E-001;-4.361870139837265E-002;5.782939027994871E-003;1.686838455498219E-003;
2.420166666666667E+009;1.853227615356445E-001;-4.449369758367539E-002;5.820139776915312E-003;1.568088657222688E-003;
2.420333333333334E+009;1.835568398237228E-001;-4.568293318152428E-002;5.930862855166197E-003;1.298013259656727E-003;
2.420500000000000E+009;1.817290037870407E-001;-4.699020832777023E-002;5.840387195348740E-003;1.091949059627950E-003;
2.420666666666667E+009;1.800786405801773E-001;-4.815244674682617E-002;5.968541838228703E-003;8.340366184711456E-004;
2.420833333333334E+009;1.783060431480408E-001;-4.969867691397667E-002;6.004179827868938E-003;6.215831963345408E-004;
2.421000000000000E+009;1.768396943807602E-001;-5.140233412384987E-002;6.162517238408327E-003;5.726665258407593E-004;
2.421166666666667E+009;1.752691566944122E-001;-5.311803147196770E-002;6.131740286946297E-003;3.719418600667268E-004;
2.421333333333334E+009;1.736901104450226E-001;-5.465721338987351E-002;6.303205154836178E-003;1.657599059399217E-004;
2.421500000000000E+009;1.722730696201325E-001;-5.666827037930489E-002;6.112476810812950E-003;-2.400251250946894E-004;
2.421666666666667E+009;1.709251105785370E-001;-5.858343839645386E-002;6.161541212350130E-003;-3.267023130320013E-004;
2.421833333333334E+009;1.697972118854523E-001;-6.064481660723686E-002;6.130666472017765E-003;-6.602695793844760E-004;
2.422000000000000E+009;1.686333864927292E-001;-6.248667091131210E-002;6.109550595283508E-003;-7.953886524774134E-004;
2.422166666666667E+009;1.675977855920792E-001;-6.486440449953079E-002;5.926194600760937E-003;-1.059793052263558E-003;
2.422333333333334E+009;1.665802150964737E-001;-6.684630364179611E-002;5.844796542078257E-003;-1.314779976382852E-003;
2.422500000000000E+009;1.661145240068436E-001;-6.884528696537018E-002;5.834781564772129E-003;-1.555596943944693E-003;
2.422666666666667E+009;1.653035432100296E-001;-7.113149762153626E-002;5.752454046159983E-003;-1.698459265753627E-003;
2.422833333333334E+009;1.646321117877960E-001;-7.308322191238403E-002;5.631559062749147E-003;-1.929840655066073E-003;
2.423000000000000E+009;1.641726344823837E-001;-7.548094540834427E-002;5.422002170234919E-003;-2.099420642480254E-003;
2.423166666666667E+009;1.638838648796082E-001;-7.744226604700089E-002;5.241626873612404E-003;-2.314507495611906E-003;
2.423333333333334E+009;1.636759191751480E-001;-7.949425280094147E-002;5.090265069156885E-003;-2.502806717529893E-003;
2.423500000000000E+009;1.635394543409348E-001;-8.144692331552506E-002;4.813254810869694E-003;-2.542048227041960E-003;
2.423666666666667E+009;1.636114567518234E-001;-8.343385905027390E-002;4.915812518447638E-003;-2.834917278960347E-003;
2.423833333333334E+009;1.635947525501251E-001;-8.537711203098297E-002;4.540451802313328E-003;-2.881737425923348E-003;
2.424000000000000E+009;1.637272387742996E-001;-8.746594935655594E-002;4.593921825289726E-003;-2.939049620181322E-003;
2.424166666666667E+009;1.639026999473572E-001;-8.897438645362854E-002;4.283669870346785E-003;-3.007341874763370E-003;
2.424333333333334E+009;1.641754508018494E-001;-9.061979502439499E-002;4.188420716673136E-003;-3.239386016502976E-003;
2.424500000000000E+009;1.646961569786072E-001;-9.251556545495987E-002;4.245449323207140E-003;-3.202985739335418E-003;
2.424666666666667E+009;1.650636792182922E-001;-9.391553699970245E-002;4.131208639591932E-003;-3.249304369091988E-003;
2.424833333333334E+009;1.655812114477158E-001;-9.526149183511734E-002;3.714297898113728E-003;-3.356553381308913E-003;
2.425000000000000E+009;1.660232841968536E-001;-9.658589214086533E-002;3.723548259586096E-003;-3.437541192397475E-003;
2.425166666666667E+009;1.665654480457306E-001;-9.785845130681992E-002;3.639587899670005E-003;-3.420109394937754E-003;
2.425333333333334E+009;1.668570190668106E-001;-9.876943379640579E-002;3.478727769106627E-003;-3.595419460907579E-003;
2.425500000000000E+009;1.675823330879211E-001;-9.991574287414551E-002;3.360620699822903E-003;-3.716442268341780E-003;
2.425666666666667E+009;1.680634319782257E-001;-1.005631387233734E-001;3.307001665234566E-003;-3.570043481886387E-003;
2.425833333333334E+009;1.684345602989197E-001;-1.014687046408653E-001;3.122494556009769E-003;-3.723971312865615E-003;
2.426000000000000E+009;1.688943505287170E-001;-1.018623262643814E-001;2.976368181407452E-003;-3.837989643216133E-003;
2.426166666666667E+009;1.694301515817642E-001;-1.024753302335739E-001;2.964179264381528E-003;-3.780186176300049E-003;
2.426333333333334E+009;1.696419864892960E-001;-1.029696315526962E-001;2.753859618678689E-003;-3.688696306198835E-003;
2.426500000000000E+009;1.700975894927979E-001;-1.032362952828407E-001;2.732312306761742E-003;-3.882047720253468E-003;
2.426666666666667E+009;1.705772727727890E-001;-1.035386174917221E-001;2.694364404305816E-003;-3.989079035818577E-003;
2.426833333333334E+009;1.707789003849030E-001;-1.038336232304573E-001;2.668735338374972E-003;-3.916017711162567E-003;
2.427000000000000E+009;1.709510385990143E-001;-1.039868295192719E-001;2.424688776955009E-003;-3.976156935095787E-003;
2.427166666666667E+009;1.711258739233017E-001;-1.039665117859840E-001;2.289730357006192E-003;-4.085156135261059E-003;
2.427333333333334E+009;1.710280179977417E-001;-1.043568849563599E-001;2.198534552007914E-003;-4.115788266062737E-003;
2.427500000000000E+009;1.709900349378586E-001;-1.044002473354340E-001;2.221871167421341E-003;-4.338263534009457E-003;
2.427666666666667E+009;1.707376688718796E-001;-1.043123006820679E-001;2.026409376412630E-003;-4.273527767509222E-003;
2.427833333333334E+009;1.704165935516357E-001;-1.044389531016350E-001;1.944950898177922E-003;-4.265458323061466E-003;
