# Version 1.00
#
freq[Hz];re:Trc1_S11;im:Trc1_S11;re:Trc2_S21;im:Trc2_S21;
2.400000000000000E+009;1.550784707069397E-001;1.086086034774780E-001;-3.066105768084526E-003;-4.144150298088789E-003;
2.400166666666667E+009;1.548690944910049E-001;1.062118187546730E-001;-3.170298179611564E-003;-4.270562902092934E-003;
2.400333333333334E+009;1.549049764871597E-001;1.038254424929619E-001;-3.485260298475623E-003;-4.352205898612738E-003;
2.400500000000000E+009;1.548972725868225E-001;1.010495349764824E-001;-3.769196569919586E-003;-4.211623221635819E-003;
2.400666666666667E+009;1.548623144626617E-001;9.843778610229492E-002;-3.936033230274916E-003;-4.118600394576788E-003;
2.400833333333334E+009;1.546957939863205E-001;9.578435122966766E-002;-4.271293058991432E-003;-3.976442385464907E-003;
2.401000000000000E+009;1.549089550971985E-001;9.268935769796372E-002;-4.591617733240128E-003;-4.005230963230133E-003;
2.401166666666667E+009;1.547880172729492E-001;8.997492492198944E-002;-4.592736717313528E-003;-3.699726657941937E-003;
2.401333333333334E+009;1.550087928771973E-001;8.709932118654251E-002;-4.988570231944323E-003;-3.572906134650111E-003;
2.401500000000000E+009;1.553108990192413E-001;8.392682671546936E-002;-4.955042153596878E-003;-3.385613672435284E-003;
2.401666666666667E+009;1.557200700044632E-001;8.124142885208130E-002;-5.170992575585842E-003;-3.267428372055292E-003;
2.401833333333334E+009;1.561742275953293E-001;7.848912477493286E-002;-5.372769664973021E-003;-3.114015329629183E-003;
2.402000000000000E+009;1.568676382303238E-001;7.568481564521790E-002;-5.468251183629036E-003;-2.790301339700818E-003;
2.402166666666667E+009;1.576530933380127E-001;7.299263030290604E-002;-5.568286404013634E-003;-2.764735370874405E-003;
2.402333333333334E+009;1.585967093706131E-001;7.020355015993118E-002;-5.866492167115212E-003;-2.443026285618544E-003;
2.402500000000000E+009;1.599538177251816E-001;6.765593588352203E-002;-5.883201025426388E-003;-2.232820494100452E-003;
2.402666666666667E+009;1.609745770692825E-001;6.522546708583832E-002;-6.096800789237022E-003;-2.112547401338816E-003;
2.402833333333334E+009;1.623988449573517E-001;6.273078173398972E-002;-6.226746365427971E-003;-1.834624214097858E-003;
2.403000000000000E+009;1.638360321521759E-001;6.031622737646103E-002;-6.285848561674357E-003;-1.558129559271038E-003;
2.403166666666667E+009;1.657675504684448E-001;5.795881152153015E-002;-6.543333176523447E-003;-1.244659884832799E-003;
2.403333333333334E+009;1.670247763395309E-001;5.577006191015244E-002;-6.539669353514910E-003;-9.406618191860616E-004;
2.403500000000000E+009;1.688417047262192E-001;5.374566838145256E-002;-6.603502202779055E-003;-8.294393192045391E-004;
2.403666666666667E+009;1.706596016883850E-001;5.160077661275864E-002;-6.684360094368458E-003;-4.129724111407995E-004;
2.403833333333334E+009;1.723847985267639E-001;4.971506446599960E-002;-6.668345537036657E-003;-9.529767703497782E-005;
2.404000000000000E+009;1.739432811737061E-001;4.812681302428246E-002;-6.616149097681046E-003;2.127682964783162E-004;
2.404166666666667E+009;1.757612675428391E-001;4.629563167691231E-002;-6.696814205497503E-003;6.416796823032200E-004;
2.404333333333334E+009;1.774751394987106E-001;4.480092972517014E-002;-6.318389903753996E-003;8.634711848571897E-004;
2.404500000000000E+009;1.790825128555298E-001;4.345890879631043E-002;-6.450804881751537E-003;1.145122456364334E-003;
2.404666666666667E+009;1.808594763278961E-001;4.224574565887451E-002;-6.385981105268002E-003;1.455032848753035E-003;
2.404833333333334E+009;1.827167123556137E-001;4.127147421240807E-002;-6.291107274591923E-003;1.684625865891576E-003;
2.405000000000000E+009;1.839173138141632E-001;4.048036038875580E-002;-6.161203142255545E-003;2.115313429385424E-003;
2.405166666666667E+009;1.855985373258591E-001;3.989708423614502E-002;-5.964718293398619E-003;2.266176510602236E-003;
2.405333333333334E+009;1.869486421346664E-001;3.934518992900848E-002;-5.829189904034138E-003;2.609062939882278E-003;
2.405500000000000E+009;1.884426027536392E-001;3.894949704408646E-002;-5.600784905254841E-003;2.719808369874954E-003;
2.405666666666667E+009;1.897195875644684E-001;3.849686682224274E-002;-5.447501782327890E-003;2.961837220937014E-003;
2.405833333333334E+009;1.910479366779327E-001;3.832756727933884E-002;-5.388242658227682E-003;3.032764885574579E-003;
2.406000000000000E+009;1.922173351049423E-001;3.822100535035133E-002;-5.038306117057800E-003;3.290092805400491E-003;
2.406166666666667E+009;1.931953877210617E-001;3.814636543393135E-002;-4.840200301259756E-003;3.381044836714864E-003;
2.406333333333334E+009;1.942286044359207E-001;3.826726227998734E-002;-4.776864778250456E-003;3.694922430440784E-003;
2.406500000000000E+009;1.949654519557953E-001;3.838253766298294E-002;-4.665642976760864E-003;3.842381527647376E-003;
2.406666666666667E+009;1.957793384790421E-001;3.834386169910431E-002;-4.288772586733103E-003;3.823792794719338E-003;
2.406833333333334E+009;1.962254494428635E-001;3.862910345196724E-002;-4.045880399644375E-003;3.959466703236103E-003;
2.407000000000000E+009;1.967465728521347E-001;3.901555016636848E-002;-3.976952750235796E-003;4.081322345882654E-003;
2.407166666666667E+009;1.970492303371429E-001;3.896216675639153E-002;-3.701199078932405E-003;3.927328158169985E-003;
2.407333333333334E+009;1.970036178827286E-001;3.922835364937782E-002;-3.380725393071771E-003;4.105412866920233E-003;
2.407500000000000E+009;1.970272511243820E-001;3.937869891524315E-002;-3.280667122453451E-003;4.070592112839222E-003;
2.407666666666667E+009;1.972170770168304E-001;3.951537236571312E-002;-3.052411833778024E-003;4.182865377515554E-003;
2.407833333333334E+009;1.967625617980957E-001;3.950330242514610E-002;-2.876188140362501E-003;4.129116423428059E-003;
2.408000000000000E+009;1.966736614704132E-001;3.956198692321777E-002;-2.795551903545857E-003;4.194946028292179E-003;
2.408166666666667E+009;1.960618495941162E-001;3.920716047286987E-002;-2.664213767275214E-003;4.189458675682545E-003;
2.408333333333334E+009;1.956982165575028E-001;3.892739489674568E-002;-2.483034506440163E-003;3.978059161454439E-003;
2.408500000000000E+009;1.950218975543976E-001;3.862233832478523E-002;-2.351465402171016E-003;4.078364931046963E-003;
2.408666666666667E+009;1.944078207015991E-001;3.829267621040344E-002;-2.345757791772485E-003;4.021541681140661E-003;
2.408833333333334E+009;1.936163604259491E-001;3.757645934820175E-002;-2.121434547007084E-003;3.935049287974834E-003;
2.409000000000000E+009;1.927190721035004E-001;3.685846924781799E-002;-2.081003040075302E-003;3.893796820193529E-003;
2.409166666666667E+009;1.918479055166245E-001;3.590447455644608E-002;-1.979949418455362E-003;3.880444215610623E-003;
2.409333333333334E+009;1.907956302165985E-001;3.518497571349144E-002;-1.887312857434154E-003;3.895282512530685E-003;
2.409500000000000E+009;1.897635012865067E-001;3.381132706999779E-002;-1.906026038341224E-003;3.797573270276189E-003;
2.409666666666667E+009;1.886232048273087E-001;3.245611861348152E-002;-1.800355850718916E-003;3.790280781686306E-003;
2.409833333333334E+009;1.875272244215012E-001;3.103788010776043E-002;-1.804264960810542E-003;3.939644899219275E-003;
2.410000000000000E+009;1.864926218986511E-001;2.944456785917282E-002;-1.617382862605155E-003;3.806210588663817E-003;
2.410166666666667E+009;1.855462193489075E-001;2.766905538737774E-002;-1.581605640240014E-003;3.872333327308297E-003;
2.410333333333334E+009;1.844388693571091E-001;2.598130144178867E-002;-1.539572724141181E-003;3.724454203620553E-003;
2.410500000000000E+009;1.835713684558868E-001;2.395416423678398E-002;-1.519455225206912E-003;3.828165819868445E-003;
2.410666666666667E+009;1.824866980314255E-001;2.177868038415909E-002;-1.418430823832750E-003;3.826500149443746E-003;
2.410833333333334E+009;1.816211789846420E-001;1.941316761076450E-002;-1.457675360143185E-003;3.872658591717482E-003;
2.411000000000000E+009;1.810613125562668E-001;1.747989468276501E-002;-1.385349780321121E-003;3.789439098909497E-003;
2.411166666666667E+009;1.802521347999573E-001;1.506575010716915E-002;-1.511177164502442E-003;3.867373336106539E-003;
2.411333333333334E+009;1.796159148216248E-001;1.271194405853748E-002;-1.291266758926213E-003;3.817832795903087E-003;
2.411500000000000E+009;1.793030053377152E-001;1.010755077004433E-002;-1.426364178769290E-003;3.984130453318358E-003;
2.411666666666667E+009;1.789957582950592E-001;7.971110753715038E-003;-1.327650621533394E-003;3.998910076916218E-003;
2.411833333333334E+009;1.787233501672745E-001;5.402671638876200E-003;-1.232311595231295E-003;4.052815027534962E-003;
2.412000000000000E+009;1.789506524801254E-001;2.870500786229968E-003;-1.314307446591556E-003;3.855133662000299E-003;
2.412166666666667E+009;1.790470927953720E-001;3.211332077626139E-004;-1.023677061311901E-003;4.124570637941361E-003;
2.412333333333334E+009;1.792002767324448E-001;-2.062041079625487E-003;-1.198995858430862E-003;4.126122687011957E-003;
2.412500000000000E+009;1.796598881483078E-001;-4.798680078238249E-003;-1.172474469058216E-003;4.163336008787155E-003;
2.412666666666667E+009;1.801544129848480E-001;-7.140546105802059E-003;-1.072827144525945E-003;4.191201645880938E-003;
2.412833333333334E+009;1.810199767351151E-001;-9.616904892027378E-003;-9.819251717999578E-004;4.442837089300156E-003;
2.413000000000000E+009;1.815998256206513E-001;-1.213947590440512E-002;-1.101783593185246E-003;4.518450703471899E-003;
2.413166666666667E+009;1.824426651000977E-001;-1.447478868067265E-002;-1.056666602380574E-003;4.751948639750481E-003;
2.413333333333334E+009;1.835743337869644E-001;-1.688827387988567E-002;-9.154492872767150E-004;4.828396253287792E-003;
2.413500000000000E+009;1.844340562820435E-001;-1.929779909551144E-002;-8.790911524556577E-004;5.004815757274628E-003;
2.413666666666667E+009;1.857545971870422E-001;-2.163203991949558E-002;-6.780892726965249E-004;5.080884788185358E-003;
2.413833333333334E+009;1.868935823440552E-001;-2.382097207009792E-002;-6.567335803993046E-004;5.316417664289475E-003;
2.414000000000000E+009;1.879127323627472E-001;-2.579819597303867E-002;-4.265247262082994E-004;5.396066233515739E-003;
2.414166666666667E+009;1.894057095050812E-001;-2.765642851591110E-002;-2.409774169791490E-004;5.372237414121628E-003;
2.414333333333334E+009;1.904943436384201E-001;-2.968345768749714E-002;-4.398107193992473E-006;5.651992280036211E-003;
2.414500000000000E+009;1.918422281742096E-001;-3.129309788346291E-002;3.304089477751404E-004;5.667136982083321E-003;
2.414666666666667E+009;1.932577341794968E-001;-3.276119008660317E-002;4.851797420997173E-004;5.618934519588947E-003;
2.414833333333334E+009;1.945409029722214E-001;-3.430760279297829E-002;7.616784423589706E-004;5.801777821034193E-003;
2.415000000000000E+009;1.957335621118546E-001;-3.558528423309326E-002;9.202451910823584E-004;5.717875435948372E-003;
2.415166666666667E+009;1.970721930265427E-001;-3.678020089864731E-002;1.197013305500150E-003;5.882005207240582E-003;
2.415333333333334E+009;1.982127726078033E-001;-3.771992400288582E-002;1.447034068405628E-003;5.850714165717363E-003;
2.415500000000000E+009;1.993797868490219E-001;-3.855624049901962E-002;1.733125885948539E-003;5.843463819473982E-003;
2.415666666666667E+009;2.005453258752823E-001;-3.949400037527084E-002;1.881625619716942E-003;5.964634008705616E-003;
2.415833333333334E+009;2.014577090740204E-001;-4.002778977155685E-002;2.398137236014009E-003;5.978525616228581E-003;
2.416000000000000E+009;2.023245394229889E-001;-4.072480648756027E-002;2.502936171367765E-003;5.870529916137457E-003;
2.416166666666667E+009;2.030008882284164E-001;-4.127381742000580E-002;2.701322082430124E-003;5.900240037590265E-003;
2.416333333333334E+009;2.037746310234070E-001;-4.156944900751114E-002;3.102633170783520E-003;5.804767832159996E-003;
2.416500000000000E+009;2.042188942432404E-001;-4.190180823206902E-002;3.391089150682092E-003;5.496381316334009E-003;
2.416666666666667E+009;2.046554237604141E-001;-4.214670509099960E-002;3.654781961813569E-003;5.430967081338167E-003;
2.416833333333334E+009;2.047841697931290E-001;-4.217000678181648E-002;3.884143661707640E-003;5.461854860186577E-003;
2.417000000000000E+009;2.048871964216232E-001;-4.226485639810562E-002;4.273622296750546E-003;5.278494674712420E-003;
2.417166666666667E+009;2.047237604856491E-001;-4.213206097483635E-002;4.390300251543522E-003;5.077346228063107E-003;
2.417333333333334E+009;2.045717835426331E-001;-4.187911003828049E-002;4.614355042576790E-003;4.875279963016510E-003;
2.417500000000000E+009;2.043471932411194E-001;-4.191139340400696E-002;4.899876657873392E-003;4.580870736390352E-003;
2.417666666666667E+009;2.036868929862976E-001;-4.158186167478561E-002;5.051339510828257E-003;4.319903440773487E-003;
2.417833333333334E+009;2.032671272754669E-001;-4.135430604219437E-002;5.070172250270844E-003;4.019993357360363E-003;
2.418000000000000E+009;2.026195973157883E-001;-4.094464704394341E-002;5.287942476570606E-003;3.794403281062841E-003;
2.418166666666667E+009;2.019070982933044E-001;-4.084735363721848E-002;5.338533781468868E-003;3.719261148944497E-003;
2.418333333333334E+009;2.009008824825287E-001;-4.060098528862000E-002;5.494298879057169E-003;3.453894285485148E-003;
2.418500000000000E+009;1.998934596776962E-001;-4.060800001025200E-002;5.552943330258131E-003;3.203633707016707E-003;
2.418666666666667E+009;1.989126950502396E-001;-4.027923569083214E-002;5.476008169353008E-003;2.942491555586457E-003;
2.418833333333334E+009;1.977316290140152E-001;-4.059619829058647E-002;5.634358618408442E-003;2.752187196165323E-003;
2.419000000000000E+009;1.963907331228256E-001;-4.074158892035484E-002;5.641266237944365E-003;2.612708136439323E-003;
2.419166666666667E+009;1.948927640914917E-001;-4.091884568333626E-002;5.564307793974876E-003;2.412852365523577E-003;
2.419333333333334E+009;1.935613751411438E-001;-4.142300784587860E-002;5.683897994458675E-003;2.353538991883397E-003;
2.419500000000000E+009;1.919340789318085E-001;-4.185855388641357E-002;5.794499069452286E-003;1.984421629458666E-003;
2.419666666666667E+009;1.902167648077011E-001;-4.271781444549561E-002;5.712236743420363E-003;1.840006560087204E-003;
2.419833333333334E+009;1.886052191257477E-001;-4.310958832502365E-002;5.815291311591864E-003;1.852817717008293E-003;
2.420000000000000E+009;1.869372725486755E-001;-4.403267055749893E-002;5.848050117492676E-003;1.752243726514280E-003;
2.420166666666667E+009;1.853299140930176E-001;-4.496325924992561E-002;5.893406923860312E-003;1.637438661418855E-003;
2.420333333333334E+009;1.834526956081390E-001;-4.624744132161140E-002;5.910968873649836E-003;1.196691533550620E-003;
2.420500000000000E+009;1.818388253450394E-001;-4.749972745776177E-002;6.197785958647728E-003;1.052581821568310E-003;
2.420666666666667E+009;1.800004243850708E-001;-4.853435233235359E-002;6.100900005549192E-003;8.993766386993229E-004;
2.420833333333334E+009;1.785087883472443E-001;-5.016496777534485E-002;6.198788527399302E-003;6.210218998603523E-004;
2.421000000000000E+009;1.768873035907745E-001;-5.169148370623589E-002;6.258246488869190E-003;5.187630886211991E-004;
2.421166666666667E+009;1.753775626420975E-001;-5.345565825700760E-002;6.222045980393887E-003;1.552009489387274E-004;
2.421333333333334E+009;1.736914068460465E-001;-5.492774024605751E-002;6.176774390041828E-003;-2.207427132816520E-005;
2.421500000000000E+009;1.722642630338669E-001;-5.694971233606339E-002;6.237871479243040E-003;-1.707560586510226E-004;
2.421666666666667E+009;1.709044426679611E-001;-5.886872857809067E-002;6.195960566401482E-003;-4.169378371443600E-004;
2.421833333333334E+009;1.698244214057922E-001;-6.080109626054764E-002;6.210010498762131E-003;-7.788753136992455E-004;
2.422000000000000E+009;1.687286943197250E-001;-6.266053020954132E-002;6.031570490449667E-003;-9.733396582305431E-004;
2.422166666666667E+009;1.677486300468445E-001;-6.486234813928604E-002;6.175173446536064E-003;-1.161554595455527E-003;
2.422333333333334E+009;1.665620207786560E-001;-6.712294369935989E-002;6.024238653481007E-003;-1.413989230059087E-003;
2.422500000000000E+009;1.658224165439606E-001;-6.896691769361496E-002;5.823497660458088E-003;-1.605908037163317E-003;
2.422666666666667E+009;1.651226878166199E-001;-7.127780467271805E-002;5.826028995215893E-003;-1.770306960679591E-003;
2.422833333333334E+009;1.646423935890198E-001;-7.332543283700943E-002;5.617599468678236E-003;-2.121137455105782E-003;
2.423000000000000E+009;1.641661971807480E-001;-7.569518685340881E-002;5.641928408294916E-003;-2.307515824213624E-003;
2.423166666666667E+009;1.636345982551575E-001;-7.766191661357880E-002;5.371192004531622E-003;-2.467856975272298E-003;
2.423333333333334E+009;1.635324954986572E-001;-7.990514487028122E-002;5.211887881159782E-003;-2.531393431127071E-003;
2.423500000000000E+009;1.635842323303223E-001;-8.173642307519913E-002;5.057651549577713E-003;-2.763468772172928E-003;
2.423666666666667E+009;1.634610742330551E-001;-8.364568650722504E-002;4.865972790867090E-003;-2.845378359779716E-003;
2.423833333333334E+009;1.635700166225433E-001;-8.569554239511490E-002;4.710026551038027E-003;-2.942944876849651E-003;
2.424000000000000E+009;1.635981947183609E-001;-8.743252605199814E-002;4.695479292422533E-003;-3.188065718859434E-003;
2.424166666666667E+009;1.637339144945145E-001;-8.926849812269211E-002;4.473202396184206E-003;-3.214744618162513E-003;
2.424333333333334E+009;1.640991419553757E-001;-9.080696105957031E-002;4.369524773210287E-003;-3.289743792265654E-003;
2.424500000000000E+009;1.645988076925278E-001;-9.273803979158402E-002;4.072202369570732E-003;-3.425978356972337E-003;
2.424666666666667E+009;1.648372709751129E-001;-9.411079436540604E-002;3.948366269469261E-003;-3.598662093281746E-003;
2.424833333333334E+009;1.654828637838364E-001;-9.551710635423660E-002;3.837874159216881E-003;-3.479739418253303E-003;
2.425000000000000E+009;1.659201830625534E-001;-9.681022167205811E-002;3.696242580190301E-003;-3.583566285669804E-003;
2.425166666666667E+009;1.663868874311447E-001;-9.796258062124252E-002;3.714628983289003E-003;-3.656916087493300E-003;
2.425333333333334E+009;1.668626666069031E-001;-9.910473227500916E-002;3.431107150390744E-003;-3.828810295090079E-003;
2.425500000000000E+009;1.673987209796906E-001;-1.001079380512238E-001;3.338490379974246E-003;-3.836422460153699E-003;
2.425666666666667E+009;1.678898632526398E-001;-1.006649434566498E-001;3.178970189765096E-003;-3.888966282829642E-003;
2.425833333333334E+009;1.683561056852341E-001;-1.017359495162964E-001;3.107798984274268E-003;-3.906428348273039E-003;
2.426000000000000E+009;1.688502579927445E-001;-1.020835265517235E-001;3.051419742405415E-003;-4.066839348524809E-003;
2.426166666666667E+009;1.692958325147629E-001;-1.026274636387825E-001;2.734135137870908E-003;-3.889695741236210E-003;
2.426333333333334E+009;1.695129573345184E-001;-1.030917987227440E-001;2.661115489900112E-003;-4.060156177729368E-003;
2.426500000000000E+009;1.699425280094147E-001;-1.035109013319016E-001;2.567447954788804E-003;-4.191219341009855E-003;
2.426666666666667E+009;1.702802479267120E-001;-1.036528125405312E-001;2.573817502707243E-003;-4.161408171057701E-003;
2.426833333333334E+009;1.707820147275925E-001;-1.039139181375504E-001;2.486848505213857E-003;-4.189257510006428E-003;
2.427000000000000E+009;1.707586497068405E-001;-1.041155382990837E-001;2.360846148803830E-003;-4.066781140863895E-003;
2.427166666666667E+009;1.709509193897247E-001;-1.041740104556084E-001;2.189060673117638E-003;-4.220429807901382E-003;
2.427333333333334E+009;1.708687692880631E-001;-1.044191941618919E-001;2.086027292534709E-003;-4.386687185615301E-003;
2.427500000000000E+009;1.707267612218857E-001;-1.044799238443375E-001;2.005391055718064E-003;-4.339572973549366E-003;
2.427666666666667E+009;1.705476641654968E-001;-1.044988706707954E-001;1.887420425191522E-003;-4.370323847979307E-003;
2.427833333333334E+009;1.702510267496109E-001;-1.045844629406929E-001;1.704453607089818E-003;-4.573112353682518E-003;
