# Version 1.00
#
freq[Hz];re:Trc1_S11;im:Trc1_S11;re:Trc2_S21;im:Trc2_S21;
2.400000000000000E+009;1.692786514759064E-001;4.579954966902733E-002;-3.153141122311354E-003;-3.539172699674964E-003;
2.400166666666667E+009;1.702916771173477E-001;4.478545859456062E-002;-3.279890632256866E-003;-3.187436377629638E-003;
2.400333333333334E+009;1.711201369762421E-001;4.376743733882904E-002;-3.304942976683378E-003;-3.010242478922010E-003;
2.400500000000000E+009;1.722011864185333E-001;4.275854676961899E-002;-3.468408249318600E-003;-2.788405865430832E-003;
2.400666666666667E+009;1.730529367923737E-001;4.177636653184891E-002;-3.597130533307791E-003;-2.510945079848170E-003;
2.400833333333334E+009;1.739752590656281E-001;4.117359593510628E-002;-3.471771255135536E-003;-2.441108925268054E-003;
2.401000000000000E+009;1.746813654899597E-001;4.033638164401054E-002;-3.737027989700437E-003;-2.263691276311874E-003;
2.401166666666667E+009;1.755895465612412E-001;3.966227173805237E-002;-3.568986430764198E-003;-2.237518550828099E-003;
2.401333333333334E+009;1.760722398757935E-001;3.878676146268845E-002;-3.543213475495577E-003;-2.032161690294743E-003;
2.401500000000000E+009;1.770831644535065E-001;3.836024180054665E-002;-3.579395357519388E-003;-1.860063755884767E-003;
2.401666666666667E+009;1.776682883501053E-001;3.797277808189392E-002;-3.633507760241628E-003;-1.797028700821102E-003;
2.401833333333334E+009;1.781336218118668E-001;3.726045787334442E-002;-3.603051416575909E-003;-1.628015073947609E-003;
2.402000000000000E+009;1.785204708576202E-001;3.679470345377922E-002;-3.745141671970487E-003;-1.448430353775621E-003;
2.402166666666667E+009;1.788841784000397E-001;3.633853420615196E-002;-3.603470046073198E-003;-1.601651427336037E-003;
2.402333333333334E+009;1.791869997978210E-001;3.578019142150879E-002;-3.791106166318059E-003;-1.169511000625789E-003;
2.402500000000000E+009;1.796645373106003E-001;3.501325473189354E-002;-3.768061986193061E-003;-1.210364862345159E-003;
2.402666666666667E+009;1.798546314239502E-001;3.456944972276688E-002;-3.887329017743468E-003;-1.090196426957846E-003;
2.402833333333334E+009;1.798494309186935E-001;3.395745903253555E-002;-3.797904355451465E-003;-9.449000353924930E-004;
2.403000000000000E+009;1.801244914531708E-001;3.323833271861076E-002;-3.777907462790608E-003;-8.414683397859335E-004;
2.403166666666667E+009;1.801118850708008E-001;3.259052336215973E-002;-3.928571008145809E-003;-6.884979666210711E-004;
2.403333333333334E+009;1.798646003007889E-001;3.170005604624748E-002;-3.681697649881244E-003;-6.257083150558174E-004;
2.403500000000000E+009;1.796916872262955E-001;3.081745654344559E-002;-3.672369988635182E-003;-5.108118057250977E-004;
2.403666666666667E+009;1.795042604207993E-001;2.984123118221760E-002;-3.597489325329661E-003;-5.370341823436320E-004;
2.403833333333334E+009;1.791310608386993E-001;2.880774065852165E-002;-3.792507806792855E-003;-2.755138848442584E-004;
2.404000000000000E+009;1.787892729043961E-001;2.769398689270020E-002;-3.847444662824273E-003;-1.992954203160480E-004;
2.404166666666667E+009;1.782183498144150E-001;2.653817087411881E-002;-3.843698417767882E-003;8.769358100835234E-005;
2.404333333333334E+009;1.777690500020981E-001;2.549972385168076E-002;-3.940286580473185E-003;-9.017570846481249E-005;
2.404500000000000E+009;1.773423701524735E-001;2.397671714425087E-002;-3.796390723437071E-003;3.701997629832476E-004;
2.404666666666667E+009;1.767981946468353E-001;2.255464345216751E-002;-3.792027244344354E-003;3.760119434446096E-004;
2.404833333333334E+009;1.762914806604385E-001;2.111644670367241E-002;-3.578817006200552E-003;4.267407348379493E-004;
2.405000000000000E+009;1.758302003145218E-001;1.952886395156384E-002;-3.868011292070150E-003;4.687621840275824E-004;
2.405166666666667E+009;1.753848195075989E-001;1.799373514950275E-002;-3.624877892434597E-003;6.940803723409772E-004;
2.405333333333334E+009;1.747621148824692E-001;1.617728546261787E-002;-3.633557818830013E-003;6.838469416834414E-004;
2.405500000000000E+009;1.744648963212967E-001;1.457453984767199E-002;-3.561930498108268E-003;8.472000481560826E-004;
2.405666666666667E+009;1.738937050104141E-001;1.275485847145319E-002;-3.731440287083387E-003;9.233866003341973E-004;
2.405833333333334E+009;1.734720170497894E-001;1.116226240992546E-002;-3.430557437241077E-003;1.051581115461886E-003;
2.406000000000000E+009;1.732911467552185E-001;9.022288955748081E-003;-3.367871046066284E-003;1.125051523558796E-003;
2.406166666666667E+009;1.727562397718430E-001;7.173032499849796E-003;-3.524725558236241E-003;1.192842959426343E-003;
2.406333333333334E+009;1.728233993053436E-001;5.136301275342703E-003;-3.465194953605533E-003;1.135620987042785E-003;
2.406500000000000E+009;1.725937426090241E-001;3.111252561211586E-003;-3.288022708147764E-003;1.258371979929507E-003;
2.406666666666667E+009;1.723811328411102E-001;9.982653427869082E-004;-3.305529011413455E-003;1.186324981972575E-003;
2.406833333333334E+009;1.723550856113434E-001;-1.156936050392687E-003;-3.193689044564962E-003;1.342369941994548E-003;
2.407000000000000E+009;1.725672483444214E-001;-3.301307559013367E-003;-3.275299677625299E-003;1.386677264235914E-003;
2.407166666666667E+009;1.726485639810562E-001;-5.222408100962639E-003;-3.286222228780389E-003;1.369840232655406E-003;
2.407333333333334E+009;1.727765202522278E-001;-7.574481889605522E-003;-3.372538601979613E-003;1.514919218607247E-003;
2.407500000000000E+009;1.729137748479843E-001;-9.650488384068012E-003;-3.451024647802115E-003;1.533264410682023E-003;
2.407666666666667E+009;1.731549501419067E-001;-1.175154652446508E-002;-3.594605484977365E-003;1.676992396824062E-003;
2.407833333333334E+009;1.733762621879578E-001;-1.389522291719914E-002;-3.573179710656405E-003;1.718627405352891E-003;
2.408000000000000E+009;1.738445460796356E-001;-1.602116040885449E-002;-3.455014666542411E-003;1.990140415728092E-003;
2.408166666666667E+009;1.741430908441544E-001;-1.787553168833256E-002;-3.669559489935637E-003;2.039126353338361E-003;
2.408333333333334E+009;1.748815476894379E-001;-1.986686326563358E-002;-3.562898142263293E-003;2.470875624567270E-003;
2.408500000000000E+009;1.751514673233032E-001;-2.181353792548180E-002;-3.642682684585452E-003;2.702849917113781E-003;
2.408666666666667E+009;1.756389141082764E-001;-2.381322905421257E-002;-3.616828704252839E-003;2.914767246693373E-003;
2.408833333333334E+009;1.758735775947571E-001;-2.556093595921993E-002;-3.533698618412018E-003;3.118810476735234E-003;
2.409000000000000E+009;1.765125095844269E-001;-2.710669860243797E-002;-3.420046530663967E-003;3.321845550090075E-003;
2.409166666666667E+009;1.770252883434296E-001;-2.867910079658032E-002;-3.268361324444413E-003;3.609597682952881E-003;
2.409333333333334E+009;1.775370389223099E-001;-3.014519624412060E-002;-3.187218215316534E-003;3.691395977512002E-003;
2.409500000000000E+009;1.779799312353134E-001;-3.161364048719406E-002;-2.820500172674656E-003;4.005725961178541E-003;
2.409666666666667E+009;1.783044785261154E-001;-3.273458406329155E-002;-2.637159777805209E-003;4.128611180931330E-003;
2.409833333333334E+009;1.788292080163956E-001;-3.380431607365608E-002;-2.415661700069904E-003;4.217628855258226E-003;
2.410000000000000E+009;1.795366406440735E-001;-3.485564887523651E-002;-2.131467685103416E-003;4.378825426101685E-003;
2.410166666666667E+009;1.801053732633591E-001;-3.572849184274674E-002;-1.873999717645347E-003;4.584578797221184E-003;
2.410333333333334E+009;1.802866011857987E-001;-3.657868504524231E-002;-1.720581669360399E-003;4.484593402594328E-003;
2.410500000000000E+009;1.806643456220627E-001;-3.738199919462204E-002;-1.474222401157022E-003;4.640382248908281E-003;
2.410666666666667E+009;1.810688674449921E-001;-3.808512166142464E-002;-1.261895871721208E-003;4.660702776163817E-003;
2.410833333333334E+009;1.816163361072540E-001;-3.862735256552696E-002;-1.058401190675795E-003;4.603559151291847E-003;
2.411000000000000E+009;1.819309294223785E-001;-3.938100114464760E-002;-9.037362760864198E-004;4.646011162549257E-003;
2.411166666666667E+009;1.821457147598267E-001;-3.975120931863785E-002;-6.299414671957493E-004;4.598420113325119E-003;
2.411333333333334E+009;1.821873784065247E-001;-4.014927893877029E-002;-4.382642800919712E-004;4.490278661251068E-003;
2.411500000000000E+009;1.823378801345825E-001;-4.070340842008591E-002;-1.982092362595722E-004;4.652608186006546E-003;
2.411666666666667E+009;1.824312955141068E-001;-4.100507870316505E-002;-1.640741247683764E-004;4.549619741737843E-003;
2.411833333333334E+009;1.823974549770355E-001;-4.131782799959183E-002;1.201278355438262E-004;4.432589747011662E-003;
2.412000000000000E+009;1.821431666612625E-001;-4.172015190124512E-002;2.178221038775519E-004;4.578349180519581E-003;
2.412166666666667E+009;1.816922575235367E-001;-4.189919680356979E-002;2.705192018765956E-004;4.439913667738438E-003;
2.412333333333334E+009;1.816471666097641E-001;-4.218075051903725E-002;5.492825875990093E-004;4.337088204920292E-003;
2.412500000000000E+009;1.809449344873428E-001;-4.253825545310974E-002;4.559644148685038E-004;4.424673039466143E-003;
2.412666666666667E+009;1.804686933755875E-001;-4.299562424421310E-002;8.184924372471869E-004;4.296099301427603E-003;
2.412833333333334E+009;1.796343028545380E-001;-4.335096478462219E-002;9.021112928166986E-004;4.320749081671238E-003;
2.413000000000000E+009;1.789626032114029E-001;-4.363868013024330E-002;1.062509953044355E-003;4.253050312399864E-003;
2.413166666666667E+009;1.779803782701492E-001;-4.401712492108345E-002;1.034378190524876E-003;4.292791243642569E-003;
2.413333333333334E+009;1.770525425672531E-001;-4.448143020272255E-002;1.292336732149124E-003;4.364991560578346E-003;
2.413500000000000E+009;1.761374920606613E-001;-4.486186802387238E-002;1.409730990417302E-003;4.158358555287123E-003;
2.413666666666667E+009;1.750372946262360E-001;-4.544373974204063E-002;1.633431878872216E-003;4.231307655572891E-003;
2.413833333333334E+009;1.738622635602951E-001;-4.582820460200310E-002;1.802631188184023E-003;4.214500077068806E-003;
2.414000000000000E+009;1.727633178234100E-001;-4.658531397581101E-002;1.895976834930480E-003;4.053355194628239E-003;
2.414166666666667E+009;1.714710444211960E-001;-4.719489440321922E-002;2.122861566022039E-003;4.024007823318243E-003;
2.414333333333334E+009;1.702630370855331E-001;-4.792273044586182E-002;2.320012077689171E-003;3.880996257066727E-003;
2.414500000000000E+009;1.693807393312454E-001;-4.883204028010368E-002;2.517212182283402E-003;3.860089695081115E-003;
2.414666666666667E+009;1.678504794836044E-001;-4.981506243348122E-002;2.568097086623311E-003;3.819424891844392E-003;
2.414833333333334E+009;1.665628999471664E-001;-5.083162710070610E-002;2.910388400778174E-003;3.700476139783859E-003;
2.415000000000000E+009;1.653427183628082E-001;-5.191082134842873E-002;3.096695756539702E-003;3.625561483204365E-003;
2.415166666666667E+009;1.641623675823212E-001;-5.320251733064652E-002;3.090836573392153E-003;3.520019585266709E-003;
2.415333333333334E+009;1.630942076444626E-001;-5.450174212455750E-002;3.181606065481901E-003;3.134622238576412E-003;
2.415500000000000E+009;1.617835164070129E-001;-5.601882189512253E-002;3.582685021683574E-003;2.982691628858447E-003;
2.415666666666667E+009;1.606035679578781E-001;-5.738877877593041E-002;3.705564886331558E-003;2.790268976241350E-003;
2.415833333333334E+009;1.596683710813522E-001;-5.892720073461533E-002;3.607692895457149E-003;2.450357889756560E-003;
2.416000000000000E+009;1.583331376314163E-001;-6.062904000282288E-002;3.681148868054152E-003;2.361839404329658E-003;
2.416166666666667E+009;1.575452983379364E-001;-6.244911998510361E-002;3.831984009593725E-003;2.046533860266209E-003;
2.416333333333334E+009;1.565959155559540E-001;-6.419485807418823E-002;3.748567774891853E-003;1.879854709841311E-003;
2.416500000000000E+009;1.556045860052109E-001;-6.614565104246140E-002;3.831964917480946E-003;1.784125692211092E-003;
2.416666666666667E+009;1.546710729598999E-001;-6.795343011617661E-002;3.837894415482879E-003;1.376881962642074E-003;
2.416833333333334E+009;1.540557444095612E-001;-6.993071734905243E-002;3.858321346342564E-003;1.257521100342274E-003;
2.417000000000000E+009;1.530789136886597E-001;-7.187881320714951E-002;3.777925623580813E-003;1.214746967889369E-003;
2.417166666666667E+009;1.524416655302048E-001;-7.383309304714203E-002;3.695465391501784E-003;1.002650125883520E-003;
2.417333333333334E+009;1.519013792276382E-001;-7.580395787954330E-002;3.667752025648952E-003;8.607412455603480E-004;
2.417500000000000E+009;1.513725817203522E-001;-7.786622643470764E-002;3.547393484041095E-003;6.217233603820205E-004;
2.417666666666667E+009;1.509194970130920E-001;-7.963420450687408E-002;3.535339143127203E-003;3.616334579419345E-004;
2.417833333333334E+009;1.505173444747925E-001;-8.157346397638321E-002;3.533823648467660E-003;5.325578385964036E-004;
2.418000000000000E+009;1.501806527376175E-001;-8.351292461156845E-002;3.440159372985363E-003;2.897260710597038E-004;
2.418166666666667E+009;1.498547792434692E-001;-8.515135198831558E-002;3.202531952410936E-003;4.761595628224313E-004;
2.418333333333334E+009;1.500301808118820E-001;-8.702573925256729E-002;3.225719789043069E-003;2.067694294964895E-004;
2.418500000000000E+009;1.496933400630951E-001;-8.856716006994247E-002;3.153966972604394E-003;2.181290910812095E-004;
2.418666666666667E+009;1.497240513563156E-001;-9.020339697599411E-002;3.124698530882597E-003;8.266785880550742E-005;
2.418833333333334E+009;1.496104449033737E-001;-9.167919307947159E-002;3.129648743197322E-003;1.313951070187613E-004;
2.419000000000000E+009;1.494897305965424E-001;-9.302201867103577E-002;3.091847756877542E-003;4.745889327750774E-006;
2.419166666666667E+009;1.497239768505096E-001;-9.432149678468704E-002;3.107552649453282E-003;-5.391263402998447E-005;
2.419333333333334E+009;1.497004479169846E-001;-9.538909792900085E-002;3.165493719279766E-003;-1.864238583948463E-004;
2.419500000000000E+009;1.500425338745117E-001;-9.647729247808456E-002;3.202589694410563E-003;-2.373170573264360E-004;
2.419666666666667E+009;1.503248363733292E-001;-9.743046015501022E-002;3.214173251762986E-003;-1.600923133082688E-004;
2.419833333333334E+009;1.503565013408661E-001;-9.816674888134003E-002;3.073868108913302E-003;-3.425440518185496E-004;
2.420000000000000E+009;1.509773731231690E-001;-9.894333034753799E-002;3.092950442805886E-003;-4.106147680431604E-004;
2.420166666666667E+009;1.509757190942764E-001;-9.937176853418350E-002;3.050603205338121E-003;-6.139596807770431E-004;
2.420333333333334E+009;1.514138132333756E-001;-9.999743849039078E-002;3.003456164151430E-003;-5.218778387643397E-004;
2.420500000000000E+009;1.518090367317200E-001;-1.001344323158264E-001;3.027000930160284E-003;-6.790106417611241E-004;
2.420666666666667E+009;1.519490182399750E-001;-1.003430262207985E-001;2.920351922512054E-003;-8.819944341666997E-004;
2.420833333333334E+009;1.522843390703201E-001;-1.005599796772003E-001;2.889294642955065E-003;-8.632371900603175E-004;
2.421000000000000E+009;1.524259448051453E-001;-1.005221307277679E-001;2.821576781570911E-003;-8.946585003286600E-004;
2.421166666666667E+009;1.527095586061478E-001;-1.005707383155823E-001;2.749850507825613E-003;-1.112139201723039E-003;
2.421333333333334E+009;1.529940962791443E-001;-1.004710718989372E-001;2.736663911491633E-003;-1.147397095337510E-003;
2.421500000000000E+009;1.530034095048904E-001;-1.002655252814293E-001;2.885605208575726E-003;-1.108727883547545E-003;
2.421666666666667E+009;1.530453562736511E-001;-1.001342758536339E-001;2.719056326895952E-003;-1.181690837256610E-003;
2.421833333333334E+009;1.528809070587158E-001;-9.985123574733734E-002;2.642728155478835E-003;-1.116626663133502E-003;
2.422000000000000E+009;1.528059989213944E-001;-9.966651350259781E-002;2.802236471325159E-003;-1.410326687619090E-003;
2.422166666666667E+009;1.525705009698868E-001;-9.949079155921936E-002;2.741458592936397E-003;-1.225371728651226E-003;
2.422333333333334E+009;1.522651165723801E-001;-9.904376417398453E-002;2.658092183992267E-003;-1.523846643976867E-003;
2.422500000000000E+009;1.515503078699112E-001;-9.848931431770325E-002;2.760721836239100E-003;-1.404874143190682E-003;
2.422666666666667E+009;1.510652154684067E-001;-9.822472184896469E-002;2.643833635374904E-003;-1.585740596055985E-003;
2.422833333333334E+009;1.504828929901123E-001;-9.796614944934845E-002;2.615335164591670E-003;-1.717862091027200E-003;
2.423000000000000E+009;1.496161520481110E-001;-9.746325761079788E-002;2.570772543549538E-003;-1.803476596251130E-003;
2.423166666666667E+009;1.488092243671417E-001;-9.721623361110687E-002;2.542719244956970E-003;-1.878431998193264E-003;
2.423333333333334E+009;1.478366404771805E-001;-9.655445069074631E-002;2.363403560593724E-003;-2.075453754514456E-003;
2.423500000000000E+009;1.468129754066467E-001;-9.642612189054489E-002;2.336616627871990E-003;-2.010144991800189E-003;
2.423666666666667E+009;1.454027891159058E-001;-9.610024839639664E-002;2.238090848550201E-003;-2.156059490516782E-003;
2.423833333333334E+009;1.443544924259186E-001;-9.592584520578384E-002;2.090147463604808E-003;-2.287219045683742E-003;
2.424000000000000E+009;1.429347246885300E-001;-9.563757479190826E-002;1.968499040231109E-003;-2.305504633113742E-003;
2.424166666666667E+009;1.415597647428513E-001;-9.546813368797302E-002;1.911334926262498E-003;-2.495862077921629E-003;
2.424333333333334E+009;1.401216834783554E-001;-9.531883895397186E-002;1.747238333337009E-003;-2.357636112719774E-003;
2.424500000000000E+009;1.386567503213882E-001;-9.547255188226700E-002;1.628323690965772E-003;-2.327796071767807E-003;
2.424666666666667E+009;1.373941600322723E-001;-9.536687284708023E-002;1.738131162710488E-003;-2.474355744197965E-003;
2.424833333333334E+009;1.356700360774994E-001;-9.563071280717850E-002;1.777341589331627E-003;-2.511292463168502E-003;
2.425000000000000E+009;1.342163085937500E-001;-9.597693383693695E-002;1.454063924029470E-003;-2.419310389086604E-003;
2.425166666666667E+009;1.325500309467316E-001;-9.636906534433365E-002;1.284520607441664E-003;-2.605909714475274E-003;
2.425333333333334E+009;1.310694068670273E-001;-9.680382162332535E-002;1.359087182208896E-003;-2.649830654263496E-003;
2.425500000000000E+009;1.298023164272308E-001;-9.760130941867828E-002;1.171600888483226E-003;-2.622724277898669E-003;
2.425666666666667E+009;1.281187683343887E-001;-9.838701039552689E-002;1.068270299583674E-003;-2.750594867393374E-003;
2.425833333333334E+009;1.266010403633118E-001;-9.928188472986221E-002;1.115216291509569E-003;-2.538008848205209E-003;
2.426000000000000E+009;1.252426207065582E-001;-1.003529280424118E-001;8.891024044714868E-004;-2.499101450666785E-003;
2.426166666666667E+009;1.240093335509300E-001;-1.014530956745148E-001;8.957049576565623E-004;-2.652497030794621E-003;
2.426333333333334E+009;1.225134432315826E-001;-1.027053967118263E-001;7.369345985352993E-004;-2.741203643381596E-003;
2.426500000000000E+009;1.213844045996666E-001;-1.040125191211700E-001;8.114420925267041E-004;-2.768811071291566E-003;
2.426666666666667E+009;1.202469095587730E-001;-1.053370982408524E-001;5.849878070876002E-004;-2.562148729339242E-003;
2.426833333333334E+009;1.190287172794342E-001;-1.068421453237534E-001;4.297767300158739E-004;-2.553368452936411E-003;
2.427000000000000E+009;1.179485023021698E-001;-1.085878834128380E-001;3.488058282528073E-004;-2.587080700322986E-003;
2.427166666666667E+009;1.170710697770119E-001;-1.100633218884468E-001;2.433158369967714E-004;-2.630912698805332E-003;
2.427333333333334E+009;1.160950362682343E-001;-1.118578463792801E-001;6.570253026438877E-005;-2.548792166635394E-003;
2.427500000000000E+009;1.153734624385834E-001;-1.136029586195946E-001;6.056653364794329E-005;-2.517853397876024E-003;
2.427666666666667E+009;1.145048439502716E-001;-1.153768077492714E-001;-1.131613826146349E-004;-2.342739142477512E-003;
