# Version 1.00
#
freq[Hz];re:Trc1_S11;im:Trc1_S11;re:Trc2_S21;im:Trc2_S21;
2.400000000000000E+009;1.692676842212677E-001;4.580079019069672E-002;-3.400861518457532E-003;-3.430371638387442E-003;
2.400166666666667E+009;1.704079061746597E-001;4.486213624477387E-002;-3.479029517620802E-003;-3.047507721930742E-003;
2.400333333333334E+009;1.711405217647553E-001;4.368223249912262E-002;-3.452340839430690E-003;-3.002366283908486E-003;
2.400500000000000E+009;1.722662448883057E-001;4.287299141287804E-002;-3.534255083650351E-003;-2.825397299602628E-003;
2.400666666666667E+009;1.731621176004410E-001;4.183923080563545E-002;-3.506627166643739E-003;-2.668773522600532E-003;
2.400833333333334E+009;1.740227043628693E-001;4.125936329364777E-002;-3.465805901214480E-003;-2.432945417240262E-003;
2.401000000000000E+009;1.748178750276566E-001;4.026873782277107E-002;-3.637291956692934E-003;-2.333607757464051E-003;
2.401166666666667E+009;1.756571978330612E-001;3.969019651412964E-002;-3.703367663547397E-003;-2.242687856778503E-003;
2.401333333333334E+009;1.762046515941620E-001;3.899236395955086E-002;-3.719705156981945E-003;-1.980727771297097E-003;
2.401500000000000E+009;1.770424842834473E-001;3.849412873387337E-002;-3.534131683409214E-003;-1.873413566499949E-003;
2.401666666666667E+009;1.775956153869629E-001;3.808823600411415E-002;-3.691249294206500E-003;-1.698772888630629E-003;
2.401833333333334E+009;1.781206279993057E-001;3.728989511728287E-002;-3.632428124547005E-003;-1.561318174935877E-003;
2.402000000000000E+009;1.785082966089249E-001;3.663330525159836E-002;-3.836259711533785E-003;-1.536080264486373E-003;
2.402166666666667E+009;1.791086345911026E-001;3.611712530255318E-002;-3.658277913928032E-003;-1.308249426074326E-003;
2.402333333333334E+009;1.791866421699524E-001;3.572902455925942E-002;-3.774926764890552E-003;-1.272001187317073E-003;
2.402500000000000E+009;1.797386556863785E-001;3.509112074971199E-002;-3.877871436998248E-003;-1.123946392908692E-003;
2.402666666666667E+009;1.799198538064957E-001;3.455639258027077E-002;-3.791627939790487E-003;-1.002689357846975E-003;
2.402833333333334E+009;1.800387203693390E-001;3.390194475650787E-002;-3.795194439589977E-003;-8.942140266299248E-004;
2.403000000000000E+009;1.800290942192078E-001;3.327011317014694E-002;-3.727571805939078E-003;-9.116886649280787E-004;
2.403166666666667E+009;1.799625158309937E-001;3.252732008695602E-002;-3.730383934453130E-003;-6.731098983436823E-004;
2.403333333333334E+009;1.798115372657776E-001;3.191025927662849E-002;-3.813958726823330E-003;-6.136977463029325E-004;
2.403500000000000E+009;1.798792779445648E-001;3.077828697860241E-002;-3.956715576350689E-003;-4.439362674020231E-004;
2.403666666666667E+009;1.795299351215363E-001;2.970762364566326E-002;-3.760619089007378E-003;-4.290040815249085E-004;
2.403833333333334E+009;1.791990250349045E-001;2.879510633647442E-002;-3.991618286818266E-003;-3.045532794203609E-004;
2.404000000000000E+009;1.788467317819595E-001;2.768331766128540E-002;-3.854594426229596E-003;-2.803172974381596E-004;
2.404166666666667E+009;1.782941669225693E-001;2.643670327961445E-002;-3.906886558979750E-003;-8.592778613092378E-005;
2.404333333333334E+009;1.777232438325882E-001;2.528493851423264E-002;-3.663901938125491E-003;-7.154177728807554E-005;
2.404500000000000E+009;1.772678643465042E-001;2.395616099238396E-002;-3.776480443775654E-003;1.146305367001332E-004;
2.404666666666667E+009;1.770022809505463E-001;2.246503904461861E-002;-3.849353175610304E-003;1.623684220248833E-004;
2.404833333333334E+009;1.762907505035400E-001;2.108981832861900E-002;-3.706305986270309E-003;4.787027428392321E-004;
2.405000000000000E+009;1.757738143205643E-001;1.963513717055321E-002;-3.710102755576372E-003;5.402651149779558E-004;
2.405166666666667E+009;1.752218306064606E-001;1.798845455050468E-002;-3.879650961607695E-003;6.315305945463479E-004;
2.405333333333334E+009;1.748046278953552E-001;1.614706777036190E-002;-3.692549886181951E-003;8.449944434687495E-004;
2.405500000000000E+009;1.744591146707535E-001;1.456182356923819E-002;-3.657867433503270E-003;8.025419665500522E-004;
2.405666666666667E+009;1.739867925643921E-001;1.279435586184263E-002;-3.611207008361816E-003;9.470509830862284E-004;
2.405833333333334E+009;1.734786778688431E-001;1.095461007207632E-002;-3.516047261655331E-003;1.010696287266910E-003;
2.406000000000000E+009;1.732236295938492E-001;9.059095755219460E-003;-3.457351354882121E-003;1.151519245468080E-003;
2.406166666666667E+009;1.727713197469711E-001;7.248155772686005E-003;-3.396585816517472E-003;1.142772962339222E-003;
2.406333333333334E+009;1.727562397718430E-001;5.199074745178223E-003;-3.520559053868055E-003;1.228934270329773E-003;
2.406500000000000E+009;1.725616157054901E-001;2.978984965011478E-003;-3.370516467839479E-003;1.220927340909839E-003;
2.406666666666667E+009;1.722675710916519E-001;1.138761057518423E-003;-3.237121272832155E-003;1.087308977730572E-003;
2.406833333333334E+009;1.724552810192108E-001;-1.266251900233328E-003;-3.418811596930027E-003;1.291960477828980E-003;
2.407000000000000E+009;1.724717170000076E-001;-3.243624698370695E-003;-3.354482119902968E-003;1.273817848414183E-003;
2.407166666666667E+009;1.725316494703293E-001;-5.416425876319408E-003;-3.246999112889171E-003;1.398320775479078E-003;
2.407333333333334E+009;1.726375818252564E-001;-7.561041973531246E-003;-3.327738260850310E-003;1.635570544749498E-003;
2.407500000000000E+009;1.730108708143234E-001;-9.612447582185268E-003;-3.366170218214393E-003;1.589724328368902E-003;
2.407666666666667E+009;1.731889545917511E-001;-1.161384209990501E-002;-3.497839905321598E-003;1.578391063958406E-003;
2.407833333333334E+009;1.734374761581421E-001;-1.393722742795944E-002;-3.462923690676689E-003;1.771796145476401E-003;
2.408000000000000E+009;1.739147901535034E-001;-1.595171354711056E-002;-3.560596378520131E-003;1.954839564859867E-003;
2.408166666666667E+009;1.742554455995560E-001;-1.801868155598640E-002;-3.652052721008658E-003;2.141648670658469E-003;
2.408333333333334E+009;1.748532652854919E-001;-1.981899514794350E-002;-3.660956164821982E-003;2.327534370124340E-003;
2.408500000000000E+009;1.751982122659683E-001;-2.182959392666817E-002;-3.713411046192050E-003;2.685130806639791E-003;
2.408666666666667E+009;1.757068634033203E-001;-2.380466647446156E-002;-3.661496099084616E-003;2.820520196110010E-003;
2.408833333333334E+009;1.759252101182938E-001;-2.546682208776474E-002;-3.440678119659424E-003;3.039133502170444E-003;
2.409000000000000E+009;1.765153259038925E-001;-2.712693624198437E-002;-3.360299160704017E-003;3.417424857616425E-003;
2.409166666666667E+009;1.771335601806641E-001;-2.869850769639015E-002;-3.178062848746777E-003;3.753954079002142E-003;
2.409333333333334E+009;1.776106059551239E-001;-3.024656325578690E-002;-3.101364243775606E-003;3.731326898559928E-003;
2.409500000000000E+009;1.779331862926483E-001;-3.168231993913651E-002;-2.881095511838794E-003;3.931567538529635E-003;
2.409666666666667E+009;1.784459352493286E-001;-3.271669149398804E-002;-2.567577175796032E-003;3.982270602136850E-003;
2.409833333333334E+009;1.788161247968674E-001;-3.384153544902802E-002;-2.494401531293988E-003;4.255413543432951E-003;
2.410000000000000E+009;1.794671267271042E-001;-3.499845042824745E-002;-2.164647448807955E-003;4.442918114364147E-003;
2.410166666666667E+009;1.800239980220795E-001;-3.577563166618347E-002;-1.782169449143112E-003;4.422192927449942E-003;
2.410333333333334E+009;1.804499179124832E-001;-3.658645227551460E-002;-1.701906672678888E-003;4.577762447297573E-003;
2.410500000000000E+009;1.807938665151596E-001;-3.738652542233467E-002;-1.482169958762825E-003;4.579966887831688E-003;
2.410666666666667E+009;1.812306642532349E-001;-3.822160139679909E-002;-1.450615585781634E-003;4.529272671788931E-003;
2.410833333333334E+009;1.816049963235855E-001;-3.860742226243019E-002;-9.525679051876068E-004;4.567265044897795E-003;
2.411000000000000E+009;1.817931085824966E-001;-3.929259255528450E-002;-8.501812699250877E-004;4.631985444575548E-003;
2.411166666666667E+009;1.823243051767349E-001;-3.975201398134232E-002;-5.680233589373529E-004;4.585375543683767E-003;
2.411333333333334E+009;1.824344247579575E-001;-4.015192389488220E-002;-4.014404839836061E-004;4.588414914906025E-003;
2.411500000000000E+009;1.823333203792572E-001;-4.075775668025017E-002;-3.321341355331242E-004;4.592879675328732E-003;
2.411666666666667E+009;1.824471652507782E-001;-4.109563678503037E-002;-1.652328210184351E-004;4.373521544039249E-003;
2.411833333333334E+009;1.823326796293259E-001;-4.127427563071251E-002;1.574386988068000E-004;4.365473054349423E-003;
2.412000000000000E+009;1.822558492422104E-001;-4.179289564490318E-002;1.662211871007457E-004;4.386474378407002E-003;
2.412166666666667E+009;1.817537248134613E-001;-4.221478477120400E-002;4.089532303623855E-004;4.360781051218510E-003;
2.412333333333334E+009;1.815973073244095E-001;-4.248000681400299E-002;5.932001513428986E-004;4.446845036000013E-003;
2.412500000000000E+009;1.810490041971207E-001;-4.253274947404862E-002;5.904150311835110E-004;4.186037462204695E-003;
2.412666666666667E+009;1.804146915674210E-001;-4.303532838821411E-002;7.340432493947446E-004;4.221118520945311E-003;
2.412833333333334E+009;1.798538118600845E-001;-4.325220361351967E-002;9.140987531282008E-004;4.337868187576532E-003;
2.413000000000000E+009;1.788275688886643E-001;-4.364807903766632E-002;9.076113929040730E-004;4.346946720033884E-003;
2.413166666666667E+009;1.779764592647553E-001;-4.394545033574104E-002;1.220293575897813E-003;4.306716378778219E-003;
2.413333333333334E+009;1.770738959312439E-001;-4.435523226857185E-002;1.215918688103557E-003;4.311210941523314E-003;
2.413500000000000E+009;1.761717647314072E-001;-4.479448124766350E-002;1.374350860714912E-003;4.271169193089008E-003;
2.413666666666667E+009;1.751864254474640E-001;-4.540371894836426E-002;1.563479658216238E-003;4.178775008767843E-003;
2.413833333333334E+009;1.738150715827942E-001;-4.580809921026230E-002;1.896306406706572E-003;4.035914782434702E-003;
2.414000000000000E+009;1.725687384605408E-001;-4.647575691342354E-002;1.916416920721531E-003;4.219570197165012E-003;
2.414166666666667E+009;1.716022640466690E-001;-4.714120551943779E-002;2.116425894200802E-003;4.019118845462799E-003;
2.414333333333334E+009;1.703401505947113E-001;-4.802507534623146E-002;2.275675302371383E-003;4.005071241408587E-003;
2.414500000000000E+009;1.693741083145142E-001;-4.876662790775299E-002;2.581402659416199E-003;3.926744218915701E-003;
2.414666666666667E+009;1.679489016532898E-001;-4.976725578308106E-002;2.778229769319296E-003;3.686404787003994E-003;
2.414833333333334E+009;1.666639149188995E-001;-5.074416846036911E-002;2.866832539439201E-003;3.601416945457459E-003;
2.415000000000000E+009;1.654004007577896E-001;-5.190018564462662E-002;2.995949005708098E-003;3.558441996574402E-003;
2.415166666666667E+009;1.641515940427780E-001;-5.327175185084343E-002;3.270359709858894E-003;3.436923259869218E-003;
2.415333333333334E+009;1.629555225372315E-001;-5.457073450088501E-002;3.322744276374579E-003;3.238862380385399E-003;
2.415500000000000E+009;1.618908792734146E-001;-5.597212165594101E-002;3.544932231307030E-003;2.983356127515435E-003;
2.415666666666667E+009;1.606265604496002E-001;-5.745873600244522E-002;3.698759246617556E-003;2.792096929624677E-003;
2.415833333333334E+009;1.596823334693909E-001;-5.902434885501862E-002;3.635013708844781E-003;2.477316418662667E-003;
2.416000000000000E+009;1.584943383932114E-001;-6.065978854894638E-002;3.781244391575456E-003;2.272560726851225E-003;
2.416166666666667E+009;1.575277000665665E-001;-6.241275370121002E-002;3.822455182671547E-003;2.116164192557335E-003;
2.416333333333334E+009;1.565573811531067E-001;-6.417321413755417E-002;3.769674338400364E-003;1.870486885309219E-003;
2.416500000000000E+009;1.555223017930985E-001;-6.611399352550507E-002;3.957018721848726E-003;1.674137893132865E-003;
2.416666666666667E+009;1.547257602214813E-001;-6.790737807750702E-002;3.861690172925592E-003;1.397730433382094E-003;
2.416833333333334E+009;1.540428400039673E-001;-7.001647353172302E-002;3.742243396118283E-003;1.278907293453813E-003;
2.417000000000000E+009;1.530074924230576E-001;-7.193107157945633E-002;3.670847741886973E-003;1.166222500614822E-003;
2.417166666666667E+009;1.524747759103775E-001;-7.379853725433350E-002;3.547389293089509E-003;9.387292666360736E-004;
2.417333333333334E+009;1.519306451082230E-001;-7.575624436140060E-002;3.653874620795250E-003;6.547562661580741E-004;
2.417500000000000E+009;1.512782871723175E-001;-7.798996567726135E-002;3.448318457230926E-003;6.070632371120155E-004;
2.417666666666667E+009;1.509764939546585E-001;-7.958611100912094E-002;3.504422493278980E-003;5.977681139484048E-004;
2.417833333333334E+009;1.506075263023377E-001;-8.157464116811752E-002;3.369477111846209E-003;4.552665341179818E-004;
2.418000000000000E+009;1.501812338829041E-001;-8.352228254079819E-002;3.236541058868170E-003;3.245670231990516E-004;
2.418166666666667E+009;1.498593240976334E-001;-8.516700565814972E-002;3.233236959204078E-003;2.511911443434656E-004;
2.418333333333334E+009;1.499424129724503E-001;-8.697401732206345E-002;3.272879635915160E-003;2.567582996562123E-004;
2.418500000000000E+009;1.496734321117401E-001;-8.854744583368301E-002;3.194463439285755E-003;1.095966727007181E-004;
2.418666666666667E+009;1.498069614171982E-001;-9.021889418363571E-002;3.127034753561020E-003;-3.927183934138157E-005;
2.418833333333334E+009;1.495495885610580E-001;-9.167923033237457E-002;3.116079140454531E-003;3.056224841202493E-006;
2.419000000000000E+009;1.495987623929977E-001;-9.305061399936676E-002;3.124903887510300E-003;1.484185395383975E-005;
2.419166666666667E+009;1.498186886310577E-001;-9.434526413679123E-002;3.021914511919022E-003;-5.376809349399991E-005;
2.419333333333334E+009;1.497544199228287E-001;-9.512197971343994E-002;3.064441494643688E-003;-2.479677787050605E-004;
2.419500000000000E+009;1.499747335910797E-001;-9.647406637668610E-002;2.986132400110364E-003;-1.809536624932662E-004;
2.419666666666667E+009;1.502929180860519E-001;-9.732922166585922E-002;3.220753744244576E-003;-4.053119919262826E-004;
2.419833333333334E+009;1.503853052854538E-001;-9.805934876203537E-002;2.996067749336362E-003;-4.111719026695937E-004;
2.420000000000000E+009;1.507586389780045E-001;-9.883179515600205E-002;3.081834642216563E-003;-5.098586552776396E-004;
2.420166666666667E+009;1.510496884584427E-001;-9.925746172666550E-002;3.103164490312338E-003;-5.807547713629901E-004;
2.420333333333334E+009;1.513850539922714E-001;-9.990265220403671E-002;2.911044517531991E-003;-5.796056939288974E-004;
2.420500000000000E+009;1.516831517219544E-001;-1.000767722725868E-001;2.893398748710752E-003;-7.461658678948879E-004;
2.420666666666667E+009;1.519124805927277E-001;-1.002348884940147E-001;2.986832056194544E-003;-8.088978356681764E-004;
2.420833333333334E+009;1.521347612142563E-001;-1.005710586905479E-001;2.883490407839418E-003;-7.130736485123634E-004;
2.421000000000000E+009;1.524906754493713E-001;-1.005597263574600E-001;2.772444626316428E-003;-9.527176734991372E-004;
2.421166666666667E+009;1.527001857757568E-001;-1.005297452211380E-001;2.769957063719630E-003;-1.000427524559200E-003;
2.421333333333334E+009;1.528750211000443E-001;-1.005858033895493E-001;2.654788317158818E-003;-1.114139799028635E-003;
2.421500000000000E+009;1.528888642787933E-001;-1.003641560673714E-001;2.682943362742662E-003;-9.870361536741257E-004;
2.421666666666667E+009;1.530191898345947E-001;-1.001630201935768E-001;2.851637313142419E-003;-1.132865785621107E-003;
2.421833333333334E+009;1.530458927154541E-001;-9.987085312604904E-002;2.624145010486245E-003;-1.172050484456122E-003;
2.422000000000000E+009;1.527119129896164E-001;-9.958558529615402E-002;2.700845245271921E-003;-1.281782984733582E-003;
2.422166666666667E+009;1.524814069271088E-001;-9.939668327569962E-002;2.580666216090322E-003;-1.385073992423713E-003;
2.422333333333334E+009;1.521477550268173E-001;-9.889692813158035E-002;2.584088826552033E-003;-1.500276383012533E-003;
2.422500000000000E+009;1.515725404024124E-001;-9.853132069110870E-002;2.747610444203019E-003;-1.556877978146076E-003;
2.422666666666667E+009;1.511498838663101E-001;-9.818340837955475E-002;2.540621906518936E-003;-1.725023495964706E-003;
2.422833333333334E+009;1.503972709178925E-001;-9.795115143060684E-002;2.593623474240303E-003;-1.888088416308165E-003;
2.423000000000000E+009;1.496479958295822E-001;-9.751068800687790E-002;2.544642193242908E-003;-1.845919061452150E-003;
2.423166666666667E+009;1.487450748682022E-001;-9.710526466369629E-002;2.380437916144729E-003;-1.938729197718203E-003;
2.423333333333334E+009;1.479069143533707E-001;-9.679454565048218E-002;2.315763616934419E-003;-2.029496012255549E-003;
2.423500000000000E+009;1.468362957239151E-001;-9.646560996770859E-002;2.205147640779614E-003;-2.151615684852004E-003;
2.423666666666667E+009;1.454980373382568E-001;-9.618271142244339E-002;2.190517028793693E-003;-2.346155932173133E-003;
2.423833333333334E+009;1.443793922662735E-001;-9.583014249801636E-002;2.164752921089530E-003;-2.301143715158105E-003;
2.424000000000000E+009;1.428587585687637E-001;-9.548456966876984E-002;1.869023079052568E-003;-2.368874149397016E-003;
2.424166666666667E+009;1.416722238063812E-001;-9.544534981250763E-002;1.899150898680091E-003;-2.419757889583707E-003;
2.424333333333334E+009;1.402556449174881E-001;-9.536644071340561E-002;1.684761024080217E-003;-2.530678408220410E-003;
2.424500000000000E+009;1.387470364570618E-001;-9.537415206432343E-002;1.786249107681215E-003;-2.426038496196270E-003;
2.424666666666667E+009;1.374184787273407E-001;-9.526099264621735E-002;1.524223131127656E-003;-2.547587733715773E-003;
2.424833333333334E+009;1.356647908687592E-001;-9.556986391544342E-002;1.359457848593593E-003;-2.542964881286025E-003;
2.425000000000000E+009;1.342306137084961E-001;-9.602212905883789E-002;1.166454982012510E-003;-2.494867425411940E-003;
2.425166666666667E+009;1.325608789920807E-001;-9.648667275905609E-002;1.341882976703346E-003;-2.558276988565922E-003;
2.425333333333334E+009;1.311204284429550E-001;-9.685476124286652E-002;1.265897881239653E-003;-2.733113942667842E-003;
2.425500000000000E+009;1.296611577272415E-001;-9.764362126588821E-002;1.104325056076050E-003;-2.407203428447247E-003;
2.425666666666667E+009;1.280597895383835E-001;-9.839490056037903E-002;9.354829671792686E-004;-2.533642807975411E-003;
2.425833333333334E+009;1.266439408063889E-001;-9.932460635900497E-002;9.097859147004783E-004;-2.432484412565827E-003;
2.426000000000000E+009;1.251330375671387E-001;-1.003486216068268E-001;8.070750627666712E-004;-2.599840285256505E-003;
2.426166666666667E+009;1.239017173647881E-001;-1.015167608857155E-001;8.284780196845532E-004;-2.561566187068820E-003;
2.426333333333334E+009;1.225379705429077E-001;-1.026208624243736E-001;6.891749799251556E-004;-2.661908743903041E-003;
2.426500000000000E+009;1.213817596435547E-001;-1.039941161870956E-001;6.326556322164834E-004;-2.736807800829411E-003;
2.426666666666667E+009;1.202711015939713E-001;-1.052865013480187E-001;6.464747712016106E-004;-2.664278261363506E-003;
2.426833333333334E+009;1.189419627189636E-001;-1.068746373057365E-001;3.463799075689167E-004;-2.690293593332171E-003;
2.427000000000000E+009;1.179783940315247E-001;-1.086222007870674E-001;3.345555742271245E-004;-2.589531475678086E-003;
2.427166666666667E+009;1.169648244976997E-001;-1.101434975862503E-001;2.007090515689924E-004;-2.399302786216140E-003;
2.427333333333334E+009;1.160150468349457E-001;-1.118116080760956E-001;9.428865450900048E-005;-2.439826959744096E-003;
2.427500000000000E+009;1.153425127267838E-001;-1.136002093553543E-001;9.139717440120876E-005;-2.410111716017127E-003;
2.427666666666667E+009;1.145750880241394E-001;-1.152952089905739E-001;-1.513943279860541E-004;-2.321345964446664E-003;
