# Version 1.00
#
freq[Hz];re:Trc1_S11;im:Trc1_S11;re:Trc2_S21;im:Trc2_S21;
2.400000000000000E+009;1.564579457044601E-001;6.042841449379921E-002;4.004392772912979E-003;-1.706554787233472E-003;
2.400166666666667E+009;1.564906090497971E-001;5.871669203042984E-002;3.938058856874704E-003;-1.697923173196614E-003;
2.400333333333334E+009;1.564624160528183E-001;5.654756724834442E-002;3.825155086815357E-003;-1.817634794861078E-003;
2.400500000000000E+009;1.567855626344681E-001;5.462478473782539E-002;3.785421140491962E-003;-1.868364866822958E-003;
2.400666666666667E+009;1.569254696369171E-001;5.267127603292465E-002;3.900238079950213E-003;-1.950893551111221E-003;
2.400833333333334E+009;1.573575735092163E-001;5.058283731341362E-002;3.678733017295599E-003;-2.134895883500576E-003;
2.401000000000000E+009;1.576135307550430E-001;4.846053570508957E-002;3.632886800915003E-003;-2.148603554815054E-003;
2.401166666666667E+009;1.579839736223221E-001;4.651037976145744E-002;3.497879486531019E-003;-2.323115244507790E-003;
2.401333333333334E+009;1.583675891160965E-001;4.437950253486633E-002;3.467040602117777E-003;-2.435099333524704E-003;
2.401500000000000E+009;1.592388898134232E-001;4.226329177618027E-002;3.516322933137417E-003;-2.688647015020251E-003;
2.401666666666667E+009;1.596910506486893E-001;4.038931056857109E-002;3.442559158429503E-003;-2.614919561892748E-003;
2.401833333333334E+009;1.602811366319656E-001;3.832139074802399E-002;3.253996139392257E-003;-2.873701276257634E-003;
2.402000000000000E+009;1.608425825834274E-001;3.639881312847138E-002;3.235993906855583E-003;-2.871892414987087E-003;
2.402166666666667E+009;1.615707427263260E-001;3.461533784866333E-002;3.042421303689480E-003;-2.871804637834430E-003;
2.402333333333334E+009;1.624338924884796E-001;3.283799439668655E-002;2.934718038886786E-003;-2.997323870658875E-003;
2.402500000000000E+009;1.633513569831848E-001;3.127009049057961E-002;2.785586519166827E-003;-3.084094496443868E-003;
2.402666666666667E+009;1.640686094760895E-001;2.967947535216808E-002;2.831866964697838E-003;-3.200487233698368E-003;
2.402833333333334E+009;1.650253981351852E-001;2.824392355978489E-002;2.660448895767331E-003;-3.229782450944185E-003;
2.403000000000000E+009;1.657768636941910E-001;2.671977132558823E-002;2.773997839540243E-003;-3.398146480321884E-003;
2.403166666666667E+009;1.667663902044296E-001;2.528879046440125E-002;2.639064099639654E-003;-3.275245660915971E-003;
2.403333333333334E+009;1.678724139928818E-001;2.412606403231621E-002;2.417728072032332E-003;-3.528987755998969E-003;
2.403500000000000E+009;1.686040014028549E-001;2.287871018052101E-002;2.360866637900472E-003;-3.496111603453755E-003;
2.403666666666667E+009;1.696906089782715E-001;2.172603644430637E-002;2.218687441200018E-003;-3.553974907845259E-003;
2.403833333333334E+009;1.708749234676361E-001;2.065866999328136E-002;2.100933576002717E-003;-3.742424305528402E-003;
2.404000000000000E+009;1.718290448188782E-001;1.983799971640110E-002;2.059889724478126E-003;-3.745191264897585E-003;
2.404166666666667E+009;1.725615561008453E-001;1.876294426620007E-002;1.851569162681699E-003;-3.792770905420184E-003;
2.404333333333334E+009;1.735690236091614E-001;1.793719641864300E-002;1.691234298050404E-003;-3.825412364676595E-003;
2.404500000000000E+009;1.741340309381485E-001;1.726921461522579E-002;1.603916403837502E-003;-3.879204625263810E-003;
2.404666666666667E+009;1.751429438591003E-001;1.662041433155537E-002;1.564899459481239E-003;-3.917527850717306E-003;
2.404833333333334E+009;1.757970899343491E-001;1.614286005496979E-002;1.607769518159330E-003;-4.016104619950056E-003;
2.405000000000000E+009;1.765058487653732E-001;1.570957712829113E-002;1.212831237353385E-003;-4.041149746626616E-003;
2.405166666666667E+009;1.772805899381638E-001;1.506267208606005E-002;1.192017341963947E-003;-4.243833944201469E-003;
2.405333333333334E+009;1.779780238866806E-001;1.459789834916592E-002;1.128681004047394E-003;-4.153949674218893E-003;
2.405500000000000E+009;1.783691197633743E-001;1.439755223691464E-002;8.371091680601239E-004;-4.161405842751265E-003;
2.405666666666667E+009;1.788233071565628E-001;1.394914556294680E-002;9.987605735659599E-004;-4.165049176663160E-003;
2.405833333333334E+009;1.789558380842209E-001;1.381393242627382E-002;6.305535789579153E-004;-4.315291065722704E-003;
2.406000000000000E+009;1.794375330209732E-001;1.332961488515139E-002;6.534038111567497E-004;-4.078526981174946E-003;
2.406166666666667E+009;1.796137988567352E-001;1.330110430717468E-002;5.423057009465993E-004;-4.135614726692438E-003;
2.406333333333334E+009;1.798628866672516E-001;1.280142273753882E-002;3.821367572527379E-004;-4.315036814659834E-003;
2.406500000000000E+009;1.798880398273468E-001;1.252162363380194E-002;1.898486225400120E-004;-4.098352510482073E-003;
2.406666666666667E+009;1.796544194221497E-001;1.248661894351244E-002;1.393456477671862E-004;-4.191722255200148E-003;
2.406833333333334E+009;1.796281337738037E-001;1.188458502292633E-002;7.438566535711289E-005;-4.168367478996515E-003;
2.407000000000000E+009;1.795296669006348E-001;1.149098575115204E-002;-1.540012017358095E-004;-4.055401310324669E-003;
2.407166666666667E+009;1.793204396963120E-001;1.114176958799362E-002;-2.419961092527956E-004;-4.168503917753696E-003;
2.407333333333334E+009;1.790722906589508E-001;1.062177959829569E-002;-4.241098940838128E-004;-4.095282405614853E-003;
2.407500000000000E+009;1.786138564348221E-001;1.008611544966698E-002;-3.626414982136339E-004;-4.011982586234808E-003;
2.407666666666667E+009;1.782538890838623E-001;9.511736221611500E-003;-4.615134093910456E-004;-4.145229235291481E-003;
2.407833333333334E+009;1.776089817285538E-001;8.611468598246574E-003;-5.447828443720937E-004;-4.005251917988062E-003;
2.408000000000000E+009;1.771292090415955E-001;7.817297242581844E-003;-6.795852677896619E-004;-3.960984293371439E-003;
2.408166666666667E+009;1.765737831592560E-001;7.331692613661289E-003;-7.634778739884496E-004;-3.900567535310984E-003;
2.408333333333334E+009;1.763170808553696E-001;6.187491118907929E-003;-8.375087054446340E-004;-4.010859876871109E-003;
2.408500000000000E+009;1.752878278493881E-001;5.143047776073217E-003;-9.469130891375244E-004;-3.953362349420786E-003;
2.408666666666667E+009;1.746953278779984E-001;4.105313681066036E-003;-1.026961370371282E-003;-3.975164145231247E-003;
2.408833333333334E+009;1.739922612905502E-001;2.918314654380083E-003;-1.015501213259995E-003;-3.828523680567741E-003;
2.409000000000000E+009;1.732436120510101E-001;1.631899736821652E-003;-1.210604910738766E-003;-3.768708091229200E-003;
2.409166666666667E+009;1.726374924182892E-001;2.520239795558155E-004;-1.261319150216878E-003;-3.800072940066457E-003;
2.409333333333334E+009;1.720514148473740E-001;-1.115375780500472E-003;-1.384311937727034E-003;-3.876414848491550E-003;
2.409500000000000E+009;1.713189482688904E-001;-2.883562818169594E-003;-1.257650670595467E-003;-4.020950756967068E-003;
2.409666666666667E+009;1.706446111202240E-001;-4.292251542210579E-003;-1.521746395155788E-003;-3.885418642312288E-003;
2.409833333333334E+009;1.699681431055069E-001;-5.899449344724417E-003;-1.711673801764846E-003;-3.964120987802744E-003;
2.410000000000000E+009;1.696266680955887E-001;-7.472640834748745E-003;-1.767638255842030E-003;-3.763686167076230E-003;
2.410166666666667E+009;1.691125929355621E-001;-9.424863383173943E-003;-1.955205341801047E-003;-3.848891006782651E-003;
2.410333333333334E+009;1.686690747737885E-001;-1.115706376731396E-002;-1.989256357774139E-003;-3.937258385121822E-003;
2.410500000000000E+009;1.684554964303970E-001;-1.301026064902544E-002;-2.248579636216164E-003;-3.721504472196102E-003;
2.410666666666667E+009;1.678013950586319E-001;-1.501499209553003E-002;-2.201862167567015E-003;-3.772121155634522E-003;
2.410833333333334E+009;1.676919013261795E-001;-1.674330979585648E-002;-2.278120489791036E-003;-3.766253590583801E-003;
2.411000000000000E+009;1.673719286918640E-001;-1.875978522002697E-002;-2.447868697345257E-003;-3.721134504303336E-003;
2.411166666666667E+009;1.674247980117798E-001;-2.083687670528889E-002;-2.725364407524467E-003;-3.651462495326996E-003;
2.411333333333334E+009;1.672766357660294E-001;-2.273741178214550E-002;-2.814775798469782E-003;-3.563680918887258E-003;
2.411500000000000E+009;1.673828959465027E-001;-2.465495280921459E-002;-2.852880628779531E-003;-3.449132898822427E-003;
2.411666666666667E+009;1.677001267671585E-001;-2.664436586201191E-002;-3.086292883381248E-003;-3.414205275475979E-003;
2.411833333333334E+009;1.678069233894348E-001;-2.848808094859123E-002;-3.150660311803222E-003;-3.308572573587298E-003;
2.412000000000000E+009;1.680753380060196E-001;-3.045221231877804E-002;-3.322218311950564E-003;-3.287798957899213E-003;
2.412166666666667E+009;1.683088988065720E-001;-3.238638117909432E-002;-3.605362493544817E-003;-3.115063766017556E-003;
2.412333333333334E+009;1.689218729734421E-001;-3.414279595017433E-002;-3.781439037993550E-003;-2.890484174713492E-003;
2.412500000000000E+009;1.691807508468628E-001;-3.587431460618973E-002;-3.751951735466719E-003;-2.725803060457110E-003;
2.412666666666667E+009;1.696566939353943E-001;-3.783369436860085E-002;-3.683380084112287E-003;-2.798023633658886E-003;
2.412833333333334E+009;1.703647375106812E-001;-3.953761234879494E-002;-3.847797401249409E-003;-2.524049486964941E-003;
2.413000000000000E+009;1.709565669298172E-001;-4.121366515755653E-002;-4.000480752438307E-003;-2.457087393850088E-003;
2.413166666666667E+009;1.714498698711395E-001;-4.282801225781441E-002;-4.076166544109583E-003;-2.357668709009886E-003;
2.413333333333334E+009;1.720606386661530E-001;-4.441561922430992E-002;-4.330249503254890E-003;-2.154187066480517E-003;
2.413500000000000E+009;1.726560592651367E-001;-4.568294808268547E-002;-4.379029851406813E-003;-1.900872099213302E-003;
2.413666666666667E+009;1.733861416578293E-001;-4.712333530187607E-002;-4.457107745110989E-003;-1.713826670311391E-003;
2.413833333333334E+009;1.739241629838944E-001;-4.826338961720467E-002;-4.408341366797686E-003;-1.658602501265705E-003;
2.414000000000000E+009;1.743394881486893E-001;-4.965934529900551E-002;-4.617481958121061E-003;-1.312146545387805E-003;
2.414166666666667E+009;1.751320213079453E-001;-5.063591152429581E-002;-4.423675127327442E-003;-1.212442410178483E-003;
2.414333333333334E+009;1.756580471992493E-001;-5.162468180060387E-002;-4.734741523861885E-003;-1.056160195730627E-003;
2.414500000000000E+009;1.764383167028427E-001;-5.259982496500015E-002;-4.610177129507065E-003;-6.746834260411561E-004;
2.414666666666667E+009;1.767684817314148E-001;-5.329828336834908E-002;-4.548862110823393E-003;-6.459659198299050E-004;
2.414833333333334E+009;1.772001385688782E-001;-5.410680547356606E-002;-4.670044872909784E-003;-5.376149783842266E-004;
2.415000000000000E+009;1.775254756212235E-001;-5.487122759222984E-002;-4.690163303166628E-003;-3.997416060883552E-004;
2.415166666666667E+009;1.779568642377853E-001;-5.544596910476685E-002;-4.623693414032459E-003;-5.301429337123409E-005;
2.415333333333334E+009;1.782656311988831E-001;-5.607727169990540E-002;-4.599302541464567E-003;4.500082650338300E-005;
2.415500000000000E+009;1.784385144710541E-001;-5.635628476738930E-002;-4.597866442054510E-003;3.008474013768137E-004;
2.415666666666667E+009;1.785560697317123E-001;-5.671378597617149E-002;-4.639469087123871E-003;5.049218307249248E-004;
2.415833333333334E+009;1.786670833826065E-001;-5.709233880043030E-002;-4.535522777587175E-003;5.452219047583640E-004;
2.416000000000000E+009;1.785582453012466E-001;-5.735750868916512E-002;-4.381995648145676E-003;7.884225342422724E-004;
2.416166666666667E+009;1.786509454250336E-001;-5.763642489910126E-002;-4.273931495845318E-003;9.325171704404056E-004;
2.416333333333334E+009;1.783781945705414E-001;-5.783816426992416E-002;-4.435366950929165E-003;9.372220956720412E-004;
2.416500000000000E+009;1.780335903167725E-001;-5.812734737992287E-002;-4.345055669546127E-003;1.136063481681049E-003;
2.416666666666667E+009;1.775416433811188E-001;-5.822701007127762E-002;-3.998518455773592E-003;1.309785991907120E-003;
2.416833333333334E+009;1.772469431161881E-001;-5.856498703360558E-002;-3.905142424628139E-003;1.673045917414129E-003;
2.417000000000000E+009;1.765216141939163E-001;-5.884367600083351E-002;-3.888786071911454E-003;1.604823744855821E-003;
2.417166666666667E+009;1.757916808128357E-001;-5.879184231162071E-002;-3.797596553340554E-003;1.677360385656357E-003;
2.417333333333334E+009;1.750861555337906E-001;-5.920334905385971E-002;-3.788088448345661E-003;1.849539345130324E-003;
2.417500000000000E+009;1.743444204330444E-001;-5.960641056299210E-002;-3.636457026004791E-003;2.024619840085506E-003;
2.417666666666667E+009;1.736061424016953E-001;-5.978041887283325E-002;-3.492099000141025E-003;2.083019819110632E-003;
2.417833333333334E+009;1.723696440458298E-001;-6.016073748469353E-002;-3.325641853734851E-003;1.981207402423024E-003;
2.418000000000000E+009;1.713781654834747E-001;-6.068874895572662E-002;-3.286230377852917E-003;2.157602924853563E-003;
2.418166666666667E+009;1.701447069644928E-001;-6.092325970530510E-002;-3.367089899256825E-003;2.185219200327992E-003;
2.418333333333334E+009;1.693058460950851E-001;-6.149709224700928E-002;-2.987842774018645E-003;2.319630933925510E-003;
2.418500000000000E+009;1.680647581815720E-001;-6.204789131879807E-002;-2.933253766968846E-003;2.454998204484582E-003;
2.418666666666667E+009;1.668673008680344E-001;-6.270386278629303E-002;-2.708369866013527E-003;2.379391109570861E-003;
2.418833333333334E+009;1.654867678880692E-001;-6.354836374521256E-002;-2.845130627974868E-003;2.489701379090548E-003;
2.419000000000000E+009;1.641714125871658E-001;-6.428364664316177E-002;-2.693604910746217E-003;2.496488625183702E-003;
2.419166666666667E+009;1.630984544754028E-001;-6.511685997247696E-002;-2.604164183139801E-003;2.473982749506831E-003;
2.419333333333334E+009;1.616387069225311E-001;-6.596285849809647E-002;-2.409852808341384E-003;2.419341122731566E-003;
2.419500000000000E+009;1.606033891439438E-001;-6.717249751091003E-002;-2.451914595440030E-003;2.504868200048804E-003;
2.419666666666667E+009;1.594468951225281E-001;-6.821867078542709E-002;-2.356762066483498E-003;2.402172656729817E-003;
2.419833333333334E+009;1.581137329339981E-001;-6.928703188896179E-002;-2.188278827816248E-003;2.602293621748686E-003;
2.420000000000000E+009;1.571633070707321E-001;-7.061538100242615E-002;-2.136979019269347E-003;2.586084185168147E-003;
2.420166666666667E+009;1.560048907995224E-001;-7.178889214992523E-002;-2.030068775638938E-003;2.541384659707546E-003;
2.420333333333334E+009;1.549181193113327E-001;-7.314490526914597E-002;-1.927984179928899E-003;2.647883491590619E-003;
2.420500000000000E+009;1.541989296674728E-001;-7.446791976690292E-002;-1.977784559130669E-003;2.521095098927617E-003;
2.420666666666667E+009;1.533239185810089E-001;-7.601836323738098E-002;-1.763053354807198E-003;2.522546797990799E-003;
2.420833333333334E+009;1.524493247270584E-001;-7.771477103233337E-002;-1.736882491968572E-003;2.595881232991815E-003;
2.421000000000000E+009;1.517536938190460E-001;-7.922200113534927E-002;-1.734544057399035E-003;2.609804971143603E-003;
2.421166666666667E+009;1.511347889900208E-001;-8.070046454668045E-002;-1.786404754966497E-003;2.678515156731010E-003;
2.421333333333334E+009;1.508817821741104E-001;-8.266545832157135E-002;-1.586645143106580E-003;2.655408112332225E-003;
2.421500000000000E+009;1.501647979021072E-001;-8.404795825481415E-002;-1.560148666612804E-003;2.875327132642269E-003;
2.421666666666667E+009;1.499006450176239E-001;-8.581436425447464E-002;-1.610948238521814E-003;2.928907517343760E-003;
2.421833333333334E+009;1.497263610363007E-001;-8.739809691905975E-002;-1.450547133572400E-003;2.757295267656446E-003;
2.422000000000000E+009;1.492454707622528E-001;-8.924596756696701E-002;-1.558036892674863E-003;2.704549115151167E-003;
2.422166666666667E+009;1.495276987552643E-001;-9.102389216423035E-002;-1.409830059856176E-003;2.899082377552986E-003;
2.422333333333334E+009;1.492626965045929E-001;-9.251832962036133E-002;-1.333239604718983E-003;3.009176114574075E-003;
2.422500000000000E+009;1.493710130453110E-001;-9.415300190448761E-002;-1.286656362935901E-003;2.978869248181582E-003;
2.422666666666667E+009;1.494535207748413E-001;-9.591057151556015E-002;-1.173364580608904E-003;3.048931015655398E-003;
2.422833333333334E+009;1.497030109167099E-001;-9.748966991901398E-002;-9.694698965176940E-004;3.238870296627283E-003;
2.423000000000000E+009;1.500342786312103E-001;-9.907934069633484E-002;-1.161087653599680E-003;3.331669606268406E-003;
2.423166666666667E+009;1.505198329687119E-001;-1.006150469183922E-001;-9.727743454277515E-004;3.273255424574018E-003;
2.423333333333334E+009;1.509137153625488E-001;-1.018370687961578E-001;-7.983637624420226E-004;3.348520956933498E-003;
2.423500000000000E+009;1.512433290481567E-001;-1.035094410181046E-001;-5.294937873259187E-004;3.304554382339120E-003;
2.423666666666667E+009;1.515709310770035E-001;-1.047808229923248E-001;-4.319236322771758E-004;3.394206287339330E-003;
2.423833333333334E+009;1.522279232740402E-001;-1.061719655990601E-001;-4.248733748681843E-004;3.447028109803796E-003;
2.424000000000000E+009;1.526233106851578E-001;-1.072068661451340E-001;-4.038636106997728E-004;3.389368299394846E-003;
2.424166666666667E+009;1.531601995229721E-001;-1.083889529109001E-001;1.313677512371214E-005;3.279919968917966E-003;
2.424333333333334E+009;1.537329256534576E-001;-1.094636395573616E-001;1.685000752331689E-004;3.314475528895855E-003;
2.424500000000000E+009;1.543182283639908E-001;-1.104710698127747E-001;1.753539836499840E-004;3.368818433955312E-003;
2.424666666666667E+009;1.548687517642975E-001;-1.111201047897339E-001;3.882320888806135E-004;3.405062714591622E-003;
2.424833333333334E+009;1.551510244607925E-001;-1.120440512895584E-001;4.006106755696237E-004;3.423564601689577E-003;
2.425000000000000E+009;1.557673662900925E-001;-1.129045709967613E-001;5.781667423434556E-004;3.316831076517701E-003;
2.425166666666667E+009;1.559057533740997E-001;-1.134767904877663E-001;8.265593787655234E-004;3.294972470030189E-003;
2.425333333333334E+009;1.563759744167328E-001;-1.140092015266419E-001;9.968233061954379E-004;3.227636683732271E-003;
2.425500000000000E+009;1.567354947328568E-001;-1.146187633275986E-001;1.091176411136985E-003;3.167717950418592E-003;
2.425666666666667E+009;1.568207293748856E-001;-1.150905638933182E-001;1.045327517203987E-003;3.092283848673105E-003;
2.425833333333334E+009;1.569774448871613E-001;-1.154057458043098E-001;1.257000840269029E-003;3.029987215995789E-003;
2.426000000000000E+009;1.570326387882233E-001;-1.158412322402000E-001;1.340210554189980E-003;2.842091955244541E-003;
2.426166666666667E+009;1.571894586086273E-001;-1.161133125424385E-001;1.294049434363842E-003;2.687145955860615E-003;
2.426333333333334E+009;1.570214331150055E-001;-1.162789985537529E-001;1.411661040037870E-003;2.654889132827520E-003;
2.426500000000000E+009;1.568480581045151E-001;-1.165497377514839E-001;1.512258895672858E-003;2.532023005187511E-003;
2.426666666666667E+009;1.567533165216446E-001;-1.164893582463265E-001;1.384280854836106E-003;2.485379576683044E-003;
2.426833333333334E+009;1.563259661197662E-001;-1.167152449488640E-001;1.689401338808239E-003;2.372483955696225E-003;
2.427000000000000E+009;1.559467762708664E-001;-1.169757694005966E-001;1.751503674313426E-003;2.317839767783880E-003;
2.427166666666667E+009;1.552263349294663E-001;-1.169741526246071E-001;1.950255013071001E-003;2.123884391039610E-003;
2.427333333333334E+009;1.547319293022156E-001;-1.170848459005356E-001;1.782176434062421E-003;1.884101307950914E-003;
2.427500000000000E+009;1.539726704359055E-001;-1.171900182962418E-001;1.888529048301280E-003;1.835501287132502E-003;
2.427666666666667E+009;1.530851721763611E-001;-1.174455955624580E-001;1.839468488469720E-003;1.976129831746221E-003;
