# Version 1.00
#
freq[Hz];re:Trc1_S11;im:Trc1_S11;re:Trc2_S21;im:Trc2_S21;
2.400000000000000E+009;1.610228568315506E-001;5.694631487131119E-002;-5.095859523862600E-004;2.197156660258770E-003;
2.400166666666667E+009;1.610306799411774E-001;5.546141043305397E-002;-5.567594780586660E-004;2.193298190832138E-003;
2.400333333333334E+009;1.610307544469833E-001;5.353628844022751E-002;-5.768425762653351E-004;2.250962657853961E-003;
2.400500000000000E+009;1.612668782472611E-001;5.169836059212685E-002;-4.158927185926586E-004;2.574025187641382E-003;
2.400666666666667E+009;1.614027172327042E-001;4.984200000762940E-002;-3.012685338035226E-004;2.462567063048482E-003;
2.400833333333334E+009;1.616111993789673E-001;4.812223464250565E-002;-3.717347863130271E-004;2.776437206193805E-003;
2.401000000000000E+009;1.617402881383896E-001;4.608993977308273E-002;-1.866407546913251E-004;2.715078648179770E-003;
2.401166666666667E+009;1.620688736438751E-001;4.415284097194672E-002;-2.532456419430673E-004;2.650052076205611E-003;
2.401333333333334E+009;1.622275263071060E-001;4.225524887442589E-002;-1.239392295246944E-004;2.682688646018505E-003;
2.401500000000000E+009;1.626301854848862E-001;4.051520675420761E-002;1.500777580076829E-004;2.709418535232544E-003;
2.401666666666667E+009;1.628413647413254E-001;3.872764855623245E-002;1.701410365058109E-004;2.749305684119463E-003;
2.401833333333334E+009;1.632941216230393E-001;3.677374869585037E-002;1.764351181918755E-004;2.978073898702860E-003;
2.402000000000000E+009;1.637070924043655E-001;3.504968062043190E-002;2.305118105141446E-004;2.890372648835182E-003;
2.402166666666667E+009;1.642357707023621E-001;3.317817673087120E-002;4.416452138684690E-004;2.908011898398399E-003;
2.402333333333334E+009;1.645447015762329E-001;3.155550733208656E-002;4.902900545857847E-004;3.001115517690778E-003;
2.402500000000000E+009;1.653012782335281E-001;2.990054711699486E-002;6.432331283576787E-004;2.829354954883456E-003;
2.402666666666667E+009;1.658186912536621E-001;2.835330739617348E-002;9.405763121321797E-004;2.852403558790684E-003;
2.402833333333334E+009;1.664231121540070E-001;2.690264396369457E-002;8.651809184812009E-004;2.910441951826215E-003;
2.403000000000000E+009;1.670341044664383E-001;2.530518919229507E-002;9.657030459493399E-004;2.927831141278148E-003;
2.403166666666667E+009;1.679984927177429E-001;2.391007170081139E-002;1.150314928963780E-003;2.863557776436210E-003;
2.403333333333334E+009;1.685144156217575E-001;2.259689196944237E-002;1.368759665638208E-003;2.807118464261293E-003;
2.403500000000000E+009;1.692342758178711E-001;2.136985398828983E-002;1.255820156075060E-003;2.772895619273186E-003;
2.403666666666667E+009;1.698288321495056E-001;2.003805339336395E-002;1.608555321581662E-003;2.681397367268801E-003;
2.403833333333334E+009;1.706880331039429E-001;1.895248144865036E-002;1.637632376514375E-003;2.699635690078139E-003;
2.404000000000000E+009;1.713511943817139E-001;1.793016307055950E-002;1.630249782465398E-003;2.684428356587887E-003;
2.404166666666667E+009;1.720062047243118E-001;1.665156148374081E-002;1.701270812191069E-003;2.707759384065867E-003;
2.404333333333334E+009;1.727358400821686E-001;1.593703962862492E-002;1.881672767922282E-003;2.448741346597672E-003;
2.404500000000000E+009;1.733527034521103E-001;1.499444153159857E-002;2.041549654677510E-003;2.388818189501762E-003;
2.404666666666667E+009;1.739806979894638E-001;1.430717576295137E-002;2.007393632084131E-003;2.372591756284237E-003;
2.404833333333334E+009;1.746130883693695E-001;1.350860204547644E-002;2.255081664770842E-003;2.295840764418244E-003;
2.405000000000000E+009;1.752870529890060E-001;1.285770721733570E-002;2.287501702085137E-003;2.164243487641215E-003;
2.405166666666667E+009;1.757072061300278E-001;1.214578840881586E-002;2.242619404569268E-003;2.157768001779914E-003;
2.405333333333334E+009;1.763628572225571E-001;1.140322443097830E-002;2.466923557221890E-003;2.038939157500863E-003;
2.405500000000000E+009;1.767575293779373E-001;1.113945059478283E-002;2.565218135714531E-003;2.179331844672561E-003;
2.405666666666667E+009;1.770042926073074E-001;1.062580011785030E-002;2.435005037114024E-003;2.040224615484476E-003;
2.405833333333334E+009;1.774225234985352E-001;1.021606288850308E-002;2.505986485630274E-003;1.717421226203442E-003;
2.406000000000000E+009;1.778430342674255E-001;9.633505716919899E-003;2.573952544480562E-003;1.743202796205878E-003;
2.406166666666667E+009;1.779468953609467E-001;9.353526867926121E-003;2.586882095783949E-003;1.703540561720729E-003;
2.406333333333334E+009;1.781803369522095E-001;9.001916274428368E-003;2.777000889182091E-003;1.469042967073619E-003;
2.406500000000000E+009;1.782995611429215E-001;8.461453020572662E-003;2.744512399658561E-003;1.471480121836066E-003;
2.406666666666667E+009;1.781957894563675E-001;8.116929791867733E-003;2.844467759132385E-003;1.333408872596920E-003;
2.406833333333334E+009;1.781727224588394E-001;7.559225428849459E-003;2.695904346182942E-003;1.227214117534459E-003;
2.407000000000000E+009;1.782477349042893E-001;7.291980553418398E-003;2.823834540322423E-003;1.068887766450644E-003;
2.407166666666667E+009;1.781847327947617E-001;6.911450065672398E-003;2.718015806749463E-003;1.007842249237001E-003;
2.407333333333334E+009;1.778362095355988E-001;6.371525581926107E-003;2.887709066271782E-003;9.830518392845988E-004;
2.407500000000000E+009;1.776360571384430E-001;5.880104377865791E-003;2.808765741065145E-003;7.981136441230774E-004;
2.407666666666667E+009;1.772576719522476E-001;5.258921533823013E-003;2.803103066980839E-003;6.734121125191450E-004;
2.407833333333334E+009;1.768589019775391E-001;4.591471981257200E-003;2.796425716951489E-003;6.089265807531774E-004;
2.408000000000000E+009;1.765229552984238E-001;3.798241494223476E-003;2.879652893170714E-003;4.493835149332881E-004;
2.408166666666667E+009;1.762006133794785E-001;3.126650117337704E-003;2.801529131829739E-003;4.237548564560711E-004;
2.408333333333334E+009;1.758964955806732E-001;2.306402428075671E-003;2.891705138608813E-003;4.244600422680378E-004;
2.408500000000000E+009;1.752782613039017E-001;1.245423918589950E-003;2.729955362156034E-003;1.798831799533218E-004;
2.408666666666667E+009;1.746388524770737E-001;3.026268968824297E-004;2.862377325072885E-003;2.808569406624883E-004;
2.408833333333334E+009;1.739192008972168E-001;-7.852170383557677E-004;2.805985510349274E-003;-5.466386210173369E-005;
2.409000000000000E+009;1.735556423664093E-001;-1.868076855316758E-003;2.602966502308846E-003;-9.615938324714080E-005;
2.409166666666667E+009;1.730140596628189E-001;-2.953531686216593E-003;2.657695673406124E-003;-8.286861702799797E-005;
2.409333333333334E+009;1.724924892187119E-001;-4.285953938961029E-003;2.593471901491284E-003;-1.648588367970660E-004;
2.409500000000000E+009;1.718555837869644E-001;-5.816244520246983E-003;2.523528644815087E-003;-1.512156886747107E-004;
2.409666666666667E+009;1.713438928127289E-001;-7.158173713833094E-003;2.562555950134993E-003;-1.622999989194796E-004;
2.409833333333334E+009;1.707272678613663E-001;-8.562625385820866E-003;2.590632298961282E-003;-2.310435811523348E-004;
2.410000000000000E+009;1.702697873115540E-001;-1.007356401532888E-002;2.536443062126637E-003;-2.808020799420774E-004;
2.410166666666667E+009;1.698831617832184E-001;-1.175113953649998E-002;2.422094345092773E-003;-2.728808613028377E-004;
2.410333333333334E+009;1.693770140409470E-001;-1.337321102619171E-002;2.308376831933856E-003;-3.289276210125536E-004;
2.410500000000000E+009;1.690543889999390E-001;-1.501594204455614E-002;2.417934127151966E-003;-3.868654603138566E-004;
2.410666666666667E+009;1.687746196985245E-001;-1.691561006009579E-002;2.534841885790229E-003;-1.945680123753846E-004;
2.410833333333334E+009;1.683217734098434E-001;-1.835208386182785E-002;2.480373019352555E-003;-3.840321442112327E-004;
2.411000000000000E+009;1.682132184505463E-001;-2.019308879971504E-002;2.266327617689967E-003;-3.801205893978477E-004;
2.411166666666667E+009;1.677736788988113E-001;-2.215318381786346E-002;2.354591386392713E-003;-3.858363488689065E-004;
2.411333333333334E+009;1.678635925054550E-001;-2.396312355995178E-002;2.405238104984164E-003;-3.562642086762935E-004;
2.411500000000000E+009;1.676285564899445E-001;-2.608086168766022E-002;2.472758525982499E-003;-4.850285185966641E-004;
2.411666666666667E+009;1.678944230079651E-001;-2.780225872993469E-002;2.347731729969382E-003;-6.219641654752195E-004;
2.411833333333334E+009;1.678688824176788E-001;-2.965827286243439E-002;2.559337532147765E-003;-5.814193282276392E-004;
2.412000000000000E+009;1.681078374385834E-001;-3.153581544756889E-002;2.565694972872734E-003;-6.063938490115106E-004;
2.412166666666667E+009;1.682753860950470E-001;-3.350432962179184E-002;2.530022291466594E-003;-7.448092801496387E-004;
2.412333333333334E+009;1.688066869974136E-001;-3.517955169081688E-002;2.599687315523624E-003;-8.393147727474570E-004;
2.412500000000000E+009;1.687018424272537E-001;-3.690256178379059E-002;2.532559446990490E-003;-8.988749468699098E-004;
2.412666666666667E+009;1.691791415214539E-001;-3.895336017012596E-002;2.484756056219339E-003;-1.232024165801704E-003;
2.412833333333334E+009;1.696909368038178E-001;-4.057105258107185E-002;2.526439260691404E-003;-1.184261403977871E-003;
2.413000000000000E+009;1.698709577322006E-001;-4.218456149101257E-002;2.525805495679379E-003;-1.250109169632196E-003;
2.413166666666667E+009;1.704004853963852E-001;-4.391700029373169E-002;2.529281657189131E-003;-1.318311085924506E-003;
2.413333333333334E+009;1.705991178750992E-001;-4.556153342127800E-002;2.405508887022734E-003;-1.433602184988558E-003;
2.413500000000000E+009;1.714976727962494E-001;-4.693243280053139E-002;2.371012931689620E-003;-1.442097476683557E-003;
2.413666666666667E+009;1.718810945749283E-001;-4.854927211999893E-002;2.434434834867716E-003;-1.667071715928614E-003;
2.413833333333334E+009;1.722164005041122E-001;-4.984333738684654E-002;2.209540922194719E-003;-1.618330832570791E-003;
2.414000000000000E+009;1.726651638746262E-001;-5.112216994166374E-002;2.198221627622843E-003;-1.808383502066135E-003;
2.414166666666667E+009;1.733284443616867E-001;-5.220496654510498E-002;1.986932009458542E-003;-1.857176306657493E-003;
2.414333333333334E+009;1.737947165966034E-001;-5.346808955073357E-002;2.002638531848788E-003;-1.861839089542627E-003;
2.414500000000000E+009;1.745258718729019E-001;-5.444763973355293E-002;1.919754082337022E-003;-1.909656217321754E-003;
2.414666666666667E+009;1.747923046350479E-001;-5.536820366978645E-002;1.748192356899381E-003;-1.982128480449319E-003;
2.414833333333334E+009;1.751239746809006E-001;-5.618136376142502E-002;1.706821960397065E-003;-2.005340298637748E-003;
2.415000000000000E+009;1.755738705396652E-001;-5.693173035979271E-002;1.691512297838926E-003;-2.048931783065200E-003;
2.415166666666667E+009;1.759291887283325E-001;-5.773066356778145E-002;1.635791268199682E-003;-2.169128507375717E-003;
2.415333333333334E+009;1.763684600591660E-001;-5.854940786957741E-002;1.443892717361450E-003;-2.268647542223334E-003;
2.415500000000000E+009;1.766232252120972E-001;-5.889659747481346E-002;1.398845226503909E-003;-2.200346207246184E-003;
2.415666666666667E+009;1.766355484724045E-001;-5.952699854969978E-002;1.309864688664675E-003;-2.119800075888634E-003;
2.415833333333334E+009;1.769071519374847E-001;-5.994945764541626E-002;1.177086378447712E-003;-2.299755811691284E-003;
2.416000000000000E+009;1.767577081918716E-001;-6.036195531487465E-002;1.193348318338394E-003;-2.139416756108403E-003;
2.416166666666667E+009;1.769995242357254E-001;-6.072496622800827E-002;1.272297697141767E-003;-2.132505411282182E-003;
2.416333333333334E+009;1.768222898244858E-001;-6.109300255775452E-002;9.691771701909602E-004;-2.170637249946594E-003;
2.416500000000000E+009;1.765363663434982E-001;-6.143876537680626E-002;1.011670217849314E-003;-2.167016500607133E-003;
2.416666666666667E+009;1.762229502201080E-001;-6.157753244042397E-002;1.032077590934932E-003;-2.058802172541618E-003;
2.416833333333334E+009;1.759794652462006E-001;-6.189174205064774E-002;7.763863541185856E-004;-2.182781463488936E-003;
2.417000000000000E+009;1.754358112812042E-001;-6.223840266466141E-002;7.403568015433848E-004;-2.097428776323795E-003;
2.417166666666667E+009;1.749690622091293E-001;-6.236975267529488E-002;8.174964459612966E-004;-2.141603501513600E-003;
2.417333333333334E+009;1.742768436670303E-001;-6.250689178705216E-002;8.303140639327467E-004;-2.213324187323451E-003;
2.417500000000000E+009;1.736631691455841E-001;-6.299728900194168E-002;6.426489562727511E-004;-2.062182407826185E-003;
2.417666666666667E+009;1.730394661426544E-001;-6.304492056369782E-002;6.629661074839532E-004;-2.092023845762014E-003;
2.417833333333334E+009;1.720869243144989E-001;-6.340347230434418E-002;6.523036281578243E-004;-2.249515848234296E-003;
2.418000000000000E+009;1.711425185203552E-001;-6.373202800750732E-002;6.800730479881167E-004;-2.104240236803889E-003;
2.418166666666667E+009;1.701183170080185E-001;-6.392853707075119E-002;4.891298012807965E-004;-2.021252177655697E-003;
2.418333333333334E+009;1.693475693464279E-001;-6.448120623826981E-002;6.305434508249164E-004;-2.016642596572638E-003;
2.418500000000000E+009;1.680907011032105E-001;-6.481351703405380E-002;4.640121187549084E-004;-2.103083068504930E-003;
2.418666666666667E+009;1.671696156263351E-001;-6.537313759326935E-002;4.251324571669102E-004;-2.107588574290276E-003;
2.418833333333334E+009;1.657324433326721E-001;-6.605507433414459E-002;3.507272922433913E-004;-2.203078242018819E-003;
2.419000000000000E+009;1.646465957164764E-001;-6.661202013492584E-002;4.750798398163170E-004;-2.124213613569737E-003;
2.419166666666667E+009;1.634591966867447E-001;-6.727275997400284E-002;2.817957429215312E-004;-1.941299298778176E-003;
2.419333333333334E+009;1.621404737234116E-001;-6.774399429559708E-002;4.059253260493279E-004;-2.069882815703750E-003;
2.419500000000000E+009;1.609839051961899E-001;-6.892102211713791E-002;2.859144296962768E-004;-2.127756131812930E-003;
2.419666666666667E+009;1.598538160324097E-001;-6.979161500930786E-002;2.558741834945977E-004;-2.175910631194711E-003;
2.419833333333334E+009;1.586083918809891E-001;-7.066129148006439E-002;1.818830933189020E-004;-2.233614912256599E-003;
2.420000000000000E+009;1.577109843492508E-001;-7.172065973281860E-002;3.585778176784515E-004;-2.088799839839339E-003;
2.420166666666667E+009;1.564049869775772E-001;-7.285215705633164E-002;1.553387701278552E-004;-2.211228478699923E-003;
2.420333333333334E+009;1.554218977689743E-001;-7.408270984888077E-002;1.665035961195827E-004;-2.100784797221422E-003;
2.420500000000000E+009;1.542639136314392E-001;-7.513370364904404E-002;2.509085170459002E-004;-2.218204550445080E-003;
2.420666666666667E+009;1.533170342445374E-001;-7.640886306762695E-002;1.199961989186704E-004;-2.160124015063047E-003;
2.420833333333334E+009;1.524273753166199E-001;-7.790996879339218E-002;1.743609573168214E-005;-2.085837069898844E-003;
2.421000000000000E+009;1.513339281082153E-001;-7.937359064817429E-002;-1.085294643417001E-004;-2.012661658227444E-003;
2.421166666666667E+009;1.508761793375015E-001;-8.101592957973480E-002;-7.058104529278353E-005;-2.052215859293938E-003;
2.421333333333334E+009;1.501528471708298E-001;-8.254203200340271E-002;-1.501961105532246E-005;-2.241616370156407E-003;
2.421500000000000E+009;1.493428200483322E-001;-8.407232165336609E-002;-6.174230657052249E-005;-2.166501479223371E-003;
2.421666666666667E+009;1.488458961248398E-001;-8.562797307968140E-002;-4.485305544221774E-005;-2.135409507900477E-003;
2.421833333333334E+009;1.482358127832413E-001;-8.734669536352158E-002;-2.192412794101983E-004;-2.035050885751844E-003;
2.422000000000000E+009;1.477572917938232E-001;-8.903975039720535E-002;-2.560637658461928E-004;-2.131838584318757E-003;
2.422166666666667E+009;1.474429517984390E-001;-9.087488055229187E-002;-2.104585146298632E-004;-2.303677843883634E-003;
2.422333333333334E+009;1.471924334764481E-001;-9.236331284046173E-002;-2.298116451129317E-004;-2.232677303254604E-003;
2.422500000000000E+009;1.470263451337814E-001;-9.409627318382263E-002;-3.855212708003819E-004;-2.190551254898310E-003;
2.422666666666667E+009;1.468871831893921E-001;-9.589217603206635E-002;-5.001948447898030E-004;-2.253113547340035E-003;
2.422833333333334E+009;1.467979848384857E-001;-9.751831740140915E-002;-3.269482403993607E-004;-2.233681501820684E-003;
2.423000000000000E+009;1.468359231948853E-001;-9.918368607759476E-002;-5.075501976534724E-004;-2.264464274048805E-003;
2.423166666666667E+009;1.469395905733109E-001;-1.008067205548286E-001;-5.708372336812317E-004;-2.268258482217789E-003;
2.423333333333334E+009;1.472986340522766E-001;-1.021688431501389E-001;-5.456776125356555E-004;-2.288969466462731E-003;
2.423500000000000E+009;1.473677903413773E-001;-1.039338335394859E-001;-7.279852870851755E-004;-2.319908235222101E-003;
2.423666666666667E+009;1.474989503622055E-001;-1.056014746427536E-001;-8.145410101860762E-004;-2.341322600841522E-003;
2.423833333333334E+009;1.478866785764694E-001;-1.068633347749710E-001;-9.657385526224971E-004;-2.429580548778176E-003;
2.424000000000000E+009;1.479817330837250E-001;-1.082224473357201E-001;-9.565691580064595E-004;-2.354994416236877E-003;
2.424166666666667E+009;1.483123004436493E-001;-1.095698773860931E-001;-1.095422776415944E-003;-2.385919913649559E-003;
2.424333333333334E+009;1.487890481948853E-001;-1.108710542321205E-001;-1.199859892949462E-003;-2.414513146504760E-003;
2.424500000000000E+009;1.492078602313995E-001;-1.120178401470184E-001;-1.275002607144415E-003;-2.163127064704895E-003;
2.424666666666667E+009;1.495869606733322E-001;-1.130047366023064E-001;-1.368132885545492E-003;-2.202345523983240E-003;
2.424833333333334E+009;1.498207300901413E-001;-1.140639632940292E-001;-1.501910272054374E-003;-2.207749523222446E-003;
2.425000000000000E+009;1.503145843744278E-001;-1.151584908366203E-001;-1.612174441106618E-003;-2.090645721182227E-003;
2.425166666666667E+009;1.504079401493073E-001;-1.159327775239945E-001;-1.693354337476194E-003;-2.025118097662926E-003;
2.425333333333334E+009;1.507712453603745E-001;-1.167030930519104E-001;-1.619125134311616E-003;-1.965278293937445E-003;
2.425500000000000E+009;1.511003673076630E-001;-1.175560206174851E-001;-1.762060215696693E-003;-1.909779966808856E-003;
2.425666666666667E+009;1.511840373277664E-001;-1.180434525012970E-001;-1.797526027075946E-003;-1.681849709711969E-003;
2.425833333333334E+009;1.514551937580109E-001;-1.186301037669182E-001;-1.997275045141578E-003;-1.705838600173593E-003;
2.426000000000000E+009;1.515373736619949E-001;-1.192410662770271E-001;-1.881399075500667E-003;-1.724359928630292E-003;
2.426166666666667E+009;1.518914848566055E-001;-1.195892766118050E-001;-1.829594373703003E-003;-1.635409891605377E-003;
2.426333333333334E+009;1.517320871353149E-001;-1.199753135442734E-001;-1.890188781544566E-003;-1.378772198222578E-003;
2.426500000000000E+009;1.517586857080460E-001;-1.202689409255981E-001;-2.117509255185723E-003;-1.377743552438915E-003;
2.426666666666667E+009;1.516750007867813E-001;-1.204100102186203E-001;-1.960227964445949E-003;-1.198819838464260E-003;
2.426833333333334E+009;1.513229012489319E-001;-1.207217499613762E-001;-1.939130132086575E-003;-1.228239852935076E-003;
2.427000000000000E+009;1.511082500219345E-001;-1.210297942161560E-001;-1.963565126061440E-003;-1.021622098051012E-003;
2.427166666666667E+009;1.507577002048492E-001;-1.210032254457474E-001;-1.992073608562350E-003;-1.104026217944920E-003;
2.427333333333334E+009;1.502917110919952E-001;-1.211129948496819E-001;-2.022279426455498E-003;-8.572160732001066E-004;
2.427500000000000E+009;1.498351693153381E-001;-1.213558986783028E-001;-1.967670395970345E-003;-9.920478332787752E-004;
2.427666666666667E+009;1.491530984640122E-001;-1.215321868658066E-001;-1.933195278979838E-003;-9.324474376626313E-004;
