# Version 1.00
#
freq[Hz];re:Trc1_S11;im:Trc1_S11;re:Trc2_S21;im:Trc2_S21;
2.400000000000000E+009;1.582158207893372E-001;6.302150338888168E-002;-2.126367297023535E-003;-3.150526026729494E-005;
2.400166666666667E+009;1.581962704658508E-001;6.162383034825325E-002;-2.070876769721508E-003;2.065036824205890E-004;
2.400333333333334E+009;1.579277217388153E-001;5.948711559176445E-002;-1.998286927118897E-003;2.116876712534577E-004;
2.400500000000000E+009;1.578231602907181E-001;5.758357420563698E-002;-1.848294516094029E-003;3.095505235251039E-004;
2.400666666666667E+009;1.576976180076599E-001;5.561221390962601E-002;-1.879559829831123E-003;6.021506269462407E-004;
2.400833333333334E+009;1.578062921762466E-001;5.363873764872551E-002;-1.691438956186175E-003;6.741825491189957E-004;
2.401000000000000E+009;1.579258888959885E-001;5.151605233550072E-002;-1.725519075989723E-003;6.425623432733119E-004;
2.401166666666667E+009;1.580850929021835E-001;4.951858520507813E-002;-1.615747692994773E-003;5.949301412329078E-004;
2.401333333333334E+009;1.580312252044678E-001;4.721868410706520E-002;-1.504213782027364E-003;8.473158814013004E-004;
2.401500000000000E+009;1.584861129522324E-001;4.527109116315842E-002;-1.499397330917418E-003;8.289367542602122E-004;
2.401666666666667E+009;1.588229835033417E-001;4.318801313638687E-002;-1.299149473197758E-003;7.282841834239662E-004;
2.401833333333334E+009;1.592518985271454E-001;4.111147299408913E-002;-1.292876084335148E-003;8.150486391969025E-004;
2.402000000000000E+009;1.594512462615967E-001;3.923575207591057E-002;-1.176825491711497E-003;9.317167568951845E-004;
2.402166666666667E+009;1.599768698215485E-001;3.698943927884102E-002;-1.028399681672454E-003;9.799108374863863E-004;
2.402333333333334E+009;1.605939567089081E-001;3.502963110804558E-002;-8.699014433659613E-004;9.503070032224059E-004;
2.402500000000000E+009;1.612850129604340E-001;3.308022767305374E-002;-7.957873749546707E-004;1.023666467517614E-003;
2.402666666666667E+009;1.621736735105515E-001;3.142995387315750E-002;-6.327639566734433E-004;8.308889809995890E-004;
2.402833333333334E+009;1.627497971057892E-001;2.995820157229900E-002;-5.272579146549106E-004;9.049910586327314E-004;
2.403000000000000E+009;1.636380553245544E-001;2.795311622321606E-002;-5.060699768364430E-004;1.040449831634760E-003;
2.403166666666667E+009;1.644332855939865E-001;2.636536397039890E-002;-3.380645357538015E-004;8.820253424346447E-004;
2.403333333333334E+009;1.653718948364258E-001;2.486247755587101E-002;-1.588117738720030E-004;7.884271326474845E-004;
2.403500000000000E+009;1.662574559450150E-001;2.332271449267864E-002;-6.676576595054939E-005;6.452530506066978E-004;
2.403666666666667E+009;1.671081483364105E-001;2.193702012300491E-002;-5.886947474209592E-005;6.567097152583301E-004;
2.403833333333334E+009;1.681769788265228E-001;2.066271752119064E-002;2.488791360519826E-004;6.606645183637738E-004;
2.404000000000000E+009;1.692060083150864E-001;1.957700215280056E-002;1.965277333511040E-004;5.205933121033013E-004;
2.404166666666667E+009;1.700274944305420E-001;1.823159493505955E-002;3.550787514541298E-004;5.608799983747304E-004;
2.404333333333334E+009;1.710461229085922E-001;1.731415838003159E-002;3.321473195683211E-004;3.544588107615709E-004;
2.404500000000000E+009;1.721582263708115E-001;1.617674343287945E-002;3.299149393569678E-004;1.809880195651203E-004;
2.404666666666667E+009;1.730764061212540E-001;1.522989664226770E-002;4.123522667214274E-004;1.013652072288096E-004;
2.404833333333334E+009;1.739963740110397E-001;1.443105097860098E-002;5.447663133963943E-004;9.523444168735296E-005;
2.405000000000000E+009;1.749231815338135E-001;1.362668070942164E-002;5.464996793307364E-004;-1.225338201038539E-004;
2.405166666666667E+009;1.757335662841797E-001;1.313346717506647E-002;4.480422358028591E-004;-2.826837298925966E-004;
2.405333333333334E+009;1.767312288284302E-001;1.251299493014813E-002;4.620270919986069E-004;-3.094375715591013E-004;
2.405500000000000E+009;1.773366034030914E-001;1.208689622581005E-002;3.644543758127838E-004;-3.219824866391718E-004;
2.405666666666667E+009;1.779032051563263E-001;1.165021583437920E-002;3.088478988502175E-004;-4.668229667004198E-004;
2.405833333333334E+009;1.784985959529877E-001;1.128120999783278E-002;4.511979932431132E-004;-7.217877428047359E-004;
2.406000000000000E+009;1.791652292013168E-001;1.076463330537081E-002;2.685626386664808E-004;-6.928081857040525E-004;
2.406166666666667E+009;1.795246303081513E-001;1.057259272783995E-002;1.329387887381017E-004;-7.614756468683481E-004;
2.406333333333334E+009;1.801402419805527E-001;1.020485348999500E-002;1.952006132341921E-004;-1.030238345265389E-003;
2.406500000000000E+009;1.803664118051529E-001;9.947324171662331E-003;-5.014914222556399E-006;-9.027273626998067E-004;
2.406666666666667E+009;1.805234402418137E-001;9.806739166378975E-003;-3.384387673577294E-005;-9.756154613569379E-004;
2.406833333333334E+009;1.806770265102387E-001;9.340009652078152E-003;-2.000145177589729E-004;-1.146727125160396E-003;
2.407000000000000E+009;1.808917224407196E-001;9.119939990341663E-003;-1.547049469081685E-004;-1.052820240147412E-003;
2.407166666666667E+009;1.809621602296829E-001;8.843004703521729E-003;-3.053089603781700E-004;-1.210387679748237E-003;
2.407333333333334E+009;1.808416545391083E-001;8.311023935675621E-003;-3.870893269777298E-004;-1.028568018227816E-003;
2.407500000000000E+009;1.807163655757904E-001;8.109034039080143E-003;-3.248367574997246E-004;-9.989858372136951E-004;
2.407666666666667E+009;1.804882735013962E-001;7.766697090119124E-003;-5.282547208480537E-004;-1.202968531288207E-003;
2.407833333333334E+009;1.799794882535934E-001;7.094930857419968E-003;-5.111399223096669E-004;-1.213936135172844E-003;
2.408000000000000E+009;1.797205954790115E-001;6.624197587370873E-003;-5.600874428637326E-004;-1.087145647034049E-003;
2.408166666666667E+009;1.793645024299622E-001;6.078997626900673E-003;-6.652426673099399E-004;-1.155596924945712E-003;
2.408333333333334E+009;1.789399981498718E-001;5.374760366976261E-003;-7.265671738423407E-004;-1.127825933508575E-003;
2.408500000000000E+009;1.784078627824783E-001;4.480956587940455E-003;-8.681814069859684E-004;-1.125598209910095E-003;
2.408666666666667E+009;1.777599751949310E-001;3.787500318139792E-003;-1.026129117235541E-003;-1.107159187085927E-003;
2.408833333333334E+009;1.769943237304688E-001;2.811464015394449E-003;-8.998598204925656E-004;-1.071995240636170E-003;
2.409000000000000E+009;1.762541830539703E-001;1.934843603521586E-003;-1.015937421470881E-003;-1.234971103258431E-003;
2.409166666666667E+009;1.756630688905716E-001;7.804069900885224E-004;-1.107400516048074E-003;-1.100395224057138E-003;
2.409333333333334E+009;1.750603169202805E-001;-5.881005199626088E-004;-1.080331625416875E-003;-1.116903033107519E-003;
2.409500000000000E+009;1.742099374532700E-001;-1.789458328858018E-003;-1.174723962321878E-003;-1.080007059499621E-003;
2.409666666666667E+009;1.735327243804932E-001;-3.118881490081549E-003;-1.091566518880427E-003;-1.147194881923497E-003;
2.409833333333334E+009;1.728297322988510E-001;-4.294454120099545E-003;-1.211200607940555E-003;-1.234767725691199E-003;
2.410000000000000E+009;1.721378713846207E-001;-5.994169972836971E-003;-1.295715686865151E-003;-1.195995602756739E-003;
2.410166666666667E+009;1.714547127485275E-001;-7.495861966162920E-003;-1.365797710604966E-003;-1.173751545138657E-003;
2.410333333333334E+009;1.709707826375961E-001;-9.022024460136890E-003;-1.536272000521421E-003;-1.202309736981988E-003;
2.410500000000000E+009;1.703363806009293E-001;-1.071233022958040E-002;-1.671744277700782E-003;-1.208179746754468E-003;
2.410666666666667E+009;1.696469634771347E-001;-1.268767379224300E-002;-1.855141948908567E-003;-9.682288509793580E-004;
2.410833333333334E+009;1.692394763231278E-001;-1.436882559210062E-002;-1.899864524602890E-003;-1.089803176000714E-003;
2.411000000000000E+009;1.688262224197388E-001;-1.614395529031754E-002;-2.013084478676319E-003;-9.715842315927148E-004;
2.411166666666667E+009;1.684001833200455E-001;-1.805125363171101E-002;-2.025090390816331E-003;-9.396492387168109E-004;
2.411333333333334E+009;1.684008687734604E-001;-1.999189145863056E-002;-2.062290441244841E-003;-8.046503062359989E-004;
2.411500000000000E+009;1.678756773471832E-001;-2.220969833433628E-002;-2.272298326715827E-003;-8.219446172006428E-004;
2.411666666666667E+009;1.680524200201035E-001;-2.402848191559315E-002;-2.428131876513362E-003;-8.110725902952254E-004;
2.411833333333334E+009;1.677775830030441E-001;-2.593066170811653E-002;-2.470933832228184E-003;-7.420160109177232E-004;
2.412000000000000E+009;1.679233759641647E-001;-2.796158567070961E-002;-2.644435036927462E-003;-5.862123216502369E-004;
2.412166666666667E+009;1.681093126535416E-001;-2.985870279371738E-002;-2.693709218874574E-003;-5.484642460942268E-004;
2.412333333333334E+009;1.682982593774796E-001;-3.183978796005249E-002;-2.710400847718120E-003;-4.028469847980887E-004;
2.412500000000000E+009;1.684802770614624E-001;-3.391725569963455E-002;-2.948369598016143E-003;-3.020117874257267E-004;
2.412666666666667E+009;1.689092367887497E-001;-3.578177839517593E-002;-3.043048083782196E-003;-1.027026737574488E-004;
2.412833333333334E+009;1.690115928649902E-001;-3.762308880686760E-002;-2.987453714013100E-003;-7.562669634353370E-005;
2.413000000000000E+009;1.694250851869583E-001;-3.946785628795624E-002;-3.127668052911758E-003;6.143429345684126E-005;
2.413166666666667E+009;1.698453426361084E-001;-4.112694039940834E-002;-3.122569527477026E-003;2.990241628140211E-004;
2.413333333333334E+009;1.702999919652939E-001;-4.296274110674858E-002;-3.278458490967751E-003;3.539425961207598E-004;
2.413500000000000E+009;1.707430928945541E-001;-4.465157166123390E-002;-3.289768472313881E-003;6.450956570915878E-004;
2.413666666666667E+009;1.714879423379898E-001;-4.629978537559509E-002;-3.457582555711269E-003;8.335337042808533E-004;
2.413833333333334E+009;1.719469130039215E-001;-4.783543571829796E-002;-3.272074041888118E-003;9.726959979161620E-004;
2.414000000000000E+009;1.723860055208206E-001;-4.922227561473846E-002;-3.348570317029953E-003;1.313499175012112E-003;
2.414166666666667E+009;1.731646507978439E-001;-5.056576058268547E-002;-3.420502413064241E-003;1.244010287337005E-003;
2.414333333333334E+009;1.736746728420258E-001;-5.186651647090912E-002;-3.292838111519814E-003;1.373279257677496E-003;
2.414500000000000E+009;1.742381304502487E-001;-5.308077484369278E-002;-3.347438760101795E-003;1.633366337046027E-003;
2.414666666666667E+009;1.747668683528900E-001;-5.411820113658905E-002;-3.288358449935913E-003;1.735707512125373E-003;
2.414833333333334E+009;1.753809750080109E-001;-5.517956987023354E-002;-3.101286245509982E-003;2.076177392154932E-003;
2.415000000000000E+009;1.757436990737915E-001;-5.589552596211433E-002;-3.169524949043989E-003;2.177083864808083E-003;
2.415166666666667E+009;1.761696040630341E-001;-5.684696510434151E-002;-3.125031013041735E-003;2.356776036322117E-003;
2.415333333333334E+009;1.765912324190140E-001;-5.752700939774513E-002;-3.000614698976278E-003;2.672787988558412E-003;
2.415500000000000E+009;1.770345419645309E-001;-5.815799906849861E-002;-2.834649290889502E-003;2.707918873056769E-003;
2.415666666666667E+009;1.773116290569305E-001;-5.855378136038780E-002;-2.791014034301043E-003;2.991162007674575E-003;
2.415833333333334E+009;1.774844378232956E-001;-5.920142307877541E-002;-2.601927844807506E-003;3.060596762225032E-003;
2.416000000000000E+009;1.775460243225098E-001;-5.953802913427353E-002;-2.541757887229323E-003;3.251972375437617E-003;
2.416166666666667E+009;1.777855008840561E-001;-5.997004732489586E-002;-2.372484188526869E-003;3.273898037150502E-003;
2.416333333333334E+009;1.777197867631912E-001;-6.023364886641502E-002;-2.167928032577038E-003;3.488564398139715E-003;
2.416500000000000E+009;1.777280718088150E-001;-6.054976955056191E-002;-1.997889485210180E-003;3.657849505543709E-003;
2.416666666666667E+009;1.775152981281281E-001;-6.082843616604805E-002;-1.750330906361342E-003;3.827572567388415E-003;
2.416833333333334E+009;1.773126721382141E-001;-6.111045926809311E-002;-1.811035210266709E-003;3.928335383534432E-003;
2.417000000000000E+009;1.768375188112259E-001;-6.131166219711304E-002;-1.581925200298429E-003;3.973769955337048E-003;
2.417166666666667E+009;1.764687299728394E-001;-6.131921336054802E-002;-1.278317766264081E-003;4.135903902351856E-003;
2.417333333333334E+009;1.759907454252243E-001;-6.153963506221771E-002;-1.174403238110244E-003;4.139943048357964E-003;
2.417500000000000E+009;1.754032075405121E-001;-6.195593625307083E-002;-8.433325565420091E-004;4.081000573933125E-003;
2.417666666666667E+009;1.747680306434631E-001;-6.192865595221520E-002;-5.512318457476795E-004;4.219226073473692E-003;
2.417833333333334E+009;1.739883422851563E-001;-6.211273744702339E-002;-5.069582257419825E-004;4.314861726015806E-003;
2.418000000000000E+009;1.730017215013504E-001;-6.258729845285416E-002;-2.109817723976448E-004;4.215385764837265E-003;
2.418166666666667E+009;1.720550656318665E-001;-6.276226788759232E-002;-2.011325159401167E-005;4.317903425544500E-003;
2.418333333333334E+009;1.714475005865097E-001;-6.314790248870850E-002;1.630565820960328E-004;4.262129776179791E-003;
2.418500000000000E+009;1.702086031436920E-001;-6.355219334363937E-002;2.435863134451211E-004;4.308101721107960E-003;
2.418666666666667E+009;1.693455129861832E-001;-6.402617692947388E-002;5.683313938789070E-004;4.222466144710779E-003;
2.418833333333334E+009;1.679388135671616E-001;-6.452649086713791E-002;8.144914754666388E-004;4.168735351413488E-003;
2.419000000000000E+009;1.667583435773850E-001;-6.520027667284012E-002;8.923569694161415E-004;4.230253398418427E-003;
2.419166666666667E+009;1.656828373670578E-001;-6.579870730638504E-002;9.904043981805444E-004;4.160058218985796E-003;
2.419333333333334E+009;1.642512083053589E-001;-6.637688726186752E-002;1.246244180947542E-003;4.038768820464611E-003;
2.419500000000000E+009;1.632336974143982E-001;-6.729402393102646E-002;1.429594936780632E-003;3.886332269757986E-003;
2.419666666666667E+009;1.619656533002853E-001;-6.825046241283417E-002;1.782620092853904E-003;4.000035580247641E-003;
2.419833333333334E+009;1.607983112335205E-001;-6.902614980936050E-002;1.647487631998956E-003;3.827534848824143E-003;
2.420000000000000E+009;1.596511900424957E-001;-7.007694244384766E-002;1.985784620046616E-003;3.637252841144800E-003;
2.420166666666667E+009;1.584438979625702E-001;-7.126277685165405E-002;2.074580872431397E-003;3.702583024278283E-003;
2.420333333333334E+009;1.572821289300919E-001;-7.243122905492783E-002;2.223833929747343E-003;3.550019580870867E-003;
2.420500000000000E+009;1.562839895486832E-001;-7.357367128133774E-002;2.463689539581537E-003;3.387152915820479E-003;
2.420666666666667E+009;1.551352441310883E-001;-7.485602051019669E-002;2.555160783231258E-003;3.269235603511334E-003;
2.420833333333334E+009;1.543268710374832E-001;-7.629835605621338E-002;2.704354934394360E-003;3.047324484214187E-003;
2.421000000000000E+009;1.533141434192658E-001;-7.789859175682068E-002;2.834903541952372E-003;3.077577333897352E-003;
2.421166666666667E+009;1.526982039213181E-001;-7.934656739234924E-002;2.945007756352425E-003;2.789309713989496E-003;
2.421333333333334E+009;1.520117968320847E-001;-8.100790530443192E-002;2.968656597658992E-003;2.814094768837094E-003;
2.421500000000000E+009;1.512415409088135E-001;-8.248977363109589E-002;3.041299292817712E-003;2.466019708663225E-003;
2.421666666666667E+009;1.507281810045242E-001;-8.422564715147018E-002;3.252869704738259E-003;2.547743497416377E-003;
2.421833333333334E+009;1.502866744995117E-001;-8.571806550025940E-002;3.188597504049540E-003;2.321770647540689E-003;
2.422000000000000E+009;1.497717350721359E-001;-8.753839880228043E-002;3.221545135602355E-003;2.115518087521195E-003;
2.422166666666667E+009;1.494916230440140E-001;-8.943943679332733E-002;3.338754409924150E-003;1.830538036301732E-003;
2.422333333333334E+009;1.492658257484436E-001;-9.087821096181870E-002;3.265048842877150E-003;1.863301731646061E-003;
2.422500000000000E+009;1.490707546472549E-001;-9.271196275949478E-002;3.289334010332823E-003;1.639774185605347E-003;
2.422666666666667E+009;1.490558087825775E-001;-9.456443041563034E-002;3.469808027148247E-003;1.422167988494039E-003;
2.422833333333334E+009;1.491697579622269E-001;-9.617436677217484E-002;3.479160601273179E-003;1.250723726116121E-003;
2.423000000000000E+009;1.492933183908463E-001;-9.782569855451584E-002;3.438285086303949E-003;1.217754790559411E-003;
2.423166666666667E+009;1.493420153856278E-001;-9.950477629899979E-002;3.280971897765994E-003;1.004206947982311E-003;
2.423333333333334E+009;1.498019993305206E-001;-1.009953320026398E-001;3.334574634209275E-003;8.740127086639404E-004;
2.423500000000000E+009;1.500378996133804E-001;-1.026588305830956E-001;3.425374394282699E-003;7.077054469846189E-004;
2.423666666666667E+009;1.501969099044800E-001;-1.041198298335075E-001;3.406625473871827E-003;6.690662703476846E-004;
2.423833333333334E+009;1.508234441280365E-001;-1.056200191378593E-001;3.262087469920516E-003;4.076453624293208E-004;
2.424000000000000E+009;1.511717885732651E-001;-1.069544032216072E-001;3.291816683486104E-003;3.362542483955622E-004;
2.424166666666667E+009;1.515882462263107E-001;-1.081926226615906E-001;3.147549228742719E-003;2.717497409321368E-004;
2.424333333333334E+009;1.520953029394150E-001;-1.094997599720955E-001;3.139389678835869E-003;1.823394559323788E-004;
2.424500000000000E+009;1.525507271289825E-001;-1.107075512409210E-001;3.037857823073864E-003;1.644607400521636E-004;
2.424666666666667E+009;1.531820595264435E-001;-1.115382760763168E-001;3.127743955701590E-003;-4.615605575963855E-005;
2.424833333333334E+009;1.535549610853195E-001;-1.126542389392853E-001;2.936826087534428E-003;-2.509219484636560E-006;
2.425000000000000E+009;1.541044116020203E-001;-1.135017201304436E-001;3.143809735774994E-003;-1.977517385967076E-004;
2.425166666666667E+009;1.544659137725830E-001;-1.144091039896011E-001;2.962920814752579E-003;-1.502676022937521E-004;
2.425333333333334E+009;1.549062579870224E-001;-1.151152327656746E-001;2.952452749013901E-003;-4.274725797586143E-004;
2.425500000000000E+009;1.552743464708328E-001;-1.158484295010567E-001;2.857961691915989E-003;-3.934967971872538E-004;
2.425666666666667E+009;1.554298698902130E-001;-1.163949593901634E-001;2.771844388917089E-003;-6.104828789830208E-004;
2.425833333333334E+009;1.558336168527603E-001;-1.170288324356079E-001;2.885278780013323E-003;-5.207103095017374E-004;
2.426000000000000E+009;1.560966223478317E-001;-1.174612268805504E-001;2.866036491468549E-003;-5.115455132909119E-004;
2.426166666666667E+009;1.564303785562515E-001;-1.178860887885094E-001;2.749566454440355E-003;-7.044140365906060E-004;
2.426333333333334E+009;1.564123779535294E-001;-1.182126924395561E-001;2.669253619387746E-003;-7.544647087343037E-004;
2.426500000000000E+009;1.564951241016388E-001;-1.183196082711220E-001;2.672421745955944E-003;-6.743457634001970E-004;
2.426666666666667E+009;1.564611196517944E-001;-1.184654310345650E-001;2.737954724580050E-003;-7.541888044215739E-004;
2.426833333333334E+009;1.561630219221115E-001;-1.186503767967224E-001;2.618342172354460E-003;-8.605769253335893E-004;
2.427000000000000E+009;1.559940725564957E-001;-1.189400404691696E-001;2.477304311469197E-003;-9.506587521173060E-004;
2.427166666666667E+009;1.555818617343903E-001;-1.188215911388397E-001;2.642635488882661E-003;-1.089498517103493E-003;
2.427333333333334E+009;1.550588458776474E-001;-1.190408915281296E-001;2.582946559414268E-003;-1.000921940430999E-003;
2.427500000000000E+009;1.546899974346161E-001;-1.190537810325623E-001;2.536283573135734E-003;-1.129372394643724E-003;
2.427666666666667E+009;1.539453864097595E-001;-1.192922145128250E-001;2.507095923647285E-003;-1.195575925521553E-003;
