# Version 1.00
#
freq[Hz];re:Trc1_S11;im:Trc1_S11;re:Trc2_S21;im:Trc2_S21;
2.400000000000000E+009;1.580437123775482E-001;6.326162815093994E-002;-2.184991491958499E-003;6.852297519799322E-005;
2.400166666666667E+009;1.580224186182022E-001;6.161194294691086E-002;-2.083300612866879E-003;1.304801407968625E-004;
2.400333333333334E+009;1.577116847038269E-001;5.967057496309280E-002;-2.056717639788985E-003;1.155456775450148E-004;
2.400500000000000E+009;1.578449606895447E-001;5.776724964380264E-002;-2.118577947840095E-003;2.574921527411789E-004;
2.400666666666667E+009;1.577406376600266E-001;5.568780004978180E-002;-1.894077984616160E-003;2.847297291737050E-004;
2.400833333333334E+009;1.579083353281021E-001;5.359963327646256E-002;-1.991118770092726E-003;4.340208251960576E-004;
2.401000000000000E+009;1.579462438821793E-001;5.170656368136406E-002;-1.557030482217670E-003;5.409728619270027E-004;
2.401166666666667E+009;1.578883081674576E-001;4.944832623004913E-002;-1.627060119062662E-003;5.863021360710263E-004;
2.401333333333334E+009;1.581731736660004E-001;4.739697277545929E-002;-1.676282961852849E-003;8.391691953875125E-004;
2.401500000000000E+009;1.585330367088318E-001;4.510247707366943E-002;-1.650199992582202E-003;7.938458002172411E-004;
2.401666666666667E+009;1.587504595518112E-001;4.334982484579086E-002;-1.465782872401178E-003;8.714689174667001E-004;
2.401833333333334E+009;1.591278761625290E-001;4.086177051067352E-002;-1.250548171810806E-003;9.241512743756175E-004;
2.402000000000000E+009;1.593639552593231E-001;3.910962864756584E-002;-1.040567061863840E-003;9.040648001246154E-004;
2.402166666666667E+009;1.600230932235718E-001;3.681937977671623E-002;-1.009710831567645E-003;9.145205258391798E-004;
2.402333333333334E+009;1.605451405048370E-001;3.498153761029244E-002;-1.057143555954099E-003;8.792260778136551E-004;
2.402500000000000E+009;1.613449454307556E-001;3.321924433112145E-002;-8.914954960346222E-004;8.717984310351312E-004;
2.402666666666667E+009;1.619968414306641E-001;3.126049414277077E-002;-7.623390411026776E-004;8.929372997954488E-004;
2.402833333333334E+009;1.628886610269547E-001;2.977442741394043E-002;-6.691181333735585E-004;8.841400849632919E-004;
2.403000000000000E+009;1.637154221534729E-001;2.796961925923824E-002;-3.941117902286351E-004;8.423241670243442E-004;
2.403166666666667E+009;1.644387543201447E-001;2.633696980774403E-002;-2.414240152575076E-004;8.718812605366111E-004;
2.403333333333334E+009;1.653744429349899E-001;2.477600052952766E-002;-2.893319760914892E-004;7.203322602435947E-004;
2.403500000000000E+009;1.661486625671387E-001;2.322343364357948E-002;-1.086510310415179E-004;8.162606973201037E-004;
2.403666666666667E+009;1.673094928264618E-001;2.168635837733746E-002;1.108450960600749E-004;7.912666769698262E-004;
2.403833333333334E+009;1.682834625244141E-001;2.053272351622582E-002;3.228527930332348E-005;7.261713617481291E-004;
2.404000000000000E+009;1.692619919776917E-001;1.914848573505878E-002;1.647258613957092E-004;6.048597861081362E-004;
2.404166666666667E+009;1.701992452144623E-001;1.818534731864929E-002;1.785198401194066E-004;3.930207458324730E-004;
2.404333333333334E+009;1.712416112422943E-001;1.711230911314488E-002;2.463188429828733E-004;3.771473129745573E-004;
2.404500000000000E+009;1.721347421407700E-001;1.620947010815144E-002;2.766180550679565E-004;3.437213599681854E-004;
2.404666666666667E+009;1.730710566043854E-001;1.533705089241266E-002;2.861486282199621E-004;1.563253317726776E-004;
2.404833333333334E+009;1.740145832300186E-001;1.450460590422154E-002;4.345168417785317E-004;1.480850187363103E-004;
2.405000000000000E+009;1.748201698064804E-001;1.383663248270750E-002;2.352637238800526E-004;-1.023916993290186E-004;
2.405166666666667E+009;1.759057492017746E-001;1.298519968986511E-002;3.931622777599841E-004;-1.310240331804380E-004;
2.405333333333334E+009;1.766375452280045E-001;1.233981363475323E-002;2.285357477376238E-004;-2.940995909739286E-004;
2.405500000000000E+009;1.774717867374420E-001;1.192459091544151E-002;2.003622939810157E-004;-3.660737711470574E-004;
2.405666666666667E+009;1.781235188245773E-001;1.148464437574148E-002;2.532375510782003E-004;-4.885906819254160E-004;
2.405833333333334E+009;1.785644739866257E-001;1.114747766405344E-002;2.064129366772249E-004;-6.298231892287731E-004;
2.406000000000000E+009;1.792285144329071E-001;1.069126930087805E-002;2.497058812878095E-005;-6.895334809087217E-004;
2.406166666666667E+009;1.795333623886108E-001;1.053055096417666E-002;-8.349927520612255E-005;-7.578727090731263E-004;
2.406333333333334E+009;1.801509410142899E-001;1.019232627004385E-002;-4.401408295962028E-005;-8.936736849136651E-004;
2.406500000000000E+009;1.803722530603409E-001;9.826519526541233E-003;-5.174462785362266E-005;-9.526936337351799E-004;
2.406666666666667E+009;1.806156188249588E-001;9.619195945560932E-003;-1.417640851286706E-005;-9.940024465322495E-004;
2.406833333333334E+009;1.808013916015625E-001;9.266907349228859E-003;-1.294270914513618E-004;-1.060644397512078E-003;
2.407000000000000E+009;1.810166388750076E-001;9.152381680905819E-003;-2.051613701041788E-004;-9.023107122629881E-004;
2.407166666666667E+009;1.810904443264008E-001;8.838709443807602E-003;-2.804492251016200E-004;-1.018951879814267E-003;
2.407333333333334E+009;1.808711290359497E-001;8.295268751680851E-003;-3.482447937130928E-004;-1.045636949129403E-003;
2.407500000000000E+009;1.807012110948563E-001;8.064330555498600E-003;-3.711830941028893E-004;-9.673985769040883E-004;
2.407666666666667E+009;1.805973351001740E-001;7.727734744548798E-003;-6.218519993126392E-004;-1.053621759638190E-003;
2.407833333333334E+009;1.799573600292206E-001;7.162593305110931E-003;-7.281457073986530E-004;-1.037401496432722E-003;
2.408000000000000E+009;1.797128021717072E-001;6.502307485789061E-003;-6.477021961472929E-004;-1.112578553147614E-003;
2.408166666666667E+009;1.793702989816666E-001;6.104028783738613E-003;-8.024460985325277E-004;-1.112218946218491E-003;
2.408333333333334E+009;1.790704876184464E-001;5.417646374553442E-003;-8.298550383187830E-004;-1.029165112413466E-003;
2.408500000000000E+009;1.782969832420349E-001;4.547300748527050E-003;-6.840601563453674E-004;-1.146680908277631E-003;
2.408666666666667E+009;1.777594089508057E-001;3.875040914863348E-003;-9.194691665470600E-004;-9.688520221970975E-004;
2.408833333333334E+009;1.769637167453766E-001;2.915717661380768E-003;-1.041667186655104E-003;-1.071256003342569E-003;
2.409000000000000E+009;1.764205992221832E-001;1.895935274660587E-003;-1.022637123242021E-003;-1.127477153204382E-003;
2.409166666666667E+009;1.756512969732285E-001;8.353990851901472E-004;-1.081465510651469E-003;-9.138521854765713E-004;
2.409333333333334E+009;1.749496012926102E-001;-5.193651304580271E-004;-1.191281015053392E-003;-1.007379149086773E-003;
2.409500000000000E+009;1.742738485336304E-001;-1.757048303261399E-003;-1.150014111772180E-003;-9.589351830072701E-004;
2.409666666666667E+009;1.734538227319717E-001;-3.017340321093798E-003;-1.390733290463686E-003;-1.035857596434653E-003;
2.409833333333334E+009;1.728457212448120E-001;-4.280599765479565E-003;-1.383319264277816E-003;-1.160873449407518E-003;
2.410000000000000E+009;1.721403449773789E-001;-5.922414828091860E-003;-1.329225255176425E-003;-1.025925623252988E-003;
2.410166666666667E+009;1.716254353523254E-001;-7.523890119045973E-003;-1.424011425115168E-003;-1.009921543300152E-003;
2.410333333333334E+009;1.709332913160324E-001;-9.041564539074898E-003;-1.601738040335476E-003;-9.319036616943777E-004;
2.410500000000000E+009;1.703686267137528E-001;-1.077926065772772E-002;-1.676565501838923E-003;-9.920181473717094E-004;
2.410666666666667E+009;1.697507351636887E-001;-1.265071146190167E-002;-1.790015725418925E-003;-1.048667705617845E-003;
2.410833333333334E+009;1.693369895219803E-001;-1.433117222040892E-002;-1.877274713478982E-003;-9.050267399288714E-004;
2.411000000000000E+009;1.689018011093140E-001;-1.610228605568409E-002;-1.927979639731348E-003;-8.990573696792126E-004;
2.411166666666667E+009;1.684500873088837E-001;-1.819293200969696E-002;-2.081020968034864E-003;-1.084942487068474E-003;
2.411333333333334E+009;1.682883203029633E-001;-1.989401504397392E-002;-2.328612841665745E-003;-7.969469297677279E-004;
2.411500000000000E+009;1.680290549993515E-001;-2.219406887888908E-002;-2.280355431139469E-003;-7.167779840528965E-004;
2.411666666666667E+009;1.680546551942825E-001;-2.396910823881626E-002;-2.496208064258099E-003;-7.050907588563860E-004;
2.411833333333334E+009;1.678273230791092E-001;-2.595417201519013E-002;-2.396149095147848E-003;-6.990209221839905E-004;
2.412000000000000E+009;1.679165959358215E-001;-2.795504406094551E-002;-2.641675993800163E-003;-5.974033265374601E-004;
2.412166666666667E+009;1.678678691387177E-001;-2.999828942120075E-002;-2.722856355831027E-003;-5.385517724789679E-004;
2.412333333333334E+009;1.683656275272369E-001;-3.186221048235893E-002;-2.667965600267053E-003;-3.372196224518120E-004;
2.412500000000000E+009;1.683855652809143E-001;-3.378780186176300E-002;-2.848376054316759E-003;-2.170630323234946E-004;
2.412666666666667E+009;1.687267422676086E-001;-3.586022555828095E-002;-2.917170524597168E-003;-9.526667417958379E-005;
2.412833333333334E+009;1.691704392433167E-001;-3.755578771233559E-002;-2.945289015769959E-003;-6.596808088943362E-005;
2.413000000000000E+009;1.695089042186737E-001;-3.954559937119484E-002;-3.243510145694017E-003;2.423308033030480E-004;
2.413166666666667E+009;1.698201894760132E-001;-4.129343852400780E-002;-3.181666834279895E-003;4.183071723673493E-004;
2.413333333333334E+009;1.703040003776550E-001;-4.310351982712746E-002;-3.155408892780542E-003;5.551837384700775E-004;
2.413500000000000E+009;1.708669364452362E-001;-4.487954452633858E-002;-3.230248345062137E-003;6.862399168312550E-004;
2.413666666666667E+009;1.714685112237930E-001;-4.641008749604225E-002;-3.372926963493228E-003;1.064857351593673E-003;
2.413833333333334E+009;1.719707697629929E-001;-4.786890745162964E-002;-3.308346495032311E-003;1.146523281931877E-003;
2.414000000000000E+009;1.723615229129791E-001;-4.948895424604416E-002;-3.212155075743794E-003;1.318172900937498E-003;
2.414166666666667E+009;1.730734705924988E-001;-5.075198039412499E-002;-3.162627108395100E-003;1.379497465677559E-003;
2.414333333333334E+009;1.734893769025803E-001;-5.189787223935127E-002;-3.184264292940497E-003;1.629223232157528E-003;
2.414500000000000E+009;1.743889003992081E-001;-5.299992486834526E-002;-3.126871073618531E-003;1.708529423922300E-003;
2.414666666666667E+009;1.748278886079788E-001;-5.413738265633583E-002;-3.205249318853021E-003;1.949034049175680E-003;
2.414833333333334E+009;1.752176880836487E-001;-5.511110275983810E-002;-3.079421818256378E-003;2.168408362194896E-003;
2.415000000000000E+009;1.757760196924210E-001;-5.597002431750298E-002;-3.049945225939155E-003;2.228317782282829E-003;
2.415166666666667E+009;1.762503236532211E-001;-5.671309307217598E-002;-2.935266820713878E-003;2.490546321496368E-003;
2.415333333333334E+009;1.766076982021332E-001;-5.762994289398193E-002;-2.943200292065740E-003;2.834932412952185E-003;
2.415500000000000E+009;1.769460141658783E-001;-5.819880589842796E-002;-2.744293306022883E-003;2.894839271903038E-003;
2.415666666666667E+009;1.772799193859100E-001;-5.859598144888878E-002;-2.622256055474281E-003;3.103941446170211E-003;
2.415833333333334E+009;1.776088774204254E-001;-5.920593068003655E-002;-2.663276623934507E-003;3.353756153956056E-003;
2.416000000000000E+009;1.775507032871246E-001;-5.971784144639969E-002;-2.324324799701572E-003;3.368351375684142E-003;
2.416166666666667E+009;1.779541969299316E-001;-6.000814214348793E-002;-2.327808411791921E-003;3.475067205727100E-003;
2.416333333333334E+009;1.778244376182556E-001;-6.020679697394371E-002;-1.990142278373241E-003;3.595942631363869E-003;
2.416500000000000E+009;1.777197271585465E-001;-6.058904528617859E-002;-1.912629930302501E-003;3.699444234371185E-003;
2.416666666666667E+009;1.775308102369309E-001;-6.079384312033653E-002;-1.793657429516316E-003;3.871567314490676E-003;
2.416833333333334E+009;1.773686558008194E-001;-6.112816184759140E-002;-1.566009945236147E-003;3.901682095602155E-003;
2.417000000000000E+009;1.768157333135605E-001;-6.129672378301621E-002;-1.320954295806587E-003;4.202685318887234E-003;
2.417166666666667E+009;1.764112412929535E-001;-6.145565584301949E-002;-1.172748510725796E-003;4.236722365021706E-003;
2.417333333333334E+009;1.759430617094040E-001;-6.159123778343201E-002;-8.355979225598276E-004;4.251762293279171E-003;
2.417500000000000E+009;1.753772199153900E-001;-6.194594129920006E-002;-7.958089699968696E-004;4.263006150722504E-003;
2.417666666666667E+009;1.747076213359833E-001;-6.194317340850830E-002;-6.295019993558526E-004;4.267585463821888E-003;
2.417833333333334E+009;1.739336848258972E-001;-6.222851946949959E-002;-3.027545462828130E-004;4.355214070528746E-003;
2.418000000000000E+009;1.728853434324265E-001;-6.270181387662888E-002;-1.132485849666409E-004;4.413981921970844E-003;
2.418166666666667E+009;1.720769256353378E-001;-6.273464858531952E-002;1.326727306150133E-005;4.438346717506647E-003;
2.418333333333334E+009;1.712599396705627E-001;-6.318965554237366E-002;2.030009200097993E-004;4.251917824149132E-003;
2.418500000000000E+009;1.701369434595108E-001;-6.356650590896606E-002;5.253214621916413E-004;4.438205622136593E-003;
2.418666666666667E+009;1.691355854272842E-001;-6.410386413335800E-002;5.794731550849974E-004;4.312664736062288E-003;
2.418833333333334E+009;1.677707284688950E-001;-6.457455456256867E-002;9.350351756438613E-004;4.136360716074705E-003;
2.419000000000000E+009;1.666933894157410E-001;-6.508887559175491E-002;1.072414102964103E-003;4.195955116301775E-003;
2.419166666666667E+009;1.655928343534470E-001;-6.578063964843750E-002;1.110566430725157E-003;4.211600404232740E-003;
2.419333333333334E+009;1.641722023487091E-001;-6.627175211906433E-002;1.416585757397115E-003;4.146605730056763E-003;
2.419500000000000E+009;1.630001366138458E-001;-6.733333319425583E-002;1.705827424302697E-003;4.019320011138916E-003;
2.419666666666667E+009;1.617626249790192E-001;-6.814932823181152E-002;1.778173842467368E-003;3.870439948514104E-003;
2.419833333333334E+009;1.607209593057632E-001;-6.897349655628204E-002;1.920241978950799E-003;3.814403666183353E-003;
2.420000000000000E+009;1.595362871885300E-001;-7.010793685913086E-002;2.166102640330792E-003;3.758092643693090E-003;
2.420166666666667E+009;1.582271009683609E-001;-7.127565890550613E-002;2.141686156392098E-003;3.591642715036869E-003;
2.420333333333334E+009;1.572381705045700E-001;-7.257226854562759E-002;2.362981438636780E-003;3.514230484142900E-003;
2.420500000000000E+009;1.563463956117630E-001;-7.366993278264999E-002;2.562819514423609E-003;3.353430656716228E-003;
2.420666666666667E+009;1.550534516572952E-001;-7.486108690500259E-002;2.592413686215878E-003;3.362990915775299E-003;
2.420833333333334E+009;1.542381495237351E-001;-7.612448185682297E-002;2.821583766490221E-003;3.021074458956718E-003;
2.421000000000000E+009;1.533239632844925E-001;-7.777421921491623E-002;2.741962904110551E-003;2.969541586935520E-003;
2.421166666666667E+009;1.525478661060333E-001;-7.924610376358032E-002;2.985609928146005E-003;2.900680759921670E-003;
2.421333333333334E+009;1.519286781549454E-001;-8.096459507942200E-002;3.217238932847977E-003;2.679436001926661E-003;
2.421500000000000E+009;1.511625796556473E-001;-8.257979899644852E-002;3.080096561461687E-003;2.634141594171524E-003;
2.421666666666667E+009;1.507169902324677E-001;-8.422307670116425E-002;3.167148446664214E-003;2.321325242519379E-003;
2.421833333333334E+009;1.501788347959518E-001;-8.585602790117264E-002;3.241611178964376E-003;2.145180944353342E-003;
2.422000000000000E+009;1.497352421283722E-001;-8.753591030836105E-002;3.406108357012272E-003;2.060995902866125E-003;
2.422166666666667E+009;1.494717895984650E-001;-8.944097161293030E-002;3.372823353856802E-003;1.815844210796058E-003;
2.422333333333334E+009;1.492474526166916E-001;-9.093712270259857E-002;3.597592236474156E-003;1.781181315891445E-003;
2.422500000000000E+009;1.490853577852249E-001;-9.261909127235413E-002;3.287161234766245E-003;1.421762397512794E-003;
2.422666666666667E+009;1.489151418209076E-001;-9.448854625225067E-002;3.519645426422358E-003;1.463276683352888E-003;
2.422833333333334E+009;1.490966975688934E-001;-9.623432904481888E-002;3.651034319773316E-003;1.315920264460146E-003;
2.423000000000000E+009;1.490991860628128E-001;-9.776842594146729E-002;3.552394686266780E-003;9.791610063984990E-004;
2.423166666666667E+009;1.493996083736420E-001;-9.947475045919418E-002;3.516986034810543E-003;9.480047156102955E-004;
2.423333333333334E+009;1.496541649103165E-001;-1.009985432028770E-001;3.454514080658555E-003;8.698648889549077E-004;
2.423500000000000E+009;1.498083025217056E-001;-1.027186810970306E-001;3.550434252247214E-003;7.222078274935484E-004;
2.423666666666667E+009;1.500589698553085E-001;-1.042591929435730E-001;3.433074802160263E-003;5.370571743696928E-004;
2.423833333333334E+009;1.506980657577515E-001;-1.056158095598221E-001;3.418087260797620E-003;3.314618952572346E-004;
2.424000000000000E+009;1.509991139173508E-001;-1.068878695368767E-001;3.429438453167677E-003;2.387905988143757E-004;
2.424166666666667E+009;1.513722091913223E-001;-1.084012985229492E-001;3.321828553453088E-003;2.093306975439191E-004;
2.424333333333334E+009;1.520970910787582E-001;-1.094277724623680E-001;3.246749052777886E-003;5.401526868809015E-005;
2.424500000000000E+009;1.524817794561386E-001;-1.106859743595123E-001;3.255441784858704E-003;-1.433953584637493E-004;
2.424666666666667E+009;1.530150175094605E-001;-1.115377396345139E-001;3.285892773419619E-003;-8.536938548786566E-005;
2.424833333333334E+009;1.535412073135376E-001;-1.126755774021149E-001;3.126588184386492E-003;-2.223449846496806E-004;
2.425000000000000E+009;1.539896577596664E-001;-1.135785430669785E-001;3.058050759136677E-003;-3.496532735880464E-004;
2.425166666666667E+009;1.543049514293671E-001;-1.143852025270462E-001;2.947847358882427E-003;-4.135419731028378E-004;
2.425333333333334E+009;1.547671854496002E-001;-1.151669919490814E-001;2.925437409430742E-003;-4.596264334395528E-004;
2.425500000000000E+009;1.553294062614441E-001;-1.159460023045540E-001;2.841615816578269E-003;-5.648033693432808E-004;
2.425666666666667E+009;1.554824858903885E-001;-1.164801642298698E-001;2.912652445957065E-003;-6.300946115516126E-004;
2.425833333333334E+009;1.558241695165634E-001;-1.169071719050407E-001;2.836131257936359E-003;-6.896615377627313E-004;
2.426000000000000E+009;1.560335159301758E-001;-1.175147593021393E-001;2.772946143522859E-003;-7.592725451104343E-004;
2.426166666666667E+009;1.564193665981293E-001;-1.178365722298622E-001;2.852247795090079E-003;-6.482123862951994E-004;
2.426333333333334E+009;1.563765704631805E-001;-1.181672587990761E-001;2.750585088506341E-003;-9.908220963552594E-004;
2.426500000000000E+009;1.563784927129746E-001;-1.184092313051224E-001;2.608847338706255E-003;-8.723501232452691E-004;
2.426666666666667E+009;1.564442813396454E-001;-1.184050142765045E-001;2.595559461042285E-003;-1.065267249941826E-003;
2.426833333333334E+009;1.562400013208389E-001;-1.187660098075867E-001;2.561643719673157E-003;-1.020037103444338E-003;
2.427000000000000E+009;1.560136228799820E-001;-1.189431324601173E-001;2.400764031335712E-003;-1.114403828978539E-003;
2.427166666666667E+009;1.555109620094299E-001;-1.189378648996353E-001;2.495932625606656E-003;-1.241315971128643E-003;
2.427333333333334E+009;1.551396250724793E-001;-1.190259531140328E-001;2.548369113355875E-003;-1.227666856721044E-003;
2.427500000000000E+009;1.547170132398605E-001;-1.191016435623169E-001;2.418346935883164E-003;-1.280755153857172E-003;
2.427666666666667E+009;1.539949923753738E-001;-1.192348971962929E-001;2.505221869796515E-003;-1.416433369740844E-003;
