# Version 1.00
#
freq[Hz];re:Trc1_S11;im:Trc1_S11;re:Trc2_S21;im:Trc2_S21;
2.400000000000000E+009;1.581840515136719E-001;6.328310817480087E-002;-1.592176500707865E-003;-1.962683927558828E-005;
2.400166666666667E+009;1.581220328807831E-001;6.157854944467545E-002;-1.613168162293732E-003;1.959922810783610E-004;
2.400333333333334E+009;1.579261273145676E-001;5.947389826178551E-002;-1.607853919267654E-003;-1.910528953885660E-005;
2.400500000000000E+009;1.579718887805939E-001;5.767805874347687E-002;-1.549622509628534E-003;1.888833066914231E-004;
2.400666666666667E+009;1.577589660882950E-001;5.556892976164818E-002;-1.475768745876849E-003;2.947179018519819E-004;
2.400833333333334E+009;1.579588651657105E-001;5.365439131855965E-002;-1.324839890003204E-003;3.280515084043145E-004;
2.401000000000000E+009;1.579904556274414E-001;5.148426070809364E-002;-1.353159663267434E-003;4.747213679365814E-004;
2.401166666666667E+009;1.580139398574829E-001;4.934743046760559E-002;-1.183485612273216E-003;4.237119865138084E-004;
2.401333333333334E+009;1.581702530384064E-001;4.729131981730461E-002;-1.110729295760393E-003;5.664175841957331E-004;
2.401500000000000E+009;1.584189087152481E-001;4.507180675864220E-002;-1.013818779028952E-003;5.721275811083615E-004;
2.401666666666667E+009;1.587480902671814E-001;4.303276911377907E-002;-9.367724996991456E-004;5.085690645501018E-004;
2.401833333333334E+009;1.591881662607193E-001;4.093881696462631E-002;-6.737599615007639E-004;7.175335194915533E-004;
2.402000000000000E+009;1.594391316175461E-001;3.888070955872536E-002;-7.318375282920897E-004;5.895179929211736E-004;
2.402166666666667E+009;1.601684689521790E-001;3.677880764007568E-002;-5.363892414607108E-004;7.194369682110846E-004;
2.402333333333334E+009;1.604847013950348E-001;3.484830260276794E-002;-4.502103547565639E-004;7.968057761900127E-004;
2.402500000000000E+009;1.612802743911743E-001;3.326665237545967E-002;-5.386858829297125E-004;6.245814147405326E-004;
2.402666666666667E+009;1.619157940149307E-001;3.121026977896690E-002;-3.845791216008365E-004;6.682050297968090E-004;
2.402833333333334E+009;1.627054214477539E-001;2.957061305642128E-002;-2.119614946423098E-004;5.639190203510225E-004;
2.403000000000000E+009;1.633521020412445E-001;2.775736898183823E-002;-1.426419767085463E-004;5.687402444891632E-004;
2.403166666666667E+009;1.642029434442520E-001;2.624670043587685E-002;1.524392973806243E-005;4.486049292609096E-004;
2.403333333333334E+009;1.652061492204666E-001;2.468044124543667E-002;1.363005867460743E-004;5.425943527370691E-004;
2.403500000000000E+009;1.661799699068070E-001;2.331626228988171E-002;1.384162897011265E-004;2.850540040526539E-004;
2.403666666666667E+009;1.670707911252976E-001;2.180401980876923E-002;3.331778571009636E-004;3.021567245014012E-004;
2.403833333333334E+009;1.681213080883026E-001;2.035689912736416E-002;3.526021318975836E-004;2.367004781262949E-004;
2.404000000000000E+009;1.691780388355255E-001;1.917970180511475E-002;3.686336567625403E-004;-3.222019586246461E-005;
2.404166666666667E+009;1.700072884559631E-001;1.816075667738915E-002;4.678015247918665E-004;1.939771318575367E-004;
2.404333333333334E+009;1.712111085653305E-001;1.699477247893810E-002;5.224244087003171E-004;-1.401057088514790E-004;
2.404500000000000E+009;1.718781590461731E-001;1.604029722511768E-002;4.467771505005658E-004;-4.420668410602957E-004;
2.404666666666667E+009;1.730110645294190E-001;1.508827321231365E-002;4.354448465164751E-004;-4.444231453817338E-004;
2.404833333333334E+009;1.738230288028717E-001;1.439938787370920E-002;4.854061699006707E-004;-5.315415910445154E-004;
2.405000000000000E+009;1.749207079410553E-001;1.363456528633833E-002;4.482982330955565E-004;-7.038760231807828E-004;
2.405166666666667E+009;1.756677925586700E-001;1.303004752844572E-002;3.523320192471147E-004;-7.374837296083570E-004;
2.405333333333334E+009;1.766610592603684E-001;1.233899593353272E-002;5.072903586551547E-004;-8.356957696378231E-004;
2.405500000000000E+009;1.773732304573059E-001;1.187601592391729E-002;3.961909969802946E-004;-9.470488294027746E-004;
2.405666666666667E+009;1.780108660459518E-001;1.159923244267702E-002;3.562462225090712E-004;-8.182897581718862E-004;
2.405833333333334E+009;1.785310059785843E-001;1.118467561900616E-002;1.076504122465849E-004;-1.213000272400677E-003;
2.406000000000000E+009;1.792252510786057E-001;1.068806182593107E-002;1.962860696949065E-004;-1.319277100265026E-003;
2.406166666666667E+009;1.795502305030823E-001;1.050464529544115E-002;-1.810831690818304E-006;-1.372581580653787E-003;
2.406333333333334E+009;1.802099645137787E-001;1.013547461479902E-002;5.912592314416543E-005;-1.319057308137417E-003;
2.406500000000000E+009;1.804842054843903E-001;9.780743159353733E-003;-1.396095904055983E-004;-1.287825638428330E-003;
2.406666666666667E+009;1.804747134447098E-001;9.658595547080040E-003;-1.171944313682616E-004;-1.410324359312654E-003;
2.406833333333334E+009;1.808960735797882E-001;9.308941662311554E-003;-3.120194887742400E-004;-1.336333341896534E-003;
2.407000000000000E+009;1.810251623392105E-001;8.973101153969765E-003;-3.880510339513421E-004;-1.500880112871528E-003;
2.407166666666667E+009;1.811182200908661E-001;8.812249638140202E-003;-5.794801982119680E-004;-1.656252308748663E-003;
2.407333333333334E+009;1.808971613645554E-001;8.409039117395878E-003;-5.143026355654001E-004;-1.396754640154541E-003;
2.407500000000000E+009;1.807406991720200E-001;8.092712610960007E-003;-7.359116571024060E-004;-1.505760126747191E-003;
2.407666666666667E+009;1.806179732084274E-001;7.735745981335640E-003;-8.095505181699991E-004;-1.578808180056512E-003;
2.407833333333334E+009;1.800715178251267E-001;7.013307418674231E-003;-9.402740979567170E-004;-1.565704587846994E-003;
2.408000000000000E+009;1.798882782459259E-001;6.526646204292774E-003;-9.306147694587708E-004;-1.485325978137553E-003;
2.408166666666667E+009;1.793735772371292E-001;6.009133532643318E-003;-1.075933920219541E-003;-1.577742747031152E-003;
2.408333333333334E+009;1.791128665208817E-001;5.325193051248789E-003;-1.116316299885511E-003;-1.634879386983812E-003;
2.408500000000000E+009;1.784052401781082E-001;4.471398424357176E-003;-1.071662525646389E-003;-1.385200535878539E-003;
2.408666666666667E+009;1.777588278055191E-001;3.692602040246129E-003;-1.215295866131783E-003;-1.464928849600256E-003;
2.408833333333334E+009;1.770957261323929E-001;2.714417874813080E-003;-1.271501998417079E-003;-1.349960453808308E-003;
2.409000000000000E+009;1.763146966695786E-001;1.777991652488709E-003;-1.357128843665123E-003;-1.391528174281120E-003;
2.409166666666667E+009;1.757555752992630E-001;7.479045307263732E-004;-1.468199072405696E-003;-1.347011770121753E-003;
2.409333333333334E+009;1.749771237373352E-001;-6.067247013561428E-004;-1.509290072135627E-003;-1.258329721167684E-003;
2.409500000000000E+009;1.742199212312698E-001;-1.912759384140372E-003;-1.686328905634582E-003;-1.342162606306374E-003;
2.409666666666667E+009;1.734571158885956E-001;-3.067658515647054E-003;-1.673577004112303E-003;-1.340652466751635E-003;
2.409833333333334E+009;1.727179586887360E-001;-4.368837922811508E-003;-1.785152708180249E-003;-1.254071248695254E-003;
2.410000000000000E+009;1.720310747623444E-001;-5.975974723696709E-003;-1.831123256124556E-003;-1.023357035592198E-003;
2.410166666666667E+009;1.714897155761719E-001;-7.512713316828013E-003;-1.900663948617876E-003;-1.236288342624903E-003;
2.410333333333334E+009;1.707131117582321E-001;-9.107777848839760E-003;-2.030443865805864E-003;-1.311164000071585E-003;
2.410500000000000E+009;1.703218370676041E-001;-1.080014836043119E-002;-1.985123846679926E-003;-1.171710435301065E-003;
2.410666666666667E+009;1.695662140846252E-001;-1.272873487323523E-002;-2.009366638958454E-003;-9.891611989587545E-004;
2.410833333333334E+009;1.691426187753677E-001;-1.447975076735020E-002;-2.255816012620926E-003;-9.521337924525142E-004;
2.411000000000000E+009;1.688215434551239E-001;-1.618999429047108E-002;-2.272192854434252E-003;-8.921578410081565E-004;
2.411166666666667E+009;1.683853864669800E-001;-1.826053671538830E-002;-2.258523134514689E-003;-8.570167119614780E-004;
2.411333333333334E+009;1.680736243724823E-001;-2.013221755623817E-002;-2.378299832344055E-003;-9.428725461475551E-004;
2.411500000000000E+009;1.678756475448608E-001;-2.215253002941608E-002;-2.639958169311285E-003;-8.612270466983318E-004;
2.411666666666667E+009;1.679730862379074E-001;-2.404036372900009E-002;-2.745158039033413E-003;-8.161137811839581E-004;
2.411833333333334E+009;1.678866595029831E-001;-2.592090703547001E-002;-2.839145483449101E-003;-7.431479170918465E-004;
2.412000000000000E+009;1.679637134075165E-001;-2.788382582366467E-002;-2.880413318052888E-003;-6.065454217605293E-004;
2.412166666666667E+009;1.678528934717178E-001;-3.003546595573425E-002;-2.941691083833575E-003;-4.520956426858902E-004;
2.412333333333334E+009;1.683082878589630E-001;-3.195165470242500E-002;-3.094800282269716E-003;-3.722578985616565E-004;
2.412500000000000E+009;1.683473140001297E-001;-3.388923406600952E-002;-3.263216232880950E-003;-3.159050829708576E-004;
2.412666666666667E+009;1.686139404773712E-001;-3.588293492794037E-002;-3.091555787250400E-003;-2.439547824906185E-004;
2.412833333333334E+009;1.691252440214157E-001;-3.759504109621048E-002;-3.222570987418294E-003;-4.767347490997054E-005;
2.413000000000000E+009;1.693889200687408E-001;-3.947877883911133E-002;-3.361024195328355E-003;1.002397038973868E-004;
2.413166666666667E+009;1.697780936956406E-001;-4.131621867418289E-002;-3.429978154599667E-003;4.442942736204714E-004;
2.413333333333334E+009;1.702812761068344E-001;-4.322555661201477E-002;-3.352703992277384E-003;4.875524027738720E-004;
2.413500000000000E+009;1.707843095064163E-001;-4.476735368371010E-002;-3.392890095710754E-003;7.219498511403799E-004;
2.413666666666667E+009;1.714630275964737E-001;-4.646863788366318E-002;-3.509409958496690E-003;7.536804187111557E-004;
2.413833333333334E+009;1.717906147241592E-001;-4.787062481045723E-002;-3.618963528424501E-003;1.019373419694603E-003;
2.414000000000000E+009;1.723521202802658E-001;-4.931454360485077E-002;-3.416955703869462E-003;1.314127701334655E-003;
2.414166666666667E+009;1.730014681816101E-001;-5.053019523620606E-002;-3.345962148159742E-003;1.347117940895259E-003;
2.414333333333334E+009;1.734989732503891E-001;-5.199065059423447E-002;-3.542365506291390E-003;1.748149748891592E-003;
2.414500000000000E+009;1.742840558290482E-001;-5.301490053534508E-002;-3.556890180334449E-003;1.818976248614490E-003;
2.414666666666667E+009;1.747296601533890E-001;-5.403289943933487E-002;-3.413302125409246E-003;1.944236806593835E-003;
2.414833333333334E+009;1.752477884292603E-001;-5.515678599476814E-002;-3.347664605826140E-003;2.093376591801643E-003;
2.415000000000000E+009;1.757189035415649E-001;-5.605141445994377E-002;-3.073168685659766E-003;2.329093404114246E-003;
2.415166666666667E+009;1.761557012796402E-001;-5.681003257632256E-002;-3.170510521158576E-003;2.515372587367892E-003;
2.415333333333334E+009;1.765570789575577E-001;-5.759421736001968E-002;-3.179118968546391E-003;2.638619625940919E-003;
2.415500000000000E+009;1.769107133150101E-001;-5.815130472183228E-002;-2.995320828631520E-003;2.909016329795122E-003;
2.415666666666667E+009;1.773140430450440E-001;-5.868986994028091E-002;-2.882267814129591E-003;2.853186102584004E-003;
2.415833333333334E+009;1.775742173194885E-001;-5.924422293901444E-002;-2.920715603977442E-003;3.207242349162698E-003;
2.416000000000000E+009;1.774390190839768E-001;-5.968059226870537E-002;-2.661256585270166E-003;3.296914743259549E-003;
2.416166666666667E+009;1.777828335762024E-001;-6.022503599524498E-002;-2.582353539764881E-003;3.308782819658518E-003;
2.416333333333334E+009;1.777614057064056E-001;-6.036905199289322E-002;-2.431541681289673E-003;3.476933343335986E-003;
2.416500000000000E+009;1.776633709669113E-001;-6.076833605766296E-002;-2.187947975471616E-003;3.743398003280163E-003;
2.416666666666667E+009;1.774038076400757E-001;-6.086716800928116E-002;-2.043182030320168E-003;3.723445814102888E-003;
2.416833333333334E+009;1.772947460412979E-001;-6.120073795318604E-002;-1.986772054806352E-003;3.874821122735739E-003;
2.417000000000000E+009;1.768393367528915E-001;-6.139915809035301E-002;-1.689252560026944E-003;4.130296409130096E-003;
2.417166666666667E+009;1.763838529586792E-001;-6.148392707109451E-002;-1.346583710983396E-003;4.111391026526690E-003;
2.417333333333334E+009;1.760019212961197E-001;-6.164678931236267E-002;-1.279232907108963E-003;4.304309841245413E-003;
2.417500000000000E+009;1.753372400999069E-001;-6.201284751296043E-002;-1.199382240884006E-003;4.309199750423431E-003;
2.417666666666667E+009;1.746849417686462E-001;-6.198591738939285E-002;-8.253625128418207E-004;4.418603610247374E-003;
2.417833333333334E+009;1.739289760589600E-001;-6.226912140846252E-002;-6.999697070568800E-004;4.411004949361086E-003;
2.418000000000000E+009;1.730815172195435E-001;-6.251836568117142E-002;-3.278137883171439E-004;4.393040202558041E-003;
2.418166666666667E+009;1.719228476285934E-001;-6.273064762353897E-002;-2.857311919797212E-004;4.437273368239403E-003;
2.418333333333334E+009;1.713302433490753E-001;-6.319390237331390E-002;-7.053556328173727E-005;4.500676412135363E-003;
2.418500000000000E+009;1.701297312974930E-001;-6.362750381231308E-002;1.800286700017750E-004;4.432514309883118E-003;
2.418666666666667E+009;1.691206842660904E-001;-6.407170742750168E-002;3.143709909636527E-004;4.560738336294890E-003;
2.418833333333334E+009;1.679372489452362E-001;-6.449413299560547E-002;4.746002086903900E-004;4.465880338102579E-003;
2.419000000000000E+009;1.666847765445709E-001;-6.507247686386108E-002;6.039260770194233E-004;4.453714936971664E-003;
2.419166666666667E+009;1.654999405145645E-001;-6.577025353908539E-002;9.338544914498925E-004;4.270610865205526E-003;
2.419333333333334E+009;1.641556620597839E-001;-6.617123633623123E-002;1.197939040139318E-003;4.205899778753519E-003;
2.419500000000000E+009;1.631264239549637E-001;-6.722480058670044E-002;1.344141783192754E-003;4.218456335365772E-003;
2.419666666666667E+009;1.618999242782593E-001;-6.829375028610230E-002;1.507400535047054E-003;4.227178171277046E-003;
2.419833333333334E+009;1.607605367898941E-001;-6.898522377014160E-002;1.600339193828404E-003;4.045431036502123E-003;
2.420000000000000E+009;1.594757884740830E-001;-7.000136375427246E-002;1.825758488848805E-003;4.063242115080357E-003;
2.420166666666667E+009;1.582548171281815E-001;-7.114521414041519E-002;1.988003961741924E-003;3.858534619212151E-003;
2.420333333333334E+009;1.572625041007996E-001;-7.237821072340012E-002;2.288236282765865E-003;3.756998572498560E-003;
2.420500000000000E+009;1.561643928289414E-001;-7.352655380964279E-002;2.361819613724947E-003;3.753601573407650E-003;
2.420666666666667E+009;1.551721990108490E-001;-7.470163702964783E-002;2.567966701462865E-003;3.608539467677474E-003;
2.420833333333334E+009;1.542833149433136E-001;-7.622274011373520E-002;2.640044083818793E-003;3.347893944010139E-003;
2.421000000000000E+009;1.533782929182053E-001;-7.788130640983582E-002;2.775496337562800E-003;3.278163960203528E-003;
2.421166666666667E+009;1.525344103574753E-001;-7.936321943998337E-002;2.870345022529364E-003;3.077173372730613E-003;
2.421333333333334E+009;1.519095748662949E-001;-8.088158816099167E-002;2.901579020544887E-003;2.940021455287933E-003;
2.421500000000000E+009;1.511738151311874E-001;-8.234298974275589E-002;3.093159524723887E-003;2.779781818389893E-003;
2.421666666666667E+009;1.507169753313065E-001;-8.407652378082275E-002;3.121008398011327E-003;2.726072678342462E-003;
2.421833333333334E+009;1.503155529499054E-001;-8.587420731782913E-002;3.233421826735139E-003;2.499678405001760E-003;
2.422000000000000E+009;1.498673856258392E-001;-8.735730499029160E-002;3.292804816737771E-003;2.372237853705883E-003;
2.422166666666667E+009;1.495358794927597E-001;-8.930172026157379E-002;3.272662404924631E-003;2.140138065442443E-003;
2.422333333333334E+009;1.495241522789002E-001;-9.098000824451447E-002;3.471201285719872E-003;1.895341905765235E-003;
2.422500000000000E+009;1.490746736526489E-001;-9.261405467987061E-002;3.436798928305507E-003;1.672833459451795E-003;
2.422666666666667E+009;1.489764750003815E-001;-9.432827681303024E-002;3.409374039620161E-003;1.640223199501634E-003;
2.422833333333334E+009;1.490904539823532E-001;-9.627675265073776E-002;3.389604855328798E-003;1.443116576410830E-003;
2.423000000000000E+009;1.493280529975891E-001;-9.777324646711350E-002;3.361581359058619E-003;1.323958509601653E-003;
2.423166666666667E+009;1.495734751224518E-001;-9.940905869007111E-002;3.394154598936439E-003;1.194100361317396E-003;
2.423333333333334E+009;1.497253477573395E-001;-1.009784862399101E-001;3.271712223067880E-003;1.033811713568866E-003;
2.423500000000000E+009;1.499704420566559E-001;-1.026137247681618E-001;3.398346481844783E-003;8.903546840883791E-004;
2.423666666666667E+009;1.502760201692581E-001;-1.042194589972496E-001;3.414096543565393E-003;8.230304811149836E-004;
2.423833333333334E+009;1.508567631244659E-001;-1.057114452123642E-001;3.336610505357385E-003;5.920350668020546E-004;
2.424000000000000E+009;1.510519236326218E-001;-1.070675477385521E-001;3.328767372295260E-003;6.631151773035526E-004;
2.424166666666667E+009;1.515605002641678E-001;-1.083595901727676E-001;3.318333066999912E-003;4.178899980615825E-004;
2.424333333333334E+009;1.521309167146683E-001;-1.095121651887894E-001;3.112839767709374E-003;4.493203305173665E-004;
2.424500000000000E+009;1.525163948535919E-001;-1.108109951019287E-001;3.225380321964622E-003;2.254103164887056E-004;
2.424666666666667E+009;1.532537937164307E-001;-1.117415800690651E-001;3.098602872341871E-003;2.134430978912860E-004;
2.424833333333334E+009;1.534647643566132E-001;-1.128225922584534E-001;3.073705825954676E-003;4.915267709293403E-005;
2.425000000000000E+009;1.539856493473053E-001;-1.137706041336060E-001;2.962616505101323E-003;-1.545066515973304E-005;
2.425166666666667E+009;1.542844474315643E-001;-1.144747659564018E-001;2.932935487478972E-003;-1.545644336147234E-004;
2.425333333333334E+009;1.548358500003815E-001;-1.152955144643784E-001;2.998178824782372E-003;-2.855922211892903E-004;
2.425500000000000E+009;1.553291976451874E-001;-1.159851551055908E-001;2.846521092578769E-003;-3.484428452793509E-004;
2.425666666666667E+009;1.554323285818100E-001;-1.165466457605362E-001;2.838901244103909E-003;-2.339179482078180E-004;
2.425833333333334E+009;1.559389084577560E-001;-1.170560121536255E-001;2.797950059175491E-003;-1.607505982974544E-004;
2.426000000000000E+009;1.561440378427506E-001;-1.176337152719498E-001;2.949569607153535E-003;-3.583287179935724E-004;
2.426166666666667E+009;1.564025729894638E-001;-1.179943159222603E-001;2.978617325425148E-003;-4.641282139346004E-004;
2.426333333333334E+009;1.563607603311539E-001;-1.184128373861313E-001;2.706255530938506E-003;-6.573177524842322E-004;
2.426500000000000E+009;1.564136296510696E-001;-1.185370013117790E-001;2.804320072755218E-003;-4.005578812211752E-004;
2.426666666666667E+009;1.565332561731339E-001;-1.185812428593636E-001;2.594827441498637E-003;-5.927659804001451E-004;
2.426833333333334E+009;1.562152206897736E-001;-1.188773512840271E-001;2.879513194784522E-003;-6.087252404540777E-004;
2.427000000000000E+009;1.560024619102478E-001;-1.190226748585701E-001;2.744823927059770E-003;-8.081795531325042E-004;
2.427166666666667E+009;1.556380540132523E-001;-1.189433187246323E-001;2.758551621809602E-003;-8.845811244100332E-004;
2.427333333333334E+009;1.551062613725662E-001;-1.191426441073418E-001;2.664294093847275E-003;-9.401704301126301E-004;
2.427500000000000E+009;1.545438617467880E-001;-1.192704439163208E-001;2.663603983819485E-003;-9.723156690597534E-004;
2.427666666666667E+009;1.539261937141419E-001;-1.192431822419167E-001;2.560426015406847E-003;-9.841353166848421E-004;
