# Version 1.00
#
freq[Hz];re:Trc1_S11;im:Trc1_S11;re:Trc2_S21;im:Trc2_S21;
2.400000000000000E+009;1.583386659622192E-001;6.312949210405350E-002;-2.152100903913379E-003;-3.030978223250713E-005;
2.400166666666667E+009;1.580412387847900E-001;6.149195879697800E-002;-2.071964321658015E-003;7.349922088906169E-005;
2.400333333333334E+009;1.579813808202744E-001;5.947875604033470E-002;-2.123100683093071E-003;3.040790907107294E-004;
2.400500000000000E+009;1.577903926372528E-001;5.765975639224052E-002;-2.070466754958034E-003;1.263094018213451E-004;
2.400666666666667E+009;1.577685475349426E-001;5.542017892003059E-002;-1.882540294900537E-003;3.453140088822693E-004;
2.400833333333334E+009;1.579515486955643E-001;5.376030504703522E-002;-1.950426842086017E-003;4.420619807206094E-004;
2.401000000000000E+009;1.578505933284760E-001;5.127317830920219E-002;-1.742219435982406E-003;6.087084184400737E-004;
2.401166666666667E+009;1.580082923173904E-001;4.942947253584862E-002;-1.631625229492784E-003;5.412630271166563E-004;
2.401333333333334E+009;1.583710014820099E-001;4.733531549572945E-002;-1.601342810317874E-003;7.248347392305732E-004;
2.401500000000000E+009;1.585505455732346E-001;4.525144398212433E-002;-1.577481161803007E-003;5.628861254081130E-004;
2.401666666666667E+009;1.588828861713409E-001;4.315606504678726E-002;-1.342308940365911E-003;7.985355914570391E-004;
2.401833333333334E+009;1.590902358293533E-001;4.097867384552956E-002;-1.335967448540032E-003;8.183759055100381E-004;
2.402000000000000E+009;1.594945341348648E-001;3.896133601665497E-002;-1.197735196910799E-003;7.570839952677488E-004;
2.402166666666667E+009;1.600528657436371E-001;3.701872751116753E-002;-9.804340079426765E-004;7.779528968967497E-004;
2.402333333333334E+009;1.606809645891190E-001;3.490135073661804E-002;-8.604341419413686E-004;1.013541361317039E-003;
2.402500000000000E+009;1.614429652690888E-001;3.322257101535797E-002;-8.042211411520839E-004;9.618194890208542E-004;
2.402666666666667E+009;1.620453596115112E-001;3.138818219304085E-002;-7.231989293359220E-004;9.774016216397286E-004;
2.402833333333334E+009;1.626503616571426E-001;2.961720526218414E-002;-4.965025000274181E-004;1.099112792871893E-003;
2.403000000000000E+009;1.634089201688767E-001;2.776788361370564E-002;-4.103221290279180E-004;8.787655970081687E-004;
2.403166666666667E+009;1.644984483718872E-001;2.622033655643463E-002;-3.683627583086491E-004;8.329224074259400E-004;
2.403333333333334E+009;1.654864996671677E-001;2.476406283676624E-002;-1.096912237699144E-004;7.966178236529231E-004;
2.403500000000000E+009;1.661651581525803E-001;2.347495779395104E-002;-2.573005331214517E-004;7.921322248876095E-004;
2.403666666666667E+009;1.672476977109909E-001;2.191267162561417E-002;-2.865308306354564E-005;6.985043291933835E-004;
2.403833333333334E+009;1.683450043201447E-001;2.048427425324917E-002;3.079847010667436E-005;5.889753228984773E-004;
2.404000000000000E+009;1.691707670688629E-001;1.946292445063591E-002;-3.383497096365318E-005;5.955965607427061E-004;
2.404166666666667E+009;1.700828373432159E-001;1.817288808524609E-002;8.873407932696864E-005;5.617240094579756E-004;
2.404333333333334E+009;1.712219864130020E-001;1.722134836018086E-002;2.725693047977984E-004;1.837535528466106E-004;
2.404500000000000E+009;1.719996333122253E-001;1.615812070667744E-002;4.844316572416574E-004;3.939458110835403E-004;
2.404666666666667E+009;1.731917709112167E-001;1.530702970921993E-002;3.513193223625422E-004;4.075215474586003E-005;
2.404833333333334E+009;1.739875525236130E-001;1.443929690867662E-002;4.286477342247963E-004;-1.531925408926327E-005;
2.405000000000000E+009;1.750052273273468E-001;1.378093007951975E-002;3.574278089217842E-004;-6.954700074857101E-005;
2.405166666666667E+009;1.759319603443146E-001;1.306873373687267E-002;4.142908146604896E-004;-7.034361624391750E-005;
2.405333333333334E+009;1.766325086355209E-001;1.232266705483198E-002;4.367553046904504E-004;-2.387180138612166E-004;
2.405500000000000E+009;1.775307059288025E-001;1.198033709079027E-002;3.165173693560064E-004;-3.866778279189020E-004;
2.405666666666667E+009;1.780381500720978E-001;1.164652314037085E-002;2.243205381091684E-004;-5.923182470723987E-004;
2.405833333333334E+009;1.787471026182175E-001;1.123388018459082E-002;3.495392447803170E-004;-6.566001684404910E-004;
2.406000000000000E+009;1.792621016502380E-001;1.056614052504301E-002;2.439032978145406E-004;-5.865441053174436E-004;
2.406166666666667E+009;1.796745210886002E-001;1.049894280731678E-002;2.014842757489532E-004;-5.323969526216388E-004;
2.406333333333334E+009;1.801657378673554E-001;1.023259200155735E-002;4.191461994196288E-005;-8.099224069155753E-004;
2.406500000000000E+009;1.804876178503037E-001;9.804210625588894E-003;6.468447099905461E-005;-9.502674220129848E-004;
2.406666666666667E+009;1.806320995092392E-001;9.637078270316124E-003;-1.853082794696093E-004;-1.051082508638501E-003;
2.406833333333334E+009;1.808805763721466E-001;9.233260527253151E-003;-3.310793836135417E-004;-1.007451792247593E-003;
2.407000000000000E+009;1.810441017150879E-001;9.011352434754372E-003;-1.315099652856588E-004;-1.036406145431101E-003;
2.407166666666667E+009;1.811157613992691E-001;8.813611231744289E-003;-3.457944549154490E-004;-1.125655486248434E-003;
2.407333333333334E+009;1.808354556560516E-001;8.359412662684917E-003;-4.748851642943919E-004;-1.067617093212903E-003;
2.407500000000000E+009;1.807908415794373E-001;8.004705421626568E-003;-3.151214914396405E-004;-1.141619053669274E-003;
2.407666666666667E+009;1.804546266794205E-001;7.780518848448992E-003;-5.184409674257040E-004;-1.148583134636283E-003;
2.407833333333334E+009;1.800939440727234E-001;7.102329283952713E-003;-5.308293038979173E-004;-1.000243122689426E-003;
2.408000000000000E+009;1.798002719879150E-001;6.463134661316872E-003;-7.400817703455687E-004;-1.048830687068403E-003;
2.408166666666667E+009;1.793170571327210E-001;6.084851454943419E-003;-7.415233412757516E-004;-1.090186298824847E-003;
2.408333333333334E+009;1.790162026882172E-001;5.425191484391689E-003;-9.416807442903519E-004;-1.057431567460299E-003;
2.408500000000000E+009;1.782294660806656E-001;4.532009363174439E-003;-7.836871664039791E-004;-1.146832597441971E-003;
2.408666666666667E+009;1.777278184890747E-001;3.645206103101373E-003;-9.062031167559326E-004;-1.134361256845295E-003;
2.408833333333334E+009;1.770644932985306E-001;2.831675112247467E-003;-1.049766433425248E-003;-1.165939494967461E-003;
2.409000000000000E+009;1.762697547674179E-001;1.782953739166260E-003;-9.907044004648924E-004;-1.192325842566788E-003;
2.409166666666667E+009;1.755443513393402E-001;5.927536403760314E-004;-1.051683444529772E-003;-1.106882700696588E-003;
2.409333333333334E+009;1.751307696104050E-001;-5.163493333384395E-004;-1.202144776470959E-003;-1.086083357222378E-003;
2.409500000000000E+009;1.741814613342285E-001;-1.808930072002113E-003;-1.278797746635974E-003;-1.078930101357400E-003;
2.409666666666667E+009;1.736201047897339E-001;-3.216725308448076E-003;-1.205673790536821E-003;-1.093280268833041E-003;
2.409833333333334E+009;1.727527081966400E-001;-4.344971850514412E-003;-1.418104395270348E-003;-1.047394121997058E-003;
2.410000000000000E+009;1.721601486206055E-001;-5.907037761062384E-003;-1.314649125561118E-003;-1.035141875036061E-003;
2.410166666666667E+009;1.715429425239563E-001;-7.446027826517820E-003;-1.559529104270041E-003;-1.077066524885595E-003;
2.410333333333334E+009;1.709614992141724E-001;-9.141823276877403E-003;-1.669764518737793E-003;-9.132348932325840E-004;
2.410500000000000E+009;1.703609824180603E-001;-1.090423297137022E-002;-1.837575575336814E-003;-9.907932253554463E-004;
2.410666666666667E+009;1.698258072137833E-001;-1.274718251079321E-002;-1.695089042186737E-003;-1.031009946018457E-003;
2.410833333333334E+009;1.693338304758072E-001;-1.439801231026650E-002;-1.777873025275767E-003;-1.190170645713806E-003;
2.411000000000000E+009;1.689388304948807E-001;-1.616708934307098E-002;-1.974540296941996E-003;-1.046099117957056E-003;
2.411166666666667E+009;1.685519069433212E-001;-1.818965561687946E-002;-2.106013242155314E-003;-9.464191389270127E-004;
2.411333333333334E+009;1.683561503887177E-001;-1.986194588243961E-002;-2.219631569460034E-003;-9.402120485901833E-004;
2.411500000000000E+009;1.680808067321777E-001;-2.223012782633305E-002;-2.269882243126631E-003;-8.657242869958282E-004;
2.411666666666667E+009;1.679413914680481E-001;-2.400019951164722E-002;-2.394917886704207E-003;-7.376971771009266E-004;
2.411833333333334E+009;1.678878813982010E-001;-2.595848403871059E-002;-2.451227977871895E-003;-7.444247021339834E-004;
2.412000000000000E+009;1.681382656097412E-001;-2.803177759051323E-002;-2.608992857858539E-003;-5.304256919771433E-004;
2.412166666666667E+009;1.679000407457352E-001;-3.000776283442974E-002;-2.658186014741659E-003;-5.740274209529162E-004;
2.412333333333334E+009;1.682899296283722E-001;-3.199273347854614E-002;-2.834188286215067E-003;-4.229297628626227E-004;
2.412500000000000E+009;1.683706641197205E-001;-3.384629264473915E-002;-2.856069942936301E-003;-2.844700065907091E-004;
2.412666666666667E+009;1.688893884420395E-001;-3.586411476135254E-002;-2.948835492134094E-003;-4.684587111114524E-005;
2.412833333333334E+009;1.690913885831833E-001;-3.771099075675011E-002;-2.971878508105874E-003;8.750541019253433E-005;
2.413000000000000E+009;1.696817725896835E-001;-3.971996903419495E-002;-3.173663280904293E-003;2.630318631418049E-004;
2.413166666666667E+009;1.699777692556381E-001;-4.128030315041542E-002;-3.086019074544311E-003;3.311013861093670E-004;
2.413333333333334E+009;1.704202741384506E-001;-4.313668236136437E-002;-3.263840219005942E-003;4.245174059178680E-004;
2.413500000000000E+009;1.710166782140732E-001;-4.487773776054382E-002;-3.321534488350153E-003;5.917027010582387E-004;
2.413666666666667E+009;1.715356260538101E-001;-4.627808928489685E-002;-3.320297924801707E-003;8.612708188593388E-004;
2.413833333333334E+009;1.720015853643417E-001;-4.790746420621872E-002;-3.361344570294023E-003;1.002096454612911E-003;
2.414000000000000E+009;1.725083887577057E-001;-4.942207410931587E-002;-3.194102784618735E-003;1.251289038918912E-003;
2.414166666666667E+009;1.731330901384354E-001;-5.066782236099243E-002;-3.159964457154274E-003;1.302426680922508E-003;
2.414333333333334E+009;1.737347841262817E-001;-5.186703801155090E-002;-3.283130237832665E-003;1.482108840718865E-003;
2.414500000000000E+009;1.744378507137299E-001;-5.312276631593704E-002;-3.321450902149081E-003;1.792717142961919E-003;
2.414666666666667E+009;1.749462485313416E-001;-5.405192822217941E-002;-3.192022442817688E-003;1.964137656614184E-003;
2.414833333333334E+009;1.753622740507126E-001;-5.527700483798981E-002;-3.064149059355259E-003;2.121391938999295E-003;
2.415000000000000E+009;1.756941229104996E-001;-5.600655451416969E-002;-2.993161091580987E-003;2.352017909288406E-003;
2.415166666666667E+009;1.761117875576019E-001;-5.682388320565224E-002;-3.003973746672273E-003;2.480639144778252E-003;
2.415333333333334E+009;1.765965074300766E-001;-5.776280909776688E-002;-2.966288011521101E-003;2.658999525010586E-003;
2.415500000000000E+009;1.769836694002152E-001;-5.828561633825302E-002;-2.721309894695878E-003;2.686052583158016E-003;
2.415666666666667E+009;1.771958023309708E-001;-5.866505578160286E-002;-2.658145967870951E-003;2.982564503327012E-003;
2.415833333333334E+009;1.775240749120712E-001;-5.927456915378571E-002;-2.602813066914678E-003;3.179705701768398E-003;
2.416000000000000E+009;1.776084303855896E-001;-5.969909951090813E-002;-2.381096128374338E-003;3.269219538196921E-003;
2.416166666666667E+009;1.778576672077179E-001;-6.012584641575813E-002;-2.163649303838611E-003;3.426671959459782E-003;
2.416333333333334E+009;1.778398901224136E-001;-6.035074219107628E-002;-2.185259014368057E-003;3.549729241058230E-003;
2.416500000000000E+009;1.776752173900604E-001;-6.074171140789986E-002;-1.935643143951893E-003;3.799268743023276E-003;
2.416666666666667E+009;1.774265170097351E-001;-6.085083633661270E-002;-1.753427088260651E-003;3.773896023631096E-003;
2.416833333333334E+009;1.772612780332565E-001;-6.116768345236778E-002;-1.764103770256043E-003;3.885730635374785E-003;
2.417000000000000E+009;1.768967807292938E-001;-6.140870973467827E-002;-1.395199797116220E-003;3.961475566029549E-003;
2.417166666666667E+009;1.763515323400497E-001;-6.144808232784271E-002;-1.239566598087549E-003;4.143074620515108E-003;
2.417333333333334E+009;1.759901046752930E-001;-6.160329282283783E-002;-9.835268137976527E-004;4.089354537427425E-003;
2.417500000000000E+009;1.752951294183731E-001;-6.199705600738525E-002;-7.077870541252196E-004;4.239280708134174E-003;
2.417666666666667E+009;1.746439039707184E-001;-6.209780648350716E-002;-6.433191010728478E-004;4.251169972121716E-003;
2.417833333333334E+009;1.737027019262314E-001;-6.227112933993340E-002;-3.787723253481090E-004;4.480037838220596E-003;
2.418000000000000E+009;1.729235649108887E-001;-6.260874867439270E-002;-2.380105433985591E-004;4.276126157492399E-003;
2.418166666666667E+009;1.720545738935471E-001;-6.280652433633804E-002;-2.696701812965330E-005;4.398700315505266E-003;
2.418333333333334E+009;1.712903082370758E-001;-6.331089138984680E-002;1.609146856935695E-004;4.321824759244919E-003;
2.418500000000000E+009;1.701159030199051E-001;-6.364858150482178E-002;4.644141881726682E-004;4.348562099039555E-003;
2.418666666666667E+009;1.691948771476746E-001;-6.414446979761124E-002;5.291942507028580E-004;4.264628048986197E-003;
2.418833333333334E+009;1.678087413311005E-001;-6.467875093221664E-002;8.946135640144348E-004;4.235222004354000E-003;
2.419000000000000E+009;1.666536778211594E-001;-6.514639407396317E-002;9.593483991920948E-004;4.147167317569256E-003;
2.419166666666667E+009;1.655637770891190E-001;-6.580491364002228E-002;1.214204006828368E-003;3.972002305090427E-003;
2.419333333333334E+009;1.640748977661133E-001;-6.629883497953415E-002;1.360372640192509E-003;4.220476839691401E-003;
2.419500000000000E+009;1.630578488111496E-001;-6.739781051874161E-002;1.484410255216062E-003;4.025816917419434E-003;
2.419666666666667E+009;1.618902683258057E-001;-6.819871813058853E-002;1.728718634694815E-003;4.108801949769259E-003;
2.419833333333334E+009;1.606267243623734E-001;-6.908018141984940E-002;1.868718536570668E-003;4.016348626464605E-003;
2.420000000000000E+009;1.595265567302704E-001;-7.015264779329300E-002;2.122879726812244E-003;3.701075911521912E-003;
2.420166666666667E+009;1.582864671945572E-001;-7.125304639339447E-002;2.166039543226361E-003;3.565846709534526E-003;
2.420333333333334E+009;1.574245244264603E-001;-7.244849205017090E-002;2.359104808419943E-003;3.569501684978604E-003;
2.420500000000000E+009;1.563384979963303E-001;-7.360529154539108E-002;2.357147401198745E-003;3.424205584451556E-003;
2.420666666666667E+009;1.551548689603806E-001;-7.494132965803146E-002;2.672775881364942E-003;3.225416876375675E-003;
2.420833333333334E+009;1.542597115039825E-001;-7.630683481693268E-002;2.836751053109765E-003;3.194713266566396E-003;
2.421000000000000E+009;1.534470915794373E-001;-7.792489230632782E-002;2.866941271349788E-003;3.036567941308022E-003;
2.421166666666667E+009;1.526823937892914E-001;-7.934612035751343E-002;2.901679836213589E-003;2.699058502912521E-003;
2.421333333333334E+009;1.521769911050797E-001;-8.092480897903442E-002;3.138677217066288E-003;2.583323279395700E-003;
2.421500000000000E+009;1.512226760387421E-001;-8.240708708763123E-002;3.140903543680906E-003;2.567362738773227E-003;
2.421666666666667E+009;1.507218033075333E-001;-8.432103693485260E-002;3.256730269640684E-003;2.307336311787367E-003;
2.421833333333334E+009;1.502484828233719E-001;-8.596984297037125E-002;3.340046852827072E-003;2.123740268871188E-003;
2.422000000000000E+009;1.498057544231415E-001;-8.756539225578308E-002;3.290505614131689E-003;1.984615111723542E-003;
2.422166666666667E+009;1.494312882423401E-001;-8.940875530242920E-002;3.393371356651187E-003;1.872294582426548E-003;
2.422333333333334E+009;1.493616551160812E-001;-9.099562466144562E-002;3.430451499298215E-003;1.776314922608435E-003;
2.422500000000000E+009;1.491618156433106E-001;-9.276711940765381E-002;3.429704345762730E-003;1.536764437332749E-003;
2.422666666666667E+009;1.489443629980087E-001;-9.458177536725998E-002;3.412131685763598E-003;1.398177468217909E-003;
2.422833333333334E+009;1.491297334432602E-001;-9.611567854881287E-002;3.467871574684978E-003;1.125921146012843E-003;
2.423000000000000E+009;1.491495668888092E-001;-9.784127026796341E-002;3.460025181993842E-003;1.181015977635980E-003;
2.423166666666667E+009;1.494981646537781E-001;-9.954482316970825E-002;3.325428115203977E-003;8.312746649608016E-004;
2.423333333333334E+009;1.496049314737320E-001;-1.009496077895165E-001;3.441198263317347E-003;6.920901359990239E-004;
2.423500000000000E+009;1.499414443969727E-001;-1.025608777999878E-001;3.357502399012446E-003;6.196831236593425E-004;
2.423666666666667E+009;1.500801146030426E-001;-1.042124629020691E-001;3.457949962466955E-003;5.369896534830332E-004;
2.423833333333334E+009;1.505477428436279E-001;-1.057639643549919E-001;3.263715188950300E-003;3.615813620854169E-004;
2.424000000000000E+009;1.509926021099091E-001;-1.068871468305588E-001;3.387740813195705E-003;4.378625890240073E-004;
2.424166666666667E+009;1.515434980392456E-001;-1.082519069314003E-001;3.322877921164036E-003;1.048806007020176E-004;
2.424333333333334E+009;1.520534753799439E-001;-1.093867644667625E-001;3.177718026563525E-003;8.665800123708323E-006;
2.424500000000000E+009;1.524521261453629E-001;-1.107188835740089E-001;3.122624708339572E-003;-1.309133367612958E-004;
2.424666666666667E+009;1.532029956579208E-001;-1.115654334425926E-001;3.288132837042213E-003;-9.150210098596290E-005;
2.424833333333334E+009;1.534843146800995E-001;-1.127425432205200E-001;3.069267841055989E-003;-1.921662624226883E-004;
2.425000000000000E+009;1.539647281169891E-001;-1.135954707860947E-001;3.111697267740965E-003;-3.592206048779190E-004;
2.425166666666667E+009;1.543162018060684E-001;-1.144069582223892E-001;3.028182080015540E-003;-3.525873471517116E-004;
2.425333333333334E+009;1.549102962017059E-001;-1.152206808328629E-001;2.803752198815346E-003;-4.433894355315715E-004;
2.425500000000000E+009;1.553388386964798E-001;-1.159202829003334E-001;2.952352864667773E-003;-5.266267689876258E-004;
2.425666666666667E+009;1.555056273937225E-001;-1.164433658123016E-001;2.819736488163471E-003;-5.169803625904024E-004;
2.425833333333334E+009;1.559095084667206E-001;-1.169106215238571E-001;3.026666818186641E-003;-6.572986603714526E-004;
2.426000000000000E+009;1.560823470354080E-001;-1.174367591738701E-001;2.753681270405650E-003;-7.584182894788683E-004;
2.426166666666667E+009;1.563562303781509E-001;-1.178952753543854E-001;2.836462575942278E-003;-9.145173826254904E-004;
2.426333333333334E+009;1.563498526811600E-001;-1.182188913226128E-001;2.653043018653989E-003;-6.519991438835859E-004;
2.426500000000000E+009;1.564783304929733E-001;-1.183900982141495E-001;2.820590976625681E-003;-9.698198991827667E-004;
2.426666666666667E+009;1.565551012754440E-001;-1.185106039047241E-001;2.693829126656056E-003;-9.163923677988350E-004;
2.426833333333334E+009;1.561799049377441E-001;-1.186450794339180E-001;2.557918429374695E-003;-9.867603657767177E-004;
2.427000000000000E+009;1.559280455112457E-001;-1.189962700009346E-001;2.593979937955737E-003;-1.113938284106553E-003;
2.427166666666667E+009;1.555981040000916E-001;-1.188891306519508E-001;2.548386808484793E-003;-1.281965058296919E-003;
2.427333333333334E+009;1.550436317920685E-001;-1.190025061368942E-001;2.476540626958013E-003;-1.247176202014089E-003;
2.427500000000000E+009;1.546155661344528E-001;-1.191249117255211E-001;2.426784252747893E-003;-1.302309916354716E-003;
2.427666666666667E+009;1.539864838123322E-001;-1.192355901002884E-001;2.359108068048954E-003;-1.204553642310202E-003;
