# Version 1.00
#
freq[Hz];re:Trc1_S11;im:Trc1_S11;re:Trc2_S21;im:Trc2_S21;
2.400000000000000E+009;1.551957875490189E-001;1.067749112844467E-001;2.000298351049423E-003;-2.008971991017461E-003;
2.400166666666667E+009;1.548866629600525E-001;1.041755601763725E-001;2.035453682765365E-003;-1.905394368804991E-003;
2.400333333333334E+009;1.549426615238190E-001;1.019757464528084E-001;1.896635978482664E-003;-1.914008287712932E-003;
2.400500000000000E+009;1.550334095954895E-001;9.926851093769074E-002;1.985285198315978E-003;-1.925141434185207E-003;
2.400666666666667E+009;1.552338004112244E-001;9.686347097158432E-002;2.107491018250585E-003;-1.903749536722899E-003;
2.400833333333334E+009;1.550541520118713E-001;9.405410289764404E-002;1.978153595700860E-003;-1.889807172119618E-003;
2.401000000000000E+009;1.553346663713455E-001;9.105462580919266E-002;2.008287003263831E-003;-1.855350797995925E-003;
2.401166666666667E+009;1.555313020944595E-001;8.836942911148071E-002;1.928134937770665E-003;-1.866929000243545E-003;
2.401333333333334E+009;1.560346633195877E-001;8.551771193742752E-002;1.951862126588821E-003;-1.964529743418098E-003;
2.401500000000000E+009;1.564188450574875E-001;8.266206830739975E-002;2.000323729589582E-003;-1.963660586625338E-003;
2.401666666666667E+009;1.567796021699905E-001;7.975915074348450E-002;2.023812150582671E-003;-2.100354526191950E-003;
2.401833333333334E+009;1.572650372982025E-001;7.724468410015106E-002;1.955741085112095E-003;-2.244360744953156E-003;
2.402000000000000E+009;1.583253294229507E-001;7.450191676616669E-002;1.996958861127496E-003;-2.137137809768319E-003;
2.402166666666667E+009;1.590645164251328E-001;7.201629132032394E-002;1.969802659004927E-003;-2.422474557533860E-003;
2.402333333333334E+009;1.600091457366943E-001;6.945240497589111E-002;1.833379967138171E-003;-2.517244545742869E-003;
2.402500000000000E+009;1.612190902233124E-001;6.671757996082306E-002;1.912235980853438E-003;-2.482384210452437E-003;
2.402666666666667E+009;1.624477952718735E-001;6.454342603683472E-002;1.681833877228200E-003;-2.746958052739501E-003;
2.402833333333334E+009;1.638199836015701E-001;6.212845817208290E-002;1.542016514576972E-003;-2.712515415623784E-003;
2.403000000000000E+009;1.651888936758041E-001;5.962541326880455E-002;1.356332446448505E-003;-2.595324767753482E-003;
2.403166666666667E+009;1.669178605079651E-001;5.764129385352135E-002;1.283129560761154E-003;-2.800336107611656E-003;
2.403333333333334E+009;1.682383567094803E-001;5.531399324536324E-002;1.206854591146112E-003;-2.655518241226673E-003;
2.403500000000000E+009;1.699582338333130E-001;5.337516218423843E-002;9.727490833029151E-004;-2.752782776951790E-003;
2.403666666666667E+009;1.718155592679977E-001;5.136539414525032E-002;9.998797904700041E-004;-2.594360383227468E-003;
2.403833333333334E+009;1.735152602195740E-001;4.957783967256546E-002;8.210749947465956E-004;-2.444989047944546E-003;
2.404000000000000E+009;1.748426109552383E-001;4.774789139628410E-002;8.188236970454454E-004;-2.463361481204629E-003;
2.404166666666667E+009;1.768277287483215E-001;4.636773467063904E-002;8.398552308790386E-004;-2.363084349781275E-003;
2.404333333333334E+009;1.783327162265778E-001;4.496695846319199E-002;9.111000690609217E-004;-2.038578270003200E-003;
2.404500000000000E+009;1.800314784049988E-001;4.355097562074661E-002;1.039305934682488E-003;-2.105477964505553E-003;
2.404666666666667E+009;1.816532909870148E-001;4.231051355600357E-002;9.926605271175504E-004;-2.006897237151861E-003;
2.404833333333334E+009;1.832600980997086E-001;4.133262857794762E-002;1.383127877488732E-003;-2.113519236445427E-003;
2.405000000000000E+009;1.843559890985489E-001;4.076808318495750E-002;1.262075966224074E-003;-2.421871526166797E-003;
2.405166666666667E+009;1.858186870813370E-001;3.989072516560555E-002;1.327037229202688E-003;-2.455324865877628E-003;
2.405333333333334E+009;1.873320639133453E-001;3.941603004932404E-002;1.289353473111987E-003;-2.405800856649876E-003;
2.405500000000000E+009;1.885686814785004E-001;3.900916501879692E-002;1.256287097930908E-003;-2.335886005312204E-003;
2.405666666666667E+009;1.898117512464523E-001;3.851836547255516E-002;1.186495996080339E-003;-2.507222583517432E-003;
2.405833333333334E+009;1.909319907426834E-001;3.826560825109482E-002;1.170794945210218E-003;-2.802713308483362E-003;
2.406000000000000E+009;1.919272840023041E-001;3.811576962471008E-002;1.121668610721827E-003;-2.848364878445864E-003;
2.406166666666667E+009;1.929269284009934E-001;3.802038356661797E-002;8.100453997030854E-004;-2.784369513392448E-003;
2.406333333333334E+009;1.938636898994446E-001;3.792979195713997E-002;6.696044583804905E-004;-2.911239396780729E-003;
2.406500000000000E+009;1.945182979106903E-001;3.800672665238380E-002;7.039952906779945E-004;-2.838433953002095E-003;
2.406666666666667E+009;1.951778680086136E-001;3.798457235097885E-002;5.206427304074168E-004;-2.833890030160546E-003;
2.406833333333334E+009;1.956517398357391E-001;3.791041299700737E-002;6.268551805987954E-004;-2.873657038435340E-003;
2.407000000000000E+009;1.959163695573807E-001;3.812589123845100E-002;4.956076736561954E-004;-2.887697191908956E-003;
2.407166666666667E+009;1.963779032230377E-001;3.783217072486877E-002;5.082446150481701E-004;-2.872813493013382E-003;
2.407333333333334E+009;1.961737871170044E-001;3.805720061063767E-002;6.292932084761560E-004;-2.881588181480765E-003;
2.407500000000000E+009;1.960979402065277E-001;3.802690282464027E-002;6.398677360266447E-004;-2.840300556272268E-003;
2.407666666666667E+009;1.961032301187515E-001;3.796619921922684E-002;5.879115778952837E-004;-3.041050862520933E-003;
2.407833333333334E+009;1.956561803817749E-001;3.770069405436516E-002;5.540909478440881E-004;-3.004130674526095E-003;
2.408000000000000E+009;1.955073773860931E-001;3.755284100770950E-002;6.217049667611718E-004;-2.983528887853026E-003;
2.408166666666667E+009;1.949960142374039E-001;3.720398619771004E-002;6.840213900431991E-004;-3.132284618914127E-003;
2.408333333333334E+009;1.944616585969925E-001;3.676106408238411E-002;5.916291265748441E-004;-3.368423320353031E-003;
2.408500000000000E+009;1.937492340803146E-001;3.626437485218048E-002;5.870978347957134E-004;-3.525122068822384E-003;
2.408666666666667E+009;1.932629048824310E-001;3.562174737453461E-002;4.840015317313373E-004;-3.447405528277159E-003;
2.408833333333334E+009;1.924434304237366E-001;3.497241809964180E-002;4.270586068741977E-004;-3.848979249596596E-003;
2.409000000000000E+009;1.915022730827332E-001;3.394268825650215E-002;3.014087560586631E-004;-3.818452125415206E-003;
2.409166666666667E+009;1.905948072671890E-001;3.294193744659424E-002;7.079415081534535E-005;-4.142327234148979E-003;
2.409333333333334E+009;1.896187812089920E-001;3.197973594069481E-002;1.737555867293850E-004;-4.108400549739599E-003;
2.409500000000000E+009;1.885973960161209E-001;3.057313710451126E-002;-8.972709474619478E-005;-4.265740979462862E-003;
2.409666666666667E+009;1.876307427883148E-001;2.917447313666344E-002;-3.459695726633072E-004;-4.426058847457171E-003;
2.409833333333334E+009;1.864924430847168E-001;2.767806686460972E-002;-5.571563960984349E-004;-4.476449918001890E-003;
2.410000000000000E+009;1.854706108570099E-001;2.607546560466290E-002;-8.028889424167574E-004;-4.412592854350805E-003;
2.410166666666667E+009;1.845460087060928E-001;2.413264475762844E-002;-1.030231942422688E-003;-4.601736553013325E-003;
2.410333333333334E+009;1.837659329175949E-001;2.235976047813892E-002;-1.150902826339006E-003;-4.533336963504553E-003;
2.410500000000000E+009;1.827462613582611E-001;2.039862982928753E-002;-1.340341754257679E-003;-4.500819370150566E-003;
2.410666666666667E+009;1.817288547754288E-001;1.817035861313343E-002;-1.609637867659330E-003;-4.571514669805765E-003;
2.410833333333334E+009;1.811858266592026E-001;1.588357985019684E-002;-1.819563447497785E-003;-4.631101619452238E-003;
2.411000000000000E+009;1.804633885622025E-001;1.377710420638323E-002;-2.059510210528970E-003;-4.478670191019774E-003;
2.411166666666667E+009;1.797460913658142E-001;1.160988304764032E-002;-2.299443352967501E-003;-4.425588063895702E-003;
2.411333333333334E+009;1.793680787086487E-001;8.993201889097691E-003;-2.369332127273083E-003;-4.327099770307541E-003;
2.411500000000000E+009;1.788692921400070E-001;6.562169641256332E-003;-2.632777439430356E-003;-4.249257035553455E-003;
2.411666666666667E+009;1.785855889320374E-001;4.311859142035246E-003;-2.845333190634847E-003;-4.157871939241886E-003;
2.411833333333334E+009;1.784482598304749E-001;2.095307689160109E-003;-3.134242957457900E-003;-4.141336306929588E-003;
2.412000000000000E+009;1.785863637924194E-001;-6.270495941862464E-004;-3.184285014867783E-003;-4.111538641154766E-003;
2.412166666666667E+009;1.786742657423019E-001;-2.892721444368362E-003;-3.245410742238164E-003;-4.037640057504177E-003;
2.412333333333334E+009;1.788466125726700E-001;-5.407247692346573E-003;-3.534244839102030E-003;-3.977361600846052E-003;
2.412500000000000E+009;1.793795675039291E-001;-7.826436311006546E-003;-3.794101066887379E-003;-3.680308815091848E-003;
2.412666666666667E+009;1.798305809497833E-001;-1.027030870318413E-002;-4.026886541396380E-003;-3.616649191826582E-003;
2.412833333333334E+009;1.806189566850662E-001;-1.254226546734572E-002;-4.034109879285097E-003;-3.528543049469590E-003;
2.413000000000000E+009;1.813057959079742E-001;-1.498648617416620E-002;-4.380579106509686E-003;-3.339495277032256E-003;
2.413166666666667E+009;1.820387244224548E-001;-1.704607158899307E-002;-4.673575516790152E-003;-3.207539441064000E-003;
2.413333333333334E+009;1.828707456588745E-001;-1.943097636103630E-002;-4.776241723448038E-003;-2.865367336198688E-003;
2.413500000000000E+009;1.837552785873413E-001;-2.157310768961906E-002;-5.035993643105030E-003;-2.638426143676043E-003;
2.413666666666667E+009;1.850410699844360E-001;-2.371091954410076E-002;-5.206567235291004E-003;-2.387669868767262E-003;
2.413833333333334E+009;1.861087828874588E-001;-2.559414505958557E-002;-5.317690782248974E-003;-2.015264704823494E-003;
2.414000000000000E+009;1.871481835842133E-001;-2.742267213761807E-002;-5.507359746843576E-003;-1.725137582980096E-003;
2.414166666666667E+009;1.884145736694336E-001;-2.920126542448998E-002;-5.508815404027700E-003;-1.324777957051992E-003;
2.414333333333334E+009;1.894138604402542E-001;-3.117540851235390E-002;-5.482111126184464E-003;-1.049732556566596E-003;
2.414500000000000E+009;1.907386779785156E-001;-3.260954469442368E-002;-5.433734040707350E-003;-7.352587417699397E-004;
2.414666666666667E+009;1.918110698461533E-001;-3.398282825946808E-002;-5.459315609186888E-003;-3.254104522056878E-004;
2.414833333333334E+009;1.930261850357056E-001;-3.531346097588539E-002;-5.298680160194635E-003;-1.012434950098395E-004;
2.415000000000000E+009;1.941184848546982E-001;-3.673908486962318E-002;-5.145781673491001E-003;1.912723673740402E-004;
2.415166666666667E+009;1.952745169401169E-001;-3.775925561785698E-002;-5.133995786309242E-003;3.898462455254048E-004;
2.415333333333334E+009;1.964382380247116E-001;-3.872103244066238E-002;-4.937925841659308E-003;5.852913018316031E-004;
2.415500000000000E+009;1.974765211343765E-001;-3.932996466755867E-002;-4.934542346745729E-003;9.546275250613689E-004;
2.415666666666667E+009;1.983770579099655E-001;-4.009651765227318E-002;-4.858691245317459E-003;1.055657048709691E-003;
2.415833333333334E+009;1.991776973009110E-001;-4.074516147375107E-002;-4.545537754893303E-003;1.223237835802138E-003;
2.416000000000000E+009;1.999978870153427E-001;-4.120301455259323E-002;-4.505009390413761E-003;1.385462470352650E-003;
2.416166666666667E+009;2.007714509963989E-001;-4.175342991948128E-002;-4.401017446070910E-003;1.633231528103352E-003;
2.416333333333334E+009;2.012967169284821E-001;-4.204648360610008E-002;-4.200370050966740E-003;1.901086186990142E-003;
2.416500000000000E+009;2.016482204198837E-001;-4.226582124829292E-002;-3.947113640606403E-003;2.013010671362281E-003;
2.416666666666667E+009;2.019819915294647E-001;-4.262867942452431E-002;-3.735909238457680E-003;2.230087993666530E-003;
2.416833333333334E+009;2.021021991968155E-001;-4.262002184987068E-002;-3.507570829242468E-003;2.238406334072352E-003;
2.417000000000000E+009;2.022685706615448E-001;-4.273395985364914E-002;-3.311019157990813E-003;2.375204814597964E-003;
2.417166666666667E+009;2.019107639789581E-001;-4.272497445344925E-002;-2.924307249486446E-003;2.229874953627586E-003;
2.417333333333334E+009;2.016880214214325E-001;-4.251746088266373E-002;-2.583149354904890E-003;2.196158980950713E-003;
2.417500000000000E+009;2.013884931802750E-001;-4.257434234023094E-002;-2.545048948377371E-003;2.259055152535439E-003;
2.417666666666667E+009;2.008546292781830E-001;-4.240564256906509E-002;-2.307012211531401E-003;2.052317606285214E-003;
2.417833333333334E+009;2.004389762878418E-001;-4.225857928395271E-002;-2.210211008787155E-003;2.041791798546910E-003;
2.418000000000000E+009;1.997546404600143E-001;-4.195076972246170E-002;-2.211273880675435E-003;2.051139017567039E-003;
2.418166666666667E+009;1.990615576505661E-001;-4.193321242928505E-002;-1.837047631852329E-003;1.832926995120943E-003;
2.418333333333334E+009;1.979439705610275E-001;-4.188523441553116E-002;-1.781803788617253E-003;1.833003014326096E-003;
2.418500000000000E+009;1.970311105251312E-001;-4.185190051794052E-002;-1.744479290209711E-003;1.719975727610290E-003;
2.418666666666667E+009;1.961494535207748E-001;-4.180842265486717E-002;-1.774005475454032E-003;1.584848505444825E-003;
2.418833333333334E+009;1.948205679655075E-001;-4.201859235763550E-002;-1.695378101430833E-003;1.484408043324947E-003;
2.419000000000000E+009;1.935892254114151E-001;-4.217483475804329E-002;-1.661663991399109E-003;1.416636514477432E-003;
2.419166666666667E+009;1.922983676195145E-001;-4.245718196034432E-002;-1.738670980557799E-003;1.334126456640661E-003;
2.419333333333334E+009;1.909794658422470E-001;-4.317421838641167E-002;-1.774083008058369E-003;1.256460673175752E-003;
2.419500000000000E+009;1.894913166761398E-001;-4.355386644601822E-002;-1.807258813641965E-003;1.125444308854640E-003;
2.419666666666667E+009;1.878057122230530E-001;-4.450220614671707E-002;-1.878648414276540E-003;9.892438538372517E-004;
2.419833333333334E+009;1.862883418798447E-001;-4.496248438954353E-002;-1.897449023090303E-003;1.069342368282378E-003;
2.420000000000000E+009;1.847427338361740E-001;-4.580604285001755E-002;-2.083494095131755E-003;9.174241567961872E-004;
2.420166666666667E+009;1.832385063171387E-001;-4.687974974513054E-002;-2.156125847250223E-003;9.421463473699987E-004;
2.420333333333334E+009;1.817713975906372E-001;-4.804323613643646E-002;-2.230409532785416E-003;8.345594396814704E-004;
2.420500000000000E+009;1.800371110439301E-001;-4.932725802063942E-002;-2.295908518135548E-003;8.275480358861387E-004;
2.420666666666667E+009;1.785014569759369E-001;-5.044563487172127E-002;-2.504943637177348E-003;1.016413560137153E-003;
2.420833333333334E+009;1.768257170915604E-001;-5.203058198094368E-002;-2.505121054127812E-003;1.031925319693983E-003;
2.421000000000000E+009;1.754850894212723E-001;-5.371533334255219E-002;-2.680050674825907E-003;1.200318452902138E-003;
2.421166666666667E+009;1.740472465753555E-001;-5.533150210976601E-002;-2.811968326568604E-003;1.156767597422004E-003;
2.421333333333334E+009;1.724168956279755E-001;-5.682731792330742E-002;-2.709189895540476E-003;1.331846229732037E-003;
2.421500000000000E+009;1.711257100105286E-001;-5.883939936757088E-002;-2.982885111123323E-003;1.362574286758900E-003;
2.421666666666667E+009;1.699515730142593E-001;-6.055093556642532E-002;-2.945677144452930E-003;1.687280833721161E-003;
2.421833333333334E+009;1.689669191837311E-001;-6.235439702868462E-002;-2.944810548797250E-003;1.798591576516628E-003;
2.422000000000000E+009;1.678237020969391E-001;-6.428570300340653E-002;-2.984262537211180E-003;1.864165998995304E-003;
2.422166666666667E+009;1.668279916048050E-001;-6.621030718088150E-002;-2.845442155376077E-003;2.043622313067317E-003;
2.422333333333334E+009;1.660427004098892E-001;-6.840732693672180E-002;-2.961899619549513E-003;2.065492793917656E-003;
2.422500000000000E+009;1.653269529342651E-001;-7.027187198400497E-002;-3.022140590474010E-003;2.337139798328280E-003;
2.422666666666667E+009;1.646141260862351E-001;-7.231408357620239E-002;-2.675808034837246E-003;2.572567900642753E-003;
2.422833333333334E+009;1.641445159912109E-001;-7.429574429988861E-002;-2.770564053207636E-003;2.390185371041298E-003;
2.423000000000000E+009;1.636918932199478E-001;-7.643497735261917E-002;-2.703793579712510E-003;2.494628075510263E-003;
2.423166666666667E+009;1.632628589868546E-001;-7.823231816291809E-002;-2.666784450411797E-003;2.704064361751080E-003;
2.423333333333334E+009;1.631478518247604E-001;-8.021108806133270E-002;-2.641138620674610E-003;2.751064952462912E-003;
2.423500000000000E+009;1.630305945873261E-001;-8.196487277746201E-002;-2.660939237102866E-003;2.732690656557679E-003;
2.423666666666667E+009;1.630938053131104E-001;-8.385705947875977E-002;-2.729022642597556E-003;3.161742351949215E-003;
2.423833333333334E+009;1.628672480583191E-001;-8.559003472328186E-002;-2.610608004033566E-003;3.133357735350728E-003;
2.424000000000000E+009;1.632439345121384E-001;-8.721514791250229E-002;-2.594614168629050E-003;3.245947649702430E-003;
2.424166666666667E+009;1.630992144346237E-001;-8.882327377796173E-002;-2.518850378692150E-003;3.453525714576244E-003;
2.424333333333334E+009;1.632762849330902E-001;-9.031963348388672E-002;-2.411552472040057E-003;3.778161946684122E-003;
2.424500000000000E+009;1.637511402368546E-001;-9.208267182111740E-002;-2.377083292230964E-003;3.917486872524023E-003;
2.424666666666667E+009;1.639224141836166E-001;-9.325202554464340E-002;-2.188809914514422E-003;3.993129357695580E-003;
2.424833333333334E+009;1.644821763038635E-001;-9.452658146619797E-002;-2.161513315513730E-003;4.144221544265747E-003;
2.425000000000000E+009;1.648510396480560E-001;-9.578657150268555E-002;-1.901039504446089E-003;4.424460232257843E-003;
2.425166666666667E+009;1.650234162807465E-001;-9.680938720703125E-002;-1.794964191503823E-003;4.614005330950022E-003;
2.425333333333334E+009;1.653682738542557E-001;-9.778755158185959E-002;-1.483509899117053E-003;4.767416045069695E-003;
2.425500000000000E+009;1.658418029546738E-001;-9.866479039192200E-002;-1.322589931078255E-003;4.885464441031218E-003;
2.425666666666667E+009;1.663261801004410E-001;-9.929897636175156E-002;-1.149131101556122E-003;4.955460783094168E-003;
2.425833333333334E+009;1.665055602788925E-001;-1.002336889505386E-001;-7.162558613345027E-004;4.885300528258085E-003;
2.426000000000000E+009;1.669129878282547E-001;-1.005631089210510E-001;-5.214000702835619E-004;4.877838306128979E-003;
2.426166666666667E+009;1.673234254121780E-001;-1.009239852428436E-001;-3.149004769511521E-004;4.900862928479910E-003;
2.426333333333334E+009;1.673494875431061E-001;-1.016143411397934E-001;-1.071202786988579E-004;4.835310857743025E-003;
2.426500000000000E+009;1.677767634391785E-001;-1.018141731619835E-001;1.402110647177324E-004;4.796935245394707E-003;
2.426666666666667E+009;1.678953468799591E-001;-1.021557003259659E-001;2.073083451250568E-004;4.811415448784828E-003;
2.426833333333334E+009;1.681359410285950E-001;-1.024898216128349E-001;5.390312289819121E-004;4.755835514515638E-003;
2.427000000000000E+009;1.681792885065079E-001;-1.026941463351250E-001;8.150645298883319E-004;4.644183907657862E-003;
2.427166666666667E+009;1.682254821062088E-001;-1.027708873152733E-001;8.385283290408552E-004;4.561284556984901E-003;
2.427333333333334E+009;1.680193543434143E-001;-1.029756590723991E-001;1.037429785355926E-003;4.349411465227604E-003;
2.427500000000000E+009;1.678410172462463E-001;-1.031324937939644E-001;1.086348667740822E-003;4.431365989148617E-003;
2.427666666666667E+009;1.673658043146133E-001;-1.032822579145432E-001;1.269065658561885E-003;4.345051944255829E-003;
