# Version 1.00
#
freq[Hz];re:Trc1_S11;im:Trc1_S11;re:Trc2_S21;im:Trc2_S21;
2.400000000000000E+009;1.552169322967529E-001;1.065839976072311E-001;1.947070006281138E-003;-1.822185004130006E-003;
2.400166666666667E+009;1.549791395664215E-001;1.042306125164032E-001;2.153549576178193E-003;-1.800217782147229E-003;
2.400333333333334E+009;1.550145149230957E-001;1.019852980971336E-001;2.055260352790356E-003;-1.842529512941837E-003;
2.400500000000000E+009;1.551202982664108E-001;9.918458759784699E-002;2.094457624480128E-003;-1.856578863225877E-003;
2.400666666666667E+009;1.551261991262436E-001;9.679415822029114E-002;2.061637118458748E-003;-1.699385233223438E-003;
2.400833333333334E+009;1.552622616291046E-001;9.396533668041229E-002;2.168648410588503E-003;-1.969850854948163E-003;
2.401000000000000E+009;1.554906815290451E-001;9.104015678167343E-002;2.191663952544332E-003;-1.935936277732253E-003;
2.401166666666667E+009;1.555857807397842E-001;8.844989538192749E-002;2.123065525665879E-003;-1.963445683941245E-003;
2.401333333333334E+009;1.560395210981369E-001;8.544136583805084E-002;2.092397306114435E-003;-1.924867392517626E-003;
2.401500000000000E+009;1.562422215938568E-001;8.271799981594086E-002;2.179479226469994E-003;-2.092896495014429E-003;
2.401666666666667E+009;1.568475812673569E-001;7.994829118251801E-002;2.049690578132868E-003;-1.975904917344451E-003;
2.401833333333334E+009;1.573113352060318E-001;7.738618552684784E-002;2.060579834505916E-003;-2.244556555524468E-003;
2.402000000000000E+009;1.582392156124115E-001;7.448551803827286E-002;2.196143381297588E-003;-2.183967502787709E-003;
2.402166666666667E+009;1.591565161943436E-001;7.189830392599106E-002;1.902199815958738E-003;-2.419546945020556E-003;
2.402333333333334E+009;1.598210334777832E-001;6.940022855997086E-002;1.970991492271423E-003;-2.529919845983386E-003;
2.402500000000000E+009;1.612527966499329E-001;6.679243594408035E-002;2.008532173931599E-003;-2.414147369563580E-003;
2.402666666666667E+009;1.623728424310684E-001;6.444214284420013E-002;1.812879228964448E-003;-2.565435366705060E-003;
2.402833333333334E+009;1.635444164276123E-001;6.206573918461800E-002;1.651935395784676E-003;-2.669563982635737E-003;
2.403000000000000E+009;1.651750504970551E-001;5.962317436933518E-002;1.552522531710565E-003;-2.605931833386421E-003;
2.403166666666667E+009;1.667338162660599E-001;5.757012963294983E-002;1.197411213070154E-003;-2.754511311650276E-003;
2.403333333333334E+009;1.681588739156723E-001;5.541757121682167E-002;1.145223854109645E-003;-2.641456667333841E-003;
2.403500000000000E+009;1.699608862400055E-001;5.326698347926140E-002;1.012926804833114E-003;-2.539022825658321E-003;
2.403666666666667E+009;1.716366708278656E-001;5.154021456837654E-002;1.038420246914029E-003;-2.446347847580910E-003;
2.403833333333334E+009;1.731911748647690E-001;4.966303706169128E-002;1.014149282127619E-003;-2.271198667585850E-003;
2.404000000000000E+009;1.749550104141235E-001;4.801418259739876E-002;9.488475625403225E-004;-2.272886689752340E-003;
2.404166666666667E+009;1.764853149652481E-001;4.633734375238419E-002;9.041979210451245E-004;-2.256191335618496E-003;
2.404333333333334E+009;1.783200949430466E-001;4.488897696137428E-002;9.422646835446358E-004;-1.968687167391181E-003;
2.404500000000000E+009;1.797088831663132E-001;4.349250718951225E-002;1.063534291461110E-003;-2.118199598044157E-003;
2.404666666666667E+009;1.813665032386780E-001;4.239463806152344E-002;1.157176448032260E-003;-2.244927454739809E-003;
2.404833333333334E+009;1.831432580947876E-001;4.135492444038391E-002;1.232701120898128E-003;-2.225790638476610E-003;
2.405000000000000E+009;1.843488514423370E-001;4.066290333867073E-002;1.226731808856130E-003;-2.229352248832583E-003;
2.405166666666667E+009;1.858147233724594E-001;3.995893523097038E-002;1.257887692190707E-003;-2.474010922014713E-003;
2.405333333333334E+009;1.872433722019196E-001;3.948979079723358E-002;1.271549146622419E-003;-2.478169044479728E-003;
2.405500000000000E+009;1.885556727647781E-001;3.910687938332558E-002;1.175472862087190E-003;-2.586464164778590E-003;
2.405666666666667E+009;1.898183822631836E-001;3.853366523981094E-002;1.264230231754482E-003;-2.748795552179217E-003;
2.405833333333334E+009;1.909533739089966E-001;3.833427280187607E-002;1.159405452199280E-003;-2.678663935512304E-003;
2.406000000000000E+009;1.920761615037918E-001;3.816485032439232E-002;8.943614084273577E-004;-2.845203503966332E-003;
2.406166666666667E+009;1.928415596485138E-001;3.800680115818977E-002;8.760291966609657E-004;-2.874216996133328E-003;
2.406333333333334E+009;1.938213258981705E-001;3.795231878757477E-002;8.852869505062699E-004;-2.925100503489375E-003;
2.406500000000000E+009;1.945514231920242E-001;3.789366036653519E-002;6.634434103034437E-004;-3.016144968569279E-003;
2.406666666666667E+009;1.950857788324356E-001;3.787112981081009E-002;6.292810430750251E-004;-3.004105295985937E-003;
2.406833333333334E+009;1.957107335329056E-001;3.785330802202225E-002;6.779175018891692E-004;-3.086936892941594E-003;
2.407000000000000E+009;1.958295553922653E-001;3.804707154631615E-002;6.360077532008290E-004;-2.988037187606096E-003;
2.407166666666667E+009;1.962780356407166E-001;3.781714290380478E-002;6.727945292368531E-004;-2.983822952955961E-003;
2.407333333333334E+009;1.961570084095001E-001;3.795673325657845E-002;6.459618452936411E-004;-2.939696423709393E-003;
2.407500000000000E+009;1.960213333368301E-001;3.795238956809044E-002;4.991115420125425E-004;-3.140055574476719E-003;
2.407666666666667E+009;1.960539817810059E-001;3.778824955224991E-002;5.488999304361641E-004;-3.068486228585243E-003;
2.407833333333334E+009;1.955661028623581E-001;3.770254552364349E-002;5.649889935739338E-004;-3.111380152404308E-003;
2.408000000000000E+009;1.956260651350021E-001;3.749275207519531E-002;6.516703870147467E-004;-3.078337758779526E-003;
2.408166666666667E+009;1.949382722377777E-001;3.709789365530014E-002;5.272331181913614E-004;-3.191720694303513E-003;
2.408333333333334E+009;1.943972706794739E-001;3.651905804872513E-002;4.867169191129506E-004;-3.376322332769632E-003;
2.408500000000000E+009;1.936799585819244E-001;3.620338812470436E-002;4.927580594085157E-004;-3.529536770656705E-003;
2.408666666666667E+009;1.931415349245071E-001;3.547123447060585E-002;4.465795063879341E-004;-3.656156128272414E-003;
2.408833333333334E+009;1.924637109041214E-001;3.485548496246338E-002;3.695809573400766E-004;-3.688750788569450E-003;
2.409000000000000E+009;1.914610117673874E-001;3.396166488528252E-002;3.429761272855103E-004;-3.842353355139494E-003;
2.409166666666667E+009;1.907110959291458E-001;3.271918371319771E-002;1.753431206452660E-005;-4.241296555846930E-003;
2.409333333333334E+009;1.896390914916992E-001;3.183916956186295E-002;1.150488315033726E-004;-4.153398331254721E-003;
2.409500000000000E+009;1.884035468101502E-001;3.056931681931019E-002;-1.637183304410428E-004;-4.366111941635609E-003;
2.409666666666667E+009;1.875904649496079E-001;2.914872206747532E-002;-3.763583663385361E-004;-4.392347298562527E-003;
2.409833333333334E+009;1.865518391132355E-001;2.762702666223049E-002;-4.722702724393457E-004;-4.470590502023697E-003;
2.410000000000000E+009;1.856515556573868E-001;2.597536705434322E-002;-8.405806147493422E-004;-4.538413137197495E-003;
2.410166666666667E+009;1.844601333141327E-001;2.413858845829964E-002;-1.090246485546231E-003;-4.568314645439386E-003;
2.410333333333334E+009;1.836781799793243E-001;2.219204045832157E-002;-1.311636529862881E-003;-4.650081507861614E-003;
2.410500000000000E+009;1.826660931110382E-001;2.043462544679642E-002;-1.429403200745583E-003;-4.591183736920357E-003;
2.410666666666667E+009;1.818595230579376E-001;1.815050840377808E-002;-1.668384415097535E-003;-4.569110926240683E-003;
2.410833333333334E+009;1.811882108449936E-001;1.591010019183159E-002;-1.931273145601153E-003;-4.543204326182604E-003;
2.411000000000000E+009;1.804581880569458E-001;1.364015042781830E-002;-2.123622456565499E-003;-4.518311470746994E-003;
2.411166666666667E+009;1.797806620597839E-001;1.138435583561659E-002;-2.215373096987605E-003;-4.486196208745241E-003;
2.411333333333334E+009;1.792829930782318E-001;8.951981551945210E-003;-2.442594384774566E-003;-4.268140997737646E-003;
2.411500000000000E+009;1.787708848714829E-001;6.889157462865114E-003;-2.564380876719952E-003;-4.188795574009419E-003;
2.411666666666667E+009;1.789234280586243E-001;4.416264127939940E-003;-2.894878620281816E-003;-4.201521165668964E-003;
2.411833333333334E+009;1.785062998533249E-001;1.986608840525150E-003;-3.030674764886499E-003;-4.123885184526444E-003;
2.412000000000000E+009;1.786791533231735E-001;-6.489334627985954E-004;-3.135614097118378E-003;-3.974420484155417E-003;
2.412166666666667E+009;1.787191033363342E-001;-2.970414236187935E-003;-3.367742989212275E-003;-4.097978118807077E-003;
2.412333333333334E+009;1.787600070238113E-001;-5.405965261161327E-003;-3.546070307493210E-003;-3.938268404453993E-003;
2.412500000000000E+009;1.792737990617752E-001;-7.724370807409287E-003;-3.725430695340037E-003;-3.768456634134054E-003;
2.412666666666667E+009;1.797131896018982E-001;-1.031289342790842E-002;-3.955176100134850E-003;-3.639405127614737E-003;
2.412833333333334E+009;1.804075539112091E-001;-1.261492352932692E-002;-4.259051755070686E-003;-3.428735071793199E-003;
2.413000000000000E+009;1.811994016170502E-001;-1.493360660970211E-002;-4.425304010510445E-003;-3.276611678302288E-003;
2.413166666666667E+009;1.819675266742706E-001;-1.712653413414955E-002;-4.775835201144218E-003;-3.233779454603791E-003;
2.413333333333334E+009;1.830109059810638E-001;-1.927662454545498E-002;-4.830015823245049E-003;-2.968962769955397E-003;
2.413500000000000E+009;1.838518977165222E-001;-2.164636738598347E-002;-5.150085315108299E-003;-2.581584965810180E-003;
2.413666666666667E+009;1.850013136863709E-001;-2.349980734288693E-002;-5.358912516385317E-003;-2.524985000491142E-003;
2.413833333333334E+009;1.860753893852234E-001;-2.564804069697857E-002;-5.378436297178268E-003;-2.038627630099654E-003;
2.414000000000000E+009;1.870343983173370E-001;-2.757307514548302E-002;-5.459668580442667E-003;-1.693056896328926E-003;
2.414166666666667E+009;1.882709860801697E-001;-2.937130071222782E-002;-5.470539908856154E-003;-1.178876147605479E-003;
2.414333333333334E+009;1.893225312232971E-001;-3.122375905513763E-002;-5.671276245266199E-003;-1.072730985470116E-003;
2.414500000000000E+009;1.906090676784515E-001;-3.269627690315247E-002;-5.524305161088705E-003;-5.743490764871240E-004;
2.414666666666667E+009;1.915962994098663E-001;-3.410746529698372E-002;-5.584681406617165E-003;-3.631241561379284E-004;
2.414833333333334E+009;1.927324533462524E-001;-3.538852930068970E-002;-5.415460094809532E-003;2.682518061192241E-005;
2.415000000000000E+009;1.939473748207092E-001;-3.670225664973259E-002;-5.334750749170780E-003;1.235989766428247E-004;
2.415166666666667E+009;1.950784623622894E-001;-3.786256164312363E-002;-5.157290026545525E-003;4.078433266840875E-004;
2.415333333333334E+009;1.962113082408905E-001;-3.865029662847519E-002;-5.007885396480560E-003;5.489589530043304E-004;
2.415500000000000E+009;1.973068118095398E-001;-3.922004252672195E-002;-4.855439066886902E-003;8.320817723870277E-004;
2.415666666666667E+009;1.983055472373962E-001;-4.005689546465874E-002;-4.687190521508455E-003;1.126283779740334E-003;
2.415833333333334E+009;1.990793496370316E-001;-4.067434743046761E-002;-4.606744274497032E-003;1.319021102972329E-003;
2.416000000000000E+009;1.998148709535599E-001;-4.126119986176491E-002;-4.539892077445984E-003;1.570199499838054E-003;
2.416166666666667E+009;2.005464285612106E-001;-4.175719991326332E-002;-4.220118280500174E-003;1.694223959930241E-003;
2.416333333333334E+009;2.011267244815826E-001;-4.198885709047318E-002;-4.143644124269486E-003;1.898763701319695E-003;
2.416500000000000E+009;2.016111612319946E-001;-4.225037246942520E-002;-4.046170972287655E-003;1.988850301131606E-003;
2.416666666666667E+009;2.017754316329956E-001;-4.256848245859146E-002;-3.662149654701352E-003;2.064638538286090E-003;
2.416833333333334E+009;2.020532488822937E-001;-4.259128496050835E-002;-3.478640224784613E-003;2.300780732184649E-003;
2.417000000000000E+009;2.021026015281677E-001;-4.273740947246552E-002;-3.207975067198277E-003;2.305080881342292E-003;
2.417166666666667E+009;2.017509490251541E-001;-4.266679286956787E-002;-2.996344584971666E-003;2.411939436569810E-003;
2.417333333333334E+009;2.016420811414719E-001;-4.254525899887085E-002;-2.630725037306547E-003;2.251822501420975E-003;
2.417500000000000E+009;2.013186365365982E-001;-4.252891987562180E-002;-2.599129220470786E-003;2.354987198486924E-003;
2.417666666666667E+009;2.008401304483414E-001;-4.227324202656746E-002;-2.419002819806337E-003;2.193397609516978E-003;
2.417833333333334E+009;2.001700550317764E-001;-4.214737191796303E-002;-2.197358757257462E-003;2.124251797795296E-003;
2.418000000000000E+009;1.996369063854218E-001;-4.190625622868538E-002;-1.958430744707584E-003;2.059631980955601E-003;
2.418166666666667E+009;1.989315599203110E-001;-4.192113503813744E-002;-2.025783993303776E-003;1.840982586145401E-003;
2.418333333333334E+009;1.979563534259796E-001;-4.162534698843956E-002;-1.986578106880188E-003;1.818571705371141E-003;
2.418500000000000E+009;1.969147622585297E-001;-4.181032255291939E-002;-1.883849850855768E-003;1.812312286347151E-003;
2.418666666666667E+009;1.959507316350937E-001;-4.183593764901161E-002;-1.838196418248117E-003;1.761362422257662E-003;
2.418833333333334E+009;1.947292685508728E-001;-4.187065735459328E-002;-1.798786339350045E-003;1.480299979448319E-003;
2.419000000000000E+009;1.933872401714325E-001;-4.218372330069542E-002;-1.667968695983291E-003;1.469537732191384E-003;
2.419166666666667E+009;1.922763586044312E-001;-4.255016520619392E-002;-1.820774748921394E-003;1.326010795310140E-003;
2.419333333333334E+009;1.908598095178604E-001;-4.297130927443504E-002;-1.808077096939087E-003;1.168211922049522E-003;
2.419500000000000E+009;1.893559247255325E-001;-4.355695471167564E-002;-1.818483578972518E-003;1.151074655354023E-003;
2.419666666666667E+009;1.878013759851456E-001;-4.427450150251389E-002;-1.898178481496871E-003;1.050653751008213E-003;
2.419833333333334E+009;1.861245185136795E-001;-4.483797401189804E-002;-1.928300946019590E-003;1.094860490411520E-003;
2.420000000000000E+009;1.847363710403442E-001;-4.579626023769379E-002;-2.047959016636014E-003;1.074162661097944E-003;
2.420166666666667E+009;1.830537170171738E-001;-4.673602059483528E-002;-2.111324109137058E-003;1.100565423257649E-003;
2.420333333333334E+009;1.813884377479553E-001;-4.786890372633934E-002;-2.243295777589083E-003;9.430890786461532E-004;
2.420500000000000E+009;1.799561977386475E-001;-4.919784888625145E-002;-2.394125564023852E-003;9.507587528787553E-004;
2.420666666666667E+009;1.783412545919418E-001;-5.043026432394981E-002;-2.437555231153965E-003;1.050011836923659E-003;
2.420833333333334E+009;1.768452078104019E-001;-5.191954225301743E-002;-2.567896153777838E-003;1.135514234192669E-003;
2.421000000000000E+009;1.753769516944885E-001;-5.341251194477081E-002;-2.657573902979493E-003;1.095135230571032E-003;
2.421166666666667E+009;1.741494983434677E-001;-5.515185743570328E-002;-2.769971732050180E-003;1.268279738724232E-003;
2.421333333333334E+009;1.722786873579025E-001;-5.656282976269722E-002;-2.803645795211196E-003;1.286549610085785E-003;
2.421500000000000E+009;1.711346656084061E-001;-5.852719023823738E-002;-2.813486615195870E-003;1.433798228390515E-003;
2.421666666666667E+009;1.699668616056442E-001;-6.036294251680374E-002;-2.964965766295791E-003;1.685832627117634E-003;
2.421833333333334E+009;1.688779592514038E-001;-6.227562576532364E-002;-2.957262098789215E-003;1.804579165764153E-003;
2.422000000000000E+009;1.677539199590683E-001;-6.410971283912659E-002;-2.858375431969762E-003;1.892502303235233E-003;
2.422166666666667E+009;1.670007854700089E-001;-6.612862646579742E-002;-2.914003795012832E-003;1.980567118152976E-003;
2.422333333333334E+009;1.660571545362473E-001;-6.814439594745636E-002;-2.932027680799365E-003;2.232000930234790E-003;
2.422500000000000E+009;1.653456240892410E-001;-7.002211362123489E-002;-2.831848105415702E-003;2.288214163854718E-003;
2.422666666666667E+009;1.646409183740616E-001;-7.212518155574799E-002;-2.611269941553474E-003;2.420268720015883E-003;
2.422833333333334E+009;1.642531752586365E-001;-7.408148050308228E-002;-2.770175691694021E-003;2.610304160043597E-003;
2.423000000000000E+009;1.637326180934906E-001;-7.632962614297867E-002;-2.609230577945709E-003;2.583701862022281E-003;
2.423166666666667E+009;1.632722765207291E-001;-7.800168544054031E-002;-2.651294926181436E-003;2.699706004932523E-003;
2.423333333333334E+009;1.631491631269455E-001;-8.004913479089737E-002;-2.609914401546121E-003;2.783711301162839E-003;
2.423500000000000E+009;1.630032658576965E-001;-8.169103413820267E-002;-2.624288666993380E-003;2.925789915025234E-003;
2.423666666666667E+009;1.630114614963532E-001;-8.365568518638611E-002;-2.383748767897487E-003;2.894137986004353E-003;
2.423833333333334E+009;1.628392934799194E-001;-8.540978282690048E-002;-2.520483219996095E-003;3.214053576812148E-003;
2.424000000000000E+009;1.630357652902603E-001;-8.713253587484360E-002;-2.724255202338100E-003;3.225140273571014E-003;
2.424166666666667E+009;1.631883382797241E-001;-8.870024234056473E-002;-2.542057074606419E-003;3.366932971403003E-003;
2.424333333333334E+009;1.634495407342911E-001;-9.010091423988342E-002;-2.446747850626707E-003;3.652655519545078E-003;
2.424500000000000E+009;1.636495739221573E-001;-9.173947572708130E-002;-2.347619272768498E-003;3.856799332424998E-003;
2.424666666666667E+009;1.640017181634903E-001;-9.308066219091415E-002;-2.201590919867158E-003;4.150941036641598E-003;
2.424833333333334E+009;1.645672470331192E-001;-9.444793313741684E-002;-2.121379366144538E-003;4.181032534688711E-003;
2.425000000000000E+009;1.648890823125839E-001;-9.561431407928467E-002;-2.068474190309644E-003;4.312808625400066E-003;
2.425166666666667E+009;1.652627289295197E-001;-9.674908220767975E-002;-1.714544254355133E-003;4.544183611869812E-003;
2.425333333333334E+009;1.654482781887054E-001;-9.760595858097076E-002;-1.366117037832737E-003;4.644670058041811E-003;
2.425500000000000E+009;1.659694164991379E-001;-9.859330952167511E-002;-1.295575173571706E-003;4.950781818479300E-003;
2.425666666666667E+009;1.662843376398087E-001;-9.921640157699585E-002;-9.394318913109601E-004;4.817603155970573E-003;
2.425833333333334E+009;1.666895300149918E-001;-1.000518351793289E-001;-7.208879105746746E-004;4.985621664673090E-003;
2.426000000000000E+009;1.671459376811981E-001;-1.004683226346970E-001;-5.171062075532973E-004;5.037792492657900E-003;
2.426166666666667E+009;1.674758791923523E-001;-1.009103283286095E-001;-8.580088615417481E-005;5.100538022816181E-003;
2.426333333333334E+009;1.676029711961746E-001;-1.015239134430885E-001;-1.304094330407679E-004;4.773447755724192E-003;
2.426500000000000E+009;1.679620295763016E-001;-1.017399355769157E-001;3.213852760381997E-004;4.853016696870327E-003;
2.426666666666667E+009;1.681371480226517E-001;-1.020048707723618E-001;4.408304521348327E-004;4.733360372483730E-003;
2.426833333333334E+009;1.683735698461533E-001;-1.022729203104973E-001;5.657640285789967E-004;4.746653605252504E-003;
2.427000000000000E+009;1.682505458593369E-001;-1.026090756058693E-001;8.320085471495986E-004;4.501936957240105E-003;
2.427166666666667E+009;1.684110611677170E-001;-1.026214063167572E-001;8.431493770331144E-004;4.519441630691290E-003;
2.427333333333334E+009;1.681826710700989E-001;-1.029081344604492E-001;1.273251138627529E-003;4.479126073420048E-003;
2.427500000000000E+009;1.679866760969162E-001;-1.031268239021301E-001;1.067822449840605E-003;4.346428439021111E-003;
2.427666666666667E+009;1.676371693611145E-001;-1.031843945384026E-001;1.256858464330435E-003;4.426175728440285E-003;
