# Version 1.00
#
freq[Hz];re:Trc1_S11;im:Trc1_S11;re:Trc2_S21;im:Trc2_S21;
2.400000000000000E+009;1.694705635309219E-001;4.621470347046852E-002;-9.589933324605227E-005;-2.067527268081904E-003;
2.400166666666667E+009;1.705122739076614E-001;4.515579342842102E-002;-3.476137180769001E-006;-2.051939256489277E-003;
2.400333333333334E+009;1.714760810136795E-001;4.413085058331490E-002;1.069457066478208E-004;-2.082213526591659E-003;
2.400500000000000E+009;1.724521517753601E-001;4.299937188625336E-002;6.459866654040525E-006;-2.025608671829104E-003;
2.400666666666667E+009;1.732904464006424E-001;4.212534427642822E-002;9.689541184343398E-005;-1.816457486711443E-003;
2.400833333333334E+009;1.742938309907913E-001;4.140817373991013E-002;1.640463779040147E-005;-1.979310298338532E-003;
2.401000000000000E+009;1.750876158475876E-001;4.063914716243744E-002;2.782105002552271E-004;-2.242964459583163E-003;
2.401166666666667E+009;1.759099215269089E-001;3.978167474269867E-002;2.466970472596586E-004;-2.114825416356325E-003;
2.401333333333334E+009;1.765002012252808E-001;3.920287638902664E-002;4.791768151335418E-004;-2.122615464031696E-003;
2.401500000000000E+009;1.773997694253922E-001;3.858339041471481E-002;2.646437787916511E-004;-2.172897337004542E-003;
2.401666666666667E+009;1.779814958572388E-001;3.811090439558029E-002;3.574049915187061E-004;-2.196497051045299E-003;
2.401833333333334E+009;1.785155832767487E-001;3.738994896411896E-002;2.907633024733514E-004;-2.626830246299505E-003;
2.402000000000000E+009;1.790110170841217E-001;3.692355751991272E-002;2.845674171112478E-004;-2.462642965838313E-003;
2.402166666666667E+009;1.794813871383667E-001;3.616524487733841E-002;2.944000589195639E-004;-2.575811930000782E-003;
2.402333333333334E+009;1.797750443220139E-001;3.569073975086212E-002;9.350547043140978E-005;-2.746755722910166E-003;
2.402500000000000E+009;1.801801472902298E-001;3.512328490614891E-002;3.485109118628316E-005;-2.861154265701771E-003;
2.402666666666667E+009;1.802905052900314E-001;3.433043882250786E-002;-4.702542719314806E-005;-3.017008304595947E-003;
2.402833333333334E+009;1.803710311651230E-001;3.371739760041237E-002;-8.637892460683361E-005;-3.100652946159244E-003;
2.403000000000000E+009;1.803860366344452E-001;3.303418308496475E-002;-1.697799452813342E-004;-3.030054038390517E-003;
2.403166666666667E+009;1.805805116891861E-001;3.229913488030434E-002;-3.406399046070874E-004;-3.017399925738573E-003;
2.403333333333334E+009;1.802366524934769E-001;3.151557967066765E-002;-4.773372784256935E-004;-3.163160290569067E-003;
2.403500000000000E+009;1.800221800804138E-001;3.045100159943104E-002;-4.911202704533935E-004;-3.176532685756683E-003;
2.403666666666667E+009;1.797814518213272E-001;2.940605208277702E-002;-5.518942489288747E-004;-3.243750194087625E-003;
2.403833333333334E+009;1.794858872890472E-001;2.835037373006344E-002;-7.569371955469251E-004;-3.216545330360532E-003;
2.404000000000000E+009;1.789814978837967E-001;2.713295817375183E-002;-1.018156297504902E-003;-3.253204515203834E-003;
2.404166666666667E+009;1.785985678434372E-001;2.609547972679138E-002;-1.087378594093025E-003;-3.346853889524937E-003;
2.404333333333334E+009;1.780779808759689E-001;2.487718313932419E-002;-1.309158978983760E-003;-3.288652980700135E-003;
2.404500000000000E+009;1.773496419191361E-001;2.352534048259258E-002;-1.387917902320623E-003;-3.334471490234137E-003;
2.404666666666667E+009;1.770465224981308E-001;2.220398001372814E-002;-1.454715500585735E-003;-3.115634666755796E-003;
2.404833333333334E+009;1.763021051883698E-001;2.050595730543137E-002;-1.630173064768314E-003;-3.276729257777333E-003;
2.405000000000000E+009;1.759319901466370E-001;1.919553801417351E-002;-1.676169689744711E-003;-3.348091151565313E-003;
2.405166666666667E+009;1.753603667020798E-001;1.746630296111107E-002;-1.869607600383461E-003;-3.163793357089162E-003;
2.405333333333334E+009;1.749773472547531E-001;1.573325321078301E-002;-1.949375728145242E-003;-3.137373831123114E-003;
2.405500000000000E+009;1.743505299091339E-001;1.410748809576035E-002;-2.154877875000238E-003;-3.065703669562936E-003;
2.405666666666667E+009;1.738784313201904E-001;1.241854764521122E-002;-2.359953010454774E-003;-3.219728590920568E-003;
2.405833333333334E+009;1.733211874961853E-001;1.054583024233580E-002;-2.396441297605634E-003;-3.259236458688974E-003;
2.406000000000000E+009;1.730750948190689E-001;8.596403524279594E-003;-2.690248889848590E-003;-3.094329033046961E-003;
2.406166666666667E+009;1.727438122034073E-001;6.850796286016703E-003;-2.701107878237963E-003;-3.165268339216709E-003;
2.406333333333334E+009;1.728523820638657E-001;4.895747173577547E-003;-2.908009337261319E-003;-2.911131829023361E-003;
2.406500000000000E+009;1.724770963191986E-001;2.684677019715309E-003;-3.068627323955298E-003;-2.935005584731698E-003;
2.406666666666667E+009;1.722000986337662E-001;7.519591017626226E-004;-3.302335273474455E-003;-2.833595732226968E-003;
2.406833333333334E+009;1.721944957971573E-001;-1.417848514392972E-003;-3.478027880191803E-003;-2.857135375961661E-003;
2.407000000000000E+009;1.723141521215439E-001;-3.442292101681233E-003;-3.601567586883903E-003;-2.628202317282558E-003;
2.407166666666667E+009;1.725202351808548E-001;-5.597084760665894E-003;-3.836475545540452E-003;-2.567733637988567E-003;
2.407333333333334E+009;1.724870204925537E-001;-7.829695940017700E-003;-4.059185739606619E-003;-2.333411015570164E-003;
2.407500000000000E+009;1.728387326002121E-001;-9.834195487201214E-003;-4.287457559257746E-003;-2.155957976356149E-003;
2.407666666666667E+009;1.731730401515961E-001;-1.192177459597588E-002;-4.324791487306356E-003;-1.903794240206480E-003;
2.407833333333334E+009;1.732245832681656E-001;-1.408651098608971E-002;-4.617952276021242E-003;-1.975285355001688E-003;
2.408000000000000E+009;1.737188845872879E-001;-1.621479913592339E-002;-4.575994797050953E-003;-1.612119958736002E-003;
2.408166666666667E+009;1.740492433309555E-001;-1.813242956995964E-002;-4.891435615718365E-003;-1.263414393179119E-003;
2.408333333333334E+009;1.747713238000870E-001;-2.019540034234524E-002;-4.844988230615854E-003;-1.137940213084221E-003;
2.408500000000000E+009;1.750472038984299E-001;-2.212565764784813E-002;-4.931060597300530E-003;-6.029899814166129E-004;
2.408666666666667E+009;1.754707694053650E-001;-2.411973662674427E-002;-4.900899250060320E-003;-4.857564053963870E-004;
2.408833333333334E+009;1.757082641124725E-001;-2.594108693301678E-002;-4.780639894306660E-003;-1.594203786225990E-004;
2.409000000000000E+009;1.761555522680283E-001;-2.744905464351177E-002;-4.829951561987400E-003;1.625104632694274E-004;
2.409166666666667E+009;1.765724122524262E-001;-2.888594008982182E-002;-4.812737926840782E-003;2.997941919602454E-004;
2.409333333333334E+009;1.772450506687164E-001;-3.036518208682537E-002;-4.661636427044869E-003;7.382412441074848E-004;
2.409500000000000E+009;1.776073127985001E-001;-3.186930343508720E-002;-4.728833679109812E-003;6.921091699041426E-004;
2.409666666666667E+009;1.778763681650162E-001;-3.287837654352188E-002;-4.624591674655676E-003;1.104557537473738E-003;
2.409833333333334E+009;1.784765571355820E-001;-3.388736397027969E-002;-4.546444397419691E-003;1.266152015887201E-003;
2.410000000000000E+009;1.789585351943970E-001;-3.497872129082680E-002;-4.388839937746525E-003;1.393784419633448E-003;
2.410166666666667E+009;1.795307546854019E-001;-3.569022566080093E-002;-4.221460316330195E-003;1.566909020766616E-003;
2.410333333333334E+009;1.799120157957077E-001;-3.651160374283791E-002;-4.132630303502083E-003;1.655030879192054E-003;
2.410500000000000E+009;1.804342865943909E-001;-3.725715354084969E-002;-4.040975589305162E-003;1.822261256165803E-003;
2.410666666666667E+009;1.807902753353119E-001;-3.801604732871056E-002;-4.037129692733288E-003;2.167593687772751E-003;
2.410833333333334E+009;1.811422407627106E-001;-3.853935003280640E-002;-3.870926564559341E-003;2.282903296872973E-003;
2.411000000000000E+009;1.815276890993118E-001;-3.897410258650780E-002;-3.680994734168053E-003;2.416651463136077E-003;
2.411166666666667E+009;1.817680150270462E-001;-3.948072344064713E-002;-3.505534492433071E-003;2.525177551433444E-003;
2.411333333333334E+009;1.819844245910645E-001;-3.988703340291977E-002;-3.396707121282816E-003;2.655572257936001E-003;
2.411500000000000E+009;1.819846779108048E-001;-4.046325013041496E-002;-3.276466857641935E-003;2.730934415012598E-003;
2.411666666666667E+009;1.822706758975983E-001;-4.075324907898903E-002;-3.119234926998615E-003;2.855667611584067E-003;
2.411833333333334E+009;1.820035278797150E-001;-4.115037620067596E-002;-2.971766982227564E-003;2.839246066287160E-003;
2.412000000000000E+009;1.819218695163727E-001;-4.122483730316162E-002;-2.709290478378534E-003;3.095328342169523E-003;
2.412166666666667E+009;1.814983040094376E-001;-4.167145118117333E-002;-2.617305377498269E-003;3.014938207343221E-003;
2.412333333333334E+009;1.813848912715912E-001;-4.190858080983162E-002;-2.412423025816679E-003;3.198241349309683E-003;
2.412500000000000E+009;1.807303130626679E-001;-4.224320501089096E-002;-2.254346851259470E-003;3.005975857377052E-003;
2.412666666666667E+009;1.802955865859985E-001;-4.267123714089394E-002;-2.042291918769479E-003;3.102402901276946E-003;
2.412833333333334E+009;1.796499043703079E-001;-4.283939674496651E-002;-1.755935139954090E-003;3.154773265123367E-003;
2.413000000000000E+009;1.788767725229263E-001;-4.326710850000382E-002;-1.918163616210222E-003;3.226652508601546E-003;
2.413166666666667E+009;1.779168993234634E-001;-4.357555136084557E-002;-1.619961927644908E-003;3.155924379825592E-003;
2.413333333333334E+009;1.769255697727203E-001;-4.406612366437912E-002;-1.351029146462679E-003;3.138264175504446E-003;
2.413500000000000E+009;1.759638935327530E-001;-4.438823461532593E-002;-1.251290668733418E-003;2.882284577935934E-003;
2.413666666666667E+009;1.751654744148254E-001;-4.505017772316933E-002;-1.248670974746347E-003;2.918576821684837E-003;
2.413833333333334E+009;1.739108860492706E-001;-4.560092836618424E-002;-1.097039901651442E-003;2.955642063170672E-003;
2.414000000000000E+009;1.726424992084503E-001;-4.612630978226662E-002;-9.914567926898599E-004;2.957596676424146E-003;
2.414166666666667E+009;1.717244684696198E-001;-4.686002060770989E-002;-9.393153013661504E-004;2.820913447067142E-003;
2.414333333333334E+009;1.703217923641205E-001;-4.781204462051392E-002;-7.669057813473046E-004;2.774925203993917E-003;
2.414500000000000E+009;1.693736761808395E-001;-4.865216091275215E-002;-8.185645565390587E-004;2.713612979277968E-003;
2.414666666666667E+009;1.680227965116501E-001;-4.933928325772286E-002;-9.198639891110361E-004;2.669062232598662E-003;
2.414833333333334E+009;1.666849106550217E-001;-5.050963163375855E-002;-8.180138538591564E-004;2.641230355948210E-003;
2.415000000000000E+009;1.655540615320206E-001;-5.162599310278893E-002;-7.963401731103659E-004;2.782611409202218E-003;
2.415166666666667E+009;1.643575727939606E-001;-5.295770615339279E-002;-7.829967653378844E-004;2.592523349449039E-003;
2.415333333333334E+009;1.633177101612091E-001;-5.432796850800514E-002;-6.938069127500057E-004;2.554595237597823E-003;
2.415500000000000E+009;1.621461361646652E-001;-5.574758350849152E-002;-7.019593613222241E-004;2.599547384306788E-003;
2.415666666666667E+009;1.609334200620651E-001;-5.706315860152245E-002;-8.039578096941114E-004;2.706188941374421E-003;
2.415833333333334E+009;1.598664671182632E-001;-5.887269228696823E-002;-8.479465614072979E-004;2.889785915613174E-003;
2.416000000000000E+009;1.586105823516846E-001;-6.046067550778389E-002;-7.687413017265499E-004;2.747633727267385E-003;
2.416166666666667E+009;1.578609347343445E-001;-6.233186647295952E-002;-5.193015676923096E-004;2.689562039449811E-003;
2.416333333333334E+009;1.567169278860092E-001;-6.403271853923798E-002;-6.593078724108636E-004;2.904561115428805E-003;
2.416500000000000E+009;1.558319181203842E-001;-6.609524786472321E-002;-6.731174071319401E-004;2.869935706257820E-003;
2.416666666666667E+009;1.549491435289383E-001;-6.791917234659195E-002;-5.100967246107757E-004;2.828854136168957E-003;
2.416833333333334E+009;1.543335318565369E-001;-6.999003887176514E-002;-5.164876347407699E-004;2.994674723595381E-003;
2.417000000000000E+009;1.532287746667862E-001;-7.199914753437042E-002;-4.367745423223823E-004;3.081296104937792E-003;
2.417166666666667E+009;1.526995748281479E-001;-7.380791008472443E-002;-3.355056978762150E-004;3.097548848018050E-003;
2.417333333333334E+009;1.520752161741257E-001;-7.590335607528687E-002;-2.567534975241870E-004;3.170804819092155E-003;
2.417500000000000E+009;1.514566242694855E-001;-7.796019315719605E-002;-3.388500481378287E-004;3.284275531768799E-003;
2.417666666666667E+009;1.511236578226090E-001;-7.964131981134415E-002;-1.890464045573026E-004;3.323348239064217E-003;
2.417833333333334E+009;1.508022248744965E-001;-8.156938850879669E-002;6.379661954269977E-006;3.410643897950649E-003;
2.418000000000000E+009;1.502291411161423E-001;-8.359935879707336E-002;1.069577920134179E-004;3.364907577633858E-003;
2.418166666666667E+009;1.500225961208344E-001;-8.522172272205353E-002;6.662881060037762E-005;3.413199447095394E-003;
2.418333333333334E+009;1.501432210206986E-001;-8.698268979787827E-002;3.754949430003762E-004;3.420231631025672E-003;
2.418500000000000E+009;1.498044580221176E-001;-8.852779120206833E-002;5.633201799355447E-004;3.466048510745168E-003;
2.418666666666667E+009;1.499137580394745E-001;-9.012886136770248E-002;7.857047021389008E-004;3.476751735433936E-003;
2.418833333333334E+009;1.496438533067703E-001;-9.164500236511231E-002;7.525054388679564E-004;3.526478074491024E-003;
2.419000000000000E+009;1.496860980987549E-001;-9.286883473396301E-002;9.601582423783839E-004;3.485138760879636E-003;
2.419166666666667E+009;1.499380320310593E-001;-9.416017681360245E-002;1.102515147067606E-003;3.619306255131960E-003;
2.419333333333334E+009;1.498899161815643E-001;-9.514217823743820E-002;1.226753694936633E-003;3.526332788169384E-003;
2.419500000000000E+009;1.500499993562698E-001;-9.632607549428940E-002;1.505833119153976E-003;3.502073232084513E-003;
2.419666666666667E+009;1.505013108253479E-001;-9.719065576791763E-002;1.567099709063768E-003;3.424639580771327E-003;
2.419833333333334E+009;1.505882740020752E-001;-9.800890833139420E-002;1.717574428766966E-003;3.543705912306905E-003;
2.420000000000000E+009;1.510091572999954E-001;-9.880463778972626E-002;2.002891618758440E-003;3.238535486161709E-003;
2.420166666666667E+009;1.513771116733551E-001;-9.936168044805527E-002;2.216634107753635E-003;3.114808350801468E-003;
2.420333333333334E+009;1.517198532819748E-001;-9.985179454088211E-002;2.266525523737073E-003;3.244237275794148E-003;
2.420500000000000E+009;1.519724130630493E-001;-9.997723996639252E-002;2.405131934210658E-003;3.058860078454018E-003;
2.420666666666667E+009;1.522096693515778E-001;-1.003925576806068E-001;2.620255574584007E-003;3.067765850573778E-003;
2.420833333333334E+009;1.524948626756668E-001;-1.006394773721695E-001;2.741428324952722E-003;2.960273064672947E-003;
2.421000000000000E+009;1.525802314281464E-001;-1.005280017852783E-001;2.975428709760308E-003;2.726730657741427E-003;
2.421166666666667E+009;1.530023515224457E-001;-1.005773022770882E-001;3.040804760530591E-003;2.548955380916596E-003;
2.421333333333334E+009;1.532168090343475E-001;-1.005640551447868E-001;3.276515286415815E-003;2.419994445517659E-003;
2.421500000000000E+009;1.532275825738907E-001;-1.003728881478310E-001;3.420973895117641E-003;2.355037955567241E-003;
2.421666666666667E+009;1.534358710050583E-001;-1.001923456788063E-001;3.575623035430908E-003;2.162771765142679E-003;
2.421833333333334E+009;1.532625108957291E-001;-1.000590249896050E-001;3.676826599985361E-003;1.942159375175834E-003;
2.422000000000000E+009;1.529489308595657E-001;-9.994273632764816E-002;3.867903957143426E-003;1.713620265945792E-003;
2.422166666666667E+009;1.529205143451691E-001;-9.965780377388001E-002;4.006294999271631E-003;1.600879477337003E-003;
2.422333333333334E+009;1.524414718151093E-001;-9.921210259199143E-002;3.929875325411558E-003;1.148414099588990E-003;
2.422500000000000E+009;1.520126014947891E-001;-9.881706535816193E-002;3.953186795115471E-003;1.050344435498118E-003;
2.422666666666667E+009;1.511698365211487E-001;-9.850675612688065E-002;4.053032491356134E-003;7.584687555208802E-004;
2.422833333333334E+009;1.506783962249756E-001;-9.835807979106903E-002;4.086725413799286E-003;4.469978739507496E-004;
2.423000000000000E+009;1.498127132654190E-001;-9.796635061502457E-002;3.955784719437361E-003;8.130478818202391E-005;
2.423166666666667E+009;1.489132344722748E-001;-9.761264175176621E-002;3.766483394429088E-003;2.275388760608621E-005;
2.423333333333334E+009;1.479218900203705E-001;-9.697432070970535E-002;3.557173302397132E-003;-3.332977357786149E-004;
2.423500000000000E+009;1.468228399753571E-001;-9.679463505744934E-002;3.641653107479215E-003;-5.127074546180666E-004;
2.423666666666667E+009;1.454829722642899E-001;-9.658011049032211E-002;3.396854735910893E-003;-7.447636453434825E-004;
2.423833333333334E+009;1.442210823297501E-001;-9.632492810487747E-002;3.163198707625270E-003;-8.354225428774953E-004;
2.424000000000000E+009;1.427973657846451E-001;-9.584813565015793E-002;3.056270070374012E-003;-1.082450966350734E-003;
2.424166666666667E+009;1.414705663919449E-001;-9.583472460508347E-002;2.702803583815694E-003;-1.116172177717090E-003;
2.424333333333334E+009;1.402129530906677E-001;-9.555218368768692E-002;2.543405862525106E-003;-1.307156286202371E-003;
2.424500000000000E+009;1.387188434600830E-001;-9.563287347555161E-002;2.525344025343657E-003;-1.400282024405897E-003;
2.424666666666667E+009;1.371989995241165E-001;-9.558662772178650E-002;2.252029953524470E-003;-1.250078203156591E-003;
2.424833333333334E+009;1.356076449155808E-001;-9.588208049535751E-002;2.087242901325226E-003;-1.383654656819999E-003;
2.425000000000000E+009;1.341141015291214E-001;-9.633459150791168E-002;1.936014858074486E-003;-1.352055580355227E-003;
2.425166666666667E+009;1.323675215244293E-001;-9.668488055467606E-002;1.701533212326467E-003;-1.387722091749311E-003;
2.425333333333334E+009;1.310114860534668E-001;-9.717830270528793E-002;1.572422101162374E-003;-1.304785255342722E-003;
2.425500000000000E+009;1.294912993907929E-001;-9.802224487066269E-002;1.442711451090872E-003;-1.319248112849891E-003;
2.425666666666667E+009;1.278874576091766E-001;-9.858664870262146E-002;1.372564467601478E-003;-1.162147265858948E-003;
2.425833333333334E+009;1.264197826385498E-001;-9.941878169775009E-002;1.083211041986942E-003;-1.083395909518004E-003;
2.426000000000000E+009;1.249822005629540E-001;-1.005540713667870E-001;1.062664901837707E-003;-1.134707476012409E-003;
2.426166666666667E+009;1.237473413348198E-001;-1.017138808965683E-001;1.076513668522239E-003;-9.764291462488473E-004;
2.426333333333334E+009;1.223724186420441E-001;-1.028781309723854E-001;8.890752214938402E-004;-8.889338350854814E-004;
2.426500000000000E+009;1.210684627294540E-001;-1.041368320584297E-001;8.229067316278815E-004;-8.183183381333947E-004;
2.426666666666667E+009;1.199890896677971E-001;-1.054742634296417E-001;7.563997060060501E-004;-6.185229867696762E-004;
2.426833333333334E+009;1.187539994716644E-001;-1.070470586419106E-001;7.590099121443927E-004;-5.731811397708952E-004;
2.427000000000000E+009;1.176920235157013E-001;-1.086769104003906E-001;7.531126029789448E-004;-3.854496171697974E-004;
2.427166666666667E+009;1.166830062866211E-001;-1.101254448294640E-001;6.282731192186475E-004;-4.375133139546961E-004;
2.427333333333334E+009;1.157085150480270E-001;-1.118369475007057E-001;5.341165233403444E-004;-3.399469133000821E-004;
2.427500000000000E+009;1.149785146117210E-001;-1.135804876685143E-001;5.534084630198777E-004;-1.749729126458988E-004;
2.427666666666667E+009;1.141690686345100E-001;-1.152981147170067E-001;6.718573858961463E-004;3.143747380818240E-005;
