# Version 1.00
#
freq[Hz];re:Trc1_S11;im:Trc1_S11;re:Trc2_S21;im:Trc2_S21;
2.400000000000000E+009;1.559079438447952E-001;6.188631802797318E-002;-4.526193719357252E-003;-2.479692921042442E-004;
2.400166666666667E+009;1.558649390935898E-001;6.014132127165794E-002;-4.526844248175621E-003;-9.157817839877680E-005;
2.400333333333334E+009;1.556686908006668E-001;5.809268727898598E-002;-4.595394246280193E-003;8.392492600250989E-005;
2.400500000000000E+009;1.558906286954880E-001;5.602218210697174E-002;-4.740607924759388E-003;7.108362751750974E-006;
2.400666666666667E+009;1.557765603065491E-001;5.400437489151955E-002;-4.761023912578821E-003;1.105823612306267E-004;
2.400833333333334E+009;1.560201048851013E-001;5.204366892576218E-002;-4.664001520723105E-003;1.943440729519352E-004;
2.401000000000000E+009;1.561052501201630E-001;4.991772025823593E-002;-4.716001451015472E-003;5.056560039520264E-004;
2.401166666666667E+009;1.565436869859695E-001;4.776606708765030E-002;-4.817747510969639E-003;6.201231735758483E-004;
2.401333333333334E+009;1.567425131797791E-001;4.542097076773644E-002;-4.883578512817621E-003;7.663293508812785E-004;
2.401500000000000E+009;1.573092341423035E-001;4.355455562472343E-002;-4.830979742109776E-003;8.454908384010196E-004;
2.401666666666667E+009;1.579034328460693E-001;4.169872030615807E-002;-4.765971098095179E-003;9.460711735300720E-004;
2.401833333333334E+009;1.584717780351639E-001;3.934510424733162E-002;-4.932245239615440E-003;1.084804418496788E-003;
2.402000000000000E+009;1.589536368846893E-001;3.746420517563820E-002;-4.801895935088396E-003;1.326683093793690E-003;
2.402166666666667E+009;1.595806479454041E-001;3.548388928174973E-002;-4.990788642317057E-003;1.512556453235447E-003;
2.402333333333334E+009;1.603292077779770E-001;3.354266658425331E-002;-4.976716823875904E-003;1.516335410997272E-003;
2.402500000000000E+009;1.615061461925507E-001;3.175463154911995E-002;-4.866553470492363E-003;1.769235357642174E-003;
2.402666666666667E+009;1.621511727571487E-001;3.001818619668484E-002;-4.909632727503777E-003;1.822890364564955E-003;
2.402833333333334E+009;1.631118506193161E-001;2.834714017808437E-002;-4.790407139807940E-003;2.043752465397120E-003;
2.403000000000000E+009;1.641006618738174E-001;2.676128968596458E-002;-4.737469367682934E-003;2.161682117730379E-003;
2.403166666666667E+009;1.651593297719955E-001;2.530611492693424E-002;-4.674658644944429E-003;2.323465188965201E-003;
2.403333333333334E+009;1.660689413547516E-001;2.391288802027702E-002;-4.780709277838469E-003;2.455232897773385E-003;
2.403500000000000E+009;1.672398447990418E-001;2.281907945871353E-002;-4.668467212468386E-003;2.574142534285784E-003;
2.403666666666667E+009;1.683472692966461E-001;2.121165022253990E-002;-4.641891922801733E-003;2.759527182206512E-003;
2.403833333333334E+009;1.695785671472549E-001;2.025223709642887E-002;-4.629167262464762E-003;2.985496073961258E-003;
2.404000000000000E+009;1.706377565860748E-001;1.921539194881916E-002;-4.593760240823031E-003;3.018905175849795E-003;
2.404166666666667E+009;1.714433431625366E-001;1.805102638900280E-002;-4.494657739996910E-003;3.134176833555102E-003;
2.404333333333334E+009;1.725536882877350E-001;1.726034469902515E-002;-4.300165455788374E-003;3.353963140398264E-003;
2.404500000000000E+009;1.736410409212112E-001;1.654117926955223E-002;-4.263833630830050E-003;3.600465366616845E-003;
2.404666666666667E+009;1.746069788932800E-001;1.561265625059605E-002;-4.398074001073837E-003;3.955766092985869E-003;
2.404833333333334E+009;1.753679513931274E-001;1.510867383331060E-002;-4.027763381600380E-003;4.137812182307243E-003;
2.405000000000000E+009;1.763895153999329E-001;1.443339418619871E-002;-4.056388046592474E-003;4.027518909424543E-003;
2.405166666666667E+009;1.772457957267761E-001;1.405987050384283E-002;-3.872871398925781E-003;4.307018592953682E-003;
2.405333333333334E+009;1.780224293470383E-001;1.355797890573740E-002;-3.799136728048325E-003;4.301414359360933E-003;
2.405500000000000E+009;1.787472814321518E-001;1.331288553774357E-002;-3.586402861401439E-003;4.478211048990488E-003;
2.405666666666667E+009;1.792468726634979E-001;1.302797999233007E-002;-3.427832154557109E-003;4.742800258100033E-003;
2.405833333333334E+009;1.797246336936951E-001;1.281186565756798E-002;-3.315847367048264E-003;4.750794265419245E-003;
2.406000000000000E+009;1.803352385759354E-001;1.228155847638845E-002;-3.017737530171871E-003;4.895023535937071E-003;
2.406166666666667E+009;1.805203706026077E-001;1.227518822997809E-002;-2.778297755867243E-003;5.158098414540291E-003;
2.406333333333334E+009;1.809766441583633E-001;1.199867669492960E-002;-2.859942615032196E-003;5.192119628190994E-003;
2.406500000000000E+009;1.810721904039383E-001;1.164024788886309E-002;-2.618983620777726E-003;5.306465085595846E-003;
2.406666666666667E+009;1.810353696346283E-001;1.159340329468250E-002;-2.364067826420069E-003;5.405676551163197E-003;
2.406833333333334E+009;1.810951530933380E-001;1.125783659517765E-002;-2.082882681861520E-003;5.584518890827894E-003;
2.407000000000000E+009;1.811124682426453E-001;1.092075370252132E-002;-1.973789185285568E-003;5.412267986685038E-003;
2.407166666666667E+009;1.812068223953247E-001;1.081832498311997E-002;-1.672472688369453E-003;5.619843024760485E-003;
2.407333333333334E+009;1.807924807071686E-001;1.019122172147036E-002;-1.498489291407168E-003;5.633601918816567E-003;
2.407500000000000E+009;1.803632527589798E-001;9.924438782036305E-003;-1.356546301394701E-003;5.687854718416929E-003;
2.407666666666667E+009;1.800692081451416E-001;9.393444284796715E-003;-1.000145915895701E-003;5.745849572122097E-003;
2.407833333333334E+009;1.794401854276657E-001;8.654572069644928E-003;-9.544743807055056E-004;5.737255327403545E-003;
2.408000000000000E+009;1.789306253194809E-001;8.095033466815949E-003;-7.001784397289157E-004;5.536464974284172E-003;
2.408166666666667E+009;1.782867461442947E-001;7.501687854528427E-003;-5.794078460894525E-004;5.760372616350651E-003;
2.408333333333334E+009;1.780114918947220E-001;6.668798625469208E-003;-4.116245836485177E-004;5.641275085508823E-003;
2.408500000000000E+009;1.770382076501846E-001;5.738445091992617E-003;-9.094577399082482E-005;5.609021522104740E-003;
2.408666666666667E+009;1.763991415500641E-001;4.763551056385040E-003;3.104106872342527E-005;5.712325219064951E-003;
2.408833333333334E+009;1.755878329277039E-001;3.666537581011653E-003;1.838608150137588E-004;5.364345852285624E-003;
2.409000000000000E+009;1.747590750455856E-001;2.566786250099540E-003;3.254856565035880E-004;5.593161564320326E-003;
2.409166666666667E+009;1.740502417087555E-001;1.319483038969338E-003;6.633900338783860E-004;5.592213477939367E-003;
2.409333333333334E+009;1.733806729316711E-001;-1.673506048973650E-004;6.328285089693964E-004;5.435432773083448E-003;
2.409500000000000E+009;1.725516170263290E-001;-1.651108614169061E-003;8.328668191097677E-004;5.393082741647959E-003;
2.409666666666667E+009;1.716992110013962E-001;-3.188055707141757E-003;8.492319029755890E-004;5.367086268961430E-003;
2.409833333333334E+009;1.709358394145966E-001;-4.626304376870394E-003;1.164081972092390E-003;5.315814167261124E-003;
2.410000000000000E+009;1.702435910701752E-001;-6.336876191198826E-003;1.300019095651805E-003;5.174865480512381E-003;
2.410166666666667E+009;1.696642041206360E-001;-7.998810149729252E-003;1.345784054137766E-003;5.415760446339846E-003;
2.410333333333334E+009;1.690071076154709E-001;-9.838302619755268E-003;1.487249857746065E-003;5.296122282743454E-003;
2.410500000000000E+009;1.683286130428314E-001;-1.164384838193655E-002;1.630788668990135E-003;5.146441981196404E-003;
2.410666666666667E+009;1.679458767175674E-001;-1.359530072659254E-002;1.853164751082659E-003;4.928725305944681E-003;
2.410833333333334E+009;1.675489693880081E-001;-1.565088517963886E-002;2.017779741436243E-003;4.980178549885750E-003;
2.411000000000000E+009;1.672954112291336E-001;-1.746816746890545E-002;1.963913673534989E-003;4.853047896176577E-003;
2.411166666666667E+009;1.670220196247101E-001;-1.961223781108856E-002;2.098134486004710E-003;4.661042708903551E-003;
2.411333333333334E+009;1.669084727764130E-001;-2.156327851116657E-002;2.441010437905788E-003;4.714292474091053E-003;
2.411500000000000E+009;1.667196303606033E-001;-2.365702949464321E-002;2.504985546693206E-003;4.529014695435762E-003;
2.411666666666667E+009;1.667706519365311E-001;-2.559927292168140E-002;2.588826697319746E-003;4.494853317737579E-003;
2.411833333333334E+009;1.668457239866257E-001;-2.754601836204529E-002;2.735585905611515E-003;4.475485067814589E-003;
2.412000000000000E+009;1.670520752668381E-001;-2.963986620306969E-002;2.817171392962337E-003;4.368455614894629E-003;
2.412166666666667E+009;1.672165691852570E-001;-3.161270171403885E-002;3.016188740730286E-003;4.224088508635759E-003;
2.412333333333334E+009;1.679460704326630E-001;-3.359985351562500E-002;3.184281056746841E-003;4.080961458384991E-003;
2.412500000000000E+009;1.679312288761139E-001;-3.528399020433426E-002;3.316741203889251E-003;4.008179996162653E-003;
2.412666666666667E+009;1.684182137250900E-001;-3.733591735363007E-002;3.288371488451958E-003;3.750119823962450E-003;
2.412833333333334E+009;1.689401119947434E-001;-3.935463726520538E-002;3.425719216465950E-003;3.718315158039331E-003;
2.413000000000000E+009;1.695117652416229E-001;-4.103352501988411E-002;3.493152558803558E-003;3.554423805326223E-003;
2.413166666666667E+009;1.700298190116882E-001;-4.260432347655296E-002;3.562898607924581E-003;3.531569149345160E-003;
2.413333333333334E+009;1.705458164215088E-001;-4.443973675370216E-002;3.672459162771702E-003;3.314323956146836E-003;
2.413500000000000E+009;1.712720096111298E-001;-4.594953730702400E-002;3.752361750230193E-003;3.284762147814035E-003;
2.413666666666667E+009;1.719961762428284E-001;-4.740291461348534E-002;3.822622587904334E-003;3.032308770343661E-003;
2.413833333333334E+009;1.725951433181763E-001;-4.879579693078995E-002;3.857201430946589E-003;2.834836952388287E-003;
2.414000000000000E+009;1.730771511793137E-001;-5.017118528485298E-002;3.898660186678171E-003;2.730907406657934E-003;
2.414166666666667E+009;1.739062219858170E-001;-5.128771066665649E-002;3.803682513535023E-003;2.552936552092433E-003;
2.414333333333334E+009;1.745650023221970E-001;-5.242517217993736E-002;3.987913485616446E-003;2.424312522634864E-003;
2.414500000000000E+009;1.753457784652710E-001;-5.345547199249268E-002;3.980583976954222E-003;2.370160305872560E-003;
2.414666666666667E+009;1.757987290620804E-001;-5.430452525615692E-002;3.954210318624973E-003;2.216879744082689E-003;
2.414833333333334E+009;1.764079332351685E-001;-5.517240613698959E-002;4.003219772130251E-003;2.225336851552129E-003;
2.415000000000000E+009;1.767730265855789E-001;-5.589261278510094E-002;4.182105418294668E-003;2.135616960003972E-003;
2.415166666666667E+009;1.773732155561447E-001;-5.648299306631088E-002;4.109007772058249E-003;1.924156793393195E-003;
2.415333333333334E+009;1.776923090219498E-001;-5.707741156220436E-002;4.059453029185534E-003;1.733438926748931E-003;
2.415500000000000E+009;1.782195419073105E-001;-5.754159390926361E-002;3.986838273704052E-003;1.746817841194570E-003;
2.415666666666667E+009;1.784327477216721E-001;-5.784578248858452E-002;4.099901299923658E-003;1.729924231767654E-003;
2.415833333333334E+009;1.786392331123352E-001;-5.816738307476044E-002;4.176723770797253E-003;1.533863367512822E-003;
2.416000000000000E+009;1.786778420209885E-001;-5.851486325263977E-002;4.114397335797548E-003;1.403944683261216E-003;
2.416166666666667E+009;1.788254082202911E-001;-5.873549729585648E-002;3.989831544458866E-003;1.265124301426113E-003;
2.416333333333334E+009;1.788377910852432E-001;-5.880690738558769E-002;4.087623208761215E-003;1.084239687770605E-003;
2.416500000000000E+009;1.785371452569962E-001;-5.915553495287895E-002;4.062875639647245E-003;1.126632560044527E-003;
2.416666666666667E+009;1.781943887472153E-001;-5.920520424842835E-002;4.171520471572876E-003;9.772443445399404E-004;
2.416833333333334E+009;1.779837459325790E-001;-5.951124057173729E-002;4.094301722943783E-003;8.633119869045913E-004;
2.417000000000000E+009;1.773763149976730E-001;-5.955953896045685E-002;4.185953643172979E-003;6.566068623214960E-004;
2.417166666666667E+009;1.768641322851181E-001;-5.955463647842407E-002;4.260157700628042E-003;6.327670998871326E-004;
2.417333333333334E+009;1.762433201074600E-001;-5.965669453144074E-002;4.177362192422152E-003;5.929937469772995E-004;
2.417500000000000E+009;1.754666715860367E-001;-6.005112826824188E-002;4.168221261352301E-003;4.660162376239896E-004;
2.417666666666667E+009;1.748258769512177E-001;-6.008198857307434E-002;4.075417760759592E-003;4.011532291769981E-004;
2.417833333333334E+009;1.739508807659149E-001;-6.021289154887199E-002;4.186843987554312E-003;1.561058306833729E-004;
2.418000000000000E+009;1.727783381938934E-001;-6.068452075123787E-002;4.122739657759666E-003;1.651841448619962E-004;
2.418166666666667E+009;1.716989874839783E-001;-6.077751889824867E-002;4.135759547352791E-003;-6.527061486849561E-006;
2.418333333333334E+009;1.709106862545013E-001;-6.129709258675575E-002;4.100113175809383E-003;-8.690164395375177E-005;
2.418500000000000E+009;1.694364845752716E-001;-6.181943416595459E-002;4.032430704683065E-003;-1.275145186809823E-004;
2.418666666666667E+009;1.684894561767578E-001;-6.228117644786835E-002;4.031449090689421E-003;-1.255067472811788E-004;
2.418833333333334E+009;1.669768244028091E-001;-6.285762786865234E-002;3.994768019765616E-003;-2.716237504500896E-004;
2.419000000000000E+009;1.656316071748734E-001;-6.357088685035706E-002;4.060322418808937E-003;-4.138828953728080E-004;
2.419166666666667E+009;1.644264608621597E-001;-6.430093944072723E-002;3.964409697800875E-003;-4.458622424863279E-004;
2.419333333333334E+009;1.629628837108612E-001;-6.506319344043732E-002;4.016972146928310E-003;-6.849629571661353E-004;
2.419500000000000E+009;1.617651879787445E-001;-6.607227027416229E-002;3.892731154337525E-003;-6.246180855669081E-004;
2.419666666666667E+009;1.605692505836487E-001;-6.710159778594971E-002;3.924096468836069E-003;-7.636750233359635E-004;
2.419833333333334E+009;1.592538207769394E-001;-6.805120408535004E-002;3.733442397788167E-003;-8.865711861290038E-004;
2.420000000000000E+009;1.581608504056931E-001;-6.933444738388062E-002;3.876119153574109E-003;-1.012703287415206E-003;
2.420166666666667E+009;1.569384932518005E-001;-7.045417279005051E-002;3.781498642638326E-003;-8.689217502251267E-004;
2.420333333333334E+009;1.559092551469803E-001;-7.205283641815186E-002;3.801360959187150E-003;-8.922518463805318E-004;
2.420500000000000E+009;1.548101603984833E-001;-7.327913492918015E-002;3.722821595147252E-003;-1.082280185073614E-003;
2.420666666666667E+009;1.538595110177994E-001;-7.470627129077911E-002;3.717735176905990E-003;-1.136038918048143E-003;
2.420833333333334E+009;1.529236137866974E-001;-7.616227865219116E-002;3.621727926656604E-003;-1.313013839535415E-003;
2.421000000000000E+009;1.519341468811035E-001;-7.782924175262451E-002;3.658042289316654E-003;-1.326604862697423E-003;
2.421166666666667E+009;1.514495313167572E-001;-7.940522581338882E-002;3.610352287068963E-003;-1.402804860845208E-003;
2.421333333333334E+009;1.507112979888916E-001;-8.112960308790207E-002;3.549156710505486E-003;-1.624036347493529E-003;
2.421500000000000E+009;1.501703709363937E-001;-8.275382965803146E-002;3.570410888642073E-003;-1.564585720188916E-003;
2.421666666666667E+009;1.496223360300064E-001;-8.441042900085449E-002;3.528152592480183E-003;-1.557305804453790E-003;
2.421833333333334E+009;1.494130939245224E-001;-8.633035421371460E-002;3.351255087181926E-003;-1.702257082797587E-003;
2.422000000000000E+009;1.489157676696777E-001;-8.815000206232071E-002;3.302573226392269E-003;-1.815752475522459E-003;
2.422166666666667E+009;1.488255709409714E-001;-9.007272869348526E-002;3.164214780554175E-003;-2.023107837885618E-003;
2.422333333333334E+009;1.486837118864059E-001;-9.159038960933685E-002;3.262649988755584E-003;-2.079528756439686E-003;
2.422500000000000E+009;1.486119031906128E-001;-9.341584891080856E-002;3.067397745326161E-003;-1.957284053787589E-003;
2.422666666666667E+009;1.486872583627701E-001;-9.515362232923508E-002;2.909932751208544E-003;-2.105126855894923E-003;
2.422833333333334E+009;1.488945335149765E-001;-9.704487025737763E-002;3.003015182912350E-003;-2.338080201297998E-003;
2.423000000000000E+009;1.491056531667709E-001;-9.874632209539414E-002;2.768311649560928E-003;-2.213877625763416E-003;
2.423166666666667E+009;1.496085971593857E-001;-1.003994345664978E-001;2.755432622507215E-003;-2.338104881346226E-003;
2.423333333333334E+009;1.498328298330307E-001;-1.018443480134010E-001;2.706458792090416E-003;-2.359088510274887E-003;
2.423500000000000E+009;1.504183709621429E-001;-1.033529266715050E-001;2.677042968571186E-003;-2.238932531327009E-003;
2.423666666666667E+009;1.505644321441650E-001;-1.049895435571671E-001;2.608333481475711E-003;-2.426904859021306E-003;
2.423833333333334E+009;1.513149291276932E-001;-1.063714399933815E-001;2.352579962462187E-003;-2.488289261236787E-003;
2.424000000000000E+009;1.514728665351868E-001;-1.075120419263840E-001;2.382271224632859E-003;-2.447872422635555E-003;
2.424166666666667E+009;1.523104310035706E-001;-1.089115589857101E-001;2.251412253826857E-003;-2.397975884377956E-003;
2.424333333333334E+009;1.529345512390137E-001;-1.099020317196846E-001;2.287191106006503E-003;-2.440825337544084E-003;
2.424500000000000E+009;1.534629762172699E-001;-1.110934466123581E-001;2.169184153899550E-003;-2.529846504330635E-003;
2.424666666666667E+009;1.541911214590073E-001;-1.118657290935516E-001;2.190986881032586E-003;-2.464658813551068E-003;
2.424833333333334E+009;1.544399410486221E-001;-1.128693222999573E-001;2.178193535655737E-003;-2.495955908671022E-003;
2.425000000000000E+009;1.550819724798203E-001;-1.138631254434586E-001;2.209644531831145E-003;-2.473300322890282E-003;
2.425166666666667E+009;1.553762853145599E-001;-1.145375967025757E-001;2.042221603915095E-003;-2.575575141236186E-003;
2.425333333333334E+009;1.559237539768219E-001;-1.151004061102867E-001;1.901776297017932E-003;-2.728654071688652E-003;
2.425500000000000E+009;1.563968360424042E-001;-1.157802343368530E-001;2.010529162362218E-003;-2.527186879888177E-003;
2.425666666666667E+009;1.565388590097427E-001;-1.162526980042458E-001;1.793986419215798E-003;-2.701480640098453E-003;
2.425833333333334E+009;1.569298356771469E-001;-1.166331917047501E-001;1.877588103525341E-003;-2.503393450751901E-003;
2.426000000000000E+009;1.570308655500412E-001;-1.170587912201881E-001;2.110423985868692E-003;-2.646393841132522E-003;
2.426166666666667E+009;1.573891341686249E-001;-1.172827929258347E-001;1.820991514250636E-003;-2.633835189044476E-003;
2.426333333333334E+009;1.572238504886627E-001;-1.175928935408592E-001;1.803203020244837E-003;-2.661128295585513E-003;
2.426500000000000E+009;1.571757495403290E-001;-1.176278516650200E-001;1.838187337853015E-003;-2.676036907359958E-003;
2.426666666666667E+009;1.572598218917847E-001;-1.176435872912407E-001;1.709874952211976E-003;-2.795201959088445E-003;
2.426833333333334E+009;1.569534540176392E-001;-1.177487596869469E-001;1.748066046275199E-003;-2.713751979172230E-003;
2.427000000000000E+009;1.566363871097565E-001;-1.179299578070641E-001;1.662668888457120E-003;-2.858748659491539E-003;
2.427166666666667E+009;1.559537500143051E-001;-1.178802698850632E-001;1.640043919906020E-003;-2.852210542187095E-003;
2.427333333333334E+009;1.554474830627441E-001;-1.179417595267296E-001;1.719525665976107E-003;-2.974557457491756E-003;
2.427500000000000E+009;1.550674140453339E-001;-1.180171296000481E-001;1.549059059470892E-003;-3.013425273820758E-003;
2.427666666666667E+009;1.541535854339600E-001;-1.181116104125977E-001;1.593771157786250E-003;-2.937384182587266E-003;
2.427833333333334E+009;1.532242298126221E-001;-1.182155311107636E-001;1.539170858450234E-003;-2.990562468767166E-003;
