# Version 1.00
#
freq[Hz];re:Trc1_S11;im:Trc1_S11;re:Trc2_S21;im:Trc2_S21;
2.400000000000000E+009;1.559091359376907E-001;6.188687682151794E-002;-4.667608998715878E-003;-3.237429191358388E-004;
2.400166666666667E+009;1.558173745870590E-001;6.014478206634522E-002;-4.740606527775526E-003;-1.605321012903005E-004;
2.400333333333334E+009;1.557695418596268E-001;5.798106640577316E-002;-4.789851140230894E-003;-1.254453673027456E-004;
2.400500000000000E+009;1.559137552976608E-001;5.602454021573067E-002;-4.829265177249908E-003;1.203313368023373E-004;
2.400666666666667E+009;1.558662950992584E-001;5.396196618676186E-002;-4.870312754064798E-003;6.834229861851782E-005;
2.400833333333334E+009;1.560083329677582E-001;5.193276330828667E-002;-4.915339872241020E-003;1.419827603967860E-004;
2.401000000000000E+009;1.563340872526169E-001;4.973874613642693E-002;-4.784070886671543E-003;4.781772149726749E-004;
2.401166666666667E+009;1.564841717481613E-001;4.754979908466339E-002;-4.831190221011639E-003;5.820186343044043E-004;
2.401333333333334E+009;1.569608300924301E-001;4.542336985468864E-002;-4.942590370774269E-003;5.131665384396911E-004;
2.401500000000000E+009;1.574263274669647E-001;4.358647391200066E-002;-4.945979919284582E-003;8.467201841995120E-004;
2.401666666666667E+009;1.579494178295136E-001;4.148831963539124E-002;-4.972046706825495E-003;9.889228967949748E-004;
2.401833333333334E+009;1.585951149463654E-001;3.933294489979744E-002;-5.119953304529190E-003;9.935458656400442E-004;
2.402000000000000E+009;1.590524464845657E-001;3.746149688959122E-002;-4.935100208967924E-003;1.347427139990032E-003;
2.402166666666667E+009;1.598423272371292E-001;3.544383868575096E-002;-4.968936555087566E-003;1.263755373656750E-003;
2.402333333333334E+009;1.604588180780411E-001;3.344634920358658E-002;-5.008033942431212E-003;1.572876935824752E-003;
2.402500000000000E+009;1.614265441894531E-001;3.181333839893341E-002;-5.051648244261742E-003;1.595435314811766E-003;
2.402666666666667E+009;1.622368246316910E-001;2.991817519068718E-002;-4.985937383025885E-003;1.794704119674861E-003;
2.402833333333334E+009;1.632351726293564E-001;2.833139896392822E-002;-4.798021633177996E-003;2.062191721051931E-003;
2.403000000000000E+009;1.642685532569885E-001;2.668170630931854E-002;-4.786057863384485E-003;2.198748989030719E-003;
2.403166666666667E+009;1.653200387954712E-001;2.524245344102383E-002;-4.850292112678289E-003;2.274870639666915E-003;
2.403333333333334E+009;1.662415117025375E-001;2.397669665515423E-002;-4.673467017710209E-003;2.518103225156665E-003;
2.403500000000000E+009;1.672112643718720E-001;2.257423289120197E-002;-4.707329906523228E-003;2.577230799943209E-003;
2.403666666666667E+009;1.682425290346146E-001;2.118694968521595E-002;-4.663398955017328E-003;2.775126602500677E-003;
2.403833333333334E+009;1.695522516965866E-001;2.018599770963192E-002;-4.747936036437750E-003;2.916047815233469E-003;
2.404000000000000E+009;1.706317365169525E-001;1.903234049677849E-002;-4.657253157347441E-003;3.285792889073491E-003;
2.404166666666667E+009;1.715220063924789E-001;1.812332496047020E-002;-4.612423945218325E-003;3.296218346804380E-003;
2.404333333333334E+009;1.725329011678696E-001;1.713489741086960E-002;-4.493406973779202E-003;3.478795289993286E-003;
2.404500000000000E+009;1.735869348049164E-001;1.630852743983269E-002;-4.357109311968088E-003;3.552838694304228E-003;
2.404666666666667E+009;1.746277958154678E-001;1.577936671674252E-002;-4.258874803781509E-003;3.707754891365767E-003;
2.404833333333334E+009;1.755406558513641E-001;1.497450191527605E-002;-4.168046172708273E-003;3.870071144774556E-003;
2.405000000000000E+009;1.763679087162018E-001;1.443796046078205E-002;-4.147586878389120E-003;4.094351083040237E-003;
2.405166666666667E+009;1.772287786006928E-001;1.395850162953138E-002;-3.917843103408814E-003;4.312246572226286E-003;
2.405333333333334E+009;1.779761761426926E-001;1.334793400019407E-002;-3.847602289170027E-003;4.293866921216250E-003;
2.405500000000000E+009;1.787445247173309E-001;1.304672565311194E-002;-3.747960785403848E-003;4.532826598733664E-003;
2.405666666666667E+009;1.792489439249039E-001;1.273770257830620E-002;-3.579810727387667E-003;4.692706279456615E-003;
2.405833333333334E+009;1.797163635492325E-001;1.284667849540710E-002;-3.350210608914495E-003;4.953247494995594E-003;
2.406000000000000E+009;1.800847351551056E-001;1.233606878668070E-002;-3.139078151434660E-003;5.030187778174877E-003;
2.406166666666667E+009;1.804587244987488E-001;1.220675092190504E-002;-2.951966598629952E-003;5.251957103610039E-003;
2.406333333333334E+009;1.809395700693131E-001;1.196675747632980E-002;-2.925518434494734E-003;5.239370279014111E-003;
2.406500000000000E+009;1.811973154544830E-001;1.154422387480736E-002;-2.632062649354339E-003;5.318709649145603E-003;
2.406666666666667E+009;1.810395866632462E-001;1.152277644723654E-002;-2.444034675136209E-003;5.391199141740799E-003;
2.406833333333334E+009;1.811247020959854E-001;1.109914667904377E-002;-2.314526820555329E-003;5.508935078978539E-003;
2.407000000000000E+009;1.811175495386124E-001;1.081142015755177E-002;-2.058167243376374E-003;5.660580471158028E-003;
2.407166666666667E+009;1.810981035232544E-001;1.069478690624237E-002;-1.728820963762701E-003;5.656254477798939E-003;
2.407333333333334E+009;1.807705163955689E-001;1.012306381016970E-002;-1.629361766390503E-003;5.810363218188286E-003;
2.407500000000000E+009;1.802313774824143E-001;9.840409271419048E-003;-1.379232853651047E-003;5.634042900055647E-003;
2.407666666666667E+009;1.800608336925507E-001;9.371593594551086E-003;-1.165886060334742E-003;5.802722182124853E-003;
2.407833333333334E+009;1.792665421962738E-001;8.717604912817478E-003;-9.868276538327336E-004;5.702547729015350E-003;
2.408000000000000E+009;1.789473295211792E-001;7.963771000504494E-003;-7.109037833288312E-004;5.718484055250883E-003;
2.408166666666667E+009;1.783221364021301E-001;7.477075327187777E-003;-4.369625239633024E-004;5.654634907841682E-003;
2.408333333333334E+009;1.777519583702087E-001;6.755975540727377E-003;-3.531449765432626E-004;5.778262391686440E-003;
2.408500000000000E+009;1.770136505365372E-001;5.772137083113194E-003;-1.857489260146394E-004;5.734170787036419E-003;
2.408666666666667E+009;1.763436049222946E-001;4.820769187062979E-003;-1.771822135196999E-004;5.744250025600195E-003;
2.408833333333334E+009;1.754646897315979E-001;3.572562243789434E-003;7.951593579491600E-005;5.797024816274643E-003;
2.409000000000000E+009;1.746223866939545E-001;2.495956607162952E-003;1.710281794657931E-004;5.631379317492247E-003;
2.409166666666667E+009;1.739893108606339E-001;1.283735968172550E-003;3.697091888170689E-004;5.622154567390680E-003;
2.409333333333334E+009;1.732024103403091E-001;-1.331088133156300E-004;6.807517493143678E-004;5.522779189050198E-003;
2.409500000000000E+009;1.724661439657211E-001;-1.665756921283901E-003;8.122515282593668E-004;5.464921239763498E-003;
2.409666666666667E+009;1.715698093175888E-001;-3.086612792685628E-003;9.611783316358924E-004;5.523823667317629E-003;
2.409833333333334E+009;1.708550602197647E-001;-4.520309157669544E-003;1.076806336641312E-003;5.446859169751406E-003;
2.410000000000000E+009;1.701977849006653E-001;-6.143474951386452E-003;1.311281346715987E-003;5.349646322429180E-003;
2.410166666666667E+009;1.697493046522141E-001;-8.013593032956123E-003;1.440686290152371E-003;5.383440759032965E-003;
2.410333333333334E+009;1.689595729112625E-001;-9.698969312012196E-003;1.483396044932306E-003;5.220036022365093E-003;
2.410500000000000E+009;1.685441732406616E-001;-1.163370069116354E-002;1.673960010521114E-003;5.093243904411793E-003;
2.410666666666667E+009;1.680020391941071E-001;-1.363679207861424E-002;1.813349081203342E-003;5.086356308311224E-003;
2.410833333333334E+009;1.676363945007324E-001;-1.528811734169722E-002;1.963184215128422E-003;5.110777448862791E-003;
2.411000000000000E+009;1.672149449586868E-001;-1.744256168603897E-002;2.121012657880783E-003;4.999177530407906E-003;
2.411166666666667E+009;1.670733839273453E-001;-1.945364288985729E-002;2.202539239078760E-003;4.924627952277660E-003;
2.411333333333334E+009;1.669761836528778E-001;-2.150297351181507E-002;2.359660342335701E-003;4.770321771502495E-003;
2.411500000000000E+009;1.666091978549957E-001;-2.365870960056782E-002;2.521361922845244E-003;4.732611589133740E-003;
2.411666666666667E+009;1.667616665363312E-001;-2.542601898312569E-002;2.691996516659856E-003;4.517691209912300E-003;
2.411833333333334E+009;1.668743491172791E-001;-2.744255587458611E-002;2.834293525665999E-003;4.612966440618038E-003;
2.412000000000000E+009;1.670290678739548E-001;-2.959440648555756E-002;2.857417101040483E-003;4.393709823489189E-003;
2.412166666666667E+009;1.672925502061844E-001;-3.164879232645035E-002;2.875707810744643E-003;4.193499684333801E-003;
2.412333333333334E+009;1.677345782518387E-001;-3.354484960436821E-002;3.011715365573764E-003;4.150012042373419E-003;
2.412500000000000E+009;1.679676175117493E-001;-3.540027514100075E-002;3.205438377335668E-003;4.086734261363745E-003;
2.412666666666667E+009;1.684294492006302E-001;-3.736652061343193E-002;3.456581151112914E-003;3.907858394086361E-003;
2.412833333333334E+009;1.690019667148590E-001;-3.905722871422768E-002;3.488965332508087E-003;3.706786548718810E-003;
2.413000000000000E+009;1.694538146257401E-001;-4.077490046620369E-002;3.571813926100731E-003;3.610780695453286E-003;
2.413166666666667E+009;1.699959635734558E-001;-4.254696145653725E-002;3.466421505436301E-003;3.334734123200178E-003;
2.413333333333334E+009;1.705605536699295E-001;-4.430338740348816E-002;3.660848131403327E-003;3.389012301340699E-003;
2.413500000000000E+009;1.712570190429688E-001;-4.589927569031715E-002;3.638136433437467E-003;3.423132235184312E-003;
2.413666666666667E+009;1.719800531864166E-001;-4.738016799092293E-002;3.890957217663527E-003;3.043252741917968E-003;
2.413833333333334E+009;1.724239438772202E-001;-4.882689565420151E-002;3.844662802293897E-003;2.938311779871583E-003;
2.414000000000000E+009;1.730826795101166E-001;-5.002113804221153E-002;3.856173483654857E-003;2.680627163499594E-003;
2.414166666666667E+009;1.739176064729691E-001;-5.111667141318321E-002;4.011915531009436E-003;2.809361089020968E-003;
2.414333333333334E+009;1.744698733091354E-001;-5.245704203844070E-002;3.933805041015148E-003;2.539445878937841E-003;
2.414500000000000E+009;1.753410398960114E-001;-5.337912216782570E-002;3.989581018686295E-003;2.378533594310284E-003;
2.414666666666667E+009;1.758181005716324E-001;-5.424483120441437E-002;3.961903043091297E-003;2.373795490711927E-003;
2.414833333333334E+009;1.764373183250427E-001;-5.511136353015900E-002;3.840432269498706E-003;2.117878291755915E-003;
2.415000000000000E+009;1.768568456172943E-001;-5.575029924511910E-002;3.821961581707001E-003;2.111100824549794E-003;
2.415166666666667E+009;1.772902458906174E-001;-5.643277987837791E-002;3.966955933719873E-003;1.972506986930966E-003;
2.415333333333334E+009;1.778656393289566E-001;-5.710997059941292E-002;4.097606986761093E-003;1.975441118702292E-003;
2.415500000000000E+009;1.781932413578033E-001;-5.743116512894630E-002;4.088203888386488E-003;1.807133317925036E-003;
2.415666666666667E+009;1.783898472785950E-001;-5.778903886675835E-002;4.150576423853636E-003;1.646649790927768E-003;
2.415833333333334E+009;1.786722540855408E-001;-5.817528814077377E-002;4.154155030846596E-003;1.505310996435583E-003;
2.416000000000000E+009;1.787269413471222E-001;-5.848853290081024E-002;4.058016464114189E-003;1.404223847202957E-003;
2.416166666666667E+009;1.788446605205536E-001;-5.875324457883835E-002;4.146943334490061E-003;1.305919140577316E-003;
2.416333333333334E+009;1.787320822477341E-001;-5.884525552392006E-002;4.243743140250444E-003;1.316916896030307E-003;
2.416500000000000E+009;1.786707043647766E-001;-5.905164033174515E-002;3.986936993896961E-003;1.054718508385122E-003;
2.416666666666667E+009;1.782157719135284E-001;-5.915524438023567E-002;4.184650257229805E-003;1.014300156384707E-003;
2.416833333333334E+009;1.780640184879303E-001;-5.936311930418015E-002;4.243656527251005E-003;9.661075309850276E-004;
2.417000000000000E+009;1.773365586996079E-001;-5.955702066421509E-002;4.111473448574543E-003;8.068849565461278E-004;
2.417166666666667E+009;1.769795864820480E-001;-5.954113975167275E-002;4.289118107408285E-003;6.932496908120811E-004;
2.417333333333334E+009;1.763814985752106E-001;-5.950311571359634E-002;4.195698071271181E-003;5.748555413447321E-004;
2.417500000000000E+009;1.756242066621780E-001;-5.996495485305786E-002;4.053718876093626E-003;4.611897747963667E-004;
2.417666666666667E+009;1.748407483100891E-001;-6.004447862505913E-002;4.199874121695757E-003;4.122669051866978E-004;
2.417833333333334E+009;1.737950444221497E-001;-6.023708730936050E-002;4.201197531074286E-003;3.526149957906455E-004;
2.418000000000000E+009;1.728362143039703E-001;-6.067172810435295E-002;3.997254651039839E-003;1.655130763538182E-004;
2.418166666666667E+009;1.717720478773117E-001;-6.073425710201263E-002;4.270175006240606E-003;2.326671674381942E-004;
2.418333333333334E+009;1.708382517099381E-001;-6.132413074374199E-002;4.206322599202395E-003;6.890692020533606E-006;
2.418500000000000E+009;1.695388108491898E-001;-6.171509250998497E-002;4.067596048116684E-003;-9.237420454155654E-005;
2.418666666666667E+009;1.684968620538712E-001;-6.218080222606659E-002;4.128232598304749E-003;-1.450666604796425E-004;
2.418833333333334E+009;1.671615988016129E-001;-6.293649226427078E-002;4.071000963449478E-003;-2.672681002877653E-004;
2.419000000000000E+009;1.657915413379669E-001;-6.343300640583038E-002;4.135040100663900E-003;-3.870824002660811E-004;
2.419166666666667E+009;1.644889861345291E-001;-6.431942433118820E-002;4.116254393011332E-003;-4.293480888009071E-004;
2.419333333333334E+009;1.631105393171310E-001;-6.504747271537781E-002;3.998906817287207E-003;-4.723582242149860E-004;
2.419500000000000E+009;1.619949340820313E-001;-6.600341200828552E-002;3.836107440292835E-003;-6.490816012956202E-004;
2.419666666666667E+009;1.606990247964859E-001;-6.709969788789749E-002;3.865030361339450E-003;-6.182824145071209E-004;
2.419833333333334E+009;1.592894643545151E-001;-6.805894523859024E-002;3.793828189373016E-003;-5.728789838030934E-004;
2.420000000000000E+009;1.582978963851929E-001;-6.924410164356232E-002;3.772285301238298E-003;-7.846091175451875E-004;
2.420166666666667E+009;1.570293158292770E-001;-7.054839283227921E-002;3.806389169767499E-003;-9.066586499102414E-004;
2.420333333333334E+009;1.560208201408386E-001;-7.193181663751602E-002;3.768449416384101E-003;-9.556508157402277E-004;
2.420500000000000E+009;1.551382988691330E-001;-7.314386218786240E-002;3.767777234315872E-003;-1.085826195776463E-003;
2.420666666666667E+009;1.538591384887695E-001;-7.453553378582001E-002;3.652396844699979E-003;-1.186718582175672E-003;
2.420833333333334E+009;1.529118120670319E-001;-7.622921466827393E-002;3.763900604099035E-003;-1.315666944719851E-003;
2.421000000000000E+009;1.521238535642624E-001;-7.788494229316711E-002;3.697843523696065E-003;-1.320169307291508E-003;
2.421166666666667E+009;1.514251530170441E-001;-7.940964400768280E-002;3.655606182292104E-003;-1.550692599266768E-003;
2.421333333333334E+009;1.508418023586273E-001;-8.122693747282028E-002;3.612835193052888E-003;-1.599970972165465E-003;
2.421500000000000E+009;1.501567065715790E-001;-8.285008370876312E-002;3.556848270818591E-003;-1.597496098838747E-003;
2.421666666666667E+009;1.496911793947220E-001;-8.452758938074112E-002;3.511149203404784E-003;-1.618485199287534E-003;
2.421833333333334E+009;1.493438333272934E-001;-8.640959858894348E-002;3.356411121785641E-003;-1.783354440703988E-003;
2.422000000000000E+009;1.491028964519501E-001;-8.817745745182037E-002;3.371420083567500E-003;-1.859742566011846E-003;
2.422166666666667E+009;1.488724648952484E-001;-9.012120217084885E-002;3.333379747346044E-003;-1.887804246507585E-003;
2.422333333333334E+009;1.486653238534927E-001;-9.182412177324295E-002;3.253383329138160E-003;-2.084211679175496E-003;
2.422500000000000E+009;1.486376523971558E-001;-9.348837286233902E-002;3.109498415142298E-003;-2.101950347423554E-003;
2.422666666666667E+009;1.485616266727448E-001;-9.531143307685852E-002;3.117292420938611E-003;-2.052289666607976E-003;
2.422833333333334E+009;1.488242149353027E-001;-9.691309928894043E-002;3.024657955393195E-003;-2.177451504394412E-003;
2.423000000000000E+009;1.491775214672089E-001;-9.872308373451233E-002;3.006776561960578E-003;-2.266015857458115E-003;
2.423166666666667E+009;1.495263874530792E-001;-1.004513055086136E-001;2.868389477953315E-003;-2.117403550073504E-003;
2.423333333333334E+009;1.499113440513611E-001;-1.019096449017525E-001;2.749860519543290E-003;-2.223750110715628E-003;
2.423500000000000E+009;1.501806825399399E-001;-1.034218221902847E-001;2.602062420919538E-003;-2.317734761163592E-003;
2.423666666666667E+009;1.506893336772919E-001;-1.050021126866341E-001;2.501649549230933E-003;-2.411293564364314E-003;
2.423833333333334E+009;1.512740850448608E-001;-1.063290983438492E-001;2.715269802138209E-003;-2.376929158344865E-003;
2.424000000000000E+009;1.515065580606461E-001;-1.075855568051338E-001;2.382511738687754E-003;-2.416964154690504E-003;
2.424166666666667E+009;1.520446687936783E-001;-1.088142096996307E-001;2.515686210244894E-003;-2.519662957638502E-003;
2.424333333333334E+009;1.528337746858597E-001;-1.100775822997093E-001;2.275589620694518E-003;-2.509510377421975E-003;
2.424500000000000E+009;1.533766686916351E-001;-1.111878007650375E-001;2.352974843233824E-003;-2.505746437236667E-003;
2.424666666666667E+009;1.540902405977249E-001;-1.120115071535111E-001;2.097886055707932E-003;-2.580782631412149E-003;
2.424833333333334E+009;1.544373929500580E-001;-1.127819344401360E-001;2.173762535676360E-003;-2.553440863266587E-003;
2.425000000000000E+009;1.551373153924942E-001;-1.137892454862595E-001;2.193452091887593E-003;-2.466295612975955E-003;
2.425166666666667E+009;1.553870886564255E-001;-1.144002750515938E-001;2.108686370775104E-003;-2.464454621076584E-003;
2.425333333333334E+009;1.559153050184250E-001;-1.151312738656998E-001;2.053536707535386E-003;-2.629610477015376E-003;
2.425500000000000E+009;1.563345193862915E-001;-1.158036440610886E-001;1.895656925626099E-003;-2.673695096746087E-003;
2.425666666666667E+009;1.564479470252991E-001;-1.162601262331009E-001;2.011344768106937E-003;-2.714399946853519E-003;
2.425833333333334E+009;1.568271219730377E-001;-1.166344061493874E-001;1.906831865198910E-003;-2.564061433076859E-003;
2.426000000000000E+009;1.571097970008850E-001;-1.171398088335991E-001;1.984533620998263E-003;-2.715846756473184E-003;
2.426166666666667E+009;1.573161631822586E-001;-1.174175366759300E-001;1.757275778800249E-003;-2.716104732826352E-003;
2.426333333333334E+009;1.572081744670868E-001;-1.175870820879936E-001;1.800003927201033E-003;-2.748355502262712E-003;
2.426500000000000E+009;1.572725027799606E-001;-1.177445203065872E-001;1.769416965544224E-003;-2.877533435821533E-003;
2.426666666666667E+009;1.572859585285187E-001;-1.177087351679802E-001;1.777165802195668E-003;-2.910313196480274E-003;
2.426833333333334E+009;1.569470763206482E-001;-1.178517639636993E-001;1.755712670274079E-003;-2.748952480033040E-003;
2.427000000000000E+009;1.565008908510208E-001;-1.180087774991989E-001;1.656268606893718E-003;-2.720541786402464E-003;
2.427166666666667E+009;1.561539471149445E-001;-1.179381757974625E-001;1.666634692810476E-003;-2.868438605219126E-003;
2.427333333333334E+009;1.554657667875290E-001;-1.179960668087006E-001;1.425875234417617E-003;-2.926781075075269E-003;
2.427500000000000E+009;1.550357490777969E-001;-1.180050000548363E-001;1.701976754702628E-003;-3.076262306421995E-003;
2.427666666666667E+009;1.541463881731033E-001;-1.181166842579842E-001;1.532021444290876E-003;-3.136975690722466E-003;
2.427833333333334E+009;1.531948000192642E-001;-1.181781142950058E-001;1.394805149175227E-003;-3.098093206062913E-003;
