# Version 1.00
#
freq[Hz];re:Trc1_S11;im:Trc1_S11;re:Trc2_S21;im:Trc2_S21;
2.400000000000000E+009;1.581351757049561E-001;6.250519305467606E-002;-1.701470697298646E-003;4.391802009195089E-003;
2.400166666666667E+009;1.580141335725784E-001;6.076685339212418E-002;-1.729296171106398E-003;4.587590694427490E-003;
2.400333333333334E+009;1.578784883022308E-001;5.882773548364639E-002;-1.406371011398733E-003;4.686638712882996E-003;
2.400500000000000E+009;1.578287333250046E-001;5.710002034902573E-002;-1.346213510259986E-003;4.445710219442844E-003;
2.400666666666667E+009;1.576279848814011E-001;5.508818477392197E-002;-1.022200449369848E-003;4.652705974876881E-003;
2.400833333333334E+009;1.578465551137924E-001;5.320275947451592E-002;-9.027089690789580E-004;4.632413387298584E-003;
2.401000000000000E+009;1.577921509742737E-001;5.113341286778450E-002;-7.398289744742215E-004;4.772428888827562E-003;
2.401166666666667E+009;1.580672562122345E-001;4.899746179580689E-002;-5.711090634576976E-004;4.717153962701559E-003;
2.401333333333334E+009;1.581227332353592E-001;4.699847102165222E-002;-4.678373225033283E-004;4.722702316939831E-003;
2.401500000000000E+009;1.584756821393967E-001;4.482752084732056E-002;-2.187275094911456E-004;4.718631505966187E-003;
2.401666666666667E+009;1.587076634168625E-001;4.297523200511932E-002;-2.087290158669930E-005;4.742018878459930E-003;
2.401833333333334E+009;1.591499149799347E-001;4.058457165956497E-002;-8.538422662240919E-006;4.845229443162680E-003;
2.402000000000000E+009;1.594606637954712E-001;3.885970637202263E-002;1.546142884762958E-004;4.634840879589319E-003;
2.402166666666667E+009;1.600101739168167E-001;3.687189891934395E-002;3.893598332069814E-004;4.559817258268595E-003;
2.402333333333334E+009;1.606105715036392E-001;3.479659929871559E-002;6.471177912317216E-004;4.641126841306686E-003;
2.402500000000000E+009;1.612963378429413E-001;3.307472541928291E-002;7.973726605996490E-004;4.594011697918177E-003;
2.402666666666667E+009;1.619694977998734E-001;3.142628446221352E-002;9.340768447145820E-004;4.663585685193539E-003;
2.402833333333334E+009;1.628042310476303E-001;2.961138263344765E-002;1.135785016231239E-003;4.562863614410162E-003;
2.403000000000000E+009;1.636012345552445E-001;2.805708348751068E-002;1.339061651378870E-003;4.489096347242594E-003;
2.403166666666667E+009;1.643784046173096E-001;2.652447298169136E-002;1.485999790020287E-003;4.562880378216505E-003;
2.403333333333334E+009;1.654182225465775E-001;2.511009573936462E-002;1.603692304342985E-003;4.472116474062204E-003;
2.403500000000000E+009;1.660859584808350E-001;2.362276799976826E-002;1.893564010970295E-003;4.284807015210390E-003;
2.403666666666667E+009;1.671799421310425E-001;2.224806882441044E-002;1.897000591270626E-003;4.306935705244541E-003;
2.403833333333334E+009;1.679748147726059E-001;2.087910287082195E-002;2.214692998677492E-003;4.096325952559710E-003;
2.404000000000000E+009;1.692956686019898E-001;1.974096335470676E-002;2.425599843263626E-003;4.096775781363249E-003;
2.404166666666667E+009;1.701279729604721E-001;1.859610155224800E-002;2.580909989774227E-003;3.904006909579039E-003;
2.404333333333334E+009;1.713297218084335E-001;1.770423538982868E-002;2.723701763898134E-003;3.798462916165590E-003;
2.404500000000000E+009;1.719635277986527E-001;1.648371480405331E-002;2.850829157978296E-003;3.702702233567834E-003;
2.404666666666667E+009;1.731323748826981E-001;1.581768319010735E-002;2.934833290055394E-003;3.657373366877437E-003;
2.404833333333334E+009;1.739066243171692E-001;1.494105905294418E-002;3.086376702412963E-003;3.406429430469871E-003;
2.405000000000000E+009;1.749169081449509E-001;1.413796469569206E-002;3.032580018043518E-003;3.359980881214142E-003;
2.405166666666667E+009;1.757522970438004E-001;1.348255574703217E-002;3.229282330721617E-003;3.248397959396243E-003;
2.405333333333334E+009;1.765753775835037E-001;1.284036692231894E-002;3.486316883936524E-003;3.067536279559135E-003;
2.405500000000000E+009;1.774333715438843E-001;1.252823136746883E-002;3.489969996735454E-003;2.801008289679885E-003;
2.405666666666667E+009;1.781677901744843E-001;1.219171471893787E-002;3.607610473409295E-003;2.888445742428303E-003;
2.405833333333334E+009;1.784459650516510E-001;1.174593716859818E-002;3.532751696184278E-003;2.644459716975689E-003;
2.406000000000000E+009;1.791742742061615E-001;1.126958616077900E-002;3.597497241571546E-003;2.442221157252789E-003;
2.406166666666667E+009;1.795745193958283E-001;1.109410356730223E-002;3.860271768644452E-003;2.322539454326034E-003;
2.406333333333334E+009;1.801787316799164E-001;1.071629021316767E-002;4.001932684332132E-003;2.172480802983046E-003;
2.406500000000000E+009;1.803697347640991E-001;1.031852886080742E-002;3.982290159910917E-003;2.049024216830730E-003;
2.406666666666667E+009;1.804615706205368E-001;1.018379908055067E-002;4.176539368927479E-003;1.905393204651773E-003;
2.406833333333334E+009;1.807513684034348E-001;9.779226034879684E-003;4.013916011899710E-003;1.887443359009922E-003;
2.407000000000000E+009;1.809460371732712E-001;9.368314407765865E-003;4.138344433158636E-003;1.694152480922639E-003;
2.407166666666667E+009;1.809431910514832E-001;9.118236601352692E-003;4.136363044381142E-003;1.479433500207961E-003;
2.407333333333334E+009;1.808381974697113E-001;8.628096431493759E-003;4.215170629322529E-003;1.483506639488041E-003;
2.407500000000000E+009;1.806653738021851E-001;8.374863304197788E-003;4.136263858526945E-003;1.181070343591273E-003;
2.407666666666667E+009;1.805914938449860E-001;7.953671738505364E-003;4.331789910793304E-003;1.038500457070768E-003;
2.407833333333334E+009;1.800673156976700E-001;7.299210410565138E-003;4.355304874479771E-003;9.604751830920577E-004;
2.408000000000000E+009;1.797771751880646E-001;6.644006352871656E-003;4.255872219800949E-003;8.002705289982259E-004;
2.408166666666667E+009;1.793353855609894E-001;6.104149855673313E-003;4.282915499061346E-003;4.774086119141430E-004;
2.408333333333334E+009;1.790475249290466E-001;5.436684470623732E-003;4.310043528676033E-003;4.699704295489937E-004;
2.408500000000000E+009;1.785063594579697E-001;4.620486404746771E-003;4.476254340261221E-003;3.601175849325955E-004;
2.408666666666667E+009;1.778910756111145E-001;3.620344912633300E-003;4.415730945765972E-003;4.974331022822298E-005;
2.408833333333334E+009;1.771857589483261E-001;2.714130561798811E-003;4.245772957801819E-003;-1.183605272672139E-004;
2.409000000000000E+009;1.765952557325363E-001;1.510099158622325E-003;4.208052996546030E-003;-2.259466709801927E-004;
2.409166666666667E+009;1.757985800504684E-001;5.442817928269506E-004;4.297619685530663E-003;-2.841327805072069E-004;
2.409333333333334E+009;1.752839237451553E-001;-8.434693445451558E-004;4.261894151568413E-003;-4.814195272047073E-004;
2.409500000000000E+009;1.746262907981873E-001;-2.130491193383932E-003;4.225879907608032E-003;-6.255377666093409E-004;
2.409666666666667E+009;1.738093048334122E-001;-3.553167218342423E-003;4.165307618677616E-003;-8.204471087083221E-004;
2.409833333333334E+009;1.729377210140228E-001;-4.896563943475485E-003;4.092040006071329E-003;-8.198683499358594E-004;
2.410000000000000E+009;1.725177466869354E-001;-6.569884717464447E-003;4.096467513591051E-003;-9.807462338358164E-004;
2.410166666666667E+009;1.719028800725937E-001;-8.003502152860165E-003;3.986653871834278E-003;-1.146614784374833E-003;
2.410333333333334E+009;1.712499111890793E-001;-9.626649320125580E-003;4.061524290591478E-003;-1.289815874770284E-003;
2.410500000000000E+009;1.706972718238831E-001;-1.141043752431870E-002;4.023601301014423E-003;-1.575055299326778E-003;
2.410666666666667E+009;1.700645834207535E-001;-1.343096420168877E-002;3.983800765126944E-003;-1.583324163220823E-003;
2.410833333333334E+009;1.696103513240814E-001;-1.490119472146034E-002;3.835887880995870E-003;-1.837222836911678E-003;
2.411000000000000E+009;1.693427562713623E-001;-1.702268980443478E-002;3.743076929822564E-003;-1.787625602446497E-003;
2.411166666666667E+009;1.689778417348862E-001;-1.896389946341515E-002;3.680490190163255E-003;-2.013104734942317E-003;
2.411333333333334E+009;1.686247736215591E-001;-2.076582238078117E-002;3.588467370718718E-003;-2.096053911373019E-003;
2.411500000000000E+009;1.682394444942474E-001;-2.299986965954304E-002;3.564570797607303E-003;-2.199985086917877E-003;
2.411666666666667E+009;1.682384610176086E-001;-2.480128966271877E-002;3.371197963133454E-003;-2.514777705073357E-003;
2.411833333333334E+009;1.682767421007156E-001;-2.677417919039726E-002;3.152137389406562E-003;-2.555071143433452E-003;
2.412000000000000E+009;1.682613343000412E-001;-2.876715548336506E-002;3.194392658770084E-003;-2.703611971810460E-003;
2.412166666666667E+009;1.682787984609604E-001;-3.085875324904919E-002;3.036021953448653E-003;-2.854913938790560E-003;
2.412333333333334E+009;1.684962809085846E-001;-3.278977423906326E-002;2.949123037979007E-003;-2.902150386944413E-003;
2.412500000000000E+009;1.685153245925903E-001;-3.460260853171349E-002;2.908949507400394E-003;-2.962779253721237E-003;
2.412666666666667E+009;1.689583659172058E-001;-3.666701912879944E-002;2.682168502360582E-003;-3.150988137349486E-003;
2.412833333333334E+009;1.692592501640320E-001;-3.855876997113228E-002;2.507206052541733E-003;-3.217742079868913E-003;
2.413000000000000E+009;1.695237308740616E-001;-4.033378884196281E-002;2.492957748472691E-003;-3.220562357455492E-003;
2.413166666666667E+009;1.698384433984757E-001;-4.202773422002792E-002;2.241484122350812E-003;-3.363171126693487E-003;
2.413333333333334E+009;1.703927665948868E-001;-4.367945343255997E-002;1.971198245882988E-003;-3.643753239884973E-003;
2.413500000000000E+009;1.709287911653519E-001;-4.536696523427963E-002;1.808509696274996E-003;-3.634142922237515E-003;
2.413666666666667E+009;1.713735610246658E-001;-4.691186547279358E-002;1.777486759237945E-003;-3.550669876858592E-003;
2.413833333333334E+009;1.717639714479446E-001;-4.838689044117928E-002;1.628114026971161E-003;-3.639897797256708E-003;
2.414000000000000E+009;1.724091768264771E-001;-4.992914199829102E-002;1.327100326307118E-003;-3.627117490395904E-003;
2.414166666666667E+009;1.730853021144867E-001;-5.106239765882492E-002;1.228932873345912E-003;-3.757696133106947E-003;
2.414333333333334E+009;1.735522449016571E-001;-5.233320966362953E-002;1.102729234844446E-003;-3.744717221707106E-003;
2.414500000000000E+009;1.740566045045853E-001;-5.346073955297470E-002;7.626304286532104E-004;-4.014437552541494E-003;
2.414666666666667E+009;1.744775325059891E-001;-5.434313043951988E-002;8.295362349599600E-004;-3.760483581572771E-003;
2.414833333333334E+009;1.750077307224274E-001;-5.530076473951340E-002;4.717683186754584E-004;-3.732005832716823E-003;
2.415000000000000E+009;1.754584014415741E-001;-5.623468756675720E-002;2.174694964196533E-004;-3.652225481346250E-003;
2.415166666666667E+009;1.759656816720963E-001;-5.705106258392334E-002;9.985713404603303E-005;-3.700389061123133E-003;
2.415333333333334E+009;1.763918101787567E-001;-5.767142400145531E-002;-1.293589593842626E-004;-3.709267592057586E-003;
2.415500000000000E+009;1.768427193164825E-001;-5.820022895932198E-002;-2.576407568994910E-004;-3.600093768909574E-003;
2.415666666666667E+009;1.770355999469757E-001;-5.871888995170593E-002;-3.680807712953538E-004;-3.431845922023058E-003;
2.415833333333334E+009;1.773332357406616E-001;-5.919210612773895E-002;-5.084307631477714E-004;-3.485596505925059E-003;
2.416000000000000E+009;1.773062050342560E-001;-5.969293043017387E-002;-6.777756498195231E-004;-3.199758473783732E-003;
2.416166666666667E+009;1.775159388780594E-001;-6.003683805465698E-002;-6.391130737029016E-004;-3.274841699749231E-003;
2.416333333333334E+009;1.776025146245956E-001;-6.020771339535713E-002;-8.848533616401255E-004;-3.043453674763441E-003;
2.416500000000000E+009;1.774442940950394E-001;-6.065666303038597E-002;-1.040037139318883E-003;-2.954568481072784E-003;
2.416666666666667E+009;1.772807389497757E-001;-6.075743958353996E-002;-1.019416144117713E-003;-3.069257363677025E-003;
2.416833333333334E+009;1.771216541528702E-001;-6.110337749123573E-002;-1.173143624328077E-003;-2.817241009324789E-003;
2.417000000000000E+009;1.765691787004471E-001;-6.119889765977860E-002;-1.132366480305791E-003;-2.612141892313957E-003;
2.417166666666667E+009;1.761622726917267E-001;-6.130949035286903E-002;-1.353144529275596E-003;-2.665545092895627E-003;
2.417333333333334E+009;1.756912618875504E-001;-6.149557605385780E-002;-1.430609147064388E-003;-2.603710861876607E-003;
2.417500000000000E+009;1.749392896890640E-001;-6.191817671060562E-002;-1.522363978438079E-003;-2.471445361152291E-003;
2.417666666666667E+009;1.744817346334457E-001;-6.184807792305946E-002;-1.341402181424201E-003;-2.454150468111038E-003;
2.417833333333334E+009;1.736012250185013E-001;-6.206070631742477E-002;-1.378665212541819E-003;-2.203458221629262E-003;
2.418000000000000E+009;1.727524101734161E-001;-6.253325939178467E-002;-1.553321373648942E-003;-2.216584747657180E-003;
2.418166666666667E+009;1.717532575130463E-001;-6.264923512935638E-002;-1.790686626918614E-003;-2.173360902816057E-003;
2.418333333333334E+009;1.710600554943085E-001;-6.314677745103836E-002;-1.583471894264221E-003;-1.938807545229793E-003;
2.418500000000000E+009;1.698811650276184E-001;-6.341058760881424E-002;-1.715743099339306E-003;-1.857612980529666E-003;
2.418666666666667E+009;1.689276695251465E-001;-6.399223953485489E-002;-1.520190853625536E-003;-1.914079068228602E-003;
2.418833333333334E+009;1.677037775516510E-001;-6.444714218378067E-002;-1.694454811513424E-003;-1.921619288623333E-003;
2.419000000000000E+009;1.664478480815888E-001;-6.496378779411316E-002;-1.618565991520882E-003;-1.732560689561069E-003;
2.419166666666667E+009;1.652906984090805E-001;-6.560597568750382E-002;-1.587595324963331E-003;-1.669012242928147E-003;
2.419333333333334E+009;1.639097034931183E-001;-6.609907001256943E-002;-1.632158760912716E-003;-1.627800636924803E-003;
2.419500000000000E+009;1.627819836139679E-001;-6.713126599788666E-002;-1.635106978937984E-003;-1.535432180389762E-003;
2.419666666666667E+009;1.617461889982224E-001;-6.813259422779083E-002;-1.752235577441752E-003;-1.446546986699104E-003;
2.419833333333334E+009;1.604229658842087E-001;-6.888412684202194E-002;-1.752846175804734E-003;-1.391105586662889E-003;
2.420000000000000E+009;1.593806296586990E-001;-7.004283368587494E-002;-1.743083703331649E-003;-1.258731004782021E-003;
2.420166666666667E+009;1.581498682498932E-001;-7.106993347406387E-002;-1.664011273533106E-003;-1.203969935886562E-003;
2.420333333333334E+009;1.571427881717682E-001;-7.238385081291199E-002;-1.845216844230890E-003;-1.092040329240263E-003;
2.420500000000000E+009;1.563513725996018E-001;-7.351837307214737E-002;-1.899276510812342E-003;-1.107507850974798E-003;
2.420666666666667E+009;1.551001369953156E-001;-7.472243905067444E-002;-1.762574771419168E-003;-1.090339617803693E-003;
2.420833333333334E+009;1.541906446218491E-001;-7.621701806783676E-002;-1.870776526629925E-003;-1.025738543830812E-003;
2.421000000000000E+009;1.533192694187164E-001;-7.775638252496719E-002;-1.857451163232327E-003;-1.053064712323248E-003;
2.421166666666667E+009;1.526678502559662E-001;-7.922526448965073E-002;-1.953489147126675E-003;-9.410845232196152E-004;
2.421333333333334E+009;1.518588066101074E-001;-8.080390840768814E-002;-1.786386594176292E-003;-9.730834863148630E-004;
2.421500000000000E+009;1.511117368936539E-001;-8.228594809770584E-002;-1.834516762755811E-003;-8.605790208093822E-004;
2.421666666666667E+009;1.506954133510590E-001;-8.418852835893631E-002;-1.841953722760081E-003;-6.162349018268287E-004;
2.421833333333334E+009;1.503063738346100E-001;-8.567417412996292E-002;-1.784172724001110E-003;-7.576171192340553E-004;
2.422000000000000E+009;1.499094814062119E-001;-8.734421432018280E-002;-1.841286430135369E-003;-4.710045759566128E-004;
2.422166666666667E+009;1.494972109794617E-001;-8.929652720689774E-002;-1.949942787177861E-003;-4.941227962262929E-004;
2.422333333333334E+009;1.494451761245728E-001;-9.076088666915894E-002;-2.003696281462908E-003;-5.094619700685144E-004;
2.422500000000000E+009;1.492240875959396E-001;-9.257817268371582E-002;-1.875599496997893E-003;-4.261666617821902E-004;
2.422666666666667E+009;1.492156535387039E-001;-9.435162693262100E-002;-1.891260617412627E-003;-5.044598365202546E-004;
2.422833333333334E+009;1.492711007595062E-001;-9.625533223152161E-002;-1.961945788934827E-003;-1.957245694939047E-004;
2.423000000000000E+009;1.491898894309998E-001;-9.782367199659348E-002;-2.018975792452693E-003;-1.883743680082262E-004;
2.423166666666667E+009;1.495441496372223E-001;-9.956141561269760E-002;-1.929193967953324E-003;-1.550308115838561E-005;
2.423333333333334E+009;1.499774008989334E-001;-1.011050716042519E-001;-2.007425995543599E-003;-1.258164847968146E-004;
2.423500000000000E+009;1.502530723810196E-001;-1.026813238859177E-001;-1.764102489687502E-003;-5.585200415225700E-005;
2.423666666666667E+009;1.504210531711578E-001;-1.044261828064919E-001;-1.754468888975680E-003;1.215289084939286E-004;
2.423833333333334E+009;1.509179919958115E-001;-1.056428328156471E-001;-1.815880415961146E-003;2.294667356181890E-004;
2.424000000000000E+009;1.513669788837433E-001;-1.069544553756714E-001;-1.794628915376961E-003;3.447793715167791E-004;
2.424166666666667E+009;1.516845226287842E-001;-1.084202378988266E-001;-1.742895692586899E-003;3.697352367453277E-004;
2.424333333333334E+009;1.522793620824814E-001;-1.095769777894020E-001;-1.593014341779053E-003;4.391763941384852E-004;
2.424500000000000E+009;1.526148617267609E-001;-1.108702495694161E-001;-1.683714683167636E-003;5.489123286679387E-004;
2.424666666666667E+009;1.533157229423523E-001;-1.117427200078964E-001;-1.565735321491957E-003;4.726021434180439E-004;
2.424833333333334E+009;1.537263989448547E-001;-1.127608120441437E-001;-1.356846769340336E-003;6.126596708782017E-004;
2.425000000000000E+009;1.541302502155304E-001;-1.137999817728996E-001;-1.546272076666355E-003;6.793303182348609E-004;
2.425166666666667E+009;1.544476896524429E-001;-1.146661713719368E-001;-1.399331260472536E-003;7.902703364379704E-004;
2.425333333333334E+009;1.549216061830521E-001;-1.154391616582871E-001;-1.098859123885632E-003;8.132418734021485E-004;
2.425500000000000E+009;1.553549021482468E-001;-1.160968393087387E-001;-1.009255647659302E-003;1.033861073665321E-003;
2.425666666666667E+009;1.555441468954086E-001;-1.167597621679306E-001;-1.006106496788561E-003;8.466747822239995E-004;
2.425833333333334E+009;1.558104306459427E-001;-1.172070056200028E-001;-8.557234541513026E-004;9.264692198485136E-004;
2.426000000000000E+009;1.560837477445602E-001;-1.178578138351440E-001;-8.584000170230866E-004;8.487050072290003E-004;
2.426166666666667E+009;1.563916653394699E-001;-1.181020364165306E-001;-7.819596794433892E-004;1.134951831772924E-003;
2.426333333333334E+009;1.562519818544388E-001;-1.185144111514092E-001;-5.310429260134697E-004;1.086601172573865E-003;
2.426500000000000E+009;1.563435941934586E-001;-1.187145560979843E-001;-4.499241476878524E-004;1.017941744066775E-003;
2.426666666666667E+009;1.564038693904877E-001;-1.188467144966126E-001;-3.503962652757764E-004;1.077040331438184E-003;
2.426833333333334E+009;1.562053859233856E-001;-1.189794018864632E-001;-3.190618008375168E-004;9.448330383747816E-004;
2.427000000000000E+009;1.559472382068634E-001;-1.192162483930588E-001;-3.200014471076429E-004;8.222915930673480E-004;
2.427166666666667E+009;1.556006222963333E-001;-1.192141547799110E-001;-5.165991751709953E-005;6.925016641616821E-004;
2.427333333333334E+009;1.551181823015213E-001;-1.193786785006523E-001;1.520096134299820E-006;5.880972021259368E-004;
2.427500000000000E+009;1.547235846519470E-001;-1.194015815854073E-001;1.286554033868015E-004;7.098015048541129E-004;
2.427666666666667E+009;1.539888083934784E-001;-1.194863021373749E-001;2.518691180739552E-004;4.917321493849158E-004;
