# Version 1.00
#
freq[Hz];re:Trc1_S11;im:Trc1_S11;re:Trc2_S21;im:Trc2_S21;
2.400000000000000E+009;1.581573635339737E-001;6.225190684199333E-002;-1.693898346275091E-003;4.614801611751318E-003;
2.400166666666667E+009;1.581277847290039E-001;6.067078188061714E-002;-1.536198658868671E-003;4.671256989240646E-003;
2.400333333333334E+009;1.580113917589188E-001;5.868152156472206E-002;-1.308285747654736E-003;4.589852876961231E-003;
2.400500000000000E+009;1.578220129013062E-001;5.674837902188301E-002;-1.139843137934804E-003;4.743190482258797E-003;
2.400666666666667E+009;1.578129529953003E-001;5.464098602533341E-002;-8.916228543967009E-004;4.689311143010855E-003;
2.400833333333334E+009;1.578639894723892E-001;5.284861847758293E-002;-8.847588906064630E-004;4.747700411826372E-003;
2.401000000000000E+009;1.578944623470306E-001;5.086366832256317E-002;-7.238486432470381E-004;4.879432264715433E-003;
2.401166666666667E+009;1.579596102237701E-001;4.886018112301827E-002;-5.024205311201513E-004;4.785107448697090E-003;
2.401333333333334E+009;1.581758707761765E-001;4.664234817028046E-002;-2.755940367933363E-004;4.883694462478161E-003;
2.401500000000000E+009;1.583810448646545E-001;4.474596679210663E-002;-1.770921662682667E-004;4.977807402610779E-003;
2.401666666666667E+009;1.587748825550079E-001;4.259826242923737E-002;2.670670983206946E-005;4.835548810660839E-003;
2.401833333333334E+009;1.591187417507172E-001;4.063109308481216E-002;1.445298839826137E-004;4.886138718575239E-003;
2.402000000000000E+009;1.594434976577759E-001;3.879216685891151E-002;2.397860225755721E-004;4.932353738695383E-003;
2.402166666666667E+009;1.600468903779984E-001;3.672112151980400E-002;4.683362785726786E-004;4.797443747520447E-003;
2.402333333333334E+009;1.604933142662048E-001;3.476922959089279E-002;7.787896902300417E-004;4.814635030925274E-003;
2.402500000000000E+009;1.612223684787750E-001;3.302387148141861E-002;9.439761051908135E-004;4.695076495409012E-003;
2.402666666666667E+009;1.618866622447968E-001;3.140389546751976E-002;9.912949753925204E-004;4.695452749729157E-003;
2.402833333333334E+009;1.626539081335068E-001;2.958222478628159E-002;1.245684106834233E-003;4.674164112657309E-003;
2.403000000000000E+009;1.635863333940506E-001;2.798273414373398E-002;1.449027564376593E-003;4.632538184523583E-003;
2.403166666666667E+009;1.642877161502838E-001;2.625775337219238E-002;1.544814906083047E-003;4.468950442969799E-003;
2.403333333333334E+009;1.651979088783264E-001;2.497930452227593E-002;1.743213855661452E-003;4.674374591559172E-003;
2.403500000000000E+009;1.660920530557632E-001;2.351924963295460E-002;1.937325578182936E-003;4.401879850775003E-003;
2.403666666666667E+009;1.671059280633926E-001;2.198381163179874E-002;2.140898490324616E-003;4.397328943014145E-003;
2.403833333333334E+009;1.682040989398956E-001;2.084013447165489E-002;2.410465851426125E-003;4.215373657643795E-003;
2.404000000000000E+009;1.691852957010269E-001;1.978050917387009E-002;2.440153388306499E-003;4.234755877405405E-003;
2.404166666666667E+009;1.700656712055206E-001;1.857939735054970E-002;2.639350481331348E-003;4.038688726723194E-003;
2.404333333333334E+009;1.711744368076325E-001;1.756309717893601E-002;2.810951322317123E-003;3.974526189267635E-003;
2.404500000000000E+009;1.719700396060944E-001;1.655373722314835E-002;2.808476565405726E-003;3.825159044936299E-003;
2.404666666666667E+009;1.730423122644424E-001;1.575272344052792E-002;3.066805656999350E-003;3.778319340199232E-003;
2.404833333333334E+009;1.738452166318893E-001;1.501424890011549E-002;3.289861837401986E-003;3.430959768593311E-003;
2.405000000000000E+009;1.747461706399918E-001;1.426691561937332E-002;3.369850805029273E-003;3.291661851108074E-003;
2.405166666666667E+009;1.757234930992127E-001;1.352074649184942E-002;3.410122822970152E-003;3.134837141260505E-003;
2.405333333333334E+009;1.765822023153305E-001;1.295761484652758E-002;3.495241049677134E-003;3.109510056674480E-003;
2.405500000000000E+009;1.771335303783417E-001;1.236642990261316E-002;3.630106337368488E-003;2.988393185660243E-003;
2.405666666666667E+009;1.779320240020752E-001;1.193389669060707E-002;3.773738164454699E-003;2.660503378137946E-003;
2.405833333333334E+009;1.784594506025314E-001;1.165280770510435E-002;3.754970384761691E-003;2.801173832267523E-003;
2.406000000000000E+009;1.792152374982834E-001;1.125398464500904E-002;3.915170673280954E-003;2.666183048859239E-003;
2.406166666666667E+009;1.795114874839783E-001;1.099996175616980E-002;4.015993792563677E-003;2.344387583434582E-003;
2.406333333333334E+009;1.800605952739716E-001;1.067545264959335E-002;4.040188156068325E-003;2.236843574792147E-003;
2.406500000000000E+009;1.802875548601151E-001;1.033771410584450E-002;4.207421559840441E-003;2.112897578626871E-003;
2.406666666666667E+009;1.804683357477188E-001;9.977561421692371E-003;4.152393899857998E-003;1.843715202994645E-003;
2.406833333333334E+009;1.806533932685852E-001;9.753079153597355E-003;4.295855294913054E-003;1.912631909362972E-003;
2.407000000000000E+009;1.807134300470352E-001;9.294694289565086E-003;4.280521068722010E-003;1.598585979081690E-003;
2.407166666666667E+009;1.809353530406952E-001;9.140238165855408E-003;4.421822261065245E-003;1.601009862497449E-003;
2.407333333333334E+009;1.806833893060684E-001;8.685365319252014E-003;4.372618626803160E-003;1.378815271891654E-003;
2.407500000000000E+009;1.805243343114853E-001;8.261553011834621E-003;4.246341064572334E-003;1.257768832147121E-003;
2.407666666666667E+009;1.803694367408752E-001;7.907693274319172E-003;4.507170990109444E-003;9.371976484544575E-004;
2.407833333333334E+009;1.798541396856308E-001;7.222512736916542E-003;4.344906657934189E-003;8.849581936374307E-004;
2.408000000000000E+009;1.795362979173660E-001;6.673693656921387E-003;4.424287006258965E-003;6.738679949194193E-004;
2.408166666666667E+009;1.791104823350906E-001;6.095208227634430E-003;4.575224127620459E-003;6.615164456889033E-004;
2.408333333333334E+009;1.789132952690125E-001;5.448554642498493E-003;4.523246549069881E-003;2.938491525128484E-004;
2.408500000000000E+009;1.783152520656586E-001;4.523918032646179E-003;4.492427222430706E-003;2.711243869271129E-004;
2.408666666666667E+009;1.777420639991760E-001;3.556915791705251E-003;4.503042437136173E-003;7.642452692380175E-005;
2.408833333333334E+009;1.769373416900635E-001;2.784640295431018E-003;4.468234721571207E-003;-1.286789629375562E-004;
2.409000000000000E+009;1.762841790914536E-001;1.765112509019673E-003;4.339409526437521E-003;-3.974977589678019E-004;
2.409166666666667E+009;1.757904738187790E-001;6.561847985722125E-004;4.371383693069220E-003;-4.296987608540803E-004;
2.409333333333334E+009;1.751568615436554E-001;-6.391461938619614E-004;4.340017680078745E-003;-6.152293062768877E-004;
2.409500000000000E+009;1.743995249271393E-001;-2.029521623626351E-003;4.213884938508272E-003;-7.175038335844874E-004;
2.409666666666667E+009;1.735932230949402E-001;-3.346399404108524E-003;4.284291993826628E-003;-8.740382618270814E-004;
2.409833333333334E+009;1.729808598756790E-001;-4.889328498393297E-003;4.316559527069330E-003;-1.013509114272893E-003;
2.410000000000000E+009;1.723163127899170E-001;-6.419060286134481E-003;4.215400665998459E-003;-1.182162668555975E-003;
2.410166666666667E+009;1.716648340225220E-001;-7.943318225443363E-003;4.160316661000252E-003;-1.356334774754942E-003;
2.410333333333334E+009;1.710640192031860E-001;-9.587496519088745E-003;4.165456630289555E-003;-1.455764519050717E-003;
2.410500000000000E+009;1.705637574195862E-001;-1.134578045457602E-002;4.036663565784693E-003;-1.700463122688234E-003;
2.410666666666667E+009;1.699568480253220E-001;-1.326960790902376E-002;4.007860086858273E-003;-1.860370626673102E-003;
2.410833333333334E+009;1.697372347116470E-001;-1.498315483331680E-002;3.885935759171844E-003;-1.805431442335248E-003;
2.411000000000000E+009;1.690683513879776E-001;-1.683930121362209E-002;3.848263295367360E-003;-2.043297747150064E-003;
2.411166666666667E+009;1.687603443861008E-001;-1.891653053462505E-002;3.771109273657203E-003;-2.092561451718211E-003;
2.411333333333334E+009;1.684859842061997E-001;-2.073710598051548E-002;3.653786145150662E-003;-2.141497796401382E-003;
2.411500000000000E+009;1.683445274829865E-001;-2.263738214969635E-002;3.643007250502706E-003;-2.528396435081959E-003;
2.411666666666667E+009;1.681667268276215E-001;-2.468307688832283E-002;3.561341902241111E-003;-2.623359439894557E-003;
2.411833333333334E+009;1.679458022117615E-001;-2.659959346055985E-002;3.277694340795279E-003;-2.686652820557356E-003;
2.412000000000000E+009;1.682472079992294E-001;-2.864686772227287E-002;3.301863092929125E-003;-2.814177889376879E-003;
2.412166666666667E+009;1.681825071573257E-001;-3.062293678522110E-002;3.083919407799840E-003;-2.927668625488877E-003;
2.412333333333334E+009;1.686306297779083E-001;-3.261559829115868E-002;2.877864986658096E-003;-2.994616515934467E-003;
2.412500000000000E+009;1.686745285987854E-001;-3.449153155088425E-002;2.874854253605008E-003;-3.160075517371297E-003;
2.412666666666667E+009;1.689045131206513E-001;-3.652354329824448E-002;2.795605687424541E-003;-3.239452606067061E-003;
2.412833333333334E+009;1.691596508026123E-001;-3.837566450238228E-002;2.434968249872327E-003;-3.308339975774288E-003;
2.413000000000000E+009;1.696157157421112E-001;-4.030218347907066E-002;2.333103679120541E-003;-3.447293536737561E-003;
2.413166666666667E+009;1.699663400650024E-001;-4.189201071858406E-002;2.346810186281800E-003;-3.579228185117245E-003;
2.413333333333334E+009;1.704733669757843E-001;-4.350276663899422E-002;2.112019574269652E-003;-3.764671040698886E-003;
2.413500000000000E+009;1.708421558141708E-001;-4.515485092997551E-002;1.957546919584274E-003;-3.733804915100336E-003;
2.413666666666667E+009;1.714855879545212E-001;-4.681164026260376E-002;1.736497855745256E-003;-3.700120840221643E-003;
2.413833333333334E+009;1.720350682735443E-001;-4.827086627483368E-002;1.530473702587187E-003;-3.884119680151343E-003;
2.414000000000000E+009;1.724743545055389E-001;-4.968295246362686E-002;1.364751253277063E-003;-3.947185352444649E-003;
2.414166666666667E+009;1.730930358171463E-001;-5.091285333037376E-002;1.239603967405856E-003;-3.841832978650928E-003;
2.414333333333334E+009;1.735540479421616E-001;-5.224403738975525E-002;9.874077513813973E-004;-3.918777219951153E-003;
2.414500000000000E+009;1.743727624416351E-001;-5.329501256346703E-002;8.554717060178518E-004;-3.915754146873951E-003;
2.414666666666667E+009;1.746435016393662E-001;-5.440967902541161E-002;7.007175008766353E-004;-3.922684583812952E-003;
2.414833333333334E+009;1.751874983310700E-001;-5.538652464747429E-002;4.978534998372197E-004;-3.896434325724840E-003;
2.415000000000000E+009;1.755814105272293E-001;-5.618237331509590E-002;1.935517211677507E-004;-3.893552580848336E-003;
2.415166666666667E+009;1.760036051273346E-001;-5.691341683268547E-002;1.232919603353366E-004;-3.903630189597607E-003;
2.415333333333334E+009;1.765444576740265E-001;-5.766370147466660E-002;-8.749932749196887E-005;-3.655150299891830E-003;
2.415500000000000E+009;1.768819093704224E-001;-5.826355144381523E-002;-2.144992322428152E-004;-3.792804433032870E-003;
2.415666666666667E+009;1.771678030490875E-001;-5.871435627341270E-002;-3.894172550644726E-004;-3.720619017258287E-003;
2.415833333333334E+009;1.774385869503021E-001;-5.926053598523140E-002;-4.123496764805168E-004;-3.611203050240874E-003;
2.416000000000000E+009;1.773745566606522E-001;-5.965800583362579E-002;-7.038252078928053E-004;-3.620379138737917E-003;
2.416166666666667E+009;1.776335835456848E-001;-6.002458930015564E-002;-6.793345673941076E-004;-3.365290351212025E-003;
2.416333333333334E+009;1.776152104139328E-001;-6.029652804136276E-002;-9.462103480473161E-004;-3.296721493825316E-003;
2.416500000000000E+009;1.775117665529251E-001;-6.065040454268456E-002;-1.023664954118431E-003;-3.213363932445645E-003;
2.416666666666667E+009;1.773009151220322E-001;-6.075595691800118E-002;-1.020845607854426E-003;-3.140991553664208E-003;
2.416833333333334E+009;1.771390885114670E-001;-6.114031374454498E-002;-1.161810476332903E-003;-3.103806404396892E-003;
2.417000000000000E+009;1.767117828130722E-001;-6.122296676039696E-002;-1.252528512850404E-003;-2.806243952363730E-003;
2.417166666666667E+009;1.762197762727737E-001;-6.143527850508690E-002;-1.382050686515868E-003;-2.788245445117354E-003;
2.417333333333334E+009;1.757591217756271E-001;-6.160340458154678E-002;-1.354834064841270E-003;-2.607826841995120E-003;
2.417500000000000E+009;1.751794517040253E-001;-6.189063191413879E-002;-1.483056461438537E-003;-2.382994396612048E-003;
2.417666666666667E+009;1.744519621133804E-001;-6.192301958799362E-002;-1.530454843305051E-003;-2.386142499744892E-003;
2.417833333333334E+009;1.737172603607178E-001;-6.209849566221237E-002;-1.572113134898245E-003;-2.310832729563117E-003;
2.418000000000000E+009;1.727494895458221E-001;-6.260469555854797E-002;-1.611107261851430E-003;-2.345958258956671E-003;
2.418166666666667E+009;1.718379110097885E-001;-6.267251074314117E-002;-1.703651272691786E-003;-2.207275014370680E-003;
2.418333333333334E+009;1.711905151605606E-001;-6.309932470321655E-002;-1.725021167658269E-003;-2.066755201667547E-003;
2.418500000000000E+009;1.699777692556381E-001;-6.348020583391190E-002;-1.629560836590827E-003;-2.048230497166514E-003;
2.418666666666667E+009;1.689739972352982E-001;-6.395193189382553E-002;-1.718245679512620E-003;-1.988836098462343E-003;
2.418833333333334E+009;1.676856875419617E-001;-6.452829390764237E-002;-1.768266549333930E-003;-1.770294504240155E-003;
2.419000000000000E+009;1.665178537368774E-001;-6.493421643972397E-002;-1.586554455570877E-003;-1.715152873657644E-003;
2.419166666666667E+009;1.653207987546921E-001;-6.564351916313171E-002;-1.714039943180978E-003;-1.649197307415307E-003;
2.419333333333334E+009;1.638782918453217E-001;-6.617657095193863E-002;-1.767913810908794E-003;-1.611063489690423E-003;
2.419500000000000E+009;1.628582924604416E-001;-6.717471778392792E-002;-1.857334515079856E-003;-1.587594393640757E-003;
2.419666666666667E+009;1.617559194564819E-001;-6.813467293977737E-002;-1.811244292184711E-003;-1.560246921144426E-003;
2.419833333333334E+009;1.605318188667297E-001;-6.899598985910416E-002;-1.675374107435346E-003;-1.417447812855244E-003;
2.420000000000000E+009;1.593579351902008E-001;-7.002314925193787E-002;-1.736286911182106E-003;-1.432322664186359E-003;
2.420166666666667E+009;1.582811325788498E-001;-7.111218571662903E-002;-1.764072570949793E-003;-1.380374073050916E-003;
2.420333333333334E+009;1.572440117597580E-001;-7.243746519088745E-002;-1.832945155911148E-003;-1.225870219059289E-003;
2.420500000000000E+009;1.564043909311295E-001;-7.343369722366333E-002;-1.805316656827927E-003;-1.227876986376941E-003;
2.420666666666667E+009;1.552419364452362E-001;-7.487435638904572E-002;-1.800169353373349E-003;-1.167909125797451E-003;
2.420833333333334E+009;1.541996747255325E-001;-7.622272521257401E-002;-1.657072571106255E-003;-9.897467680275440E-004;
2.421000000000000E+009;1.535215377807617E-001;-7.774227112531662E-002;-1.872360357083380E-003;-9.362001437693834E-004;
2.421166666666667E+009;1.527914106845856E-001;-7.924935221672058E-002;-1.847258652560413E-003;-1.028844853863120E-003;
2.421333333333334E+009;1.521810144186020E-001;-8.083380758762360E-002;-1.922927447594702E-003;-8.451434550806880E-004;
2.421500000000000E+009;1.513308584690094E-001;-8.249189704656601E-002;-1.746605965308845E-003;-8.802356314845383E-004;
2.421666666666667E+009;1.508225798606873E-001;-8.421351760625839E-002;-1.850195112638176E-003;-6.984603242017329E-004;
2.421833333333334E+009;1.503937840461731E-001;-8.563014119863510E-002;-1.815747353248298E-003;-9.063170291483402E-004;
2.422000000000000E+009;1.500329971313477E-001;-8.747183531522751E-002;-1.924383337609470E-003;-6.974581629037857E-004;
2.422166666666667E+009;1.496277749538422E-001;-8.944832533597946E-002;-1.790154259651899E-003;-6.020161090418696E-004;
2.422333333333334E+009;1.495921462774277E-001;-9.090528637170792E-002;-1.929676625877619E-003;-5.923765129409730E-004;
2.422500000000000E+009;1.494713276624680E-001;-9.252149611711502E-002;-1.972706289961934E-003;-4.291596414986998E-004;
2.422666666666667E+009;1.492269337177277E-001;-9.450004994869232E-002;-1.930676633492112E-003;-3.901383606716991E-004;
2.422833333333334E+009;1.493922770023346E-001;-9.613776206970215E-002;-2.027327660471201E-003;-3.107184311375022E-004;
2.423000000000000E+009;1.493923068046570E-001;-9.791676700115204E-002;-1.954097300767899E-003;-2.944885927718133E-004;
2.423166666666667E+009;1.496553719043732E-001;-9.964232891798019E-002;-1.976071856915951E-003;-7.464995724149048E-005;
2.423333333333334E+009;1.499851197004318E-001;-1.010004505515099E-001;-1.909313956275582E-003;8.669238013681024E-006;
2.423500000000000E+009;1.502161771059036E-001;-1.025914549827576E-001;-1.887080841697753E-003;9.010926441987976E-005;
2.423666666666667E+009;1.503460705280304E-001;-1.044158712029457E-001;-1.985614420846105E-003;1.501841961726314E-005;
2.423833333333334E+009;1.508926451206207E-001;-1.058928221464157E-001;-1.975255552679300E-003;2.567594347056001E-004;
2.424000000000000E+009;1.513266414403915E-001;-1.070167794823647E-001;-1.756109879352152E-003;1.714699756121263E-004;
2.424166666666667E+009;1.516381949186325E-001;-1.084651350975037E-001;-1.884853700175881E-003;3.407135372981429E-004;
2.424333333333334E+009;1.522894203662872E-001;-1.096629947423935E-001;-1.691236160695553E-003;3.894366673193872E-004;
2.424500000000000E+009;1.527711600065231E-001;-1.109277680516243E-001;-1.765896799042821E-003;5.513018113560975E-004;
2.424666666666667E+009;1.533329039812088E-001;-1.117907464504242E-001;-1.630175742320716E-003;7.110907463356853E-004;
2.424833333333334E+009;1.536684781312943E-001;-1.128163561224937E-001;-1.493625459261239E-003;7.316725677810609E-004;
2.425000000000000E+009;1.542594432830811E-001;-1.138647720217705E-001;-1.584595767781138E-003;6.364580476656556E-004;
2.425166666666667E+009;1.544489562511444E-001;-1.147565394639969E-001;-1.490920898504555E-003;8.859025547280908E-004;
2.425333333333334E+009;1.548414379358292E-001;-1.153953447937965E-001;-1.248829881660640E-003;7.872881251387298E-004;
2.425500000000000E+009;1.554563343524933E-001;-1.161745190620422E-001;-1.147827715612948E-003;1.010483247227967E-003;
2.425666666666667E+009;1.556188613176346E-001;-1.166914254426956E-001;-1.084191491827369E-003;1.035785651765764E-003;
2.425833333333334E+009;1.558463275432587E-001;-1.171985566616058E-001;-1.086357748135924E-003;1.057710265740752E-003;
2.426000000000000E+009;1.561746150255203E-001;-1.177441701292992E-001;-7.378063164651394E-004;1.178319100290537E-003;
2.426166666666667E+009;1.564518213272095E-001;-1.181914508342743E-001;-7.634160574525595E-004;1.021080999635160E-003;
2.426333333333334E+009;1.564119011163712E-001;-1.184501796960831E-001;-5.924202268943191E-004;1.077922759577632E-003;
2.426500000000000E+009;1.564831286668778E-001;-1.186849623918533E-001;-4.255242820363492E-004;1.063048373907805E-003;
2.426666666666667E+009;1.564897447824478E-001;-1.188023313879967E-001;-5.304719670675695E-004;8.972422801889479E-004;
2.426833333333334E+009;1.562336534261704E-001;-1.190578266978264E-001;-2.904791035689414E-004;9.946539066731930E-004;
2.427000000000000E+009;1.559253931045532E-001;-1.192447990179062E-001;-3.960854664910585E-004;9.574617142789066E-004;
2.427166666666667E+009;1.556924730539322E-001;-1.192025467753410E-001;-9.396373934578151E-005;8.808524580672383E-004;
2.427333333333334E+009;1.550885885953903E-001;-1.193066015839577E-001;-1.731367083266377E-004;7.704948657192290E-004;
2.427500000000000E+009;1.547932624816895E-001;-1.194625645875931E-001;-6.755864160368219E-005;8.047905284911394E-004;
2.427666666666667E+009;1.539891809225082E-001;-1.195760741829872E-001;-3.393443694221787E-005;6.057328428141773E-004;
