# Version 1.00
#
freq[Hz];re:Trc1_S11;im:Trc1_S11;re:Trc2_S21;im:Trc2_S21;
2.400000000000000E+009;1.581679731607437E-001;6.231918558478355E-002;-1.785328611731529E-003;4.508241545408964E-003;
2.400166666666667E+009;1.579907089471817E-001;6.061003357172012E-002;-1.636035507544875E-003;4.717689007520676E-003;
2.400333333333334E+009;1.579254567623138E-001;5.877589434385300E-002;-1.459905644878745E-003;4.807207267731428E-003;
2.400500000000000E+009;1.577729135751724E-001;5.674628913402557E-002;-1.298302202485502E-003;4.701757803559303E-003;
2.400666666666667E+009;1.577110290527344E-001;5.477528646588326E-002;-1.132035162299871E-003;4.763002973049879E-003;
2.400833333333334E+009;1.578019410371780E-001;5.298893898725510E-002;-8.104789303615689E-004;4.844527225941420E-003;
2.401000000000000E+009;1.578349322080612E-001;5.080530792474747E-002;-6.690463051199913E-004;4.914045799523592E-003;
2.401166666666667E+009;1.580423861742020E-001;4.865715280175209E-002;-6.101278122514486E-004;4.935750737786293E-003;
2.401333333333334E+009;1.580531746149063E-001;4.684435576200485E-002;-1.772796240402386E-004;4.940745886415243E-003;
2.401500000000000E+009;1.585895419120789E-001;4.461136087775230E-002;-1.424272340955213E-004;4.825557582080364E-003;
2.401666666666667E+009;1.587783843278885E-001;4.272487014532089E-002;9.161230991594493E-005;4.897743929177523E-003;
2.401833333333334E+009;1.591268777847290E-001;4.080567136406899E-002;2.701986231841147E-004;4.787528421729803E-003;
2.402000000000000E+009;1.594071835279465E-001;3.865161910653114E-002;5.134204984642565E-004;4.795251879841089E-003;
2.402166666666667E+009;1.600964367389679E-001;3.669109940528870E-002;4.888295661658049E-004;4.858646541833878E-003;
2.402333333333334E+009;1.606141328811646E-001;3.488292545080185E-002;6.512965774163604E-004;4.701346158981323E-003;
2.402500000000000E+009;1.613796353340149E-001;3.288160264492035E-002;9.396155364811420E-004;4.773035645484924E-003;
2.402666666666667E+009;1.619369685649872E-001;3.106563165783882E-002;9.736468782648444E-004;4.599448759108782E-003;
2.402833333333334E+009;1.626700758934021E-001;2.954917214810848E-002;1.284002093598247E-003;4.707784391939640E-003;
2.403000000000000E+009;1.635135114192963E-001;2.803387492895126E-002;1.452798489481211E-003;4.755498841404915E-003;
2.403166666666667E+009;1.643819063901901E-001;2.640890143811703E-002;1.662247232161462E-003;4.654393065720797E-003;
2.403333333333334E+009;1.653426438570023E-001;2.492614835500717E-002;1.842309022322297E-003;4.477538168430328E-003;
2.403500000000000E+009;1.660787612199783E-001;2.363755181431770E-002;1.954594859853387E-003;4.484293516725302E-003;
2.403666666666667E+009;1.671275347471237E-001;2.207688428461552E-002;2.145365346223116E-003;4.363571293652058E-003;
2.403833333333334E+009;1.682092249393463E-001;2.083804085850716E-002;2.354789292439818E-003;4.376616328954697E-003;
2.404000000000000E+009;1.691710352897644E-001;1.968301646411419E-002;2.505496377125382E-003;4.192783031612635E-003;
2.404166666666667E+009;1.699814796447754E-001;1.839746721088886E-002;2.656485419720411E-003;4.030121956020594E-003;
2.404333333333334E+009;1.710046380758286E-001;1.752417348325253E-002;2.718650735914707E-003;3.948993515223265E-003;
2.404500000000000E+009;1.719332933425903E-001;1.640439033508301E-002;3.008579602465034E-003;3.738464321941137E-003;
2.404666666666667E+009;1.729277074337006E-001;1.572382450103760E-002;2.970688743516803E-003;3.778065554797649E-003;
2.404833333333334E+009;1.738325208425522E-001;1.492587942630053E-002;3.196882316842675E-003;3.498302539810538E-003;
2.405000000000000E+009;1.747375279664993E-001;1.412543747574091E-002;3.413850208744407E-003;3.365154145285487E-003;
2.405166666666667E+009;1.755773574113846E-001;1.353296730667353E-002;3.452677978202701E-003;3.204650478437543E-003;
2.405333333333334E+009;1.764914095401764E-001;1.282823085784912E-002;3.589178435504437E-003;3.201829036697745E-003;
2.405500000000000E+009;1.771768033504486E-001;1.253853365778923E-002;3.538557328283787E-003;2.911580028012395E-003;
2.405666666666667E+009;1.778149604797363E-001;1.194117683917284E-002;3.829102963209152E-003;2.801992930471897E-003;
2.405833333333334E+009;1.784392595291138E-001;1.165801100432873E-002;3.777885809540749E-003;2.602327615022659E-003;
2.406000000000000E+009;1.790182888507843E-001;1.123377680778503E-002;3.881408134475350E-003;2.388461725786328E-003;
2.406166666666667E+009;1.793651878833771E-001;1.097474433481693E-002;4.026817623525858E-003;2.206395613029599E-003;
2.406333333333334E+009;1.800065934658051E-001;1.076596602797508E-002;4.047794267535210E-003;2.168434672057629E-003;
2.406500000000000E+009;1.803387403488159E-001;1.020016428083181E-002;4.190293140709400E-003;2.199297538027167E-003;
2.406666666666667E+009;1.805057376623154E-001;9.978168644011021E-003;4.212433006614447E-003;2.039497718214989E-003;
2.406833333333334E+009;1.807730644941330E-001;9.774489328265190E-003;4.167253617197275E-003;2.017158782109618E-003;
2.407000000000000E+009;1.807642281055450E-001;9.382569231092930E-003;4.334468860179186E-003;1.548370230011642E-003;
2.407166666666667E+009;1.808367818593979E-001;9.128604084253311E-003;4.426754545420408E-003;1.431171898730099E-003;
2.407333333333334E+009;1.805573999881744E-001;8.624945767223835E-003;4.440742544829845E-003;1.270744134671986E-003;
2.407500000000000E+009;1.805254817008972E-001;8.166564628481865E-003;4.517554305493832E-003;1.133126788772643E-003;
2.407666666666667E+009;1.802946031093597E-001;7.848299108445644E-003;4.439107608050108E-003;9.143876377493143E-004;
2.407833333333334E+009;1.799594014883041E-001;7.169404532760382E-003;4.392119590193033E-003;8.964464650489390E-004;
2.408000000000000E+009;1.796431094408035E-001;6.736868992447853E-003;4.325273912400007E-003;4.768580547533929E-004;
2.408166666666667E+009;1.793022602796555E-001;6.112320348620415E-003;4.410759080201387E-003;5.378178320825100E-004;
2.408333333333334E+009;1.788974553346634E-001;5.321890581399202E-003;4.493252374231815E-003;2.272448618896306E-004;
2.408500000000000E+009;1.783427000045776E-001;4.563606809824705E-003;4.515331238508225E-003;1.188650057883933E-004;
2.408666666666667E+009;1.776713579893112E-001;3.505958244204521E-003;4.673229530453682E-003;-8.077907114056870E-005;
2.408833333333334E+009;1.769210696220398E-001;2.735360525548458E-003;4.655184224247932E-003;-1.992495526792482E-004;
2.409000000000000E+009;1.763898581266403E-001;1.752007170580328E-003;4.449208267033100E-003;-4.684492014348507E-004;
2.409166666666667E+009;1.756085157394409E-001;3.838780394289643E-004;4.481162875890732E-003;-5.687158554792404E-004;
2.409333333333334E+009;1.751860976219177E-001;-8.022012771107256E-004;4.475870169699192E-003;-6.343869608826935E-004;
2.409500000000000E+009;1.741712093353272E-001;-2.179489471018314E-003;4.237058572471142E-003;-7.268916233442724E-004;
2.409666666666667E+009;1.735692173242569E-001;-3.336855443194509E-003;4.371269606053829E-003;-1.017257338389754E-003;
2.409833333333334E+009;1.729596108198166E-001;-4.827795550227165E-003;4.251840524375439E-003;-9.399541304446757E-004;
2.410000000000000E+009;1.721638590097427E-001;-6.323179695755243E-003;4.251146223396063E-003;-1.134410849772394E-003;
2.410166666666667E+009;1.717824190855026E-001;-7.870472967624664E-003;4.189142491668463E-003;-1.323989359661937E-003;
2.410333333333334E+009;1.710492372512817E-001;-9.608565829694271E-003;4.157898481935263E-003;-1.513591618277133E-003;
2.410500000000000E+009;1.704798638820648E-001;-1.134586986154318E-002;3.953828476369381E-003;-1.688380725681782E-003;
2.410666666666667E+009;1.698725521564484E-001;-1.328690722584724E-002;3.950767219066620E-003;-1.866894657723606E-003;
2.410833333333334E+009;1.694858670234680E-001;-1.482426188886166E-002;3.882328048348427E-003;-1.881165429949760E-003;
2.411000000000000E+009;1.691741496324539E-001;-1.688786409795284E-002;3.829598193988204E-003;-2.070351969450712E-003;
2.411166666666667E+009;1.687542647123337E-001;-1.886680535972118E-002;3.759947372600436E-003;-2.224501222372055E-003;
2.411333333333334E+009;1.684417873620987E-001;-2.057828009128571E-002;3.635850735008717E-003;-2.175901085138321E-003;
2.411500000000000E+009;1.681439280509949E-001;-2.283227443695068E-002;3.498442703858018E-003;-2.485575387254357E-003;
2.411666666666667E+009;1.683146357536316E-001;-2.467074990272522E-002;3.420288674533367E-003;-2.492311876267195E-003;
2.411833333333334E+009;1.680863499641419E-001;-2.663808129727840E-002;3.425769740715623E-003;-2.735898131504655E-003;
2.412000000000000E+009;1.681688725948334E-001;-2.865719050168991E-002;3.329926170408726E-003;-2.864960115402937E-003;
2.412166666666667E+009;1.681264489889145E-001;-3.064573369920254E-002;3.183051478117704E-003;-2.921917708590627E-003;
2.412333333333334E+009;1.685421913862228E-001;-3.245618939399719E-002;2.935033058747649E-003;-3.062881063669920E-003;
2.412500000000000E+009;1.685450971126556E-001;-3.439735993742943E-002;2.806199016049504E-003;-3.140970133244991E-003;
2.412666666666667E+009;1.688720583915710E-001;-3.652010485529900E-002;2.630236791446805E-003;-3.191926982253790E-003;
2.412833333333334E+009;1.692125201225281E-001;-3.827578946948052E-002;2.569600241258740E-003;-3.415645798668265E-003;
2.413000000000000E+009;1.696449667215347E-001;-4.009106382727623E-002;2.224534749984741E-003;-3.388726850971580E-003;
2.413166666666667E+009;1.700032502412796E-001;-4.180311039090157E-002;2.214461099356413E-003;-3.576890565454960E-003;
2.413333333333334E+009;1.704206019639969E-001;-4.345095902681351E-002;2.287955721840262E-003;-3.640337847173214E-003;
2.413500000000000E+009;1.708914935588837E-001;-4.522803425788879E-002;1.983019988983870E-003;-3.814581315964460E-003;
2.413666666666667E+009;1.716060489416122E-001;-4.682612419128418E-002;1.896619796752930E-003;-3.688065102323890E-003;
2.413833333333334E+009;1.719373613595963E-001;-4.826567694544792E-002;1.503374311141670E-003;-3.760493127629161E-003;
2.414000000000000E+009;1.724494248628616E-001;-4.965968802571297E-002;1.370320213027299E-003;-3.742479486390948E-003;
2.414166666666667E+009;1.731339097023010E-001;-5.098672956228256E-002;1.220259931869805E-003;-3.832764690741897E-003;
2.414333333333334E+009;1.735766977071762E-001;-5.226019769906998E-002;1.033783191815019E-003;-3.922152332961559E-003;
2.414500000000000E+009;1.742865890264511E-001;-5.336887389421463E-002;9.767691371962428E-004;-3.835620125755668E-003;
2.414666666666667E+009;1.746670454740524E-001;-5.438936129212380E-002;6.196669419296086E-004;-3.840110264718533E-003;
2.414833333333334E+009;1.751521080732346E-001;-5.525184422731400E-002;3.022375749424100E-004;-3.854671260342002E-003;
2.415000000000000E+009;1.755083948373795E-001;-5.629334598779678E-002;2.402706304565072E-004;-3.783781314268708E-003;
2.415166666666667E+009;1.760290414094925E-001;-5.696232244372368E-002;1.729230862110853E-004;-3.804045496508479E-003;
2.415333333333334E+009;1.765867322683334E-001;-5.763162299990654E-002;4.311487646191381E-005;-3.761182539165020E-003;
2.415500000000000E+009;1.769910752773285E-001;-5.816435068845749E-002;-1.019584597088397E-004;-3.585782600566745E-003;
2.415666666666667E+009;1.771351844072342E-001;-5.878417193889618E-002;-3.192324074916542E-004;-3.581752069294453E-003;
2.415833333333334E+009;1.773712337017059E-001;-5.922102928161621E-002;-3.695626510307193E-004;-3.548940643668175E-003;
2.416000000000000E+009;1.773560494184494E-001;-5.964405462145805E-002;-6.121162441559136E-004;-3.473620628938079E-003;
2.416166666666667E+009;1.777263283729553E-001;-5.998796224594116E-002;-7.238346152007580E-004;-3.441365901380777E-003;
2.416333333333334E+009;1.775358021259308E-001;-6.021537631750107E-002;-9.244282264262438E-004;-3.155669430270791E-003;
2.416500000000000E+009;1.775677353143692E-001;-6.064134463667870E-002;-1.086615957319737E-003;-3.235148731619120E-003;
2.416666666666667E+009;1.774016767740250E-001;-6.074701249599457E-002;-1.027517602778971E-003;-3.183066146448255E-003;
2.416833333333334E+009;1.771848201751709E-001;-6.106880679726601E-002;-1.281389850191772E-003;-3.075816668570042E-003;
2.417000000000000E+009;1.765657365322113E-001;-6.132375448942184E-002;-1.126517890952528E-003;-2.897487720474601E-003;
2.417166666666667E+009;1.762380450963974E-001;-6.138958781957626E-002;-1.343106036074460E-003;-2.669013570994139E-003;
2.417333333333334E+009;1.757276505231857E-001;-6.158000603318214E-002;-1.454565557651222E-003;-2.714938251301646E-003;
2.417500000000000E+009;1.751356273889542E-001;-6.191573292016983E-002;-1.468878821469843E-003;-2.572581171989441E-003;
2.417666666666667E+009;1.745615303516388E-001;-6.199301406741142E-002;-1.421882421709597E-003;-2.567600226029754E-003;
2.417833333333334E+009;1.737093478441238E-001;-6.223037838935852E-002;-1.520906575024128E-003;-2.387979300692678E-003;
2.418000000000000E+009;1.726721823215485E-001;-6.266821920871735E-002;-1.487684668973088E-003;-2.262779977172613E-003;
2.418166666666667E+009;1.719432473182678E-001;-6.280644237995148E-002;-1.615709275938571E-003;-2.268168143928051E-003;
2.418333333333334E+009;1.710857748985291E-001;-6.313046067953110E-002;-1.609555329196155E-003;-2.115563955157995E-003;
2.418500000000000E+009;1.699233204126358E-001;-6.358171999454498E-002;-1.668537617661059E-003;-2.051512245088816E-003;
2.418666666666667E+009;1.690087616443634E-001;-6.396145373582840E-002;-1.698042964562774E-003;-2.184668555855751E-003;
2.418833333333334E+009;1.676907986402512E-001;-6.458657234907150E-002;-1.778385951183736E-003;-1.871623913757503E-003;
2.419000000000000E+009;1.664417684078217E-001;-6.497971713542938E-002;-1.678771572187543E-003;-1.826888765208423E-003;
2.419166666666667E+009;1.654195189476013E-001;-6.570109724998474E-002;-1.739243627525866E-003;-1.769849215634167E-003;
2.419333333333334E+009;1.639925986528397E-001;-6.620295345783234E-002;-1.823407481424511E-003;-1.679101027548313E-003;
2.419500000000000E+009;1.628632992506027E-001;-6.727141886949539E-002;-1.839983509853482E-003;-1.628352212719619E-003;
2.419666666666667E+009;1.617483496665955E-001;-6.816725432872772E-002;-1.917176530696452E-003;-1.516813528724015E-003;
2.419833333333334E+009;1.603678464889526E-001;-6.889895349740982E-002;-1.806452753953636E-003;-1.461751875467598E-003;
2.420000000000000E+009;1.594169288873673E-001;-7.014190405607224E-002;-1.698553562164307E-003;-1.458432292565703E-003;
2.420166666666667E+009;1.583492308855057E-001;-7.108997553586960E-002;-1.793484319932759E-003;-1.327061094343662E-003;
2.420333333333334E+009;1.571800708770752E-001;-7.231009006500244E-002;-1.856749760918319E-003;-1.220312784425914E-003;
2.420500000000000E+009;1.561788767576218E-001;-7.344760000705719E-002;-1.823014230467379E-003;-1.116327126510441E-003;
2.420666666666667E+009;1.552407443523407E-001;-7.465611398220062E-002;-1.843246980570257E-003;-1.184595515951514E-003;
2.420833333333334E+009;1.543045341968536E-001;-7.626859843730927E-002;-1.984911737963557E-003;-1.084892777726054E-003;
2.421000000000000E+009;1.533760577440262E-001;-7.769047468900681E-002;-1.886605634354055E-003;-1.102624926716089E-003;
2.421166666666667E+009;1.525205373764038E-001;-7.920954376459122E-002;-1.954347128048539E-003;-1.098894397728145E-003;
2.421333333333334E+009;1.518843173980713E-001;-8.082737028598785E-002;-1.943888142704964E-003;-8.577320259064436E-004;
2.421500000000000E+009;1.513215005397797E-001;-8.235422521829605E-002;-1.952549559064210E-003;-7.724720635451376E-004;
2.421666666666667E+009;1.507563889026642E-001;-8.395211398601532E-002;-1.939286710694432E-003;-8.928098250180483E-004;
2.421833333333334E+009;1.504170745611191E-001;-8.567899465560913E-002;-1.941781491041184E-003;-6.476446287706494E-004;
2.422000000000000E+009;1.498423665761948E-001;-8.750976622104645E-002;-2.082767896354199E-003;-6.685553235001862E-004;
2.422166666666667E+009;1.498076915740967E-001;-8.929563313722611E-002;-1.859477721154690E-003;-5.812248564325273E-004;
2.422333333333334E+009;1.493215560913086E-001;-9.093970805406570E-002;-1.951186801306903E-003;-5.858586519025266E-004;
2.422500000000000E+009;1.493711471557617E-001;-9.258361160755158E-002;-1.889870502054691E-003;-3.647029225248843E-004;
2.422666666666667E+009;1.491876393556595E-001;-9.452748298645020E-002;-1.934790983796120E-003;-4.945152322761715E-004;
2.422833333333334E+009;1.494689881801605E-001;-9.616985917091370E-002;-1.877683098427951E-003;-2.279209293192253E-004;
2.423000000000000E+009;1.494707018136978E-001;-9.780254215002060E-002;-1.891087391413748E-003;-2.756014873739332E-004;
2.423166666666667E+009;1.496680080890656E-001;-9.946769475936890E-002;-1.865471946075559E-003;-1.973217003978789E-004;
2.423333333333334E+009;1.498769670724869E-001;-1.009668782353401E-001;-1.946182339452207E-003;-1.921143120853230E-004;
2.423500000000000E+009;1.502449661493301E-001;-1.027347370982170E-001;-1.908429549075663E-003;2.940058038802818E-005;
2.423666666666667E+009;1.505116671323776E-001;-1.043655052781105E-001;-1.761569990776479E-003;2.282011264469475E-004;
2.423833333333334E+009;1.509259492158890E-001;-1.058345288038254E-001;-1.858862931840122E-003;1.262817095266655E-004;
2.424000000000000E+009;1.512108594179153E-001;-1.070449799299240E-001;-1.997624058276415E-003;1.519829093012959E-004;
2.424166666666667E+009;1.517051905393601E-001;-1.084366440773010E-001;-1.789822126738727E-003;2.833410399034619E-004;
2.424333333333334E+009;1.522746533155441E-001;-1.096783056855202E-001;-1.579056959599257E-003;4.024049267172813E-004;
2.424500000000000E+009;1.526481807231903E-001;-1.108821034431458E-001;-1.737134414725006E-003;4.031541175208986E-004;
2.424666666666667E+009;1.532177627086639E-001;-1.117986738681793E-001;-1.672932296060026E-003;6.107206572778523E-004;
2.424833333333334E+009;1.536027640104294E-001;-1.130051091313362E-001;-1.583957578986883E-003;6.053867400623858E-004;
2.425000000000000E+009;1.541712135076523E-001;-1.140077933669090E-001;-1.494249096140266E-003;7.864771177992225E-004;
2.425166666666667E+009;1.544544845819473E-001;-1.146980896592140E-001;-1.367536955513060E-003;7.381458417512476E-004;
2.425333333333334E+009;1.549475789070129E-001;-1.153377518057823E-001;-1.276723924092948E-003;8.361306390725076E-004;
2.425500000000000E+009;1.553694456815720E-001;-1.162382215261459E-001;-1.196077442727983E-003;8.730021072551608E-004;
2.425666666666667E+009;1.555187553167343E-001;-1.167775243520737E-001;-9.195533348247409E-004;9.323494741693139E-004;
2.425833333333334E+009;1.559671908617020E-001;-1.173265054821968E-001;-9.567206725478172E-004;1.060043578036130E-003;
2.426000000000000E+009;1.560770720243454E-001;-1.177886649966240E-001;-7.404705393128097E-004;1.131189172156155E-003;
2.426166666666667E+009;1.563961207866669E-001;-1.181952580809593E-001;-7.539493381045759E-004;8.687565568834543E-004;
2.426333333333334E+009;1.563170552253723E-001;-1.184923127293587E-001;-5.867009167559445E-004;1.034714514389634E-003;
2.426500000000000E+009;1.563426405191422E-001;-1.187906339764595E-001;-3.265622362960130E-004;1.017237431369722E-003;
2.426666666666667E+009;1.564635187387466E-001;-1.187804341316223E-001;-4.477429611142725E-004;1.109196571633220E-003;
2.426833333333334E+009;1.561619490385056E-001;-1.189977228641510E-001;-2.303259971085936E-004;8.738518808968365E-004;
2.427000000000000E+009;1.560544222593308E-001;-1.193267256021500E-001;-2.933021169155836E-004;8.948135655373335E-004;
2.427166666666667E+009;1.556716114282608E-001;-1.191786229610443E-001;-8.079670078586787E-005;8.715273579582572E-004;
2.427333333333334E+009;1.551426500082016E-001;-1.193349212408066E-001;-7.601870311191306E-005;6.809590267948806E-004;
2.427500000000000E+009;1.546557247638702E-001;-1.194753199815750E-001;1.143221088568680E-004;6.876578554511070E-004;
2.427666666666667E+009;1.540126800537109E-001;-1.196284815669060E-001;9.357643284602091E-005;5.561985890381038E-004;
