# Version 1.00
#
freq[Hz];re:Trc1_S11;im:Trc1_S11;re:Trc2_S21;im:Trc2_S21;
2.400000000000000E+009;1.570891588926315E-001;6.312495470046997E-002;-4.132115282118321E-003;1.106587587855756E-003;
2.400166666666667E+009;1.569359451532364E-001;6.136347725987434E-002;-3.988283686339855E-003;1.183081069029868E-003;
2.400333333333334E+009;1.568451672792435E-001;5.941537767648697E-002;-3.882267279550433E-003;1.145285088568926E-003;
2.400500000000000E+009;1.567146927118301E-001;5.762549862265587E-002;-3.919544629752636E-003;1.321467803791165E-003;
2.400666666666667E+009;1.567938476800919E-001;5.543788895010948E-002;-3.909348510205746E-003;1.603070762939751E-003;
2.400833333333334E+009;1.569841057062149E-001;5.362993478775024E-002;-3.849184839054942E-003;1.615049084648490E-003;
2.401000000000000E+009;1.570015251636505E-001;5.160160362720490E-002;-3.785833483561873E-003;1.833561458624899E-003;
2.401166666666667E+009;1.572324186563492E-001;4.934654757380486E-002;-3.746502334252000E-003;1.912202336825430E-003;
2.401333333333334E+009;1.573306024074554E-001;4.722281172871590E-002;-3.867177758365870E-003;1.883786870166659E-003;
2.401500000000000E+009;1.578636318445206E-001;4.513234272599220E-002;-3.765966044738889E-003;2.134092617779970E-003;
2.401666666666667E+009;1.579859554767609E-001;4.326331987977028E-002;-3.745106980204582E-003;2.342630876228213E-003;
2.401833333333334E+009;1.585854142904282E-001;4.098553955554962E-002;-3.616010770201683E-003;2.553528174757958E-003;
2.402000000000000E+009;1.588191092014313E-001;3.910963609814644E-002;-3.716953564435244E-003;2.508851932361722E-003;
2.402166666666667E+009;1.597308069467545E-001;3.686056658625603E-002;-3.701788140460849E-003;2.661892911419272E-003;
2.402333333333334E+009;1.600822061300278E-001;3.521987423300743E-002;-3.663033014163375E-003;2.973603317514062E-003;
2.402500000000000E+009;1.611034423112869E-001;3.324569761753082E-002;-3.490203758701682E-003;2.911447081714869E-003;
2.402666666666667E+009;1.617633998394013E-001;3.165869787335396E-002;-3.307733219116926E-003;3.269026521593332E-003;
2.402833333333334E+009;1.624717414379120E-001;2.997859008610249E-002;-3.483797889202833E-003;3.437796374782920E-003;
2.403000000000000E+009;1.633556038141251E-001;2.831935137510300E-002;-3.294634399935603E-003;3.611967666074634E-003;
2.403166666666667E+009;1.643551290035248E-001;2.663252130150795E-002;-3.087423974648118E-003;3.537837648764253E-003;
2.403333333333334E+009;1.654286533594132E-001;2.517008781433106E-002;-2.968143438920379E-003;3.890144871547818E-003;
2.403500000000000E+009;1.662790030241013E-001;2.379957586526871E-002;-2.652976661920548E-003;4.042014013975859E-003;
2.403666666666667E+009;1.673257052898407E-001;2.255839854478836E-002;-2.770937047898769E-003;4.178951494395733E-003;
2.403833333333334E+009;1.684380769729614E-001;2.114694938063622E-002;-2.423540689051151E-003;4.407332744449377E-003;
2.404000000000000E+009;1.693965643644333E-001;2.002152055501938E-002;-2.304350025951862E-003;4.503443371504545E-003;
2.404166666666667E+009;1.704449206590653E-001;1.885477639734745E-002;-1.971563557162881E-003;4.612386226654053E-003;
2.404333333333334E+009;1.714559495449066E-001;1.796534657478333E-002;-1.971527002751827E-003;4.768588114529848E-003;
2.404500000000000E+009;1.722771376371384E-001;1.698980666697025E-002;-1.753269927576184E-003;4.694065079092979E-003;
2.404666666666667E+009;1.731877177953720E-001;1.614332385361195E-002;-1.543145510368049E-003;4.895505961030722E-003;
2.404833333333334E+009;1.742753386497498E-001;1.535197068005800E-002;-1.235338160768151E-003;5.230020266026259E-003;
2.405000000000000E+009;1.752123683691025E-001;1.472743973135948E-002;-1.030882587656379E-003;5.127120297402144E-003;
2.405166666666667E+009;1.761326789855957E-001;1.407254859805107E-002;-7.831093389540911E-004;5.256721284240484E-003;
2.405333333333334E+009;1.769780516624451E-001;1.322222687304020E-002;-6.687202840112150E-004;5.214619915932417E-003;
2.405500000000000E+009;1.776282489299774E-001;1.293705962598324E-002;-4.206785524729639E-004;5.262439139187336E-003;
2.405666666666667E+009;1.783010810613632E-001;1.273617334663868E-002;-3.689798759296536E-004;5.277025047689676E-003;
2.405833333333334E+009;1.788213402032852E-001;1.227830722928047E-002;-1.360696387564531E-005;5.442894995212555E-003;
2.406000000000000E+009;1.794622242450714E-001;1.185653358697891E-002;3.856786934193224E-004;5.409272853285074E-003;
2.406166666666667E+009;1.798383146524429E-001;1.179851125925779E-002;5.342275253497064E-004;5.414713174104691E-003;
2.406333333333334E+009;1.803713440895081E-001;1.129236444830895E-002;6.669797003269196E-004;5.352770444005728E-003;
2.406500000000000E+009;1.805358380079269E-001;1.097917370498180E-002;1.047673169523478E-003;5.195233039557934E-003;
2.406666666666667E+009;1.806112974882126E-001;1.082736998796463E-002;1.162549480795860E-003;5.324115976691246E-003;
2.406833333333334E+009;1.808507740497589E-001;1.046907715499401E-002;1.650090795010328E-003;5.259260069578886E-003;
2.407000000000000E+009;1.809859424829483E-001;1.030154060572386E-002;1.841461169533432E-003;5.034537054598332E-003;
2.407166666666667E+009;1.809376478195190E-001;1.003700029104948E-002;1.931252889335156E-003;5.051720887422562E-003;
2.407333333333334E+009;1.807614117860794E-001;9.555446915328503E-003;2.267287578433752E-003;5.009931046515703E-003;
2.407500000000000E+009;1.806243211030960E-001;9.140881709754467E-003;2.423189580440521E-003;4.802956245839596E-003;
2.407666666666667E+009;1.802707612514496E-001;8.813299238681793E-003;2.539524575695396E-003;4.679806996136904E-003;
2.407833333333334E+009;1.798519194126129E-001;8.249230682849884E-003;2.883117878809571E-003;4.536828026175499E-003;
2.408000000000000E+009;1.794231534004211E-001;7.622087374329567E-003;3.003043588250876E-003;4.383263643831015E-003;
2.408166666666667E+009;1.790321916341782E-001;7.153770886361599E-003;3.002049634233117E-003;4.138358868658543E-003;
2.408333333333334E+009;1.786728203296661E-001;6.310029886662960E-003;3.363094525411725E-003;4.080345388501883E-003;
2.408500000000000E+009;1.779903769493103E-001;5.357310175895691E-003;3.443389665335417E-003;3.987812437117100E-003;
2.408666666666667E+009;1.774032264947891E-001;4.665409214794636E-003;3.537959652021527E-003;3.710519988089800E-003;
2.408833333333334E+009;1.766229271888733E-001;3.470380092039704E-003;3.778869286179543E-003;3.560924902558327E-003;
2.409000000000000E+009;1.759706735610962E-001;2.697400050237775E-003;3.699460066854954E-003;3.327636746689677E-003;
2.409166666666667E+009;1.753856390714645E-001;1.407532719895244E-003;3.927134443074465E-003;3.249136963859201E-003;
2.409333333333334E+009;1.747528910636902E-001;1.003653742372990E-004;3.975945059210062E-003;3.095283405855298E-003;
2.409500000000000E+009;1.737481504678726E-001;-1.303297816775739E-003;4.188077524304390E-003;2.928948961198330E-003;
2.409666666666667E+009;1.731748133897781E-001;-2.602014224976301E-003;4.185762256383896E-003;2.863703994080424E-003;
2.409833333333334E+009;1.723505407571793E-001;-4.013053141534329E-003;4.244726151227951E-003;2.673612441867590E-003;
2.410000000000000E+009;1.717669665813446E-001;-5.380855873227119E-003;4.545090720057488E-003;2.449607942253351E-003;
2.410166666666667E+009;1.713077574968338E-001;-7.228050846606493E-003;4.450278822332621E-003;2.170188818126917E-003;
2.410333333333334E+009;1.704371869564056E-001;-8.924455381929874E-003;4.565502516925335E-003;2.082594670355320E-003;
2.410500000000000E+009;1.698697507381439E-001;-1.063398178666830E-002;4.646902438253164E-003;1.942016649991274E-003;
2.410666666666667E+009;1.693931967020035E-001;-1.252903137356043E-002;4.802363924682140E-003;1.785440486855805E-003;
2.410833333333334E+009;1.691396981477737E-001;-1.422529853880405E-002;4.867176059633493E-003;1.539011835120618E-003;
2.411000000000000E+009;1.683826893568039E-001;-1.601826772093773E-002;4.832540638744831E-003;1.427784329280257E-003;
2.411166666666667E+009;1.683886498212814E-001;-1.824244298040867E-002;4.831951111555100E-003;1.132816076278687E-003;
2.411333333333334E+009;1.680062711238861E-001;-2.009539119899273E-002;4.918870516121388E-003;1.003728481009603E-003;
2.411500000000000E+009;1.677517145872116E-001;-2.220622077584267E-002;5.030408501625061E-003;7.154745399020612E-004;
2.411666666666667E+009;1.677654832601547E-001;-2.399056777358055E-002;5.057378672063351E-003;4.341595631558448E-004;
2.411833333333334E+009;1.677157580852509E-001;-2.605448476970196E-002;4.924167413264513E-003;2.127763873431832E-004;
2.412000000000000E+009;1.679389476776123E-001;-2.799533680081368E-002;5.106276366859675E-003;-3.102862820014707E-006;
2.412166666666667E+009;1.677820533514023E-001;-2.994032576680183E-002;4.914307966828346E-003;-1.574518100824207E-004;
2.412333333333334E+009;1.680991798639298E-001;-3.183221444487572E-002;5.092400591820478E-003;-3.988460230175406E-004;
2.412500000000000E+009;1.681415289640427E-001;-3.367797657847405E-002;4.896755330264568E-003;-6.367731257341802E-004;
2.412666666666667E+009;1.686107069253922E-001;-3.571225330233574E-002;4.974254406988621E-003;-9.204155066981912E-004;
2.412833333333334E+009;1.690355092287064E-001;-3.767252340912819E-002;4.703605081886053E-003;-1.125849084928632E-003;
2.413000000000000E+009;1.694378554821014E-001;-3.948980942368507E-002;4.750503692775965E-003;-1.322524389252067E-003;
2.413166666666667E+009;1.698584258556366E-001;-4.118812084197998E-002;4.617368802428246E-003;-1.514491275884211E-003;
2.413333333333334E+009;1.703922748565674E-001;-4.295307397842407E-002;4.470796324312687E-003;-1.646632677875459E-003;
2.413500000000000E+009;1.710432916879654E-001;-4.449639096856117E-002;4.389224573969841E-003;-1.930331112816930E-003;
2.413666666666667E+009;1.715026497840881E-001;-4.608662426471710E-002;4.302030894905329E-003;-2.214101608842611E-003;
2.413833333333334E+009;1.722500622272492E-001;-4.757545515894890E-002;4.199206363409758E-003;-2.316042082384229E-003;
2.414000000000000E+009;1.726016998291016E-001;-4.910165071487427E-002;4.150960128754377E-003;-2.505071461200714E-003;
2.414166666666667E+009;1.734532564878464E-001;-5.026688426733017E-002;3.842355217784643E-003;-2.779591362923384E-003;
2.414333333333334E+009;1.738051325082779E-001;-5.142903327941895E-002;3.651901846751571E-003;-2.851778641343117E-003;
2.414500000000000E+009;1.745945364236832E-001;-5.265454575419426E-002;3.441585460677743E-003;-2.869695192202926E-003;
2.414666666666667E+009;1.751463562250137E-001;-5.356108769774437E-002;3.431453602388501E-003;-3.061078954488039E-003;
2.414833333333334E+009;1.756297796964645E-001;-5.462310835719109E-002;2.994959009811282E-003;-3.224581480026245E-003;
2.415000000000000E+009;1.761471182107925E-001;-5.528067797422409E-002;3.032333450391889E-003;-3.157492261379957E-003;
2.415166666666667E+009;1.765190809965134E-001;-5.617476999759674E-002;2.792438026517630E-003;-3.202112624421716E-003;
2.415333333333334E+009;1.770038008689880E-001;-5.690665915608406E-002;2.731601940467954E-003;-3.393217455595732E-003;
2.415500000000000E+009;1.774298548698425E-001;-5.733492225408554E-002;2.351159695535898E-003;-3.523462917655706E-003;
2.415666666666667E+009;1.776159852743149E-001;-5.785496905446053E-002;2.292090561240912E-003;-3.461129497736692E-003;
2.415833333333334E+009;1.780247390270233E-001;-5.833509936928749E-002;2.118187258020043E-003;-3.448787610977888E-003;
2.416000000000000E+009;1.780881583690643E-001;-5.881490930914879E-002;1.758525380864739E-003;-3.500306047499180E-003;
2.416166666666667E+009;1.781758368015289E-001;-5.924356356263161E-002;1.797675038687885E-003;-3.604433266445994E-003;
2.416333333333334E+009;1.781720072031021E-001;-5.947940796613693E-002;1.649433164857328E-003;-3.482656087726355E-003;
2.416500000000000E+009;1.780977100133896E-001;-5.978687480092049E-002;1.468200003728271E-003;-3.618395654484630E-003;
2.416666666666667E+009;1.779199540615082E-001;-5.986775830388069E-002;1.393717364408076E-003;-3.548535751178861E-003;
2.416833333333334E+009;1.777345389127731E-001;-6.020278856158257E-002;1.121585024520755E-003;-3.387693315744400E-003;
2.417000000000000E+009;1.771383881568909E-001;-6.042406335473061E-002;1.009812112897635E-003;-3.508168738335371E-003;
2.417166666666667E+009;1.767412573099136E-001;-6.059242784976959E-002;8.983008447103202E-004;-3.451583907008171E-003;
2.417333333333334E+009;1.762587875127792E-001;-6.069802865386009E-002;8.392586605623364E-004;-3.483825828880072E-003;
2.417500000000000E+009;1.755722016096115E-001;-6.105795130133629E-002;8.123122970573604E-004;-3.385496092960239E-003;
2.417666666666667E+009;1.750701665878296E-001;-6.120381504297257E-002;7.086590630933642E-004;-3.477973863482475E-003;
2.417833333333334E+009;1.740332841873169E-001;-6.130098178982735E-002;4.864141810685396E-004;-3.455155296251178E-003;
2.418000000000000E+009;1.732223182916641E-001;-6.180017068982124E-002;2.980152785312384E-004;-3.491555573418737E-003;
2.418166666666667E+009;1.723401546478272E-001;-6.192618608474731E-002;2.528709592297673E-004;-3.487171139568090E-003;
2.418333333333334E+009;1.713820546865463E-001;-6.238150969147682E-002;1.679770357441157E-004;-3.392612328752875E-003;
2.418500000000000E+009;1.703123301267624E-001;-6.279627233743668E-002;6.011240111547522E-005;-3.408269723877311E-003;
2.418666666666667E+009;1.692747771739960E-001;-6.327161192893982E-002;2.636319914017804E-005;-3.534818999469280E-003;
2.418833333333334E+009;1.678694039583206E-001;-6.389193236827850E-002;-1.693106896709651E-004;-3.453620010986924E-003;
2.419000000000000E+009;1.667022407054901E-001;-6.447704881429672E-002;-2.265046059619635E-004;-3.385691903531551E-003;
2.419166666666667E+009;1.655007153749466E-001;-6.504399329423904E-002;-3.091778780799359E-004;-3.358035581186414E-003;
2.419333333333334E+009;1.642586290836334E-001;-6.569309532642365E-002;-4.291007353458554E-004;-3.245261963456869E-003;
2.419500000000000E+009;1.629599481821060E-001;-6.663956493139267E-002;-5.360329523682594E-004;-3.286383114755154E-003;
2.419666666666667E+009;1.617341190576553E-001;-6.759090721607208E-002;-6.557407905347645E-004;-3.217566059902310E-003;
2.419833333333334E+009;1.605539470911026E-001;-6.841889023780823E-002;-8.720926125533879E-004;-3.306818427518010E-003;
2.420000000000000E+009;1.594680547714233E-001;-6.949306279420853E-002;-8.079095860011876E-004;-3.335902234539390E-003;
2.420166666666667E+009;1.583780646324158E-001;-7.057894021272659E-002;-8.911182521842420E-004;-3.270654706284404E-003;
2.420333333333334E+009;1.571910828351975E-001;-7.182630896568298E-002;-1.080782152712345E-003;-3.291152650490403E-003;
2.420500000000000E+009;1.564200669527054E-001;-7.295987010002136E-002;-1.129673561081290E-003;-3.266440704464912E-003;
2.420666666666667E+009;1.552546769380570E-001;-7.434785366058350E-002;-1.299951574765146E-003;-3.248418448492885E-003;
2.420833333333334E+009;1.545083224773407E-001;-7.587104290723801E-002;-1.398138236254454E-003;-3.110721008852124E-003;
2.421000000000000E+009;1.533059328794479E-001;-7.742968201637268E-002;-1.558823045343161E-003;-3.168419701978564E-003;
2.421166666666667E+009;1.526546925306320E-001;-7.872754335403442E-002;-1.941320952028036E-003;-3.049764782190323E-003;
2.421333333333334E+009;1.521887332201004E-001;-8.042164891958237E-002;-1.771542709320784E-003;-2.909600036218762E-003;
2.421500000000000E+009;1.513458937406540E-001;-8.199755102396011E-002;-2.030123025178909E-003;-2.819591434672475E-003;
2.421666666666667E+009;1.508925110101700E-001;-8.358066529035568E-002;-2.331655705347657E-003;-2.867502626031637E-003;
2.421833333333334E+009;1.504145413637161E-001;-8.523128181695938E-002;-2.298013539984822E-003;-2.789457095786929E-003;
2.422000000000000E+009;1.500363200902939E-001;-8.693679422140122E-002;-2.320395084097982E-003;-2.561095869168639E-003;
2.422166666666667E+009;1.498837321996689E-001;-8.887844532728195E-002;-2.434149384498596E-003;-2.443737583234906E-003;
2.422333333333334E+009;1.495854556560516E-001;-9.032493084669113E-002;-2.710522152483463E-003;-2.312021562829614E-003;
2.422500000000000E+009;1.494592577219009E-001;-9.200545400381088E-002;-2.622891683131456E-003;-2.251394791528583E-003;
2.422666666666667E+009;1.494061797857285E-001;-9.394126385450363E-002;-2.936223987489939E-003;-1.999429427087307E-003;
2.422833333333334E+009;1.496246904134750E-001;-9.572495520114899E-002;-3.064166521653533E-003;-1.891375402919948E-003;
2.423000000000000E+009;1.496481001377106E-001;-9.734650701284409E-002;-3.177559236064553E-003;-1.918495399877429E-003;
2.423166666666667E+009;1.499392241239548E-001;-9.906062483787537E-002;-3.160502994433045E-003;-1.731988042593002E-003;
2.423333333333334E+009;1.502828001976013E-001;-1.003169938921928E-001;-3.202568041160703E-003;-1.453643781132996E-003;
2.423500000000000E+009;1.505013555288315E-001;-1.021052375435829E-001;-3.190572140738368E-003;-1.358409528620541E-003;
2.423666666666667E+009;1.508210599422455E-001;-1.036577448248863E-001;-3.416078165173531E-003;-1.073603285476565E-003;
2.423833333333334E+009;1.512483060359955E-001;-1.050059646368027E-001;-3.188754199072719E-003;-8.537725661881268E-004;
2.424000000000000E+009;1.517328768968582E-001;-1.062925010919571E-001;-3.373690415173769E-003;-6.463613826781511E-004;
2.424166666666667E+009;1.521699875593185E-001;-1.076819077134132E-001;-3.253392875194550E-003;-3.415352839510888E-004;
2.424333333333334E+009;1.528224349021912E-001;-1.089220419526100E-001;-3.373995888978243E-003;-3.842693113256246E-004;
2.424500000000000E+009;1.531946957111359E-001;-1.100616380572319E-001;-3.291649278253317E-003;-1.109815275412984E-004;
2.424666666666667E+009;1.537580490112305E-001;-1.109345480799675E-001;-3.406623611226678E-003;2.067197783617303E-004;
2.424833333333334E+009;1.541821062564850E-001;-1.120838001370430E-001;-3.274877090007067E-003;4.399275348987430E-004;
2.425000000000000E+009;1.546567678451538E-001;-1.129625290632248E-001;-3.163429675623775E-003;4.332101088948548E-004;
2.425166666666667E+009;1.549829691648483E-001;-1.137695536017418E-001;-2.987021813169122E-003;7.206578156910837E-004;
2.425333333333334E+009;1.556139737367630E-001;-1.145327836275101E-001;-2.896681893616915E-003;8.511295891366899E-004;
2.425500000000000E+009;1.559138298034668E-001;-1.152888536453247E-001;-2.786485943943262E-003;1.063445699401200E-003;
2.425666666666667E+009;1.561111509799957E-001;-1.159207671880722E-001;-2.689447719603777E-003;1.205713837407529E-003;
2.425833333333334E+009;1.564987152814865E-001;-1.163836717605591E-001;-2.542539965361357E-003;1.393478247337043E-003;
2.426000000000000E+009;1.566045135259628E-001;-1.168676540255547E-001;-2.356295473873615E-003;1.402852474711835E-003;
2.426166666666667E+009;1.568848788738251E-001;-1.172436252236366E-001;-2.190936589613557E-003;1.559860771521926E-003;
2.426333333333334E+009;1.568630933761597E-001;-1.175750941038132E-001;-2.162042539566755E-003;1.641251146793366E-003;
2.426500000000000E+009;1.568914651870728E-001;-1.178273260593414E-001;-2.010588767006993E-003;1.812745002098382E-003;
2.426666666666667E+009;1.569518297910690E-001;-1.179384440183640E-001;-1.646613469347358E-003;1.752728130668402E-003;
2.426833333333334E+009;1.565859764814377E-001;-1.181446015834808E-001;-1.575562637299299E-003;1.706226612441242E-003;
2.427000000000000E+009;1.562731415033341E-001;-1.183805093169212E-001;-1.406925963237882E-003;1.807739725336433E-003;
2.427166666666667E+009;1.559112519025803E-001;-1.183612570166588E-001;-1.335818669758737E-003;1.815114635974169E-003;
2.427333333333334E+009;1.553392708301544E-001;-1.184869110584259E-001;-1.234145602211356E-003;1.695633283816278E-003;
2.427500000000000E+009;1.548460423946381E-001;-1.185111552476883E-001;-9.291910100728273E-004;1.921489834785461E-003;
2.427666666666667E+009;1.542025953531265E-001;-1.186865866184235E-001;-8.956131641753018E-004;1.845342922024429E-003;
