# Version 1.00
#
freq[Hz];re:Trc1_S11;im:Trc1_S11;re:Trc2_S21;im:Trc2_S21;
2.400000000000000E+009;1.715165227651596E-001;4.040455818176270E-002;1.569357467815280E-003;-3.107266500592232E-003;
2.400166666666667E+009;1.720859706401825E-001;3.982734680175781E-002;1.379292341880500E-003;-3.198478138074279E-003;
2.400333333333334E+009;1.725389063358307E-001;3.933913260698319E-002;1.346639241091907E-003;-3.325880272313952E-003;
2.400500000000000E+009;1.729402691125870E-001;3.849077224731445E-002;1.327854231931269E-003;-3.221416147425771E-003;
2.400666666666667E+009;1.732599139213562E-001;3.778602927923203E-002;1.111256657168269E-003;-3.343218239024282E-003;
2.400833333333334E+009;1.736864894628525E-001;3.739838302135468E-002;1.097332569770515E-003;-3.289911430329084E-003;
2.401000000000000E+009;1.736690998077393E-001;3.674807772040367E-002;1.012835069559515E-003;-3.418344305828214E-003;
2.401166666666667E+009;1.737980097532272E-001;3.608695790171623E-002;7.849648245610297E-004;-3.525889478623867E-003;
2.401333333333334E+009;1.738919168710709E-001;3.537862375378609E-002;6.582308560609818E-004;-3.448882140219212E-003;
2.401500000000000E+009;1.738912463188171E-001;3.477090224623680E-002;5.424032569862902E-004;-3.565425984561443E-003;
2.401666666666667E+009;1.739340424537659E-001;3.417649865150452E-002;4.193910863250494E-004;-3.677889704704285E-003;
2.401833333333334E+009;1.736045628786087E-001;3.342491015791893E-002;3.239211218897253E-004;-3.599482588469982E-003;
2.402000000000000E+009;1.733670383691788E-001;3.263211622834206E-002;2.412189351161942E-004;-3.553667571395636E-003;
2.402166666666667E+009;1.730828136205673E-001;3.167547658085823E-002;2.562222362030298E-004;-3.630698192864656E-003;
2.402333333333334E+009;1.729086190462112E-001;3.105911985039711E-002;-4.126541898585856E-005;-3.883257741108537E-003;
2.402500000000000E+009;1.726873815059662E-001;3.018001094460487E-002;-2.537650580052286E-004;-3.712698351591826E-003;
2.402666666666667E+009;1.722597777843475E-001;2.914931438863277E-002;-3.701154782902449E-004;-3.716832259669900E-003;
2.402833333333334E+009;1.719961017370224E-001;2.804717235267162E-002;-5.467020091600716E-004;-3.683106042444706E-003;
2.403000000000000E+009;1.717497110366821E-001;2.685994468629360E-002;-5.214068805798888E-004;-3.813468618318439E-003;
2.403166666666667E+009;1.714231967926025E-001;2.565129473805428E-002;-6.344555877149105E-004;-3.695836057886481E-003;
2.403333333333334E+009;1.711158603429794E-001;2.458900958299637E-002;-8.967758622020483E-004;-3.956898581236601E-003;
2.403500000000000E+009;1.705962866544724E-001;2.332168258726597E-002;-9.959539165720344E-004;-3.663276787847281E-003;
2.403666666666667E+009;1.701363772153854E-001;2.185091190040112E-002;-1.229098765179515E-003;-3.872298868373036E-003;
2.403833333333334E+009;1.698497682809830E-001;2.040188014507294E-002;-1.596334390342236E-003;-3.768895519897342E-003;
2.404000000000000E+009;1.695929616689682E-001;1.910629123449326E-002;-1.669342746026814E-003;-3.799463156610727E-003;
2.404166666666667E+009;1.692173331975937E-001;1.763939857482910E-002;-1.949417171999812E-003;-3.461460815742612E-003;
2.404333333333334E+009;1.689624190330505E-001;1.596038416028023E-002;-2.175050089135766E-003;-3.403981449082494E-003;
2.404500000000000E+009;1.685092002153397E-001;1.423036679625511E-002;-2.502527320757508E-003;-3.264000872150064E-003;
2.404666666666667E+009;1.683126389980316E-001;1.271447725594044E-002;-2.763250144198537E-003;-3.043420845642686E-003;
2.404833333333334E+009;1.681321114301682E-001;1.103489007800818E-002;-2.850926481187344E-003;-2.854983089491725E-003;
2.405000000000000E+009;1.679771989583969E-001;9.155181236565113E-003;-2.903343411162496E-003;-2.579967491328716E-003;
2.405166666666667E+009;1.677633523941040E-001;7.446733303368092E-003;-2.911287359893322E-003;-2.337009413167834E-003;
2.405333333333334E+009;1.679227948188782E-001;5.454187747091055E-003;-2.980130724608898E-003;-2.036388264968991E-003;
2.405500000000000E+009;1.676868051290512E-001;3.875487251207233E-003;-2.813162049278617E-003;-1.959828659892082E-003;
2.405666666666667E+009;1.676192730665207E-001;1.918466761708260E-003;-2.964077517390251E-003;-1.558303949423134E-003;
2.405833333333334E+009;1.675204932689667E-001;1.030624189297669E-004;-2.957430901005864E-003;-1.278463867492974E-003;
2.406000000000000E+009;1.675553470849991E-001;-1.881356351077557E-003;-2.675374737009406E-003;-1.134252524934709E-003;
2.406166666666667E+009;1.675519496202469E-001;-3.574683563783765E-003;-2.595831640064716E-003;-1.039486029185355E-003;
2.406333333333334E+009;1.678110361099243E-001;-5.507456604391336E-003;-2.622661413624883E-003;-8.855216437950730E-004;
2.406500000000000E+009;1.677699983119965E-001;-7.113050669431686E-003;-2.451895968988538E-003;-8.919084211811423E-004;
2.406666666666667E+009;1.675286442041397E-001;-8.805904537439346E-003;-2.350541530176997E-003;-8.649614755995572E-004;
2.406833333333334E+009;1.677194088697434E-001;-1.054058503359556E-002;-2.276999875903130E-003;-6.755182403139770E-004;
2.407000000000000E+009;1.677531152963638E-001;-1.208805199712515E-002;-2.176017267629504E-003;-6.499589653685689E-004;
2.407166666666667E+009;1.678944081068039E-001;-1.366269402205944E-002;-2.069448586553335E-003;-5.724959191866219E-004;
2.407333333333334E+009;1.678666174411774E-001;-1.526847109198570E-002;-2.008490264415741E-003;-6.480009178631008E-004;
2.407500000000000E+009;1.680204719305039E-001;-1.653926074504852E-002;-1.977155217900872E-003;-4.929830902256072E-004;
2.407666666666667E+009;1.680495142936707E-001;-1.778432726860046E-002;-1.835320144891739E-003;-5.019214004278183E-004;
2.407833333333334E+009;1.681815385818481E-001;-1.905498839914799E-002;-1.825203304179013E-003;-4.376957367639989E-004;
2.408000000000000E+009;1.683370172977448E-001;-2.012751810252667E-002;-1.555635244585574E-003;-4.804584314115346E-004;
2.408166666666667E+009;1.685077697038651E-001;-2.111199311912060E-002;-1.725747017189860E-003;-3.684735274873674E-004;
2.408333333333334E+009;1.689068824052811E-001;-2.204385399818420E-002;-1.577351940795779E-003;-4.183654964435846E-004;
2.408500000000000E+009;1.691531389951706E-001;-2.296341955661774E-002;-1.548951608128846E-003;-4.057338810525835E-004;
2.408666666666667E+009;1.694029122591019E-001;-2.372044883668423E-002;-1.383586088195443E-003;-5.140370340086520E-004;
2.408833333333334E+009;1.698450297117233E-001;-2.455611340701580E-002;-1.429682713933289E-003;-5.836468189954758E-004;
2.409000000000000E+009;1.700108051300049E-001;-2.530445344746113E-002;-1.251320354640484E-003;-8.024870767258108E-004;
2.409166666666667E+009;1.703369468450546E-001;-2.572153694927692E-002;-1.332485233433545E-003;-7.118773646652699E-004;
2.409333333333334E+009;1.708764582872391E-001;-2.667212113738060E-002;-1.355099258944392E-003;-8.505145669914782E-004;
2.409500000000000E+009;1.711658239364624E-001;-2.750410512089729E-002;-1.325335237197578E-003;-9.095168788917363E-004;
2.409666666666667E+009;1.714468449354172E-001;-2.823614887893200E-002;-1.338549074716866E-003;-1.037625479511917E-003;
2.409833333333334E+009;1.715012937784195E-001;-2.861461229622364E-002;-1.266368664801121E-003;-1.085277879610658E-003;
2.410000000000000E+009;1.719043850898743E-001;-2.940700575709343E-002;-1.538613112643361E-003;-1.172523247078061E-003;
2.410166666666667E+009;1.720132678747177E-001;-2.994963526725769E-002;-1.655609463341534E-003;-1.291611464694142E-003;
2.410333333333334E+009;1.720541715621948E-001;-3.085306100547314E-002;-1.826208434067667E-003;-1.285426435060799E-003;
2.410500000000000E+009;1.720931977033615E-001;-3.145071491599083E-002;-1.772874151356518E-003;-1.381046138703823E-003;
2.410666666666667E+009;1.719121485948563E-001;-3.214481472969055E-002;-1.886660233139992E-003;-1.333587220869958E-003;
2.410833333333334E+009;1.718288213014603E-001;-3.280115872621536E-002;-2.149388194084168E-003;-1.365228556096554E-003;
2.411000000000000E+009;1.717127263545990E-001;-3.333444520831108E-002;-2.095886506140232E-003;-1.449862145818770E-003;
2.411166666666667E+009;1.713560968637466E-001;-3.393846377730370E-002;-2.331226365640760E-003;-1.328518730588257E-003;
2.411333333333334E+009;1.711142212152481E-001;-3.467193618416786E-002;-2.471470274031162E-003;-1.279280171729624E-003;
2.411500000000000E+009;1.707141995429993E-001;-3.546686843037605E-002;-2.637216355651617E-003;-1.263021142221987E-003;
2.411666666666667E+009;1.705121397972107E-001;-3.602000698447228E-002;-2.848434261977673E-003;-1.162789179943502E-003;
2.411833333333334E+009;1.700077503919601E-001;-3.657714277505875E-002;-2.832702128216624E-003;-9.708852740004659E-004;
2.412000000000000E+009;1.696981787681580E-001;-3.726885840296745E-002;-3.025024896487594E-003;-1.050906721502543E-003;
2.412166666666667E+009;1.690275073051453E-001;-3.816856071352959E-002;-3.170063719153404E-003;-7.468977128155530E-004;
2.412333333333334E+009;1.687461882829666E-001;-3.877790272235870E-002;-3.264053491875529E-003;-7.468412513844669E-004;
2.412500000000000E+009;1.680615693330765E-001;-3.979231044650078E-002;-3.171963617205620E-003;-4.183858982287347E-004;
2.412666666666667E+009;1.675125360488892E-001;-4.076523706316948E-002;-3.393186023458839E-003;-4.181642143521458E-004;
2.412833333333334E+009;1.668835133314133E-001;-4.159075394272804E-002;-3.417767584323883E-003;-3.332013729959726E-004;
2.413000000000000E+009;1.661343872547150E-001;-4.279077053070068E-002;-3.398727858439088E-003;-1.731559459585697E-004;
2.413166666666667E+009;1.654335111379623E-001;-4.359123110771179E-002;-3.409662283957005E-003;2.879798739741091E-005;
2.413333333333334E+009;1.647563576698303E-001;-4.454615712165833E-002;-3.405229654163122E-003;6.398728874046356E-005;
2.413500000000000E+009;1.640869230031967E-001;-4.571402072906494E-002;-3.494123462587595E-003;3.067057405132800E-004;
2.413666666666667E+009;1.632976830005646E-001;-4.678395017981529E-002;-3.531816415488720E-003;4.315858532208949E-004;
2.413833333333334E+009;1.625273823738098E-001;-4.784345999360085E-002;-3.502501407638192E-003;5.802717641927302E-004;
2.414000000000000E+009;1.617631316184998E-001;-4.880146682262421E-002;-3.681237809360027E-003;6.397498073056340E-004;
2.414166666666667E+009;1.613516211509705E-001;-4.990658909082413E-002;-3.531121648848057E-003;7.041596691124141E-004;
2.414333333333334E+009;1.606618165969849E-001;-5.107457190752029E-002;-3.629478160291910E-003;8.256658911705017E-004;
2.414500000000000E+009;1.603382080793381E-001;-5.219558626413345E-002;-3.772658528760076E-003;1.089119235984981E-003;
2.414666666666667E+009;1.596643775701523E-001;-5.333522707223892E-002;-3.673837054520845E-003;1.336386427283287E-003;
2.414833333333334E+009;1.592383384704590E-001;-5.467463284730911E-002;-3.633856773376465E-003;1.570888445712626E-003;
2.415000000000000E+009;1.587469577789307E-001;-5.583737418055534E-002;-3.509044414386153E-003;1.727527240291238E-003;
2.415166666666667E+009;1.584480404853821E-001;-5.712297931313515E-002;-3.577382070943713E-003;1.800816389732063E-003;
2.415333333333334E+009;1.582430303096771E-001;-5.846621468663216E-002;-3.561033168807626E-003;2.119733253493905E-003;
2.415500000000000E+009;1.580173224210739E-001;-5.979339405894280E-002;-3.363410942256451E-003;2.361115533858538E-003;
2.415666666666667E+009;1.576164662837982E-001;-6.104288622736931E-002;-3.147251904010773E-003;2.415357623249292E-003;
2.415833333333334E+009;1.576437950134277E-001;-6.262021511793137E-002;-2.957188989967108E-003;2.630888950079680E-003;
2.416000000000000E+009;1.573697328567505E-001;-6.401244550943375E-002;-2.908205846324563E-003;2.801662543788552E-003;
2.416166666666667E+009;1.573559790849686E-001;-6.551324576139450E-002;-2.751356689259410E-003;2.861511660739780E-003;
2.416333333333334E+009;1.571204960346222E-001;-6.697408854961395E-002;-2.441787393763661E-003;3.089539008215070E-003;
2.416500000000000E+009;1.569896936416626E-001;-6.843370944261551E-002;-2.436734503135085E-003;3.104170085862279E-003;
2.416666666666667E+009;1.567436754703522E-001;-6.969730556011200E-002;-2.306164475157857E-003;3.130015451461077E-003;
2.416833333333334E+009;1.567557603120804E-001;-7.119452953338623E-002;-2.056527882814407E-003;3.100180998444557E-003;
2.417000000000000E+009;1.563675701618195E-001;-7.258232682943344E-002;-1.914245192892849E-003;3.356140339747071E-003;
2.417166666666667E+009;1.561892628669739E-001;-7.367016375064850E-002;-1.644919160753489E-003;3.228990826755762E-003;
2.417333333333334E+009;1.562073230743408E-001;-7.482248544692993E-002;-1.511672511696816E-003;3.257410833612084E-003;
2.417500000000000E+009;1.561082452535629E-001;-7.611288130283356E-002;-1.497776480391622E-003;3.284972626715899E-003;
2.417666666666667E+009;1.559810787439346E-001;-7.699341326951981E-002;-1.328874262981117E-003;3.319832962006331E-003;
2.417833333333334E+009;1.558283120393753E-001;-7.797738164663315E-002;-1.228848588652909E-003;3.302208613604307E-003;
2.418000000000000E+009;1.557314842939377E-001;-7.902184873819351E-002;-7.976192864589393E-004;3.104367060586810E-003;
2.418166666666667E+009;1.556796580553055E-001;-7.977811992168427E-002;-9.643404628150165E-004;3.226010594516993E-003;
2.418333333333334E+009;1.559533029794693E-001;-8.067791908979416E-002;-8.100414415821433E-004;2.981856465339661E-003;
2.418500000000000E+009;1.557230204343796E-001;-8.148419111967087E-002;-8.604633621871471E-004;3.040533512830734E-003;
2.418666666666667E+009;1.557608097791672E-001;-8.213683962821960E-002;-7.510007126256824E-004;3.142694476991892E-003;
2.418833333333334E+009;1.556385308504105E-001;-8.282146602869034E-002;-6.476767593994737E-004;3.119357395917177E-003;
2.419000000000000E+009;1.553807258605957E-001;-8.350724726915360E-002;-6.353440694510937E-004;3.014513291418552E-003;
2.419166666666667E+009;1.553755998611450E-001;-8.414845913648605E-002;-6.208796403370798E-004;3.030177671462297E-003;
2.419333333333334E+009;1.551518887281418E-001;-8.451201766729355E-002;-4.360179591458291E-004;2.952337497845292E-003;
2.419500000000000E+009;1.550456434488297E-001;-8.521869033575058E-002;-4.623765998985618E-004;3.038014983758330E-003;
2.419666666666667E+009;1.550978869199753E-001;-8.564347773790360E-002;-3.964517964050174E-004;2.933758776634932E-003;
2.419833333333334E+009;1.547417789697647E-001;-8.592467755079269E-002;-2.583306632004678E-004;2.962606959044933E-003;
2.420000000000000E+009;1.546360850334168E-001;-8.633277565240860E-002;-6.700817175442353E-005;2.905673114582896E-003;
2.420166666666667E+009;1.543571799993515E-001;-8.680047094821930E-002;-1.818171003833413E-004;3.012508619576693E-003;
2.420333333333334E+009;1.541328132152557E-001;-8.723873645067215E-002;-9.531837713439018E-005;2.905943896621466E-003;
2.420500000000000E+009;1.538612246513367E-001;-8.736430108547211E-002;-2.143755045835860E-005;3.047402948141098E-003;
2.420666666666667E+009;1.534798145294190E-001;-8.764686435461044E-002;6.764007412130013E-005;2.985801547765732E-003;
2.420833333333334E+009;1.531051099300385E-001;-8.808669447898865E-002;2.084068837575615E-004;2.952132606878877E-003;
2.421000000000000E+009;1.527792513370514E-001;-8.862495422363281E-002;2.219314774265513E-004;2.946618013083935E-003;
2.421166666666667E+009;1.523813009262085E-001;-8.896884322166443E-002;2.992461086250842E-004;2.835965482518077E-003;
2.421333333333334E+009;1.520420014858246E-001;-8.958907425403595E-002;3.196830220986158E-004;2.947416156530380E-003;
2.421500000000000E+009;1.511690616607666E-001;-8.990740776062012E-002;3.810487105511129E-004;2.995388349518180E-003;
2.421666666666667E+009;1.506661772727966E-001;-9.037698805332184E-002;5.530570051632822E-004;2.908409573137760E-003;
2.421833333333334E+009;1.502389311790466E-001;-9.084387868642807E-002;5.186315393075347E-004;2.998430980369449E-003;
2.422000000000000E+009;1.491872817277908E-001;-9.143530577421188E-002;6.729117594659329E-004;3.079556627199054E-003;
2.422166666666667E+009;1.485876888036728E-001;-9.214054793119431E-002;7.792397518642247E-004;3.078057197853923E-003;
2.422333333333334E+009;1.477498114109039E-001;-9.266799688339233E-002;7.081404328346252E-004;3.108685137704015E-003;
2.422500000000000E+009;1.468070745468140E-001;-9.333907812833786E-002;8.594671380706132E-004;3.113018348813057E-003;
2.422666666666667E+009;1.460780948400497E-001;-9.394170343875885E-002;1.148434123024344E-003;3.055457025766373E-003;
2.422833333333334E+009;1.450555324554443E-001;-9.472532570362091E-002;1.173547352664173E-003;2.906882902607322E-003;
2.423000000000000E+009;1.442787051200867E-001;-9.554317593574524E-002;1.216440461575985E-003;2.886978443711996E-003;
2.423166666666667E+009;1.433673650026321E-001;-9.627318382263184E-002;1.518395962193608E-003;3.062244504690170E-003;
2.423333333333334E+009;1.426925659179688E-001;-9.707906842231751E-002;1.545891631394625E-003;2.803145907819271E-003;
2.423500000000000E+009;1.416119039058685E-001;-9.807621687650681E-002;1.647271797992289E-003;2.657953184098005E-003;
2.423666666666667E+009;1.405781507492065E-001;-9.901785105466843E-002;1.870689098723233E-003;2.669798908755183E-003;
2.423833333333334E+009;1.398363262414932E-001;-9.994535893201828E-002;1.646645949222148E-003;2.661236329004169E-003;
2.424000000000000E+009;1.387078166007996E-001;-1.008234098553658E-001;1.955176936462522E-003;2.532620914280415E-003;
2.424166666666667E+009;1.378890722990036E-001;-1.020166128873825E-001;2.021012827754021E-003;2.410357119515538E-003;
2.424333333333334E+009;1.370397657155991E-001;-1.029123440384865E-001;1.966475974768400E-003;2.354399766772986E-003;
2.424500000000000E+009;1.363641023635864E-001;-1.040446162223816E-001;2.127402927726507E-003;2.349287271499634E-003;
2.424666666666667E+009;1.356161832809448E-001;-1.049523726105690E-001;2.154268790036440E-003;2.387053333222866E-003;
2.424833333333334E+009;1.346844285726547E-001;-1.061565876007080E-001;2.171843312680721E-003;2.039444865658879E-003;
2.425000000000000E+009;1.341474503278732E-001;-1.073317080736160E-001;2.289651660248637E-003;2.056637080386281E-003;
2.425166666666667E+009;1.332180798053742E-001;-1.085428148508072E-001;2.304643625393510E-003;2.038512378931046E-003;
2.425333333333334E+009;1.326517611742020E-001;-1.096756085753441E-001;2.287469338625670E-003;2.028820570558310E-003;
2.425500000000000E+009;1.321700215339661E-001;-1.108998581767082E-001;2.346083987504244E-003;1.723544439300895E-003;
2.425666666666667E+009;1.314893960952759E-001;-1.120874881744385E-001;2.348967827856541E-003;1.624700031243265E-003;
2.425833333333334E+009;1.310496479272842E-001;-1.132376566529274E-001;2.298567444086075E-003;1.527666230686009E-003;
2.426000000000000E+009;1.304873526096344E-001;-1.145304068922997E-001;2.384360879659653E-003;1.331762294284999E-003;
2.426166666666667E+009;1.302923262119293E-001;-1.157438382506371E-001;2.317314269021154E-003;1.468830858357251E-003;
2.426333333333334E+009;1.297285109758377E-001;-1.168138980865479E-001;2.355947159230709E-003;1.313476939685643E-003;
2.426500000000000E+009;1.293513923883438E-001;-1.179837882518768E-001;2.325516426935792E-003;1.224548439495266E-003;
2.426666666666667E+009;1.291308254003525E-001;-1.189002767205238E-001;2.379368292167783E-003;1.245207502506673E-003;
2.426833333333334E+009;1.287628710269928E-001;-1.200370267033577E-001;2.378955483436585E-003;1.195149030536413E-003;
2.427000000000000E+009;1.285151094198227E-001;-1.210964322090149E-001;2.347876550629735E-003;1.216549775563180E-003;
2.427166666666667E+009;1.282276213169098E-001;-1.219987049698830E-001;2.429985906928778E-003;1.179579761810601E-003;
2.427333333333334E+009;1.280250251293182E-001;-1.229633390903473E-001;2.431262517347932E-003;1.242726808413863E-003;
2.427500000000000E+009;1.279933154582977E-001;-1.238209381699562E-001;2.348242327570915E-003;8.982830331660807E-004;
2.427666666666667E+009;1.278394609689713E-001;-1.246804893016815E-001;2.550571924075484E-003;9.928549407050014E-004;
