# Version 1.00
#
freq[Hz];re:Trc1_S11;im:Trc1_S11;re:Trc2_S21;im:Trc2_S21;
2.400000000000000E+009;1.550244688987732E-001;1.065264493227005E-001;2.422340214252472E-003;-2.420600270852447E-003;
2.400166666666667E+009;1.547223329544067E-001;1.039893701672554E-001;2.189020626246929E-003;-2.402986632660031E-003;
2.400333333333334E+009;1.548533141613007E-001;1.018266230821610E-001;2.319884719327092E-003;-2.440616721287370E-003;
2.400500000000000E+009;1.547614037990570E-001;9.907308965921402E-002;2.253056503832340E-003;-2.500768052414060E-003;
2.400666666666667E+009;1.548153162002564E-001;9.641564637422562E-002;2.307011978700757E-003;-2.612313488498330E-003;
2.400833333333334E+009;1.549692600965500E-001;9.368173778057098E-002;2.230069134384394E-003;-2.637992845848203E-003;
2.401000000000000E+009;1.550790071487427E-001;9.096331894397736E-002;2.027341164648533E-003;-2.657163189724088E-003;
2.401166666666667E+009;1.551200151443481E-001;8.821705728769302E-002;2.228372497484088E-003;-2.723563928157091E-003;
2.401333333333334E+009;1.557588875293732E-001;8.540810644626617E-002;2.168537816032767E-003;-2.858214778825641E-003;
2.401500000000000E+009;1.561113148927689E-001;8.247490972280502E-002;2.029093680903316E-003;-2.740191994234920E-003;
2.401666666666667E+009;1.565817147493362E-001;7.966200262308121E-002;1.952892169356346E-003;-2.870658645406365E-003;
2.401833333333334E+009;1.571346074342728E-001;7.699251919984818E-002;1.799242105334997E-003;-3.050562227144837E-003;
2.402000000000000E+009;1.580584794282913E-001;7.436930388212204E-002;1.663171453401446E-003;-3.149154363200069E-003;
2.402166666666667E+009;1.587772667407990E-001;7.194668054580689E-002;1.466275542043150E-003;-3.149722469970584E-003;
2.402333333333334E+009;1.598190814256668E-001;6.924688071012497E-002;1.585392863489687E-003;-3.181490115821362E-003;
2.402500000000000E+009;1.609958410263062E-001;6.682680547237396E-002;1.419122796505690E-003;-3.159561892971396E-003;
2.402666666666667E+009;1.621156632900238E-001;6.445185095071793E-002;1.080796588212252E-003;-3.293206915259361E-003;
2.402833333333334E+009;1.634074002504349E-001;6.206544488668442E-002;8.691658149473369E-004;-3.192788688465953E-003;
2.403000000000000E+009;1.648736149072647E-001;5.968967825174332E-002;6.708779255859554E-004;-3.293560352176428E-003;
2.403166666666667E+009;1.666118800640106E-001;5.762414261698723E-002;5.674988497048616E-004;-3.244278021156788E-003;
2.403333333333334E+009;1.681563705205917E-001;5.534114688634872E-002;3.956615400966257E-004;-3.141716355457902E-003;
2.403500000000000E+009;1.699317097663879E-001;5.340188741683960E-002;3.299657837487757E-004;-3.008663421496749E-003;
2.403666666666667E+009;1.718794703483582E-001;5.141930282115936E-002;2.398723736405373E-004;-2.781673334538937E-003;
2.403833333333334E+009;1.733506470918655E-001;4.960417002439499E-002;1.786126813385636E-004;-2.707298612222076E-003;
2.404000000000000E+009;1.749137789011002E-001;4.794358834624291E-002;9.260462684324011E-005;-2.680486999452114E-003;
2.404166666666667E+009;1.766085177659988E-001;4.633693769574165E-002;1.193295829580165E-004;-2.413190435618162E-003;
2.404333333333334E+009;1.783186197280884E-001;4.490692541003227E-002;1.383881899528205E-004;-2.258733613416553E-003;
2.404500000000000E+009;1.799737811088562E-001;4.379137977957726E-002;3.213068412151188E-004;-2.155230846256018E-003;
2.404666666666667E+009;1.816143244504929E-001;4.253014177083969E-002;3.968347155023366E-004;-2.239156980067492E-003;
2.404833333333334E+009;1.832439303398132E-001;4.134593531489372E-002;4.509994469117373E-004;-2.269088523462415E-003;
2.405000000000000E+009;1.844150871038437E-001;4.072112217545509E-002;4.683066799771041E-004;-2.335242694243789E-003;
2.405166666666667E+009;1.860337704420090E-001;4.003950580954552E-002;4.735359107144177E-004;-2.562647452577949E-003;
2.405333333333334E+009;1.873185038566589E-001;3.956925123929977E-002;5.064510623924434E-004;-2.518695779144764E-003;
2.405500000000000E+009;1.887290477752686E-001;3.904635831713677E-002;5.584408063441515E-004;-2.506900113075972E-003;
2.405666666666667E+009;1.899778693914414E-001;3.874168545007706E-002;5.169347859919071E-004;-2.619640203192830E-003;
2.405833333333334E+009;1.911174505949020E-001;3.843985497951508E-002;5.345231038518250E-004;-2.540019340813160E-003;
2.406000000000000E+009;1.920576691627502E-001;3.839273005723953E-002;3.469557559583336E-004;-2.672485075891018E-003;
2.406166666666667E+009;1.931174248456955E-001;3.806081414222717E-002;2.203370095230639E-004;-2.594300080090761E-003;
2.406333333333334E+009;1.938872635364533E-001;3.824881836771965E-002;1.238117984030396E-004;-2.616875572130084E-003;
2.406500000000000E+009;1.945482641458511E-001;3.807289153337479E-002;1.479258498875424E-004;-2.663546008989215E-003;
2.406666666666667E+009;1.952823996543884E-001;3.802856430411339E-002;7.063716475386173E-005;-2.580531174317002E-003;
2.406833333333334E+009;1.958093494176865E-001;3.803984075784683E-002;2.528760160203092E-005;-2.558442763984203E-003;
2.407000000000000E+009;1.958954781293869E-001;3.815770894289017E-002;1.829892426030710E-004;-2.553270664066076E-003;
2.407166666666667E+009;1.963919103145599E-001;3.793125599622726E-002;2.634908560139593E-005;-2.562752226367593E-003;
2.407333333333334E+009;1.962645947933197E-001;3.813510760664940E-002;2.514747320674360E-004;-2.525652060285211E-003;
2.407500000000000E+009;1.960518509149551E-001;3.804125264286995E-002;1.502515660831705E-004;-2.532884478569031E-003;
2.407666666666667E+009;1.960748136043549E-001;3.801437094807625E-002;3.360217669978738E-004;-2.686165971681476E-003;
2.407833333333334E+009;1.956219822168350E-001;3.777252137660980E-002;3.075469576288015E-004;-2.740203402936459E-003;
2.408000000000000E+009;1.955495178699493E-001;3.764729946851730E-002;4.150376480538398E-004;-2.778458409011364E-003;
2.408166666666667E+009;1.948907524347305E-001;3.719754144549370E-002;5.006940336897969E-004;-2.740508876740933E-003;
2.408333333333334E+009;1.943631619215012E-001;3.668242320418358E-002;4.035258898511529E-004;-3.031153231859207E-003;
2.408500000000000E+009;1.937384456396103E-001;3.636297583580017E-002;2.285644004587084E-004;-3.080684458836913E-003;
2.408666666666667E+009;1.929691880941391E-001;3.571053966879845E-002;2.509599144104868E-004;-3.148505697026849E-003;
2.408833333333334E+009;1.923182308673859E-001;3.490106761455536E-002;3.192698350176215E-004;-3.540729871019721E-003;
2.409000000000000E+009;1.914297938346863E-001;3.405238687992096E-002;8.221095049520955E-005;-3.631228348240256E-003;
2.409166666666667E+009;1.903701126575470E-001;3.292758762836456E-002;6.624757952522486E-005;-3.670415841042996E-003;
2.409333333333334E+009;1.896233558654785E-001;3.176558762788773E-002;-2.224100753664970E-004;-3.891118802130222E-003;
2.409500000000000E+009;1.883461922407150E-001;3.053070232272148E-002;-2.707511885091662E-004;-4.045327659696341E-003;
2.409666666666667E+009;1.874153614044190E-001;2.901485934853554E-002;-5.677459994331002E-004;-4.016817547380924E-003;
2.409833333333334E+009;1.863497048616409E-001;2.760203741490841E-002;-6.751730688847601E-004;-4.249212332069874E-003;
2.410000000000000E+009;1.855077445507050E-001;2.594242803752422E-002;-8.902183035388589E-004;-4.244974348694086E-003;
2.410166666666667E+009;1.842986494302750E-001;2.392544411122799E-002;-1.202102634124458E-003;-4.148124717175961E-003;
2.410333333333334E+009;1.833233982324600E-001;2.226908877491951E-002;-1.483783242292702E-003;-4.276567138731480E-003;
2.410500000000000E+009;1.825446486473084E-001;2.036909945309162E-002;-1.753612421452999E-003;-4.259149078279734E-003;
2.410666666666667E+009;1.815492659807205E-001;1.800660043954849E-002;-1.848839456215501E-003;-4.126641899347305E-003;
2.410833333333334E+009;1.810565590858460E-001;1.581470482051373E-002;-2.039963845163584E-003;-4.207896534353495E-003;
2.411000000000000E+009;1.803268790245056E-001;1.375278364866972E-002;-2.277569612488151E-003;-4.084294196218252E-003;
2.411166666666667E+009;1.796549558639526E-001;1.138230506330729E-002;-2.480190480127931E-003;-4.167043603956699E-003;
2.411333333333334E+009;1.791200041770935E-001;9.040140546858311E-003;-2.749467501416802E-003;-3.900761017575860E-003;
2.411500000000000E+009;1.787060499191284E-001;6.625975016504526E-003;-2.870707772672176E-003;-3.983394708484411E-003;
2.411666666666667E+009;1.785832345485687E-001;4.248351324349642E-003;-3.087644698098302E-003;-3.751998068764806E-003;
2.411833333333334E+009;1.782808601856232E-001;1.883553224615753E-003;-3.361358307301998E-003;-3.740513697266579E-003;
2.412000000000000E+009;1.783837378025055E-001;-6.361874402500689E-004;-3.229679306969047E-003;-3.583778161555529E-003;
2.412166666666667E+009;1.785682737827301E-001;-2.879773732274771E-003;-3.569882363080978E-003;-3.408317454159260E-003;
2.412333333333334E+009;1.785457432270050E-001;-5.439041648060083E-003;-3.703076858073473E-003;-3.334430279210210E-003;
2.412500000000000E+009;1.791402101516724E-001;-7.788024842739105E-003;-3.959388937801123E-003;-3.139735432341695E-003;
2.412666666666667E+009;1.794126778841019E-001;-1.031581219285727E-002;-4.030945710837841E-003;-3.090478945523500E-003;
2.412833333333334E+009;1.802778095006943E-001;-1.274248771369457E-002;-4.298162180930376E-003;-2.886129077523947E-003;
2.413000000000000E+009;1.808698326349258E-001;-1.487693842500448E-002;-4.522487055510283E-003;-2.679416444152594E-003;
2.413166666666667E+009;1.819588094949722E-001;-1.709067448973656E-002;-4.715179093182087E-003;-2.558660227805376E-003;
2.413333333333334E+009;1.828252524137497E-001;-1.938462071120739E-002;-4.866586998105049E-003;-2.277140971273184E-003;
2.413500000000000E+009;1.838425844907761E-001;-2.151958271861076E-002;-5.129353608936071E-003;-1.934374216943979E-003;
2.413666666666667E+009;1.848831325769424E-001;-2.366675622761250E-002;-5.170254968106747E-003;-1.609833445400000E-003;
2.413833333333334E+009;1.861690729856491E-001;-2.568325027823448E-002;-5.178657826036215E-003;-1.348269288428128E-003;
2.414000000000000E+009;1.867751032114029E-001;-2.756210789084435E-002;-5.235204007476568E-003;-8.449722081422806E-004;
2.414166666666667E+009;1.884151846170425E-001;-2.924144454300404E-002;-5.338049028068781E-003;-6.658654892817140E-004;
2.414333333333334E+009;1.893796473741531E-001;-3.124049305915833E-002;-5.374739412218332E-003;-2.733669534791261E-004;
2.414500000000000E+009;1.906288266181946E-001;-3.245512768626213E-002;-5.219954531639814E-003;-9.873056114884093E-005;
2.414666666666667E+009;1.918200552463532E-001;-3.392137959599495E-002;-5.124887451529503E-003;3.110267862211913E-004;
2.414833333333334E+009;1.928512752056122E-001;-3.526880592107773E-002;-5.023969337344170E-003;5.185264162719250E-004;
2.415000000000000E+009;1.940598189830780E-001;-3.661498054862022E-002;-5.064528901129961E-003;8.234393317252398E-004;
2.415166666666667E+009;1.951921880245209E-001;-3.752633929252625E-002;-4.655948374420404E-003;9.187779505737126E-004;
2.415333333333334E+009;1.963835358619690E-001;-3.852975741028786E-002;-4.660259000957012E-003;1.229841611348093E-003;
2.415500000000000E+009;1.974953413009644E-001;-3.913809731602669E-002;-4.580315668135881E-003;1.433899276889861E-003;
2.415666666666667E+009;1.984042376279831E-001;-3.996091708540916E-002;-4.368727561086416E-003;1.681295922026038E-003;
2.415833333333334E+009;1.992532908916473E-001;-4.053199291229248E-002;-4.105770494788885E-003;1.742479507811368E-003;
2.416000000000000E+009;1.999522596597672E-001;-4.115068167448044E-002;-4.036645404994488E-003;1.935010659508407E-003;
2.416166666666667E+009;2.007392197847366E-001;-4.166892543435097E-002;-3.991205245256424E-003;2.097964752465487E-003;
2.416333333333334E+009;2.013543844223023E-001;-4.187849164009094E-002;-3.677099011838436E-003;2.231320133432746E-003;
2.416500000000000E+009;2.017245888710022E-001;-4.215235635638237E-002;-3.413327736780047E-003;2.434778958559036E-003;
2.416666666666667E+009;2.020296752452850E-001;-4.236140102148056E-002;-3.203133353963494E-003;2.416311530396342E-003;
2.416833333333334E+009;2.022931575775147E-001;-4.243383929133415E-002;-2.882098313421011E-003;2.635251265019178E-003;
2.417000000000000E+009;2.022638171911240E-001;-4.267191886901856E-002;-2.780060516670346E-003;2.597732236608863E-003;
2.417166666666667E+009;2.020118981599808E-001;-4.254791140556335E-002;-2.431078813970089E-003;2.577272476628423E-003;
2.417333333333334E+009;2.017076164484024E-001;-4.234673455357552E-002;-2.083755331113935E-003;2.484753727912903E-003;
2.417500000000000E+009;2.014671117067337E-001;-4.243202880024910E-002;-1.940027228556573E-003;2.424474805593491E-003;
2.417666666666667E+009;2.008873820304871E-001;-4.224905371665955E-002;-1.731948577798903E-003;2.346542198210955E-003;
2.417833333333334E+009;2.004783004522324E-001;-4.207032918930054E-002;-1.347701530903578E-003;2.322068903595209E-003;
2.418000000000000E+009;1.997113674879074E-001;-4.192471131682396E-002;-1.487398170866072E-003;2.217276487499476E-003;
2.418166666666667E+009;1.989418119192123E-001;-4.186576604843140E-002;-1.169258728623390E-003;2.113259164616466E-003;
2.418333333333334E+009;1.979393959045410E-001;-4.179377853870392E-002;-1.210856949910522E-003;1.940762274898589E-003;
2.418500000000000E+009;1.970522105693817E-001;-4.175939410924912E-002;-1.200155937112868E-003;1.894843182526529E-003;
2.418666666666667E+009;1.959055960178375E-001;-4.173289611935616E-002;-1.017627422697842E-003;1.602189731784165E-003;
2.418833333333334E+009;1.948263496160507E-001;-4.190712049603462E-002;-1.009548665024340E-003;1.625189441256225E-003;
2.419000000000000E+009;1.935019046068192E-001;-4.218209162354469E-002;-9.899737779051065E-004;1.363691408187151E-003;
2.419166666666667E+009;1.922704428434372E-001;-4.257127642631531E-002;-1.052665873430669E-003;1.275496208108962E-003;
2.419333333333334E+009;1.907108128070831E-001;-4.297561571002007E-002;-1.103747985325754E-003;1.274141366593540E-003;
2.419500000000000E+009;1.894108951091766E-001;-4.342983290553093E-002;-1.163802342489362E-003;1.174273784272373E-003;
2.419666666666667E+009;1.877177506685257E-001;-4.439634457230568E-002;-1.172130461782217E-003;1.038737362250686E-003;
2.419833333333334E+009;1.861231923103333E-001;-4.501718655228615E-002;-1.207851106300950E-003;8.859463268890977E-004;
2.420000000000000E+009;1.846391111612320E-001;-4.597759619355202E-002;-1.402852707542479E-003;7.290252251550555E-004;
2.420166666666667E+009;1.829830110073090E-001;-4.690865427255631E-002;-1.366816228255630E-003;8.726330124773085E-004;
2.420333333333334E+009;1.814621537923813E-001;-4.807179421186447E-002;-1.502114348113537E-003;7.659926195628941E-004;
2.420500000000000E+009;1.798070222139359E-001;-4.935502260923386E-002;-1.647188561037183E-003;8.213380351662636E-004;
2.420666666666667E+009;1.781883090734482E-001;-5.045279487967491E-002;-1.694956677965820E-003;8.858018554747105E-004;
2.420833333333334E+009;1.767574995756149E-001;-5.206153914332390E-002;-1.893554115667939E-003;9.137973538599908E-004;
2.421000000000000E+009;1.752060204744339E-001;-5.352114513516426E-002;-2.046705922111869E-003;9.634859161451459E-004;
2.421166666666667E+009;1.739179342985153E-001;-5.534943193197250E-002;-1.934385392814875E-003;9.015694959089160E-004;
2.421333333333334E+009;1.723639518022537E-001;-5.686958879232407E-002;-1.968391938135028E-003;1.122869784012437E-003;
2.421500000000000E+009;1.710211783647537E-001;-5.874382704496384E-002;-2.127073239535093E-003;1.122762216255069E-003;
2.421666666666667E+009;1.698854118585587E-001;-6.056605651974678E-002;-2.178286667913199E-003;1.276214723475277E-003;
2.421833333333334E+009;1.687361299991608E-001;-6.236423924565315E-002;-2.128014573827386E-003;1.430958625860512E-003;
2.422000000000000E+009;1.675174087285996E-001;-6.427107751369476E-002;-2.166142454370856E-003;1.332145999185741E-003;
2.422166666666667E+009;1.669067740440369E-001;-6.648280471563339E-002;-2.230020472779870E-003;1.587828854098916E-003;
2.422333333333334E+009;1.658532023429871E-001;-6.823828816413879E-002;-2.252802951261401E-003;1.580213312990964E-003;
2.422500000000000E+009;1.651668399572372E-001;-7.030769437551498E-002;-2.176528563722968E-003;1.652498962357640E-003;
2.422666666666667E+009;1.644441485404968E-001;-7.222053408622742E-002;-2.223745919764042E-003;1.755194505676627E-003;
2.422833333333334E+009;1.640766859054565E-001;-7.439422607421875E-002;-2.114357659593225E-003;1.804217696189880E-003;
2.423000000000000E+009;1.635887175798416E-001;-7.637360692024231E-002;-2.165595069527626E-003;1.858080620877445E-003;
2.423166666666667E+009;1.632247567176819E-001;-7.824179530143738E-002;-2.048442373052239E-003;1.936719403602183E-003;
2.423333333333334E+009;1.629450917243958E-001;-8.017595112323761E-002;-2.312012948095799E-003;2.006671391427517E-003;
2.423500000000000E+009;1.628501564264298E-001;-8.193398267030716E-002;-2.169504761695862E-003;2.079073805361986E-003;
2.423666666666667E+009;1.630007922649384E-001;-8.385884016752243E-002;-2.328226808458567E-003;2.245184732601047E-003;
2.423833333333334E+009;1.629799008369446E-001;-8.562412858009338E-002;-2.346966182813048E-003;2.336016157642007E-003;
2.424000000000000E+009;1.629438102245331E-001;-8.726126700639725E-002;-2.225248375907540E-003;2.568112686276436E-003;
2.424166666666667E+009;1.632031798362732E-001;-8.872859925031662E-002;-2.240598434582353E-003;2.487122314050794E-003;
2.424333333333334E+009;1.634596586227417E-001;-9.024940431118012E-002;-2.311929594725370E-003;2.996858675032854E-003;
2.424500000000000E+009;1.636187434196472E-001;-9.196852892637253E-002;-2.265536459162831E-003;2.926722168922424E-003;
2.424666666666667E+009;1.640085428953171E-001;-9.324073046445847E-002;-2.136253751814365E-003;3.235248150303960E-003;
2.424833333333334E+009;1.644953489303589E-001;-9.452920407056809E-002;-2.100584330037236E-003;3.409832483157516E-003;
2.425000000000000E+009;1.649708002805710E-001;-9.566110372543335E-002;-1.872115302830935E-003;3.626952413469553E-003;
2.425166666666667E+009;1.652168929576874E-001;-9.666232764720917E-002;-1.696284394711256E-003;3.624059725552797E-003;
2.425333333333334E+009;1.654445528984070E-001;-9.763380885124207E-002;-1.484750537201762E-003;3.981980495154858E-003;
2.425500000000000E+009;1.659072935581207E-001;-9.856349974870682E-002;-1.157002523541451E-003;4.004195332527161E-003;
2.425666666666667E+009;1.663900017738342E-001;-9.915025532245636E-002;-1.014414126984775E-003;4.184187855571508E-003;
2.425833333333334E+009;1.665804386138916E-001;-9.994295984506607E-002;-6.865470204502344E-004;4.315289668738842E-003;
2.426000000000000E+009;1.670181751251221E-001;-1.004040613770485E-001;-5.699031753465533E-004;4.226029850542545E-003;
2.426166666666667E+009;1.674568355083466E-001;-1.008898317813873E-001;-3.027857455890626E-004;4.320910200476646E-003;
2.426333333333334E+009;1.674354970455170E-001;-1.014541983604431E-001;-2.123697486240417E-004;4.057205747812986E-003;
2.426500000000000E+009;1.677844822406769E-001;-1.016896516084671E-001;-2.710139233386144E-005;4.101454280316830E-003;
2.426666666666667E+009;1.680769622325897E-001;-1.020428836345673E-001;2.220337046310306E-004;4.003425594419241E-003;
2.426833333333334E+009;1.682282686233521E-001;-1.022895351052284E-001;3.228983259759843E-004;3.995619714260101E-003;
2.427000000000000E+009;1.681456714868546E-001;-1.025084182620049E-001;6.497979047708213E-004;4.046818707138300E-003;
2.427166666666667E+009;1.681926697492600E-001;-1.025425791740418E-001;6.115134456194937E-004;3.996431361883879E-003;
2.427333333333334E+009;1.680212616920471E-001;-1.028047576546669E-001;7.036794559098780E-004;3.866372862830758E-003;
2.427500000000000E+009;1.678133904933929E-001;-1.030640453100205E-001;8.535836241208017E-004;3.804280655458570E-003;
2.427666666666667E+009;1.674405783414841E-001;-1.030214354395866E-001;8.563851006329060E-004;3.642027499154210E-003;
