# Version 1.00
#
freq[Hz];re:Trc1_S11;im:Trc1_S11;re:Trc2_S21;im:Trc2_S21;
2.400000000000000E+009;1.550309211015701E-001;1.064622327685356E-001;2.638811478391290E-003;-2.428521635010839E-003;
2.400166666666667E+009;1.548687666654587E-001;1.040275022387505E-001;2.456710441038013E-003;-2.174472203478217E-003;
2.400333333333334E+009;1.550648063421249E-001;1.016971245408058E-001;2.513314131647348E-003;-2.417046809569001E-003;
2.400500000000000E+009;1.548583954572678E-001;9.908274561166763E-002;2.401197329163551E-003;-2.423233585432172E-003;
2.400666666666667E+009;1.552667468786240E-001;9.650777280330658E-002;2.366841072216630E-003;-2.601231681182981E-003;
2.400833333333334E+009;1.551406532526016E-001;9.366115927696228E-002;2.354393480345607E-003;-2.519484143704176E-003;
2.401000000000000E+009;1.554354727268219E-001;9.074082225561142E-002;2.422267338261008E-003;-2.734965877607465E-003;
2.401166666666667E+009;1.555024534463882E-001;8.808873593807221E-002;2.280239947140217E-003;-2.729431726038456E-003;
2.401333333333334E+009;1.559164375066757E-001;8.534737676382065E-002;2.259433735162020E-003;-2.851324155926704E-003;
2.401500000000000E+009;1.563282757997513E-001;8.239744603633881E-002;2.387122483924031E-003;-2.887531649321318E-003;
2.401666666666667E+009;1.566399186849594E-001;7.959702610969544E-002;2.066989894956350E-003;-2.905229805037379E-003;
2.401833333333334E+009;1.573119908571243E-001;7.709433883428574E-002;2.061767969280481E-003;-2.877635415643454E-003;
2.402000000000000E+009;1.582840085029602E-001;7.430133968591690E-002;1.945646130479872E-003;-3.060066839680076E-003;
2.402166666666667E+009;1.589323431253433E-001;7.170803844928742E-002;1.833262271247804E-003;-3.009963314980269E-003;
2.402333333333334E+009;1.599172055721283E-001;6.881999224424362E-002;1.852569519542158E-003;-3.222268307581544E-003;
2.402500000000000E+009;1.611261963844299E-001;6.661446392536163E-002;1.590678584761918E-003;-3.172265831381083E-003;
2.402666666666667E+009;1.623543947935104E-001;6.422225385904312E-002;1.365510514006019E-003;-3.193955868482590E-003;
2.402833333333334E+009;1.636146456003189E-001;6.195075437426567E-002;1.170558156445622E-003;-3.317204071208835E-003;
2.403000000000000E+009;1.650977134704590E-001;5.947712436318398E-002;9.583817445673049E-004;-3.210039809346199E-003;
2.403166666666667E+009;1.667904704809189E-001;5.757204815745354E-002;7.915700552985072E-004;-3.253576112911105E-003;
2.403333333333334E+009;1.682531237602234E-001;5.540412664413452E-002;7.173797348514199E-004;-3.161539090797305E-003;
2.403500000000000E+009;1.699284315109253E-001;5.309120938181877E-002;6.158584146760404E-004;-3.139948239549995E-003;
2.403666666666667E+009;1.718069463968277E-001;5.137150362133980E-002;3.604541416279972E-004;-3.006744664162397E-003;
2.403833333333334E+009;1.734703928232193E-001;4.952555149793625E-002;1.393246493535116E-004;-2.806975506246090E-003;
2.404000000000000E+009;1.748953461647034E-001;4.786977171897888E-002;2.392711030552164E-004;-2.720928285270929E-003;
2.404166666666667E+009;1.766624152660370E-001;4.628184065222740E-002;3.221872029826045E-004;-2.421720186248422E-003;
2.404333333333334E+009;1.783312857151032E-001;4.472823068499565E-002;4.046985995955765E-004;-2.424485981464386E-003;
2.404500000000000E+009;1.798648387193680E-001;4.342597723007202E-002;5.880802054889500E-004;-2.353543415665627E-003;
2.404666666666667E+009;1.815060526132584E-001;4.229785874485970E-002;7.041817880235612E-004;-2.230879152193666E-003;
2.404833333333334E+009;1.833045035600662E-001;4.137488827109337E-002;7.514321478083730E-004;-2.428013831377029E-003;
2.405000000000000E+009;1.844425201416016E-001;4.057910665869713E-002;6.863173330202699E-004;-2.394228009507060E-003;
2.405166666666667E+009;1.859068274497986E-001;4.000236839056015E-002;7.406406803056598E-004;-2.699980046600103E-003;
2.405333333333334E+009;1.872724741697311E-001;3.951056674122810E-002;6.282975664362311E-004;-2.599796047434211E-003;
2.405500000000000E+009;1.885868310928345E-001;3.898492828011513E-002;6.319315289147198E-004;-2.701445249840617E-003;
2.405666666666667E+009;1.896901279687882E-001;3.851287439465523E-002;5.379077047109604E-004;-2.708286978304386E-003;
2.405833333333334E+009;1.911444813013077E-001;3.839102014899254E-002;4.463536024559289E-004;-2.927235094830394E-003;
2.406000000000000E+009;1.920550316572189E-001;3.825091943144798E-002;3.475844860076904E-004;-2.803552197292447E-003;
2.406166666666667E+009;1.929796934127808E-001;3.792407363653183E-002;4.029939009342343E-004;-2.864772919565439E-003;
2.406333333333334E+009;1.938725262880325E-001;3.789925575256348E-002;2.805487310979515E-004;-2.935632131993771E-003;
2.406500000000000E+009;1.946021020412445E-001;3.796874731779099E-002;2.089405898004770E-004;-2.872968092560768E-003;
2.406666666666667E+009;1.951366364955902E-001;3.795356675982475E-002;6.790359475417063E-005;-2.767623867839575E-003;
2.406833333333334E+009;1.956932395696640E-001;3.795630484819412E-002;2.170443040085957E-004;-2.799005946144462E-003;
2.407000000000000E+009;1.959701776504517E-001;3.801020607352257E-002;1.699490530882031E-004;-2.751146908849478E-003;
2.407166666666667E+009;1.963184624910355E-001;3.784858807921410E-002;2.719931944739074E-004;-2.646909793838859E-003;
2.407333333333334E+009;1.960734128952026E-001;3.796097263693810E-002;1.676095562288538E-004;-2.708776155486703E-003;
2.407500000000000E+009;1.960987299680710E-001;3.800226375460625E-002;6.197980110300705E-005;-2.846110146492720E-003;
2.407666666666667E+009;1.959625482559204E-001;3.778193145990372E-002;2.251826517749578E-004;-2.804548013955355E-003;
2.407833333333334E+009;1.955560743808746E-001;3.766539320349693E-002;1.487577537773177E-004;-2.903241431340575E-003;
2.408000000000000E+009;1.954450607299805E-001;3.752387315034866E-002;3.961570910178125E-004;-2.998322248458862E-003;
2.408166666666667E+009;1.947582811117172E-001;3.700207546353340E-002;1.326384372077882E-004;-3.071022452786565E-003;
2.408333333333334E+009;1.944162398576737E-001;3.658907115459442E-002;2.776607580017299E-004;-3.345945151522756E-003;
2.408500000000000E+009;1.935681551694870E-001;3.609804064035416E-002;7.099533104337752E-005;-3.386124968528748E-003;
2.408666666666667E+009;1.929396539926529E-001;3.559003397822380E-002;1.751842064550147E-004;-3.598906565457583E-003;
2.408833333333334E+009;1.922156214714050E-001;3.473168611526489E-002;8.396729072046583E-007;-3.539152210578322E-003;
2.409000000000000E+009;1.912492513656616E-001;3.373444825410843E-002;3.976006701122969E-005;-3.752152435481548E-003;
2.409166666666667E+009;1.903182119131088E-001;3.272126242518425E-002;-4.375224671093747E-005;-3.983441740274429E-003;
2.409333333333334E+009;1.893579363822937E-001;3.168618679046631E-002;-4.639063263311982E-004;-4.051521886140108E-003;
2.409500000000000E+009;1.883586198091507E-001;3.047106228768826E-002;-4.744919715449214E-004;-4.224349278956652E-003;
2.409666666666667E+009;1.873147189617157E-001;2.890106849372387E-002;-7.435534498654306E-004;-4.051524680107832E-003;
2.409833333333334E+009;1.861738860607147E-001;2.745351567864418E-002;-1.026915502734482E-003;-4.280652850866318E-003;
2.410000000000000E+009;1.852988302707672E-001;2.580397948622704E-002;-1.221985556185246E-003;-4.380963277071714E-003;
2.410166666666667E+009;1.843420863151550E-001;2.402172982692719E-002;-1.479223603382707E-003;-4.257517866790295E-003;
2.410333333333334E+009;1.832836419343948E-001;2.223938889801502E-002;-1.793929608538747E-003;-4.252620507031679E-003;
2.410500000000000E+009;1.822912693023682E-001;2.022081054747105E-002;-1.996983541175723E-003;-4.435851238667965E-003;
2.410666666666667E+009;1.814702004194260E-001;1.799734309315682E-002;-2.160654868930578E-003;-4.322197288274765E-003;
2.410833333333334E+009;1.810028553009033E-001;1.574040204286575E-002;-2.234564162790775E-003;-4.199147690087557E-003;
2.411000000000000E+009;1.800616979598999E-001;1.370731834322214E-002;-2.545878989621997E-003;-4.165747202932835E-003;
2.411166666666667E+009;1.796565800905228E-001;1.143521629273891E-002;-2.686711028218269E-003;-4.249728750437498E-003;
2.411333333333334E+009;1.788211911916733E-001;8.912080898880959E-003;-2.940127160400152E-003;-3.967290278524160E-003;
2.411500000000000E+009;1.786102056503296E-001;6.639592815190554E-003;-2.955037634819746E-003;-3.821455407887697E-003;
2.411666666666667E+009;1.785095632076263E-001;4.350375384092331E-003;-3.200175240635872E-003;-3.850795095786452E-003;
2.411833333333334E+009;1.780430674552918E-001;1.927060657180846E-003;-3.438647370785475E-003;-3.753368277102709E-003;
2.412000000000000E+009;1.783080399036408E-001;-6.947554647922516E-004;-3.363851923495531E-003;-3.693124046549201E-003;
2.412166666666667E+009;1.784754246473312E-001;-2.900884021073580E-003;-3.769097384065390E-003;-3.532201284542680E-003;
2.412333333333334E+009;1.786798387765884E-001;-5.474958103150129E-003;-3.908614162355661E-003;-3.363636787980795E-003;
2.412500000000000E+009;1.791000962257385E-001;-7.927384227514267E-003;-4.135625902563334E-003;-3.235314507037401E-003;
2.412666666666667E+009;1.796483695507050E-001;-1.035093143582344E-002;-4.348525311797857E-003;-3.077732631936669E-003;
2.412833333333334E+009;1.803099215030670E-001;-1.267229020595551E-002;-4.504188429564238E-003;-2.984868129715323E-003;
2.413000000000000E+009;1.810039579868317E-001;-1.489876769483089E-002;-4.718812648206949E-003;-2.863545203581452E-003;
2.413166666666667E+009;1.819445043802261E-001;-1.701712608337402E-002;-4.952039103955030E-003;-2.596756443381310E-003;
2.413333333333334E+009;1.829207986593247E-001;-1.945716142654419E-002;-5.185030866414309E-003;-2.285884227603674E-003;
2.413500000000000E+009;1.837381720542908E-001;-2.164860814809799E-002;-5.179396364837885E-003;-2.218426670879126E-003;
2.413666666666667E+009;1.849527359008789E-001;-2.362461015582085E-002;-5.506842397153378E-003;-1.636851695366204E-003;
2.413833333333334E+009;1.860146075487137E-001;-2.559341676533222E-002;-5.562816280871630E-003;-1.270527602173388E-003;
2.414000000000000E+009;1.870281100273132E-001;-2.746184729039669E-002;-5.539888050407171E-003;-7.739032735116780E-004;
2.414166666666667E+009;1.883000582456589E-001;-2.920171059668064E-002;-5.469543859362602E-003;-5.513717187568545E-004;
2.414333333333334E+009;1.895227283239365E-001;-3.104896284639835E-002;-5.584177561104298E-003;-2.989267813973129E-004;
2.414500000000000E+009;1.906232833862305E-001;-3.251736238598824E-002;-5.370185710489750E-003;6.058791041141376E-005;
2.414666666666667E+009;1.916734576225281E-001;-3.405250981450081E-002;-5.235235206782818E-003;1.488106645410880E-004;
2.414833333333334E+009;1.929754912853241E-001;-3.532388806343079E-002;-5.152389872819185E-003;5.723565118387342E-004;
2.415000000000000E+009;1.940614581108093E-001;-3.656539320945740E-002;-5.056723952293396E-003;7.434666040353477E-004;
2.415166666666667E+009;1.952804923057556E-001;-3.756909817457199E-002;-5.055549554526806E-003;1.002009259536862E-003;
2.415333333333334E+009;1.963835209608078E-001;-3.858014568686485E-002;-4.950027447193861E-003;1.227473258040845E-003;
2.415500000000000E+009;1.973853409290314E-001;-3.915568068623543E-002;-4.741138778626919E-003;1.429098425433040E-003;
2.415666666666667E+009;1.984540820121765E-001;-4.003536701202393E-002;-4.533868283033371E-003;1.632736064493656E-003;
2.415833333333334E+009;1.993466168642044E-001;-4.058532416820526E-002;-4.417777061462402E-003;1.998411258682609E-003;
2.416000000000000E+009;2.001157552003861E-001;-4.112930595874786E-002;-4.173032473772764E-003;2.101346384733915E-003;
2.416166666666667E+009;2.007010132074356E-001;-4.162794724106789E-002;-3.984191454946995E-003;2.242336282506585E-003;
2.416333333333334E+009;2.012423127889633E-001;-4.191507399082184E-002;-3.778873011469841E-003;2.436116104945540E-003;
2.416500000000000E+009;2.017537951469421E-001;-4.210959747433662E-002;-3.560793353244662E-003;2.630772767588496E-003;
2.416666666666667E+009;2.020507007837296E-001;-4.251694306731224E-002;-3.375837113708258E-003;2.627523615956307E-003;
2.416833333333334E+009;2.021574079990387E-001;-4.253098368644714E-002;-2.939815400168300E-003;2.725146478042007E-003;
2.417000000000000E+009;2.022680491209030E-001;-4.269763827323914E-002;-2.721731085330248E-003;2.808745717629790E-003;
2.417166666666667E+009;2.019859403371811E-001;-4.260447993874550E-002;-2.612264826893807E-003;2.840280067175627E-003;
2.417333333333334E+009;2.017770111560822E-001;-4.241872206330299E-002;-2.238502958789468E-003;2.754986286163330E-003;
2.417500000000000E+009;2.014536410570145E-001;-4.251959547400475E-002;-2.050376497209072E-003;2.619003178551793E-003;
2.417666666666667E+009;2.008924782276154E-001;-4.227719083428383E-002;-1.744989305734634E-003;2.707473002374172E-003;
2.417833333333334E+009;2.003967911005020E-001;-4.211181029677391E-002;-1.699117710813880E-003;2.472690772265196E-003;
2.418000000000000E+009;1.996890455484390E-001;-4.177551344037056E-002;-1.535078044980764E-003;2.390667796134949E-003;
2.418166666666667E+009;1.989495158195496E-001;-4.182209074497223E-002;-1.354044536128640E-003;2.228813478723168E-003;
2.418333333333334E+009;1.979924738407135E-001;-4.175759106874466E-002;-1.261457335203886E-003;2.112300833687186E-003;
2.418500000000000E+009;1.969568431377411E-001;-4.183080792427063E-002;-1.182491541840136E-003;1.973978010937572E-003;
2.418666666666667E+009;1.959851086139679E-001;-4.180481284856796E-002;-1.169895636849105E-003;1.744635403156281E-003;
2.418833333333334E+009;1.947430074214935E-001;-4.192980378866196E-002;-1.095724292099476E-003;1.586611266247928E-003;
2.419000000000000E+009;1.934322267770767E-001;-4.208582267165184E-002;-1.235578092746437E-003;1.610177801921964E-003;
2.419166666666667E+009;1.921379268169403E-001;-4.256429523229599E-002;-1.107666175812483E-003;1.420778455212712E-003;
2.419333333333334E+009;1.908408999443054E-001;-4.310578852891922E-002;-1.119157648645341E-003;1.461984240449965E-003;
2.419500000000000E+009;1.892572045326233E-001;-4.342085495591164E-002;-1.118281972594559E-003;1.391125377267599E-003;
2.419666666666667E+009;1.877805739641190E-001;-4.420790076255798E-002;-1.287077320739627E-003;1.187252695672214E-003;
2.419833333333334E+009;1.861436367034912E-001;-4.497893154621124E-002;-1.406320719979703E-003;1.162117114290595E-003;
2.420000000000000E+009;1.847220808267593E-001;-4.593969136476517E-002;-1.422659144736826E-003;1.006046077236533E-003;
2.420166666666667E+009;1.829613894224167E-001;-4.671981930732727E-002;-1.599812181666493E-003;9.311721078120172E-004;
2.420333333333334E+009;1.813652217388153E-001;-4.799419641494751E-002;-1.657570130191743E-003;1.083923503756523E-003;
2.420500000000000E+009;1.797855198383331E-001;-4.922658205032349E-002;-1.753214513882995E-003;1.018914161249995E-003;
2.420666666666667E+009;1.782380193471909E-001;-5.060889199376106E-002;-1.881810603663325E-003;1.018053502775729E-003;
2.420833333333334E+009;1.766244024038315E-001;-5.195538327097893E-002;-1.859650947153568E-003;1.051054219715297E-003;
2.421000000000000E+009;1.752147376537323E-001;-5.359680578112602E-002;-2.080510836094618E-003;1.016952446661890E-003;
2.421166666666667E+009;1.736869812011719E-001;-5.536226183176041E-002;-1.960640773177147E-003;1.111921388655901E-003;
2.421333333333334E+009;1.720495671033859E-001;-5.672929063439369E-002;-2.152004744857550E-003;1.230117632076144E-003;
2.421500000000000E+009;1.710407584905624E-001;-5.874709784984589E-002;-2.157568698748946E-003;1.285739592276514E-003;
2.421666666666667E+009;1.697407662868500E-001;-6.048029288649559E-002;-2.185861347243190E-003;1.353326253592968E-003;
2.421833333333334E+009;1.686186790466309E-001;-6.241490319371223E-002;-2.108357846736908E-003;1.412094221450388E-003;
2.422000000000000E+009;1.676091998815537E-001;-6.413513422012329E-002;-2.236986299976707E-003;1.670297351665795E-003;
2.422166666666667E+009;1.668592542409897E-001;-6.650540232658386E-002;-2.277131658047438E-003;1.829825807362795E-003;
2.422333333333334E+009;1.658241599798203E-001;-6.823258101940155E-002;-2.201762516051531E-003;1.894046785309911E-003;
2.422500000000000E+009;1.650750190019608E-001;-7.015820592641830E-002;-2.200580202043057E-003;1.873800880275667E-003;
2.422666666666667E+009;1.644709855318070E-001;-7.227534800767899E-002;-2.200137125328183E-003;1.987395575270057E-003;
2.422833333333334E+009;1.641510725021362E-001;-7.422874867916107E-002;-2.102674916386604E-003;2.067789435386658E-003;
2.423000000000000E+009;1.635331958532333E-001;-7.632577419281006E-002;-2.117618685588241E-003;2.247466472908855E-003;
2.423166666666667E+009;1.631358861923218E-001;-7.816274464130402E-002;-2.090977504849434E-003;2.282146364450455E-003;
2.423333333333334E+009;1.629249751567841E-001;-8.014345914125443E-002;-2.129627857357264E-003;2.289985772222281E-003;
2.423500000000000E+009;1.627798378467560E-001;-8.186416327953339E-002;-2.126159612089396E-003;2.386739943176508E-003;
2.423666666666667E+009;1.628546714782715E-001;-8.375132828950882E-002;-2.022143453359604E-003;2.519176807254553E-003;
2.423833333333334E+009;1.628834605216980E-001;-8.543655276298523E-002;-2.243954688310623E-003;2.512232400476933E-003;
2.424000000000000E+009;1.630350798368454E-001;-8.737558871507645E-002;-2.313258359208703E-003;2.687043044716120E-003;
2.424166666666667E+009;1.630704998970032E-001;-8.878168463706970E-002;-2.131064655259252E-003;2.741834381595254E-003;
2.424333333333334E+009;1.633133143186569E-001;-9.012099355459213E-002;-2.146012615412474E-003;3.019178286194801E-003;
2.424500000000000E+009;1.636986583471298E-001;-9.189952164888382E-002;-2.174092456698418E-003;3.412756603211165E-003;
2.424666666666667E+009;1.639545857906342E-001;-9.333439916372299E-002;-1.829423243179917E-003;3.516273573040962E-003;
2.424833333333334E+009;1.644348353147507E-001;-9.442629665136337E-002;-1.899528549984098E-003;3.786158049479127E-003;
2.425000000000000E+009;1.648557931184769E-001;-9.558787941932678E-002;-1.644993550144136E-003;3.743689972907305E-003;
2.425166666666667E+009;1.651674360036850E-001;-9.663726389408112E-002;-1.591734006069601E-003;3.873875131830573E-003;
2.425333333333334E+009;1.654742062091827E-001;-9.759762138128281E-002;-1.308295293711126E-003;4.002594389021397E-003;
2.425500000000000E+009;1.659063696861267E-001;-9.850739687681198E-002;-1.002311473712325E-003;4.375625401735306E-003;
2.425666666666667E+009;1.663344949483872E-001;-9.923032671213150E-002;-7.269705529324710E-004;4.281593486666679E-003;
2.425833333333334E+009;1.666595339775085E-001;-1.000723689794540E-001;-4.755057743750513E-004;4.460941534489393E-003;
2.426000000000000E+009;1.670422852039337E-001;-1.003440991044045E-001;-3.591984277591109E-004;4.320784006267786E-003;
2.426166666666667E+009;1.673073619604111E-001;-1.009172052145004E-001;-1.681803551036865E-004;4.253840073943138E-003;
2.426333333333334E+009;1.674246042966843E-001;-1.012978032231331E-001;1.982140238396823E-004;4.305990878492594E-003;
2.426500000000000E+009;1.678707003593445E-001;-1.015822067856789E-001;2.513769431971014E-004;4.181862808763981E-003;
2.426666666666667E+009;1.679738610982895E-001;-1.019273698329926E-001;3.839457349386066E-004;4.266448784619570E-003;
2.426833333333334E+009;1.682325303554535E-001;-1.022196635603905E-001;6.301806424744427E-004;4.090369679033756E-003;
2.427000000000000E+009;1.682514697313309E-001;-1.024534329771996E-001;6.704127299599350E-004;4.109832923859358E-003;
2.427166666666667E+009;1.683201342821121E-001;-1.024479791522026E-001;8.576745749451220E-004;4.041185136884451E-003;
2.427333333333334E+009;1.681629121303558E-001;-1.028355956077576E-001;1.063852105289698E-003;3.900484880432487E-003;
2.427500000000000E+009;1.678819209337235E-001;-1.030377075076103E-001;1.093490864150226E-003;3.802619641646743E-003;
2.427666666666667E+009;1.675912737846375E-001;-1.030022203922272E-001;1.271177432499826E-003;3.748481627553701E-003;
