# Version 1.00
#
freq[Hz];re:Trc1_S11;im:Trc1_S11;re:Trc2_S21;im:Trc2_S21;
2.400000000000000E+009;1.549380421638489E-001;1.064617931842804E-001;2.506846794858575E-003;-2.350709401071072E-003;
2.400166666666667E+009;1.546193957328796E-001;1.040620952844620E-001;2.407081192359328E-003;-2.534029306843877E-003;
2.400333333333334E+009;1.548071354627609E-001;1.017894521355629E-001;2.404444385319948E-003;-2.474533626809716E-003;
2.400500000000000E+009;1.549557596445084E-001;9.908485412597656E-002;2.549745375290513E-003;-2.527581527829170E-003;
2.400666666666667E+009;1.548434197902679E-001;9.648784995079041E-002;2.319932915270329E-003;-2.537106396630406E-003;
2.400833333333334E+009;1.549164354801178E-001;9.366104006767273E-002;2.272414276376367E-003;-2.748152706772089E-003;
2.401000000000000E+009;1.553869247436523E-001;9.083742648363113E-002;2.406441373750567E-003;-2.848762087523937E-003;
2.401166666666667E+009;1.553216427564621E-001;8.796197921037674E-002;2.342077670618892E-003;-2.805728698149324E-003;
2.401333333333334E+009;1.558338701725006E-001;8.529728651046753E-002;2.298052655532956E-003;-2.909910166636109E-003;
2.401500000000000E+009;1.561191529035568E-001;8.242796361446381E-002;2.142324810847640E-003;-3.128864569589496E-003;
2.401666666666667E+009;1.564998626708984E-001;7.973866164684296E-002;2.065506763756275E-003;-2.954855794087052E-003;
2.401833333333334E+009;1.571963131427765E-001;7.708011567592621E-002;1.882310723885894E-003;-3.221341641619802E-003;
2.402000000000000E+009;1.580019891262054E-001;7.424218207597733E-002;1.887569320388138E-003;-3.159667598083615E-003;
2.402166666666667E+009;1.589144468307495E-001;7.201503217220306E-002;1.626191078685224E-003;-3.343533724546433E-003;
2.402333333333334E+009;1.599353700876236E-001;6.907521188259125E-002;1.478743040934205E-003;-3.280723001807928E-003;
2.402500000000000E+009;1.610545814037323E-001;6.685005128383637E-002;1.239419681951404E-003;-3.478339407593012E-003;
2.402666666666667E+009;1.621341556310654E-001;6.441972404718399E-002;1.044330070726574E-003;-3.396000014618039E-003;
2.402833333333334E+009;1.637284457683563E-001;6.201449409127235E-002;1.073468476533890E-003;-3.457237733528018E-003;
2.403000000000000E+009;1.650048345327377E-001;5.978667736053467E-002;8.342535584233701E-004;-3.430277574807406E-003;
2.403166666666667E+009;1.667627841234207E-001;5.762098729610443E-002;6.299547385424376E-004;-3.333227243274450E-003;
2.403333333333334E+009;1.681613028049469E-001;5.535755679011345E-002;4.536215565167368E-004;-3.156123682856560E-003;
2.403500000000000E+009;1.700350195169449E-001;5.335368588566780E-002;3.390215570107102E-004;-3.142209490761161E-003;
2.403666666666667E+009;1.716638356447220E-001;5.152409151196480E-002;3.121054614894092E-004;-2.917681122198701E-003;
2.403833333333334E+009;1.732715219259262E-001;4.977574944496155E-002;2.435947244521231E-004;-2.708195010200143E-003;
2.404000000000000E+009;1.747314929962158E-001;4.785070940852165E-002;1.298075949307531E-004;-2.653663977980614E-003;
2.404166666666667E+009;1.767949014902115E-001;4.648133367300034E-002;1.567568542668596E-004;-2.353281015530229E-003;
2.404333333333334E+009;1.781838089227676E-001;4.496748372912407E-002;1.803346531232819E-004;-2.409198088571429E-003;
2.404500000000000E+009;1.799898296594620E-001;4.358429834246635E-002;2.404826518613845E-004;-2.199114765971899E-003;
2.404666666666667E+009;1.813813298940659E-001;4.258196428418160E-002;2.851273166015744E-004;-2.247558208182454E-003;
2.404833333333334E+009;1.830898672342300E-001;4.153646528720856E-002;4.948916612192988E-004;-2.439017174765468E-003;
2.405000000000000E+009;1.844553202390671E-001;4.078978672623634E-002;4.601797554641962E-004;-2.411460038274527E-003;
2.405166666666667E+009;1.860013455152512E-001;4.017633944749832E-002;4.173267516307533E-004;-2.352788811549544E-003;
2.405333333333334E+009;1.873656511306763E-001;3.958883509039879E-002;3.905876947101206E-004;-2.570089884102345E-003;
2.405500000000000E+009;1.886863410472870E-001;3.924119099974632E-002;4.364335618447512E-004;-2.638516249135137E-003;
2.405666666666667E+009;1.899695694446564E-001;3.885267674922943E-002;3.523838531691581E-004;-2.675588009878993E-003;
2.405833333333334E+009;1.910871118307114E-001;3.847483173012734E-002;3.723738773260266E-004;-2.833646256476641E-003;
2.406000000000000E+009;1.922100782394409E-001;3.830463811755180E-002;3.822126309387386E-004;-2.675358206033707E-003;
2.406166666666667E+009;1.930821985006332E-001;3.809678927063942E-002;3.437952254898846E-004;-2.781995339319110E-003;
2.406333333333334E+009;1.938850283622742E-001;3.809073194861412E-002;1.132137549575418E-004;-2.720355754718185E-003;
2.406500000000000E+009;1.945960521697998E-001;3.805660828948021E-002;1.026387180900201E-004;-2.660292899236083E-003;
2.406666666666667E+009;1.952848136425018E-001;3.806339949369431E-002;5.829211659147404E-005;-2.572418190538883E-003;
2.406833333333334E+009;1.957797408103943E-001;3.803865239024162E-002;-9.264940308639780E-005;-2.638883655890822E-003;
2.407000000000000E+009;1.959604918956757E-001;3.824800625443459E-002;-1.248561693500960E-005;-2.441440010443330E-003;
2.407166666666667E+009;1.963835805654526E-001;3.793463855981827E-002;-3.619944982347079E-005;-2.527086529880762E-003;
2.407333333333334E+009;1.961874663829804E-001;3.797634318470955E-002;6.745831342414022E-005;-2.471597632393241E-003;
2.407500000000000E+009;1.961200535297394E-001;3.818516060709953E-002;-3.638614998635603E-006;-2.507401164621115E-003;
2.407666666666667E+009;1.961449086666107E-001;3.787628933787346E-002;1.752866082824767E-004;-2.592960372567177E-003;
2.407833333333334E+009;1.955196708440781E-001;3.778812289237976E-002;3.318930394016206E-004;-2.454042667523027E-003;
2.408000000000000E+009;1.954748034477234E-001;3.755249828100205E-002;2.675946743693203E-004;-2.715911716222763E-003;
2.408166666666667E+009;1.949545592069626E-001;3.714345768094063E-002;2.575592952780426E-004;-2.893227385357022E-003;
2.408333333333334E+009;1.944774687290192E-001;3.658031672239304E-002;1.939929497893900E-004;-3.063821466639638E-003;
2.408500000000000E+009;1.938170045614243E-001;3.634851053357124E-002;1.570957538206130E-004;-3.145825583487749E-003;
2.408666666666667E+009;1.931137293577194E-001;3.566426411271095E-002;1.522405218565837E-004;-3.191433846950531E-003;
2.408833333333334E+009;1.922765374183655E-001;3.478422015905380E-002;8.674940909259021E-005;-3.476023441180587E-003;
2.409000000000000E+009;1.914227753877640E-001;3.380104899406433E-002;-2.237355874967761E-005;-3.689507720991969E-003;
2.409166666666667E+009;1.904352307319641E-001;3.290631994605064E-002;-2.119187847711146E-004;-3.792242612689734E-003;
2.409333333333334E+009;1.894864588975906E-001;3.176660835742950E-002;-1.321119489148259E-004;-3.978095017373562E-003;
2.409500000000000E+009;1.883780509233475E-001;3.047198243439198E-002;-4.634390934370458E-004;-3.897771006450057E-003;
2.409666666666667E+009;1.873744875192642E-001;2.908049523830414E-002;-6.851925863884389E-004;-4.088005982339382E-003;
2.409833333333334E+009;1.863776296377182E-001;2.744277194142342E-002;-9.008943452499807E-004;-4.230875056236982E-003;
2.410000000000000E+009;1.853401958942413E-001;2.588208764791489E-002;-1.025655772536993E-003;-4.252280108630657E-003;
2.410166666666667E+009;1.844153702259064E-001;2.395030111074448E-002;-1.194922369904816E-003;-4.149236716330051E-003;
2.410333333333334E+009;1.834501028060913E-001;2.199731953442097E-002;-1.467304420657456E-003;-4.283720161765814E-003;
2.410500000000000E+009;1.824339628219605E-001;2.039479836821556E-002;-1.740226056426764E-003;-4.169884137809277E-003;
2.410666666666667E+009;1.815390139818192E-001;1.800392009317875E-002;-1.904941746033728E-003;-4.255298990756273E-003;
2.410833333333334E+009;1.811233162879944E-001;1.576402597129345E-002;-2.145846141502261E-003;-4.032627679407597E-003;
2.411000000000000E+009;1.803170144557953E-001;1.362578291445971E-002;-2.290790667757392E-003;-4.055699333548546E-003;
2.411166666666667E+009;1.795544922351837E-001;1.146010030061007E-002;-2.478328766301274E-003;-3.962361719459295E-003;
2.411333333333334E+009;1.791523694992065E-001;9.018722921609879E-003;-2.749906387180090E-003;-3.933156840503216E-003;
2.411500000000000E+009;1.787859201431274E-001;6.766417995095253E-003;-2.797221532091498E-003;-3.962048795074225E-003;
2.411666666666667E+009;1.787133365869522E-001;4.306859802454710E-003;-3.112527774646878E-003;-3.755795536562800E-003;
2.411833333333334E+009;1.782309114933014E-001;1.922122319228947E-003;-3.272425383329392E-003;-3.579523181542754E-003;
2.412000000000000E+009;1.784826368093491E-001;-7.790529634803534E-004;-3.448690054938197E-003;-3.465913003310561E-003;
2.412166666666667E+009;1.786025315523148E-001;-2.793016145005822E-003;-3.386051161214709E-003;-3.406567964702845E-003;
2.412333333333334E+009;1.786805540323257E-001;-5.424940958619118E-003;-3.884999547153711E-003;-3.203791799023747E-003;
2.412500000000000E+009;1.792656630277634E-001;-7.716521155089140E-003;-3.924428485333920E-003;-3.059964394196868E-003;
2.412666666666667E+009;1.796010583639145E-001;-1.022313814610243E-002;-4.250586498528719E-003;-3.068249439820647E-003;
2.412833333333334E+009;1.803378164768219E-001;-1.281224284321070E-002;-4.341508261859417E-003;-2.814171370118856E-003;
2.413000000000000E+009;1.811004728078842E-001;-1.485656201839447E-002;-4.461004398763180E-003;-2.679431112483144E-003;
2.413166666666667E+009;1.817779839038849E-001;-1.709630712866783E-002;-4.751558415591717E-003;-2.452856395393610E-003;
2.413333333333334E+009;1.829341202974320E-001;-1.933505013585091E-002;-4.980766214430332E-003;-2.223296323791146E-003;
2.413500000000000E+009;1.837052851915360E-001;-2.155550383031368E-002;-4.964531399309635E-003;-1.799904275685549E-003;
2.413666666666667E+009;1.849731802940369E-001;-2.369590289890766E-002;-5.232164636254311E-003;-1.559451920911670E-003;
2.413833333333334E+009;1.860017329454422E-001;-2.564594894647598E-002;-5.337268114089966E-003;-1.234535011462867E-003;
2.414000000000000E+009;1.872006058692932E-001;-2.754229865968227E-002;-5.340675823390484E-003;-1.017433940432966E-003;
2.414166666666667E+009;1.882506310939789E-001;-2.936200611293316E-002;-5.267149768769741E-003;-5.955303204245865E-004;
2.414333333333334E+009;1.894059926271439E-001;-3.125129640102387E-002;-5.264256615191698E-003;-1.703542220639065E-004;
2.414500000000000E+009;1.906205266714096E-001;-3.258873149752617E-002;-5.148451309651136E-003;4.071206785738468E-005;
2.414666666666667E+009;1.918579638004303E-001;-3.393540158867836E-002;-5.061871837824583E-003;3.068462829105556E-004;
2.414833333333334E+009;1.929648071527481E-001;-3.535785898566246E-002;-4.999371245503426E-003;6.160583579912782E-004;
2.415000000000000E+009;1.940800249576569E-001;-3.648907691240311E-002;-4.950400441884995E-003;8.549338672310114E-004;
2.415166666666667E+009;1.952385008335114E-001;-3.760655224323273E-002;-4.861606750637293E-003;9.811394847929478E-004;
2.415333333333334E+009;1.963435709476471E-001;-3.854487091302872E-002;-4.626072943210602E-003;1.218439661897719E-003;
2.415500000000000E+009;1.974347978830338E-001;-3.920309990644455E-002;-4.498726688325405E-003;1.488501322455704E-003;
2.415666666666667E+009;1.984717696905136E-001;-4.005127772688866E-002;-4.320540931075811E-003;1.462323940359056E-003;
2.415833333333334E+009;1.993087232112885E-001;-4.051665589213371E-002;-4.237322602421045E-003;1.841929508373141E-003;
2.416000000000000E+009;2.000402361154556E-001;-4.098892211914063E-002;-3.978763706982136E-003;2.164517063647509E-003;
2.416166666666667E+009;2.006636112928391E-001;-4.175751283764839E-002;-3.852968104183674E-003;2.118649426847696E-003;
2.416333333333334E+009;2.012807726860046E-001;-4.189251363277435E-002;-3.642619587481022E-003;2.331284107640386E-003;
2.416500000000000E+009;2.016966342926025E-001;-4.214964061975479E-002;-3.490602830424905E-003;2.516406355425715E-003;
2.416666666666667E+009;2.019788771867752E-001;-4.237148165702820E-002;-3.124466631561518E-003;2.568161580711603E-003;
2.416833333333334E+009;2.021578699350357E-001;-4.247008636593819E-002;-2.828603610396385E-003;2.728802617639303E-003;
2.417000000000000E+009;2.022299617528915E-001;-4.260132834315300E-002;-2.447412116453052E-003;2.752252155914903E-003;
2.417166666666667E+009;2.020819038152695E-001;-4.258903861045837E-002;-2.213987987488508E-003;2.730018692091107E-003;
2.417333333333334E+009;2.017319351434708E-001;-4.231600090861321E-002;-1.979877473786473E-003;2.685193670913577E-003;
2.417500000000000E+009;2.013569921255112E-001;-4.251321032643318E-002;-1.816699397750199E-003;2.625398803502321E-003;
2.417666666666667E+009;2.009095251560211E-001;-4.216278344392777E-002;-1.654845545999706E-003;2.488955622538924E-003;
2.417833333333334E+009;2.003674507141113E-001;-4.206567257642746E-002;-1.492343377321959E-003;2.295342274010181E-003;
2.418000000000000E+009;1.996810436248779E-001;-4.194272309541702E-002;-1.432961085811257E-003;2.293929224833846E-003;
2.418166666666667E+009;1.988540589809418E-001;-4.189627617597580E-002;-1.228074426762760E-003;2.148514846339822E-003;
2.418333333333334E+009;1.979258358478546E-001;-4.168884828686714E-002;-1.184686203487217E-003;1.939809415489435E-003;
2.418500000000000E+009;1.970288455486298E-001;-4.189474508166313E-002;-1.131978584453464E-003;1.909084967337549E-003;
2.418666666666667E+009;1.959181278944016E-001;-4.174112156033516E-002;-1.097106491215527E-003;1.650105812586844E-003;
2.418833333333334E+009;1.946930587291718E-001;-4.189222678542137E-002;-1.017875270918012E-003;1.587942242622376E-003;
2.419000000000000E+009;1.933854669332504E-001;-4.212241619825363E-002;-1.040479168295860E-003;1.470976276323199E-003;
2.419166666666667E+009;1.922048926353455E-001;-4.253453016281128E-002;-9.015582036226988E-004;1.363089075312018E-003;
2.419333333333334E+009;1.907602548599243E-001;-4.300298541784287E-002;-1.145352143794298E-003;1.302731106989086E-003;
2.419500000000000E+009;1.892800778150559E-001;-4.340955987572670E-002;-1.101433066651225E-003;1.258710981346667E-003;
2.419666666666667E+009;1.877144426107407E-001;-4.442730173468590E-002;-1.143010216765106E-003;1.086935750208795E-003;
2.419833333333334E+009;1.860499382019043E-001;-4.482602700591087E-002;-1.256409450434148E-003;1.050090882927179E-003;
2.420000000000000E+009;1.845302432775497E-001;-4.591023549437523E-002;-1.262374338693917E-003;9.997644228860736E-004;
2.420166666666667E+009;1.829388737678528E-001;-4.686490818858147E-002;-1.430731266736984E-003;9.753057383932173E-004;
2.420333333333334E+009;1.814025491476059E-001;-4.803887754678726E-002;-1.481589977629483E-003;8.339168271049857E-004;
2.420500000000000E+009;1.797443330287933E-001;-4.931152611970902E-002;-1.475653378292918E-003;8.438213844783604E-004;
2.420666666666667E+009;1.782899051904678E-001;-5.040245875716209E-002;-1.720338361337781E-003;7.958282367326319E-004;
2.420833333333334E+009;1.765574514865875E-001;-5.193335935473442E-002;-1.724360743537545E-003;9.762792615219951E-004;
2.421000000000000E+009;1.752592176198959E-001;-5.359237268567085E-002;-1.911344355903566E-003;1.045929151587188E-003;
2.421166666666667E+009;1.737988889217377E-001;-5.517075955867767E-002;-1.901721465401352E-003;1.034492044709623E-003;
2.421333333333334E+009;1.722472459077835E-001;-5.673240870237351E-002;-1.948910648934543E-003;1.210719230584800E-003;
2.421500000000000E+009;1.710206717252731E-001;-5.869452655315399E-002;-1.845260499976575E-003;1.090076402761042E-003;
2.421666666666667E+009;1.698074340820313E-001;-6.060634180903435E-002;-2.143785357475281E-003;1.313140615820885E-003;
2.421833333333334E+009;1.686955243349075E-001;-6.241601705551148E-002;-2.091148169711232E-003;1.391483820043504E-003;
2.422000000000000E+009;1.676835268735886E-001;-6.425126641988754E-002;-2.095548203215003E-003;1.542795216664672E-003;
2.422166666666667E+009;1.668801158666611E-001;-6.629934161901474E-002;-2.067195018753409E-003;1.527680899016559E-003;
2.422333333333334E+009;1.659547835588455E-001;-6.825988739728928E-002;-1.968245254829526E-003;1.552448957227171E-003;
2.422500000000000E+009;1.651248931884766E-001;-7.032838463783264E-002;-2.160329604521394E-003;1.678788801655173E-003;
2.422666666666667E+009;1.645037233829498E-001;-7.206048816442490E-002;-2.086466876789928E-003;1.802548300474882E-003;
2.422833333333334E+009;1.640760451555252E-001;-7.418107241392136E-002;-2.186796627938747E-003;1.954409526661038E-003;
2.423000000000000E+009;1.635377258062363E-001;-7.643133401870728E-002;-1.863883575424552E-003;2.018032129853964E-003;
2.423166666666667E+009;1.631648093461990E-001;-7.830706983804703E-002;-2.059916732832789E-003;2.016984857618809E-003;
2.423333333333334E+009;1.630048155784607E-001;-8.021979779005051E-002;-2.129966160282493E-003;2.031870419159532E-003;
2.423500000000000E+009;1.629347354173660E-001;-8.193362504243851E-002;-2.011065138503909E-003;2.181231975555420E-003;
2.423666666666667E+009;1.629128009080887E-001;-8.379804342985153E-002;-2.138457261025906E-003;2.263311995193362E-003;
2.423833333333334E+009;1.628364175558090E-001;-8.545101433992386E-002;-2.120909979566932E-003;2.438882831484079E-003;
2.424000000000000E+009;1.630305051803589E-001;-8.712539821863174E-002;-2.218883950263262E-003;2.487898571416736E-003;
2.424166666666667E+009;1.630983650684357E-001;-8.879458904266357E-002;-2.124873222783208E-003;2.775114495307207E-003;
2.424333333333334E+009;1.633358001708984E-001;-9.025260806083679E-002;-2.201920142397285E-003;2.826767973601818E-003;
2.424500000000000E+009;1.637445837259293E-001;-9.187985211610794E-002;-2.231667283922434E-003;2.941866638138890E-003;
2.424666666666667E+009;1.639101654291153E-001;-9.323071688413620E-002;-2.083229832351208E-003;3.186549060046673E-003;
2.424833333333334E+009;1.645543724298477E-001;-9.441160410642624E-002;-1.856885268352926E-003;3.450003219768405E-003;
2.425000000000000E+009;1.648878008127213E-001;-9.553373605012894E-002;-1.711213844828308E-003;3.490140428766608E-003;
2.425166666666667E+009;1.651342958211899E-001;-9.654366225004196E-002;-1.644311123527587E-003;3.529176581650972E-003;
2.425333333333334E+009;1.655328124761581E-001;-9.754032641649246E-002;-1.296369009651244E-003;3.821158781647682E-003;
2.425500000000000E+009;1.659130156040192E-001;-9.850662201642990E-002;-1.268360065296292E-003;3.998734056949616E-003;
2.425666666666667E+009;1.663496196269989E-001;-9.911654889583588E-002;-1.080701127648354E-003;3.987747244536877E-003;
2.425833333333334E+009;1.666619777679443E-001;-1.000807210803032E-001;-6.669184076599777E-004;4.007238894701004E-003;
2.426000000000000E+009;1.670936793088913E-001;-1.002904996275902E-001;-5.531191709451377E-004;4.082018975168467E-003;
2.426166666666667E+009;1.673902273178101E-001;-1.008239910006523E-001;-2.496782981324941E-004;4.206563811749220E-003;
2.426333333333334E+009;1.674250364303589E-001;-1.014252901077271E-001;-7.963900134200230E-005;4.094577860087156E-003;
2.426500000000000E+009;1.678778976202011E-001;-1.016429066658020E-001;2.252655540360138E-004;4.101498983800411E-003;
2.426666666666667E+009;1.680322140455246E-001;-1.019946038722992E-001;2.880977990571410E-004;4.126677289605141E-003;
2.426833333333334E+009;1.683016717433929E-001;-1.022634804248810E-001;3.971932164859027E-004;3.917801659554243E-003;
2.427000000000000E+009;1.682590395212174E-001;-1.025599762797356E-001;5.514997756108642E-004;3.781613195315003E-003;
2.427166666666667E+009;1.682746857404709E-001;-1.025215238332748E-001;6.750957109034061E-004;3.742424538359046E-003;
2.427333333333334E+009;1.681054085493088E-001;-1.028314530849457E-001;7.738246349617839E-004;3.783040912821889E-003;
2.427500000000000E+009;1.678823381662369E-001;-1.030306890606880E-001;8.395119220949709E-004;3.798996564000845E-003;
2.427666666666667E+009;1.675550192594528E-001;-1.030970662832260E-001;9.333317866548896E-004;3.650740720331669E-003;
