# Version 1.00
#
freq[Hz];re:Trc1_S11;im:Trc1_S11;re:Trc2_S21;im:Trc2_S21;
2.400000000000000E+009;1.550301313400269E-001;1.064647659659386E-001;2.619258360937238E-003;-2.416809555143118E-003;
2.400166666666667E+009;1.548175364732742E-001;1.041837707161903E-001;2.592215081676841E-003;-2.373393159359694E-003;
2.400333333333334E+009;1.548804044723511E-001;1.018351912498474E-001;2.667393069714308E-003;-2.492876257747412E-003;
2.400500000000000E+009;1.550485342741013E-001;9.908848255872726E-002;2.510899445042014E-003;-2.503562951460481E-003;
2.400666666666667E+009;1.550301462411881E-001;9.667639434337616E-002;2.512665232643485E-003;-2.585104666650295E-003;
2.400833333333334E+009;1.551271677017212E-001;9.374828636646271E-002;2.434471622109413E-003;-2.726785838603973E-003;
2.401000000000000E+009;1.554169654846191E-001;9.106063842773438E-002;2.520731883123517E-003;-2.667676657438278E-003;
2.401166666666667E+009;1.553456187248230E-001;8.821814507246018E-002;2.448466373607516E-003;-2.719422336667776E-003;
2.401333333333334E+009;1.557167172431946E-001;8.544088900089264E-002;2.296710619702935E-003;-2.804331714287400E-003;
2.401500000000000E+009;1.563491225242615E-001;8.247951418161392E-002;2.284914487972856E-003;-3.008283907547593E-003;
2.401666666666667E+009;1.565701514482498E-001;7.985462993383408E-002;2.113633090630174E-003;-2.995316404849291E-003;
2.401833333333334E+009;1.571120619773865E-001;7.700970768928528E-002;2.036362420767546E-003;-3.133933525532484E-003;
2.402000000000000E+009;1.581411659717560E-001;7.442034035921097E-002;1.856289454735816E-003;-3.272998845204711E-003;
2.402166666666667E+009;1.589858978986740E-001;7.189847528934479E-002;1.854488858953118E-003;-3.313381923362613E-003;
2.402333333333334E+009;1.599847376346588E-001;6.915601342916489E-002;1.690916949883103E-003;-3.258999204263091E-003;
2.402500000000000E+009;1.611236184835434E-001;6.671416014432907E-002;1.511297072283924E-003;-3.350755665451288E-003;
2.402666666666667E+009;1.621519476175308E-001;6.443452835083008E-002;1.220769248902798E-003;-3.467003116384149E-003;
2.402833333333334E+009;1.636782139539719E-001;6.206760555505753E-002;1.029209583066404E-003;-3.406482050195336E-003;
2.403000000000000E+009;1.649870723485947E-001;5.974556878209114E-002;1.039905706420541E-003;-3.381245769560337E-003;
2.403166666666667E+009;1.667468398809433E-001;5.761014297604561E-002;6.884597241878510E-004;-3.281972371041775E-003;
2.403333333333334E+009;1.683636158704758E-001;5.532453581690788E-002;4.471725260373205E-004;-3.227312583476305E-003;
2.403500000000000E+009;1.698773950338364E-001;5.337242037057877E-002;5.318551557138562E-004;-2.932813717052341E-003;
2.403666666666667E+009;1.716073155403137E-001;5.148876085877419E-002;4.007641109637916E-004;-2.877586288377643E-003;
2.403833333333334E+009;1.732763648033142E-001;4.967630654573441E-002;2.196634013671428E-004;-2.763699973002076E-003;
2.404000000000000E+009;1.747797280550003E-001;4.801428318023682E-002;2.944547741208226E-004;-2.829721430316567E-003;
2.404166666666667E+009;1.767797619104385E-001;4.647395387291908E-002;2.914951764978468E-004;-2.545673865824938E-003;
2.404333333333334E+009;1.782939434051514E-001;4.494128003716469E-002;2.284442889504135E-004;-2.369510009884834E-003;
2.404500000000000E+009;1.798023283481598E-001;4.356954991817474E-002;4.650410555768758E-004;-2.320714062079787E-003;
2.404666666666667E+009;1.813864558935165E-001;4.266039282083511E-002;6.063415785320103E-004;-2.384314546361566E-003;
2.404833333333334E+009;1.832644045352936E-001;4.144150391221046E-002;4.910692805424333E-004;-2.460493473336101E-003;
2.405000000000000E+009;1.844577193260193E-001;4.085452854633331E-002;5.383740062825382E-004;-2.579115098342300E-003;
2.405166666666667E+009;1.858635842800140E-001;4.012485221028328E-002;6.348529714159668E-004;-2.546590054407716E-003;
2.405333333333334E+009;1.871981769800186E-001;3.956006467342377E-002;4.096959310118109E-004;-2.660349709913135E-003;
2.405500000000000E+009;1.885741800069809E-001;3.914369270205498E-002;5.674577550962567E-004;-2.741319825872779E-003;
2.405666666666667E+009;1.898563057184219E-001;3.868427500128746E-002;4.422443453222513E-004;-2.749237930402160E-003;
2.405833333333334E+009;1.910462379455566E-001;3.842394426465035E-002;4.745931364595890E-004;-2.739258809015155E-003;
2.406000000000000E+009;1.921344548463821E-001;3.823354095220566E-002;3.944477066397667E-004;-2.855398459360004E-003;
2.406166666666667E+009;1.929612308740616E-001;3.820784017443657E-002;4.434887960087508E-004;-2.813138533383608E-003;
2.406333333333334E+009;1.938588917255402E-001;3.804261237382889E-002;2.006575814448297E-004;-2.910629613325000E-003;
2.406500000000000E+009;1.946030855178833E-001;3.806848078966141E-002;9.741722169565037E-005;-2.746701706200838E-003;
2.406666666666667E+009;1.952331364154816E-001;3.807269036769867E-002;3.775959339691326E-005;-2.748466562479734E-003;
2.406833333333334E+009;1.956578195095062E-001;3.796411678195000E-002;-1.536746640340425E-005;-2.677613636478782E-003;
2.407000000000000E+009;1.959454715251923E-001;3.824488818645477E-002;1.018106995616108E-004;-2.623718464747071E-003;
2.407166666666667E+009;1.963038742542267E-001;3.787893801927567E-002;1.030372004606761E-005;-2.800152637064457E-003;
2.407333333333334E+009;1.961034089326859E-001;3.808955475687981E-002;9.657230839366093E-005;-2.621629508212209E-003;
2.407500000000000E+009;1.961450278759003E-001;3.799120336771011E-002;1.781243627192453E-004;-2.810686128214002E-003;
2.407666666666667E+009;1.960330903530121E-001;3.798132762312889E-002;1.621467672521249E-004;-2.724532503634691E-003;
2.407833333333334E+009;1.954826712608337E-001;3.770478814840317E-002;1.888546830741689E-004;-2.803719602525234E-003;
2.408000000000000E+009;1.954444497823715E-001;3.767855837941170E-002;2.878225059248507E-004;-2.914500655606389E-003;
2.408166666666667E+009;1.948139220476151E-001;3.718874230980873E-002;2.990074281115085E-004;-2.905369037762284E-003;
2.408333333333334E+009;1.943619400262833E-001;3.665164485573769E-002;3.788758185692132E-004;-3.066708799451590E-003;
2.408500000000000E+009;1.936442553997040E-001;3.629349917173386E-002;2.028519666055217E-004;-3.198364051058888E-003;
2.408666666666667E+009;1.930378824472427E-001;3.567782789468765E-002;2.388416760368273E-004;-3.430263372138143E-003;
2.408833333333334E+009;1.922861188650131E-001;3.492558375000954E-002;8.366690599359572E-005;-3.574704052880406E-003;
2.409000000000000E+009;1.912227421998978E-001;3.398185968399048E-002;5.504054570337758E-005;-3.606611164286733E-003;
2.409166666666667E+009;1.904201358556747E-001;3.290382027626038E-002;-2.284767397213727E-004;-3.952208440750837E-003;
2.409333333333334E+009;1.894818693399429E-001;3.181941807270050E-002;-2.970056084450334E-004;-4.042951855808497E-003;
2.409500000000000E+009;1.884185671806335E-001;3.058133833110333E-002;-4.274192615412176E-004;-4.149070475250483E-003;
2.409666666666667E+009;1.873720437288284E-001;2.901901118457317E-002;-6.564565701410174E-004;-4.245813004672527E-003;
2.409833333333334E+009;1.862503141164780E-001;2.750213071703911E-002;-8.685402572154999E-004;-4.314512014389038E-003;
2.410000000000000E+009;1.853564679622650E-001;2.581032365560532E-002;-1.043701427988708E-003;-4.316268023103476E-003;
2.410166666666667E+009;1.844767183065414E-001;2.396192960441113E-002;-1.373086590319872E-003;-4.446334205567837E-003;
2.410333333333334E+009;1.833029985427856E-001;2.235582098364830E-002;-1.555770635604858E-003;-4.154477734118700E-003;
2.410500000000000E+009;1.824137419462204E-001;2.040426619350910E-002;-1.688459888100624E-003;-4.260489717125893E-003;
2.410666666666667E+009;1.816495954990387E-001;1.805260777473450E-002;-1.979345222935081E-003;-4.283358342945576E-003;
2.410833333333334E+009;1.810007095336914E-001;1.595833152532578E-002;-2.110546920448542E-003;-4.191413056105375E-003;
2.411000000000000E+009;1.802066713571549E-001;1.381189376115799E-002;-2.429315587505698E-003;-4.146191291511059E-003;
2.411166666666667E+009;1.796606779098511E-001;1.156819984316826E-002;-2.518804278224707E-003;-4.041372798383236E-003;
2.411333333333334E+009;1.792031377553940E-001;9.234464727342129E-003;-2.715726150199771E-003;-3.910405095666647E-003;
2.411500000000000E+009;1.788063198328018E-001;6.734834052622318E-003;-2.915740245953202E-003;-3.854570444673300E-003;
2.411666666666667E+009;1.785973012447357E-001;4.337893798947334E-003;-3.105346579104662E-003;-3.764737164601684E-003;
2.411833333333334E+009;1.782442480325699E-001;1.916106208227575E-003;-3.301250049844384E-003;-3.817547578364611E-003;
2.412000000000000E+009;1.784688830375671E-001;-6.035421974956989E-004;-3.448593197390437E-003;-3.565502818673849E-003;
2.412166666666667E+009;1.785155832767487E-001;-2.798557979986072E-003;-3.678885055705905E-003;-3.547584172338247E-003;
2.412333333333334E+009;1.787322610616684E-001;-5.306974053382874E-003;-3.812348004430533E-003;-3.419084474444389E-003;
2.412500000000000E+009;1.792046874761581E-001;-7.638001348823309E-003;-4.010126926004887E-003;-3.255430608987808E-003;
2.412666666666667E+009;1.797708868980408E-001;-1.019306760281324E-002;-4.182262811809778E-003;-3.237244905903935E-003;
2.412833333333334E+009;1.803304553031921E-001;-1.255844719707966E-002;-4.299898166209459E-003;-2.989362459629774E-003;
2.413000000000000E+009;1.810360550880432E-001;-1.479528192430735E-002;-4.531751386821270E-003;-2.769037149846554E-003;
2.413166666666667E+009;1.819099187850952E-001;-1.701343059539795E-002;-4.863319918513298E-003;-2.465416910126805E-003;
2.413333333333334E+009;1.830384880304337E-001;-1.928758062422276E-002;-4.968103487044573E-003;-2.161417389288545E-003;
2.413500000000000E+009;1.835737228393555E-001;-2.155042998492718E-002;-5.281636491417885E-003;-1.926945755258203E-003;
2.413666666666667E+009;1.850843131542206E-001;-2.356222085654736E-002;-5.440875887870789E-003;-1.688040327280760E-003;
2.413833333333334E+009;1.860577613115311E-001;-2.562500908970833E-002;-5.296929273754358E-003;-1.425014808773994E-003;
2.414000000000000E+009;1.871650516986847E-001;-2.752820402383804E-002;-5.574211478233337E-003;-8.546364260837436E-004;
2.414166666666667E+009;1.884740293025971E-001;-2.926248311996460E-002;-5.405176896601915E-003;-6.215748144313693E-004;
2.414333333333334E+009;1.895155906677246E-001;-3.106648288667202E-002;-5.426552146673203E-003;-3.569239052012563E-004;
2.414500000000000E+009;1.907618492841721E-001;-3.249754756689072E-002;-5.306990351527929E-003;1.477059558965266E-004;
2.414666666666667E+009;1.919541060924530E-001;-3.386189788579941E-002;-5.270949564874172E-003;2.861871616914868E-004;
2.414833333333334E+009;1.928302645683289E-001;-3.522558882832527E-002;-5.140646826475859E-003;5.679127061739564E-004;
2.415000000000000E+009;1.941513866186142E-001;-3.654617071151733E-002;-5.114712752401829E-003;7.637333474121988E-004;
2.415166666666667E+009;1.952639520168304E-001;-3.755489364266396E-002;-4.905405919998884E-003;9.710838785395026E-004;
2.415333333333334E+009;1.964645683765411E-001;-3.836197778582573E-002;-4.830684978514910E-003;1.361761474981904E-003;
2.415500000000000E+009;1.975540667772293E-001;-3.904784098267555E-002;-4.507238976657391E-003;1.467554131522775E-003;
2.415666666666667E+009;1.985021084547043E-001;-3.991213440895081E-002;-4.334054421633482E-003;1.710459357127547E-003;
2.415833333333334E+009;1.993876397609711E-001;-4.049907252192497E-002;-4.387315828353167E-003;1.845621853135526E-003;
2.416000000000000E+009;2.001027464866638E-001;-4.106734693050385E-002;-4.098885226994753E-003;1.974941696971655E-003;
2.416166666666667E+009;2.007709890604019E-001;-4.154217615723610E-002;-3.845436731353402E-003;2.138778101652861E-003;
2.416333333333334E+009;2.013633251190186E-001;-4.188786447048187E-002;-3.727794857695699E-003;2.464989200234413E-003;
2.416500000000000E+009;2.018639892339706E-001;-4.209741204977036E-002;-3.427187446504831E-003;2.582779154181480E-003;
2.416666666666667E+009;2.021366953849793E-001;-4.229344800114632E-002;-3.336240304633975E-003;2.677695825695992E-003;
2.416833333333334E+009;2.022341042757034E-001;-4.244890809059143E-002;-2.995579270645976E-003;2.750687068328261E-003;
2.417000000000000E+009;2.023608684539795E-001;-4.254293441772461E-002;-2.739565446972847E-003;2.772371284663677E-003;
2.417166666666667E+009;2.021406292915344E-001;-4.253974929451942E-002;-2.353117102757096E-003;2.736388240009546E-003;
2.417333333333334E+009;2.017952948808670E-001;-4.243103787302971E-002;-2.089794026687741E-003;2.793214749544859E-003;
2.417500000000000E+009;2.015759646892548E-001;-4.239034652709961E-002;-1.938626170158386E-003;2.604347188025713E-003;
2.417666666666667E+009;2.010876983404160E-001;-4.230546578764916E-002;-1.713023870252073E-003;2.526570344343782E-003;
2.417833333333334E+009;2.005276978015900E-001;-4.216204211115837E-002;-1.571847242303193E-003;2.459706971421838E-003;
2.418000000000000E+009;1.998531222343445E-001;-4.192940890789032E-002;-1.578633324243128E-003;2.241434529423714E-003;
2.418166666666667E+009;1.990084350109100E-001;-4.186909645795822E-002;-1.267263083718717E-003;2.086455700919032E-003;
2.418333333333334E+009;1.980067491531372E-001;-4.174629226326942E-002;-1.322633703239262E-003;2.016192302107811E-003;
2.418500000000000E+009;1.971269994974136E-001;-4.185822233557701E-002;-1.110182725824416E-003;1.777208643034101E-003;
2.418666666666667E+009;1.961163878440857E-001;-4.182487353682518E-002;-1.207656576298177E-003;1.852556597441435E-003;
2.418833333333334E+009;1.948210150003433E-001;-4.197600856423378E-002;-1.107309246435762E-003;1.510887988843024E-003;
2.419000000000000E+009;1.936095207929611E-001;-4.224315658211708E-002;-8.865522104315460E-004;1.484127482399344E-003;
2.419166666666667E+009;1.922075450420380E-001;-4.257450625300407E-002;-1.122125424444675E-003;1.457089208997786E-003;
2.419333333333334E+009;1.906873881816864E-001;-4.302928224205971E-002;-1.074248459190130E-003;1.329220482148230E-003;
2.419500000000000E+009;1.893389970064163E-001;-4.341347888112068E-002;-1.216173637658358E-003;1.234167953953147E-003;
2.419666666666667E+009;1.877605468034744E-001;-4.451095312833786E-002;-1.235345029272139E-003;9.639502386562526E-004;
2.419833333333334E+009;1.863491982221603E-001;-4.504752531647682E-002;-1.270621083676815E-003;1.095400890335441E-003;
2.420000000000000E+009;1.847596019506455E-001;-4.596576094627380E-002;-1.354160485789180E-003;1.023305114358664E-003;
2.420166666666667E+009;1.829756498336792E-001;-4.687337204813957E-002;-1.418287167325616E-003;9.157302556559444E-004;
2.420333333333334E+009;1.814528405666351E-001;-4.803190380334854E-002;-1.447027781978250E-003;8.890196331776679E-004;
2.420500000000000E+009;1.797137558460236E-001;-4.947222024202347E-002;-1.627007266506553E-003;8.501915726810694E-004;
2.420666666666667E+009;1.782186329364777E-001;-5.050615221261978E-002;-1.727211172692478E-003;9.119490860030055E-004;
2.420833333333334E+009;1.765101104974747E-001;-5.212437734007835E-002;-1.743940403684974E-003;1.030437997542322E-003;
2.421000000000000E+009;1.752663701772690E-001;-5.361200124025345E-002;-1.903393073007464E-003;1.103906775824726E-003;
2.421166666666667E+009;1.739046722650528E-001;-5.535091832280159E-002;-2.030359348282218E-003;1.019371906295419E-003;
2.421333333333334E+009;1.723893880844116E-001;-5.682969093322754E-002;-1.980840461328626E-003;1.159345963969827E-003;
2.421500000000000E+009;1.711200922727585E-001;-5.886448919773102E-002;-2.064084168523550E-003;1.337829628027976E-003;
2.421666666666667E+009;1.698891371488571E-001;-6.044538319110870E-002;-2.052469411864877E-003;1.358448644168675E-003;
2.421833333333334E+009;1.686605215072632E-001;-6.238778308033943E-002;-2.118985634297133E-003;1.476481207646430E-003;
2.422000000000000E+009;1.677383482456207E-001;-6.427348405122757E-002;-2.263030502945185E-003;1.454746001400054E-003;
2.422166666666667E+009;1.668351888656616E-001;-6.636754423379898E-002;-2.123105339705944E-003;1.630329061299563E-003;
2.422333333333334E+009;1.658199876546860E-001;-6.841410696506500E-002;-2.117243362590671E-003;1.658934168517590E-003;
2.422500000000000E+009;1.651585102081299E-001;-7.023153454065323E-002;-2.113717608153820E-003;1.826625550165772E-003;
2.422666666666667E+009;1.645634770393372E-001;-7.230873405933380E-002;-2.005817601457238E-003;1.786133507266641E-003;
2.422833333333334E+009;1.641022562980652E-001;-7.435850054025650E-002;-2.190446481108666E-003;1.836509909480810E-003;
2.423000000000000E+009;1.634996384382248E-001;-7.636327296495438E-002;-1.981437439098954E-003;1.985262380912900E-003;
2.423166666666667E+009;1.633178591728210E-001;-7.833471149206162E-002;-2.073072129860520E-003;1.856323448009789E-003;
2.423333333333334E+009;1.630372554063797E-001;-8.020885288715363E-002;-2.134981565177441E-003;1.992606790736318E-003;
2.423500000000000E+009;1.628601551055908E-001;-8.204604685306549E-002;-2.179684815928340E-003;1.986466348171234E-003;
2.423666666666667E+009;1.629391014575958E-001;-8.397857844829559E-002;-2.204643562436104E-003;2.138643525540829E-003;
2.423833333333334E+009;1.628226190805435E-001;-8.553496003150940E-002;-2.258639084175229E-003;2.326230984181166E-003;
2.424000000000000E+009;1.629825234413147E-001;-8.739314973354340E-002;-2.294915495440364E-003;2.560474909842014E-003;
2.424166666666667E+009;1.630958318710327E-001;-8.889536559581757E-002;-2.280910732224584E-003;2.618412254378200E-003;
2.424333333333334E+009;1.633010804653168E-001;-9.021881967782974E-002;-2.231360413134098E-003;2.867482602596283E-003;
2.424500000000000E+009;1.636975407600403E-001;-9.194962680339813E-002;-2.155792200937867E-003;3.005022648721933E-003;
2.424666666666667E+009;1.639270186424255E-001;-9.327766299247742E-002;-1.968115102499723E-003;3.240686608478427E-003;
2.424833333333334E+009;1.645779758691788E-001;-9.450307488441467E-002;-2.064239932224155E-003;3.447501920163631E-003;
2.425000000000000E+009;1.649413406848908E-001;-9.556024521589279E-002;-1.838888390921056E-003;3.722342895343900E-003;
2.425166666666667E+009;1.650992929935455E-001;-9.667441993951798E-002;-1.578442403115332E-003;3.799777477979660E-003;
2.425333333333334E+009;1.655003726482391E-001;-9.759452939033508E-002;-1.441741129383445E-003;3.926108125597239E-003;
2.425500000000000E+009;1.659243255853653E-001;-9.860658645629883E-002;-1.244400744326413E-003;4.030641634017229E-003;
2.425666666666667E+009;1.663679182529450E-001;-9.913697838783264E-002;-9.141514310613275E-004;4.130885004997253E-003;
2.425833333333334E+009;1.665600687265396E-001;-1.000664755702019E-001;-7.860345067456365E-004;4.083313513547182E-003;
2.426000000000000E+009;1.670600473880768E-001;-1.005034521222115E-001;-5.959679256193340E-004;4.221054725348949E-003;
2.426166666666667E+009;1.673100441694260E-001;-1.010052934288979E-001;-3.209270362276584E-004;4.159241914749146E-003;
2.426333333333334E+009;1.674637496471405E-001;-1.013984233140945E-001;-1.385973737342283E-004;4.352024756371975E-003;
2.426500000000000E+009;1.678051650524139E-001;-1.017488539218903E-001;8.522249117959291E-005;4.200062248855829E-003;
2.426666666666667E+009;1.680077761411667E-001;-1.020219400525093E-001;2.041413827100769E-004;4.072333686053753E-003;
2.426833333333334E+009;1.681774258613586E-001;-1.022331789135933E-001;4.782009928021580E-004;3.968561068177223E-003;
2.427000000000000E+009;1.682260781526566E-001;-1.024866402149200E-001;5.243222694844008E-004;4.101094324141741E-003;
2.427166666666667E+009;1.682053804397583E-001;-1.025185585021973E-001;6.652526790276170E-004;3.825531341135502E-003;
2.427333333333334E+009;1.680752933025360E-001;-1.028119996190071E-001;7.495869067497551E-004;3.861189819872379E-003;
2.427500000000000E+009;1.678468436002731E-001;-1.029149964451790E-001;8.178989519365132E-004;3.766779089346528E-003;
2.427666666666667E+009;1.674713492393494E-001;-1.031073555350304E-001;1.007695333100855E-003;3.699744353070855E-003;
