# Version 1.00
#
freq[Hz];re:Trc1_S11;im:Trc1_S11;re:Trc2_S21;im:Trc2_S21;
2.400000000000000E+009;1.549880802631378E-001;1.065772175788879E-001;2.444175537675619E-003;-2.391020301729441E-003;
2.400166666666667E+009;1.547509878873825E-001;1.040209010243416E-001;2.355093834921718E-003;-2.431088127195835E-003;
2.400333333333334E+009;1.548390239477158E-001;1.016963794827461E-001;2.502586692571640E-003;-2.450201660394669E-003;
2.400500000000000E+009;1.547658890485764E-001;9.915155172348023E-002;2.505039563402534E-003;-2.427768195047975E-003;
2.400666666666667E+009;1.549057811498642E-001;9.675719588994980E-002;2.311370102688670E-003;-2.658138750120997E-003;
2.400833333333334E+009;1.551091372966766E-001;9.375777095556259E-002;2.206915291026235E-003;-2.726213540881872E-003;
2.401000000000000E+009;1.552388668060303E-001;9.099467843770981E-002;2.250200835987926E-003;-2.765616634860635E-003;
2.401166666666667E+009;1.552797406911850E-001;8.823687583208084E-002;2.138882642611861E-003;-2.711672335863113E-003;
2.401333333333334E+009;1.556716859340668E-001;8.528052270412445E-002;2.191494451835752E-003;-2.836160594597459E-003;
2.401500000000000E+009;1.562639623880386E-001;8.266069740056992E-002;2.102021826431155E-003;-2.901392988860607E-003;
2.401666666666667E+009;1.564862430095673E-001;7.968960702419281E-002;1.907990081235766E-003;-2.889800583943725E-003;
2.401833333333334E+009;1.571733206510544E-001;7.706134021282196E-002;1.785096712410450E-003;-3.258884185925126E-003;
2.402000000000000E+009;1.579357683658600E-001;7.419576495885849E-002;1.721304724924266E-003;-3.211364382877946E-003;
2.402166666666667E+009;1.589830517768860E-001;7.175578922033310E-002;1.707284944131970E-003;-3.443426918238401E-003;
2.402333333333334E+009;1.599623113870621E-001;6.920113414525986E-002;1.589308376424015E-003;-3.290893509984016E-003;
2.402500000000000E+009;1.611732989549637E-001;6.657996028661728E-002;1.364038675092161E-003;-3.280567936599255E-003;
2.402666666666667E+009;1.622774004936218E-001;6.445557624101639E-002;1.232541515491903E-003;-3.521993523463607E-003;
2.402833333333334E+009;1.635055392980576E-001;6.191766262054443E-002;9.914877591654658E-004;-3.561196615919471E-003;
2.403000000000000E+009;1.649902611970902E-001;5.969461053609848E-002;7.731177611276507E-004;-3.305854275822640E-003;
2.403166666666667E+009;1.668333113193512E-001;5.746430158615112E-002;5.113416700623930E-004;-3.271830035373569E-003;
2.403333333333334E+009;1.682001650333405E-001;5.532825365662575E-002;3.751573967747390E-004;-3.166074864566326E-003;
2.403500000000000E+009;1.699951440095902E-001;5.323369055986404E-002;3.917182912118733E-004;-3.075779182836413E-003;
2.403666666666667E+009;1.716500222682953E-001;5.149397253990173E-002;3.496220742817968E-004;-2.805412281304598E-003;
2.403833333333334E+009;1.733158677816391E-001;4.952161759138107E-002;2.094905357807875E-004;-2.842678921297193E-003;
2.404000000000000E+009;1.748182922601700E-001;4.780045524239540E-002;2.028289891313762E-004;-2.839638385921717E-003;
2.404166666666667E+009;1.765667051076889E-001;4.648308828473091E-002;1.610236067790538E-004;-2.643579849973321E-003;
2.404333333333334E+009;1.783407628536224E-001;4.482395574450493E-002;2.970685018226504E-004;-2.521546557545662E-003;
2.404500000000000E+009;1.800009906291962E-001;4.351892694830895E-002;4.312185628805310E-004;-2.445917110890150E-003;
2.404666666666667E+009;1.817183047533035E-001;4.248134791851044E-002;5.413813632912934E-004;-2.393560484051704E-003;
2.404833333333334E+009;1.831271648406982E-001;4.138997197151184E-002;5.551867652684450E-004;-2.550810342654586E-003;
2.405000000000000E+009;1.844726353883743E-001;4.076912999153137E-002;5.464481073431671E-004;-2.540090121328831E-003;
2.405166666666667E+009;1.858331859111786E-001;3.986088559031487E-002;5.600262666121125E-004;-2.618437400087714E-003;
2.405333333333334E+009;1.872724592685700E-001;3.944462910294533E-002;4.378700396046042E-004;-2.663101069629192E-003;
2.405500000000000E+009;1.887007802724838E-001;3.909307718276978E-002;4.479094059206545E-004;-2.783219330012798E-003;
2.405666666666667E+009;1.898398995399475E-001;3.859639167785645E-002;3.394938539713621E-004;-2.786071505397558E-003;
2.405833333333334E+009;1.911788135766983E-001;3.832139819860458E-002;1.309565413976088E-004;-2.947109285742044E-003;
2.406000000000000E+009;1.920700222253799E-001;3.817135468125343E-002;1.759087026584894E-004;-2.889061113819480E-003;
2.406166666666667E+009;1.930028498172760E-001;3.787716105580330E-002;2.101824502460659E-004;-2.959810197353363E-003;
2.406333333333334E+009;1.938838064670563E-001;3.800569474697113E-002;1.054548629326746E-004;-2.773017389699817E-003;
2.406500000000000E+009;1.945840716362000E-001;3.784048929810524E-002;-5.158710700925440E-005;-2.770214108750224E-003;
2.406666666666667E+009;1.951867640018463E-001;3.790628165006638E-002;-6.234361353563145E-005;-2.703408477827907E-003;
2.406833333333334E+009;1.957066357135773E-001;3.792465850710869E-002;-6.901128654135391E-005;-2.711154054850340E-003;
2.407000000000000E+009;1.958882808685303E-001;3.813049942255020E-002;-9.975376451620832E-005;-2.488794736564159E-003;
2.407166666666667E+009;1.962108016014099E-001;3.789264336228371E-002;-8.876479842001572E-005;-2.486599143594503E-003;
2.407333333333334E+009;1.962488740682602E-001;3.799286112189293E-002;1.232838985743001E-004;-2.481752308085561E-003;
2.407500000000000E+009;1.960477232933044E-001;3.805334493517876E-002;2.043051645159721E-004;-2.528413431718946E-003;
2.407666666666667E+009;1.961091011762619E-001;3.782777860760689E-002;1.559623342473060E-004;-2.786069177091122E-003;
2.407833333333334E+009;1.955751031637192E-001;3.784073144197464E-002;2.182717580581084E-004;-2.677558921277523E-003;
2.408000000000000E+009;1.954281330108643E-001;3.760517016053200E-002;2.469433238729835E-004;-2.846236806362867E-003;
2.408166666666667E+009;1.947435587644577E-001;3.718055784702301E-002;1.526003179606050E-004;-2.982112346217036E-003;
2.408333333333334E+009;1.942562311887741E-001;3.665782883763313E-002;2.498321991879493E-004;-3.016831586137414E-003;
2.408500000000000E+009;1.937393546104431E-001;3.625602275133133E-002;1.922645460581407E-004;-3.189860843122006E-003;
2.408666666666667E+009;1.929460018873215E-001;3.558619692921639E-002;2.399954391876236E-004;-3.305072896182537E-003;
2.408833333333334E+009;1.923469901084900E-001;3.499166294932365E-002;1.489930000388995E-004;-3.427703399211168E-003;
2.409000000000000E+009;1.913441568613052E-001;3.400899842381477E-002;1.117598731070757E-004;-3.656884189695120E-003;
2.409166666666667E+009;1.904062628746033E-001;3.290837258100510E-002;-1.167624141089618E-004;-3.811121918261051E-003;
2.409333333333334E+009;1.894088536500931E-001;3.187045454978943E-002;-3.836132818832994E-004;-3.819032106548548E-003;
2.409500000000000E+009;1.884276866912842E-001;3.059655241668224E-002;-4.927989211864770E-004;-4.043400287628174E-003;
2.409666666666667E+009;1.872956007719040E-001;2.911370061337948E-002;-7.853567367419601E-004;-4.159502219408751E-003;
2.409833333333334E+009;1.863674521446228E-001;2.759591303765774E-002;-9.027890628203750E-004;-4.068698734045029E-003;
2.410000000000000E+009;1.852820366621018E-001;2.594210021197796E-002;-1.055417000316083E-003;-4.224997945129871E-003;
2.410166666666667E+009;1.842051595449448E-001;2.408742718398571E-002;-1.238054246641696E-003;-4.185987636446953E-003;
2.410333333333334E+009;1.834386885166168E-001;2.233548276126385E-002;-1.608046353794634E-003;-4.207468125969172E-003;
2.410500000000000E+009;1.823298037052155E-001;2.029758691787720E-002;-1.727445633150637E-003;-4.148072097450495E-003;
2.410666666666667E+009;1.815308928489685E-001;1.791603676974773E-002;-1.946983742527664E-003;-4.180294461548328E-003;
2.410833333333334E+009;1.810068488121033E-001;1.604559831321240E-002;-2.012223703786731E-003;-4.232564009726048E-003;
2.411000000000000E+009;1.802284568548203E-001;1.377288624644280E-002;-2.510096644982696E-003;-4.011506680399180E-003;
2.411166666666667E+009;1.796410977840424E-001;1.151129230856895E-002;-2.585094887763262E-003;-3.975030034780502E-003;
2.411333333333334E+009;1.792452335357666E-001;9.054722264409065E-003;-2.785517135635018E-003;-3.902764990925789E-003;
2.411500000000000E+009;1.787509620189667E-001;6.699861027300358E-003;-3.106256714090705E-003;-3.734558587893844E-003;
2.411666666666667E+009;1.787675917148590E-001;4.377250559628010E-003;-3.050546627491713E-003;-3.766578156501055E-003;
2.411833333333334E+009;1.781192421913147E-001;2.057583071291447E-003;-3.282046644017100E-003;-3.694747108966112E-003;
2.412000000000000E+009;1.784979552030563E-001;-6.295401835814118E-004;-3.559778910130262E-003;-3.509210189804435E-003;
2.412166666666667E+009;1.784284561872482E-001;-2.815059851855040E-003;-3.704862203449011E-003;-3.552552545443177E-003;
2.412333333333334E+009;1.788559108972549E-001;-5.392930470407009E-003;-3.777450649067760E-003;-3.267967607825995E-003;
2.412500000000000E+009;1.791583001613617E-001;-7.811585441231728E-003;-4.098828416317701E-003;-3.155081532895565E-003;
2.412666666666667E+009;1.795881092548370E-001;-1.028797216713429E-002;-4.208673257380724E-003;-2.992161549627781E-003;
2.412833333333334E+009;1.804010868072510E-001;-1.269025355577469E-002;-4.481994081288576E-003;-2.911421470344067E-003;
2.413000000000000E+009;1.810518652200699E-001;-1.497810706496239E-002;-4.631226416677237E-003;-2.554934937506914E-003;
2.413166666666667E+009;1.818336695432663E-001;-1.702849566936493E-002;-4.750370979309082E-003;-2.425798913463950E-003;
2.413333333333334E+009;1.828169971704483E-001;-1.934179849922657E-002;-4.921066574752331E-003;-2.092314185574651E-003;
2.413500000000000E+009;1.837658286094666E-001;-2.151976898312569E-002;-5.231864750385284E-003;-1.766891917213798E-003;
2.413666666666667E+009;1.849655807018280E-001;-2.365222200751305E-002;-5.390750244259834E-003;-1.548105268739164E-003;
2.413833333333334E+009;1.860992461442947E-001;-2.558237127959728E-002;-5.357853136956692E-003;-1.247507287189364E-003;
2.414000000000000E+009;1.871422976255417E-001;-2.746323496103287E-002;-5.662031937390566E-003;-9.731419268064201E-004;
2.414166666666667E+009;1.882346868515015E-001;-2.927069179713726E-002;-5.381723400205374E-003;-5.031562759540975E-004;
2.414333333333334E+009;1.895399689674377E-001;-3.117150068283081E-002;-5.399787332862616E-003;-2.874868223443627E-004;
2.414500000000000E+009;1.906494349241257E-001;-3.246216848492622E-002;-5.357132293283939E-003;1.022451760945842E-004;
2.414666666666667E+009;1.918060779571533E-001;-3.410630673170090E-002;-5.212126765400171E-003;4.782945907209069E-004;
2.414833333333334E+009;1.931676566600800E-001;-3.535301238298416E-002;-5.158904008567333E-003;6.337913218885660E-004;
2.415000000000000E+009;1.941244006156921E-001;-3.645926341414452E-002;-4.984188824892044E-003;7.619841489940882E-004;
2.415166666666667E+009;1.952272504568100E-001;-3.770420700311661E-002;-4.711285699158907E-003;1.043358584865928E-003;
2.415333333333334E+009;1.964027285575867E-001;-3.845277801156044E-002;-4.802499432116747E-003;1.304044388234615E-003;
2.415500000000000E+009;1.974710524082184E-001;-3.922045975923538E-002;-4.530252423137426E-003;1.467245165258646E-003;
2.415666666666667E+009;1.985573023557663E-001;-3.994789347052574E-002;-4.425060003995895E-003;1.624444266781211E-003;
2.415833333333334E+009;1.993646919727325E-001;-4.056591540575028E-002;-4.285251721739769E-003;1.808219938538969E-003;
2.416000000000000E+009;2.000943273305893E-001;-4.119661077857018E-002;-4.034692887216806E-003;2.121418481692672E-003;
2.416166666666667E+009;2.006903737783432E-001;-4.168560728430748E-002;-3.814352210611105E-003;2.171537373214960E-003;
2.416333333333334E+009;2.013175189495087E-001;-4.190561547875404E-002;-3.706590039655566E-003;2.331067807972431E-003;
2.416500000000000E+009;2.018279135227203E-001;-4.223953559994698E-002;-3.398395841941237E-003;2.520114649087191E-003;
2.416666666666667E+009;2.021606564521790E-001;-4.259670898318291E-002;-3.183383494615555E-003;2.747700782492757E-003;
2.416833333333334E+009;2.022344172000885E-001;-4.251749813556671E-002;-2.904937835410237E-003;2.550952136516571E-003;
2.417000000000000E+009;2.023163884878159E-001;-4.264777153730393E-002;-2.625265391543508E-003;2.799670211970806E-003;
2.417166666666667E+009;2.020364552736282E-001;-4.265245050191879E-002;-2.229718491435051E-003;2.811939921230078E-003;
2.417333333333334E+009;2.018080204725266E-001;-4.240357503294945E-002;-2.120031509548426E-003;2.797972643747926E-003;
2.417500000000000E+009;2.015332728624344E-001;-4.250231012701988E-002;-1.935352804139257E-003;2.618734724819660E-003;
2.417666666666667E+009;2.009292244911194E-001;-4.227674379944801E-002;-1.563790719956160E-003;2.521315123885870E-003;
2.417833333333334E+009;2.004945129156113E-001;-4.212452471256256E-002;-1.560176606290042E-003;2.354732481762767E-003;
2.418000000000000E+009;1.997774541378021E-001;-4.193342104554176E-002;-1.308038947172463E-003;2.432776847854257E-003;
2.418166666666667E+009;1.990333795547485E-001;-4.193798452615738E-002;-1.319037401117384E-003;2.227317541837692E-003;
2.418333333333334E+009;1.980188786983490E-001;-4.180709645152092E-002;-1.203405088745058E-003;1.998230814933777E-003;
2.418500000000000E+009;1.969900131225586E-001;-4.194357991218567E-002;-9.760368266142905E-004;1.979961525648832E-003;
2.418666666666667E+009;1.960003376007080E-001;-4.181590676307678E-002;-9.450641227886081E-004;1.820011530071497E-003;
2.418833333333334E+009;1.946416497230530E-001;-4.207174107432365E-002;-9.581363410688937E-004;1.547187333926559E-003;
2.419000000000000E+009;1.934713721275330E-001;-4.219063371419907E-002;-9.442919399589300E-004;1.531549612991512E-003;
2.419166666666667E+009;1.922765523195267E-001;-4.249323159456253E-002;-9.925679769366980E-004;1.482458785176277E-003;
2.419333333333334E+009;1.908214390277863E-001;-4.313635453581810E-002;-9.035682887770236E-004;1.234280178323388E-003;
2.419500000000000E+009;1.892810016870499E-001;-4.357458651065826E-002;-1.161100459285080E-003;1.097830245271325E-003;
2.419666666666667E+009;1.877264529466629E-001;-4.435756057500839E-002;-1.059279660694301E-003;1.016602385789156E-003;
2.419833333333334E+009;1.861097514629364E-001;-4.502334445714951E-002;-1.181525061838329E-003;9.717041393741965E-004;
2.420000000000000E+009;1.845445334911346E-001;-4.591847583651543E-002;-1.359497429803014E-003;9.020530269481242E-004;
2.420166666666667E+009;1.830203384160996E-001;-4.690540954470635E-002;-1.430096686817706E-003;8.610374643467367E-004;
2.420333333333334E+009;1.814860999584198E-001;-4.811548441648483E-002;-1.419121283106506E-003;8.852483006194234E-004;
2.420500000000000E+009;1.798136830329895E-001;-4.947759583592415E-002;-1.576340757310391E-003;8.262905175797641E-004;
2.420666666666667E+009;1.781241446733475E-001;-5.049192160367966E-002;-1.648898469284177E-003;8.729280671104789E-004;
2.420833333333334E+009;1.764630973339081E-001;-5.206237733364105E-002;-1.778810867108405E-003;9.388780454173684E-004;
2.421000000000000E+009;1.751907318830490E-001;-5.358941853046417E-002;-1.669149147346616E-003;1.019374118186534E-003;
2.421166666666667E+009;1.738612204790115E-001;-5.541178211569786E-002;-1.716190949082375E-003;1.076582120731473E-003;
2.421333333333334E+009;1.721555739641190E-001;-5.696280300617218E-002;-1.964765833690763E-003;1.152806915342808E-003;
2.421500000000000E+009;1.709425598382950E-001;-5.880377441644669E-002;-2.010834868997335E-003;1.178529229946435E-003;
2.421666666666667E+009;1.696738898754120E-001;-6.059890985488892E-002;-1.990709919482470E-003;1.228997600264847E-003;
2.421833333333334E+009;1.687629967927933E-001;-6.246409565210342E-002;-1.970680896192789E-003;1.303754514083266E-003;
2.422000000000000E+009;1.674973666667938E-001;-6.428326666355133E-002;-2.171979984268546E-003;1.408351003192365E-003;
2.422166666666667E+009;1.668823361396790E-001;-6.657856702804565E-002;-2.038005739450455E-003;1.458724262192845E-003;
2.422333333333334E+009;1.658908873796463E-001;-6.847313791513443E-002;-2.068198984488845E-003;1.650455291382968E-003;
2.422500000000000E+009;1.651453375816345E-001;-7.037362456321716E-002;-1.899721799418330E-003;1.643073861487210E-003;
2.422666666666667E+009;1.643923819065094E-001;-7.235410064458847E-002;-2.050356473773718E-003;1.744836568832398E-003;
2.422833333333334E+009;1.639110445976257E-001;-7.434717565774918E-002;-2.139264717698097E-003;2.032116986811161E-003;
2.423000000000000E+009;1.633365601301193E-001;-7.633298635482788E-002;-1.991823082789779E-003;1.978022744879127E-003;
2.423166666666667E+009;1.630783081054688E-001;-7.816590368747711E-002;-1.978097017854452E-003;1.986276824027300E-003;
2.423333333333334E+009;1.628347188234329E-001;-8.026906847953796E-002;-2.006848342716694E-003;2.024736255407333E-003;
2.423500000000000E+009;1.628409326076508E-001;-8.203999698162079E-002;-2.123184734955430E-003;2.098929835483432E-003;
2.423666666666667E+009;1.629031598567963E-001;-8.377004414796829E-002;-2.213477622717619E-003;2.303622895851731E-003;
2.423833333333334E+009;1.627569645643234E-001;-8.548058569431305E-002;-2.182362368330360E-003;2.254067687317729E-003;
2.424000000000000E+009;1.629455685615540E-001;-8.734176307916641E-002;-2.119812881574035E-003;2.303384011611342E-003;
2.424166666666667E+009;1.631193906068802E-001;-8.879823237657547E-002;-2.127483021467924E-003;2.490131882950664E-003;
2.424333333333334E+009;1.632663011550903E-001;-9.037333726882935E-002;-2.080662641674280E-003;2.792785409837961E-003;
2.424500000000000E+009;1.635891199111939E-001;-9.196603298187256E-002;-2.129811095073819E-003;2.934446558356285E-003;
2.424666666666667E+009;1.639187783002853E-001;-9.318488091230393E-002;-2.045245841145515E-003;3.019058844074607E-003;
2.424833333333334E+009;1.644267290830612E-001;-9.447128325700760E-002;-2.046560635790229E-003;3.505215747281909E-003;
2.425000000000000E+009;1.647310405969620E-001;-9.561900049448013E-002;-1.794756040908396E-003;3.493178170174360E-003;
2.425166666666667E+009;1.650762706995010E-001;-9.660948812961578E-002;-1.598116592504084E-003;3.822114551439881E-003;
2.425333333333334E+009;1.653485447168350E-001;-9.762267023324966E-002;-1.334882457740605E-003;3.752257907763124E-003;
2.425500000000000E+009;1.658969372510910E-001;-9.847951680421829E-002;-1.116747967898846E-003;4.000866785645485E-003;
2.425666666666667E+009;1.662634313106537E-001;-9.923291206359863E-002;-1.014083623886108E-003;3.974669147282839E-003;
2.425833333333334E+009;1.664695590734482E-001;-9.995492547750473E-002;-7.786019123159349E-004;4.060804378241301E-003;
2.426000000000000E+009;1.669573783874512E-001;-1.004649922251701E-001;-4.655604134313762E-004;4.078417085111141E-003;
2.426166666666667E+009;1.674180328845978E-001;-1.008831262588501E-001;-2.590490621514618E-004;4.130782559514046E-003;
2.426333333333334E+009;1.674079895019531E-001;-1.013782322406769E-001;-1.885838719317690E-004;4.150646273046732E-003;
2.426500000000000E+009;1.677877455949783E-001;-1.015604734420776E-001;1.835280272644013E-005;4.017168190330267E-003;
2.426666666666667E+009;1.680430918931961E-001;-1.019110530614853E-001;1.983502443181351E-004;3.984921146184206E-003;
2.426833333333334E+009;1.682230979204178E-001;-1.022300794720650E-001;2.866427239496261E-004;3.980319015681744E-003;
2.427000000000000E+009;1.683105677366257E-001;-1.024595424532890E-001;5.205672350712121E-004;3.927015233784914E-003;
2.427166666666667E+009;1.682092696428299E-001;-1.025302186608315E-001;6.334945210255683E-004;3.851919202134013E-003;
2.427333333333334E+009;1.680462956428528E-001;-1.027539297938347E-001;7.572812028229237E-004;3.768473863601685E-003;
2.427500000000000E+009;1.678324192762375E-001;-1.029725968837738E-001;9.543111082166433E-004;3.733273828402162E-003;
2.427666666666667E+009;1.673468053340912E-001;-1.029148101806641E-001;9.311885223723948E-004;3.588513238355517E-003;
