# Version 1.00
#
freq[Hz];re:Trc1_S11;im:Trc1_S11;re:Trc2_S21;im:Trc2_S21;
2.400000000000000E+009;1.552350819110870E-001;1.102756410837174E-001;-5.185646936297417E-003;-1.670554629527032E-003;
2.400166666666667E+009;1.548402756452560E-001;1.082247123122215E-001;-5.293065682053566E-003;-1.415490871295333E-003;
2.400333333333334E+009;1.545619964599609E-001;1.059447228908539E-001;-5.401057656854391E-003;-1.358108478598297E-003;
2.400500000000000E+009;1.540871411561966E-001;1.033105477690697E-001;-5.448867101222277E-003;-9.220896172337234E-004;
2.400666666666667E+009;1.538546234369278E-001;1.007815226912499E-001;-5.578662268817425E-003;-7.956579793244600E-004;
2.400833333333334E+009;1.536504030227661E-001;9.808746725320816E-002;-5.450810771435499E-003;-6.335667567327619E-004;
2.401000000000000E+009;1.536018699407578E-001;9.516721963882446E-002;-5.562010221183300E-003;-5.823558894917369E-004;
2.401166666666667E+009;1.535367667675018E-001;9.228749573230743E-002;-5.489009898155928E-003;-1.953464816324413E-004;
2.401333333333334E+009;1.536059677600861E-001;8.931508660316467E-002;-5.715858656913042E-003;1.021228308673017E-005;
2.401500000000000E+009;1.536017209291458E-001;8.628442883491516E-002;-5.667823832482100E-003;3.790015853155637E-006;
2.401666666666667E+009;1.538705676794052E-001;8.331761509180069E-002;-5.587442778050900E-003;1.413651771144941E-004;
2.401833333333334E+009;1.541350334882736E-001;8.047965168952942E-002;-5.749477073550224E-003;3.672553866636008E-004;
2.402000000000000E+009;1.548209786415100E-001;7.746589928865433E-002;-5.651988554745913E-003;5.434181657619774E-004;
2.402166666666667E+009;1.554372459650040E-001;7.482581585645676E-002;-5.723922047764063E-003;7.189151365309954E-004;
2.402333333333334E+009;1.562650203704834E-001;7.159487903118134E-002;-5.825806409120560E-003;8.593762177042663E-004;
2.402500000000000E+009;1.573645174503326E-001;6.910406053066254E-002;-5.898458417505026E-003;1.156142097897828E-003;
2.402666666666667E+009;1.584395766258240E-001;6.633667647838593E-002;-5.806834902614355E-003;1.302459044381976E-003;
2.402833333333334E+009;1.597259789705277E-001;6.361626833677292E-002;-5.733964499086142E-003;1.657228800468147E-003;
2.403000000000000E+009;1.610497385263443E-001;6.118437275290489E-002;-5.817578174173832E-003;1.828801352530718E-003;
2.403166666666667E+009;1.626992374658585E-001;5.864648520946503E-002;-5.854822229593992E-003;2.176914364099503E-003;
2.403333333333334E+009;1.640497297048569E-001;5.614950880408287E-002;-5.805856548249722E-003;2.513939514756203E-003;
2.403500000000000E+009;1.659516841173172E-001;5.379113927483559E-002;-5.719855893403292E-003;2.695688745006919E-003;
2.403666666666667E+009;1.676803976297379E-001;5.160787329077721E-002;-5.731320939958096E-003;2.897770144045353E-003;
2.403833333333334E+009;1.690542697906494E-001;4.961763322353363E-002;-6.055009085685015E-003;3.626744495704770E-003;
2.404000000000000E+009;1.706181466579437E-001;4.806959629058838E-002;-5.268578883260489E-003;4.269048571586609E-003;
2.404166666666667E+009;1.727457940578461E-001;4.615586251020432E-002;-5.364091135561466E-003;4.468854982405901E-003;
2.404333333333334E+009;1.743287444114685E-001;4.458709806203842E-002;-4.848829936236143E-003;4.955951124429703E-003;
2.404500000000000E+009;1.764431744813919E-001;4.270355775952339E-002;-5.142892710864544E-003;4.696995951235294E-003;
2.404666666666667E+009;1.786828339099884E-001;4.191415011882782E-002;-4.075663164258003E-003;4.889629315584898E-003;
2.404833333333334E+009;1.801511645317078E-001;4.049975797533989E-002;-4.401243757456541E-003;5.539201665669680E-003;
2.405000000000000E+009;1.817423254251480E-001;3.909899294376373E-002;-4.628906492143869E-003;5.399547982960939E-003;
2.405166666666667E+009;1.840561926364899E-001;3.898130357265472E-002;-3.025101264938712E-003;5.337738897651434E-003;
2.405333333333334E+009;1.851283460855484E-001;3.770187869668007E-002;-3.926567267626524E-003;5.665825679898262E-003;
2.405500000000000E+009;1.869153231382370E-001;3.742942959070206E-002;-3.190462011843920E-003;5.761013366281986E-003;
2.405666666666667E+009;1.884653121232987E-001;3.705511614680290E-002;-2.819895045831800E-003;5.776993930339813E-003;
2.405833333333334E+009;1.899207830429077E-001;3.701233118772507E-002;-2.526812022551894E-003;5.755685269832611E-003;
2.406000000000000E+009;1.911639869213104E-001;3.675783798098564E-002;-2.483381656929851E-003;5.905160680413246E-003;
2.406166666666667E+009;1.924792081117630E-001;3.673798963427544E-002;-2.042879816144705E-003;6.013064179569483E-003;
2.406333333333334E+009;1.937042325735092E-001;3.685170039534569E-002;-1.847050269134343E-003;5.979761015623808E-003;
2.406500000000000E+009;1.944754570722580E-001;3.718096762895584E-002;-1.616627327166498E-003;5.740737542510033E-003;
2.406666666666667E+009;1.956457793712616E-001;3.741364181041718E-002;-1.381221693009138E-003;5.890440195798874E-003;
2.406833333333334E+009;1.961182206869125E-001;3.761707618832588E-002;-1.025064848363400E-003;5.825112108141184E-003;
2.407000000000000E+009;1.966240108013153E-001;3.793420642614365E-002;-9.354219655506313E-004;5.856448784470558E-003;
2.407166666666667E+009;1.971908509731293E-001;3.798639029264450E-002;-8.028502925299108E-004;5.968320183455944E-003;
2.407333333333334E+009;1.974248141050339E-001;3.837998956441879E-002;-5.858271615579724E-004;5.843356717377901E-003;
2.407500000000000E+009;1.975251585245132E-001;3.879993408918381E-002;-4.089068097528070E-004;5.868616048246622E-003;
2.407666666666667E+009;1.976994425058365E-001;3.907237201929092E-002;-5.470269752549939E-005;5.925074685364962E-003;
2.407833333333334E+009;1.975990384817123E-001;3.914186730980873E-002;5.874928319826722E-005;5.796969868242741E-003;
2.408000000000000E+009;1.973045766353607E-001;3.956443071365356E-002;3.240212972741574E-004;5.891178268939257E-003;
2.408166666666667E+009;1.969182491302490E-001;3.963343799114227E-002;4.821212205570191E-004;5.794179625809193E-003;
2.408333333333334E+009;1.965248882770538E-001;3.941955044865608E-002;6.926522473804653E-004;5.587490275502205E-003;
2.408500000000000E+009;1.958237290382385E-001;3.938369452953339E-002;9.408750338479877E-004;5.559857934713364E-003;
2.408666666666667E+009;1.951422244310379E-001;3.941649198532105E-002;1.097493688575923E-003;5.446407012641430E-003;
2.408833333333334E+009;1.944779902696610E-001;3.894768282771111E-002;1.174533041194081E-003;5.216725636273623E-003;
2.409000000000000E+009;1.934326738119125E-001;3.836985304951668E-002;1.278763869777322E-003;5.263940896838903E-003;
2.409166666666667E+009;1.924845874309540E-001;3.766693919897080E-002;1.460215076804161E-003;5.086794961243868E-003;
2.409333333333334E+009;1.915106475353241E-001;3.714724257588387E-002;1.420003245584667E-003;4.995370283722878E-003;
2.409500000000000E+009;1.901365816593170E-001;3.614755719900131E-002;1.642363728024066E-003;4.964243154972792E-003;
2.409666666666667E+009;1.891314685344696E-001;3.499428555369377E-002;1.619467628188431E-003;4.810100421309471E-003;
2.409833333333334E+009;1.878111511468887E-001;3.370695933699608E-002;1.629527192562819E-003;4.761651158332825E-003;
2.410000000000000E+009;1.866996288299561E-001;3.229785710573196E-002;1.892913714982569E-003;4.908910952508450E-003;
2.410166666666667E+009;1.854659616947174E-001;3.072212077677250E-002;1.845878199674189E-003;4.735411610454321E-003;
2.410333333333334E+009;1.842795908451080E-001;2.911911532282829E-002;2.064323285594583E-003;4.805445671081543E-003;
2.410500000000000E+009;1.831054985523224E-001;2.751113288104534E-002;2.245487645268440E-003;4.630773328244686E-003;
2.410666666666667E+009;1.819412559270859E-001;2.511563897132874E-002;2.298259176313877E-003;4.817358218133450E-003;
2.410833333333334E+009;1.811917871236801E-001;2.312370575964451E-002;2.602892229333520E-003;4.626347217708826E-003;
2.411000000000000E+009;1.799552142620087E-001;2.108598314225674E-002;2.549522323533893E-003;4.611641168594360E-003;
2.411166666666667E+009;1.791959106922150E-001;1.869873702526093E-002;2.698575612157583E-003;4.504599142819643E-003;
2.411333333333334E+009;1.783605962991715E-001;1.639297977089882E-002;3.012748900800943E-003;4.497683607041836E-003;
2.411500000000000E+009;1.778483390808106E-001;1.394841074943543E-002;3.086257725954056E-003;4.482782911509275E-003;
2.411666666666667E+009;1.773393303155899E-001;1.143159717321396E-002;3.237053984776139E-003;4.254211205989122E-003;
2.411833333333334E+009;1.768558025360107E-001;8.914599195122719E-003;3.241115016862750E-003;4.313677083700895E-003;
2.412000000000000E+009;1.769687831401825E-001;6.286803632974625E-003;3.367974190041423E-003;4.048129078000784E-003;
2.412166666666667E+009;1.767319738864899E-001;3.889099461957812E-003;3.487035632133484E-003;3.910748753696680E-003;
2.412333333333334E+009;1.769574731588364E-001;1.049644662998617E-003;3.667526179924607E-003;3.913064952939749E-003;
2.412500000000000E+009;1.772334128618240E-001;-1.397992018610239E-003;3.799683181568980E-003;3.766895504668355E-003;
2.412666666666667E+009;1.776128411293030E-001;-4.150323104113340E-003;3.987684380263090E-003;3.710638964548707E-003;
2.412833333333334E+009;1.781516522169113E-001;-6.781989242881537E-003;4.125162493437529E-003;3.510903567075729E-003;
2.413000000000000E+009;1.788977831602097E-001;-9.317273274064064E-003;4.147715866565704E-003;3.451021155342460E-003;
2.413166666666667E+009;1.794968545436859E-001;-1.180282793939114E-002;4.356493707746267E-003;3.339838702231646E-003;
2.413333333333334E+009;1.807169765233994E-001;-1.439997646957636E-002;4.376637749373913E-003;3.202462336048484E-003;
2.413500000000000E+009;1.814763695001602E-001;-1.688309200108051E-002;4.574981052428484E-003;3.120388835668564E-003;
2.413666666666667E+009;1.828150600194931E-001;-1.935780420899391E-002;4.754486028105021E-003;2.828290220350027E-003;
2.413833333333334E+009;1.838127374649048E-001;-2.151816710829735E-002;4.883099813014269E-003;2.679446479305625E-003;
2.414000000000000E+009;1.852231770753861E-001;-2.384673990309238E-002;4.960704129189253E-003;2.511129016056657E-003;
2.414166666666667E+009;1.864084303379059E-001;-2.591026760637760E-002;5.056322552263737E-003;2.270334633067250E-003;
2.414333333333334E+009;1.876524835824966E-001;-2.806844003498554E-002;5.192473996430636E-003;2.070576651021838E-003;
2.414500000000000E+009;1.891489028930664E-001;-2.957883663475514E-002;5.181566346436739E-003;1.950272941030562E-003;
2.414666666666667E+009;1.906782090663910E-001;-3.147016838192940E-002;5.372598301619291E-003;1.736641512252390E-003;
2.414833333333334E+009;1.918908506631851E-001;-3.300879150629044E-002;5.391770973801613E-003;1.469328301027417E-003;
2.415000000000000E+009;1.933112591505051E-001;-3.453359007835388E-002;5.526496563106775E-003;1.316586742177606E-003;
2.415166666666667E+009;1.947022825479507E-001;-3.580297157168388E-002;5.438453983515501E-003;1.134191174060106E-003;
2.415333333333334E+009;1.961539387702942E-001;-3.694478049874306E-002;5.679309833794832E-003;1.066075405105948E-003;
2.415500000000000E+009;1.976716816425324E-001;-3.778612613677979E-002;5.788830574601889E-003;7.508366252295673E-004;
2.415666666666667E+009;1.989423632621765E-001;-3.870668262243271E-002;5.800438113510609E-003;5.923671997152269E-004;
2.415833333333334E+009;2.000647634267807E-001;-3.948459774255753E-002;5.804593674838543E-003;3.212229348719120E-004;
2.416000000000000E+009;2.011093646287918E-001;-4.014626145362854E-002;5.870093591511250E-003;6.312084587989375E-005;
2.416166666666667E+009;2.022471427917481E-001;-4.074005782604218E-002;5.750654730945826E-003;-3.604062949307263E-004;
2.416333333333334E+009;2.031519263982773E-001;-4.102725163102150E-002;5.538932979106903E-003;-6.607846007682383E-004;
2.416500000000000E+009;2.039459049701691E-001;-4.149148985743523E-002;5.610178690403700E-003;-8.713015704415739E-004;
2.416666666666667E+009;2.045847922563553E-001;-4.159156978130341E-002;5.286937579512596E-003;-1.106073614209890E-003;
2.416833333333334E+009;2.049135416746140E-001;-4.170681163668633E-002;5.215334240347147E-003;-1.302368007600308E-003;
2.417000000000000E+009;2.053634971380234E-001;-4.188568145036697E-002;5.213979166001082E-003;-1.489549642428756E-003;
2.417166666666667E+009;2.054051458835602E-001;-4.166074097156525E-002;4.883104003965855E-003;-1.696880673989654E-003;
2.417333333333334E+009;2.053966224193573E-001;-4.140203446149826E-002;4.949091002345085E-003;-1.599260140210390E-003;
2.417500000000000E+009;2.054687589406967E-001;-4.132829234004021E-002;4.766766447573900E-003;-1.703880610875785E-003;
2.417666666666667E+009;2.050859630107880E-001;-4.092135652899742E-002;4.592039622366428E-003;-1.740569365210831E-003;
2.417833333333334E+009;2.049220651388168E-001;-4.057138040661812E-002;4.610413219779730E-003;-1.751678180880845E-003;
2.418000000000000E+009;2.044612765312195E-001;-4.006417468190193E-002;4.544026218354702E-003;-1.928963582031429E-003;
2.418166666666667E+009;2.038326561450958E-001;-3.992310538887978E-002;4.418585449457169E-003;-1.937053864821792E-003;
2.418333333333334E+009;2.030189931392670E-001;-3.950834274291992E-002;4.513164516538382E-003;-1.973594306036830E-003;
2.418500000000000E+009;2.022004127502441E-001;-3.928224742412567E-002;4.585510119795799E-003;-2.154645742848516E-003;
2.418666666666667E+009;2.013824582099915E-001;-3.897663578391075E-002;4.561290610581636E-003;-2.205211902037263E-003;
2.418833333333334E+009;2.003030627965927E-001;-3.898812830448151E-002;4.439114592969418E-003;-2.392317168414593E-003;
2.419000000000000E+009;1.988297253847122E-001;-3.897456079721451E-002;4.494362510740757E-003;-2.478165784850717E-003;
2.419166666666667E+009;1.976453512907028E-001;-3.907221555709839E-002;4.464960657060146E-003;-2.794125117361546E-003;
2.419333333333334E+009;1.962703466415405E-001;-3.927036002278328E-002;4.459452349692583E-003;-2.921684645116329E-003;
2.419500000000000E+009;1.947299391031265E-001;-3.953692317008972E-002;4.207355901598930E-003;-3.041806630790234E-003;
2.419666666666667E+009;1.931360065937042E-001;-4.019025713205338E-002;4.279802087694407E-003;-3.252821741625667E-003;
2.419833333333334E+009;1.913815885782242E-001;-4.053739458322525E-002;4.187238868325949E-003;-3.359811846166849E-003;
2.420000000000000E+009;1.899022758007050E-001;-4.128402099013329E-002;3.982984460890293E-003;-3.594314679503441E-003;
2.420166666666667E+009;1.880413293838501E-001;-4.227813705801964E-002;3.860561875626445E-003;-3.659754991531372E-003;
2.420333333333334E+009;1.862384080886841E-001;-4.333398863673210E-002;3.716524457558990E-003;-3.859034739434719E-003;
2.420500000000000E+009;1.844721138477325E-001;-4.456984624266625E-002;3.579707350581884E-003;-3.885768121108413E-003;
2.420666666666667E+009;1.825719773769379E-001;-4.537111148238182E-002;3.506832756102085E-003;-4.022553097456694E-003;
2.420833333333334E+009;1.809924691915512E-001;-4.689348861575127E-002;3.264414845034480E-003;-4.034139215946198E-003;
2.421000000000000E+009;1.790558695793152E-001;-4.839086532592773E-002;3.084508469328284E-003;-4.169073421508074E-003;
2.421166666666667E+009;1.774711608886719E-001;-5.029996111989021E-002;3.149235388264060E-003;-4.324286244809628E-003;
2.421333333333334E+009;1.755117475986481E-001;-5.173559859395027E-002;2.918819431215525E-003;-4.504312295466662E-003;
2.421500000000000E+009;1.739580780267716E-001;-5.365939065814018E-002;2.859132830053568E-003;-4.550767131149769E-003;
2.421666666666667E+009;1.725403368473053E-001;-5.547311902046204E-002;2.639531390741468E-003;-4.814356099814177E-003;
2.421833333333334E+009;1.712922900915146E-001;-5.755623430013657E-002;2.494068117812276E-003;-4.889616742730141E-003;
2.422000000000000E+009;1.698331236839294E-001;-5.958503112196922E-002;2.271870383992791E-003;-4.966349806636572E-003;
2.422166666666667E+009;1.689745783805847E-001;-6.180230528116226E-002;2.210536040365696E-003;-4.940890707075596E-003;
2.422333333333334E+009;1.675532609224320E-001;-6.409052759408951E-002;1.929341815412045E-003;-5.227082874625921E-003;
2.422500000000000E+009;1.666163206100464E-001;-6.604391336441040E-002;1.706150011159480E-003;-5.286766216158867E-003;
2.422666666666667E+009;1.658072769641876E-001;-6.835564970970154E-002;1.486141816712916E-003;-5.260874517261982E-003;
2.422833333333334E+009;1.650309264659882E-001;-7.052195817232132E-002;1.147372880950570E-003;-5.382143426686525E-003;
2.423000000000000E+009;1.644244343042374E-001;-7.284707576036453E-002;1.066277269273996E-003;-5.478130653500557E-003;
2.423166666666667E+009;1.639766544103622E-001;-7.497091591358185E-002;5.805852124467492E-004;-5.371068604290485E-003;
2.423333333333334E+009;1.637044996023178E-001;-7.735224068164825E-002;5.744912778027356E-004;-5.426811054348946E-003;
2.423500000000000E+009;1.635297089815140E-001;-7.916959375143051E-002;3.915498091373593E-004;-5.533554591238499E-003;
2.423666666666667E+009;1.634706109762192E-001;-8.160255849361420E-002;1.807058724807575E-004;-5.579439923167229E-003;
2.423833333333334E+009;1.633129864931107E-001;-8.345607668161392E-002;-7.911775901447982E-005;-5.459249485284090E-003;
2.424000000000000E+009;1.637226343154907E-001;-8.563856035470963E-002;-3.691853780765086E-004;-5.565049126744270E-003;
2.424166666666667E+009;1.637455970048904E-001;-8.738305419683456E-002;-4.911990254186094E-004;-5.467472132295370E-003;
2.424333333333334E+009;1.639885008335114E-001;-8.935843408107758E-002;-9.470075019635260E-004;-5.313410423696041E-003;
2.424500000000000E+009;1.644061207771301E-001;-9.125753492116928E-002;-1.101965317502618E-003;-5.229856818914414E-003;
2.424666666666667E+009;1.648089587688446E-001;-9.279892593622208E-002;-1.268640859052539E-003;-5.208586808294058E-003;
2.424833333333334E+009;1.654430925846100E-001;-9.441552311182022E-002;-1.423477195203304E-003;-5.082507152110338E-003;
2.425000000000000E+009;1.659650951623917E-001;-9.591436386108398E-002;-1.810561050660908E-003;-4.903182853013277E-003;
2.425166666666667E+009;1.663988083600998E-001;-9.721708297729492E-002;-1.977185718715191E-003;-4.796323366463184E-003;
2.425333333333334E+009;1.669160723686218E-001;-9.826693683862686E-002;-2.156521193683147E-003;-4.518406931310892E-003;
2.425500000000000E+009;1.675213128328323E-001;-9.950479120016098E-002;-2.159993629902601E-003;-4.573910031467676E-003;
2.425666666666667E+009;1.681654900312424E-001;-1.003498584032059E-001;-2.364752115681768E-003;-4.217726178467274E-003;
2.425833333333334E+009;1.687281280755997E-001;-1.013343408703804E-001;-2.315540099516511E-003;-4.083530977368355E-003;
2.426000000000000E+009;1.693179905414581E-001;-1.018217056989670E-001;-2.619320992380381E-003;-3.975774627178907E-003;
2.426166666666667E+009;1.699498295783997E-001;-1.025015041232109E-001;-2.523102564737201E-003;-3.887101775035262E-003;
2.426333333333334E+009;1.702846586704254E-001;-1.031015813350678E-001;-2.710170811042190E-003;-3.859007963910699E-003;
2.426500000000000E+009;1.708774119615555E-001;-1.034442707896233E-001;-2.665522973984480E-003;-3.689525881782174E-003;
2.426666666666667E+009;1.713290959596634E-001;-1.037082374095917E-001;-2.762972377240658E-003;-3.394706640392542E-003;
2.426833333333334E+009;1.719504147768021E-001;-1.040889099240303E-001;-3.031649393960834E-003;-3.311864798888564E-003;
2.427000000000000E+009;1.721246540546417E-001;-1.042255833745003E-001;-3.032241016626358E-003;-3.107144264504314E-003;
2.427166666666667E+009;1.723396182060242E-001;-1.042933017015457E-001;-3.097193781286478E-003;-3.201975021511316E-003;
2.427333333333334E+009;1.724917590618134E-001;-1.045254617929459E-001;-3.165150061249733E-003;-2.933704294264317E-003;
2.427500000000000E+009;1.725488603115082E-001;-1.046178936958313E-001;-3.246704814955592E-003;-2.911461517214775E-003;
2.427666666666667E+009;1.723694056272507E-001;-1.045925170183182E-001;-3.389358287677169E-003;-2.690575318410993E-003;
2.427833333333334E+009;1.723304390907288E-001;-1.045361161231995E-001;-3.179149702191353E-003;-2.416407456621528E-003;
