# Version 1.00
#
freq[Hz];re:Trc1_S11;im:Trc1_S11;re:Trc2_S21;im:Trc2_S21;
2.400000000000000E+009;1.554308980703354E-001;1.104268878698349E-001;-4.982269369065762E-003;-1.725612091831863E-003;
2.400166666666667E+009;1.548272818326950E-001;1.082941293716431E-001;-5.256133154034615E-003;-1.606388133950532E-003;
2.400333333333334E+009;1.546051055192947E-001;1.059662923216820E-001;-5.071556661278009E-003;-1.288158819079399E-003;
2.400500000000000E+009;1.543719023466110E-001;1.034560352563858E-001;-5.197907797992230E-003;-1.048574922606349E-003;
2.400666666666667E+009;1.540641635656357E-001;1.009726747870445E-001;-5.198680795729160E-003;-7.752479868941009E-004;
2.400833333333334E+009;1.538406014442444E-001;9.796576946973801E-002;-5.332256667315960E-003;-7.079385104589164E-004;
2.401000000000000E+009;1.539101004600525E-001;9.521687775850296E-002;-5.482906010001898E-003;-5.731750279664993E-004;
2.401166666666667E+009;1.535008996725082E-001;9.247789531946182E-002;-5.371394567191601E-003;-2.940068370662630E-004;
2.401333333333334E+009;1.537636667490006E-001;8.947521448135376E-002;-5.554770585149527E-003;-1.227620814461261E-004;
2.401500000000000E+009;1.537717580795288E-001;8.635305613279343E-002;-5.520791281014681E-003;-1.010151900118217E-004;
2.401666666666667E+009;1.539361923933029E-001;8.334361761808395E-002;-5.541517864912748E-003;8.438240183750168E-005;
2.401833333333334E+009;1.543099582195282E-001;8.059155941009522E-002;-5.611255299299955E-003;3.398119588382542E-004;
2.402000000000000E+009;1.550595760345459E-001;7.736999541521072E-002;-5.689870100468397E-003;4.162422555964440E-004;
2.402166666666667E+009;1.556783765554428E-001;7.478408515453339E-002;-5.882674362510443E-003;5.607811035588384E-004;
2.402333333333334E+009;1.564052700996399E-001;7.183115184307098E-002;-5.727113224565983E-003;8.876773645170033E-004;
2.402500000000000E+009;1.574235260486603E-001;6.917515397071838E-002;-5.855494178831577E-003;1.016721129417419E-003;
2.402666666666667E+009;1.584349423646927E-001;6.650365144014359E-002;-5.730160046368837E-003;1.213938812725246E-003;
2.402833333333334E+009;1.597999781370163E-001;6.387468427419663E-002;-5.799958948045969E-003;1.470301300287247E-003;
2.403000000000000E+009;1.610651612281799E-001;6.096354499459267E-002;-5.754681769758463E-003;1.848124433308840E-003;
2.403166666666667E+009;1.627765446901321E-001;5.881882831454277E-002;-5.855555180460215E-003;2.098937751725316E-003;
2.403333333333334E+009;1.642910987138748E-001;5.604775249958038E-002;-5.854434333741665E-003;2.441499615088105E-003;
2.403500000000000E+009;1.659380942583084E-001;5.376125127077103E-002;-5.804080516099930E-003;2.669027075171471E-003;
2.403666666666667E+009;1.678214371204376E-001;5.183511227369309E-002;-5.698654800653458E-003;2.837073057889938E-003;
2.403833333333334E+009;1.695729047060013E-001;4.974862560629845E-002;-5.548651330173016E-003;3.225392429158092E-003;
2.404000000000000E+009;1.712233424186707E-001;4.772038385272026E-002;-5.485248751938343E-003;3.531364491209388E-003;
2.404166666666667E+009;1.731462329626083E-001;4.601689428091049E-002;-5.356986541301012E-003;3.831204492598772E-003;
2.404333333333334E+009;1.749366819858551E-001;4.435979574918747E-002;-5.213181488215923E-003;4.189958330243826E-003;
2.404500000000000E+009;1.767626255750656E-001;4.268408939242363E-002;-4.923177883028984E-003;4.477790091186762E-003;
2.404666666666667E+009;1.786291152238846E-001;4.147594049572945E-002;-4.635728895664215E-003;4.780233372002840E-003;
2.404833333333334E+009;1.805149167776108E-001;4.033427685499191E-002;-4.445862956345081E-003;4.892631899565458E-003;
2.405000000000000E+009;1.820080429315567E-001;3.961674496531487E-002;-4.119987599551678E-003;5.222432315349579E-003;
2.405166666666667E+009;1.838662475347519E-001;3.866150975227356E-002;-4.006655886769295E-003;5.310649517923594E-003;
2.405333333333334E+009;1.854175329208374E-001;3.804886713624001E-002;-3.582999808713794E-003;5.597867537289858E-003;
2.405500000000000E+009;1.870910078287125E-001;3.777956217527390E-002;-3.386148717254400E-003;5.578374024480581E-003;
2.405666666666667E+009;1.886676996946335E-001;3.719919547438622E-002;-3.056785557419062E-003;5.832875147461891E-003;
2.405833333333334E+009;1.900912672281265E-001;3.706905990839005E-002;-2.436826005578041E-003;5.756553262472153E-003;
2.406000000000000E+009;1.913833767175674E-001;3.678923100233078E-002;-2.429160522297025E-003;5.862913094460964E-003;
2.406166666666667E+009;1.925629973411560E-001;3.681062161922455E-002;-2.173783723264933E-003;5.887164734303951E-003;
2.406333333333334E+009;1.939033418893814E-001;3.690648451447487E-002;-1.725616515614092E-003;5.753861274570227E-003;
2.406500000000000E+009;1.947428286075592E-001;3.711139038205147E-002;-1.638955203816295E-003;5.906948819756508E-003;
2.406666666666667E+009;1.956024765968323E-001;3.727446869015694E-002;-1.457939506508410E-003;5.651856772601605E-003;
2.406833333333334E+009;1.964555680751801E-001;3.754518553614616E-002;-1.409483724273741E-003;5.944159813225269E-003;
2.407000000000000E+009;1.968233734369278E-001;3.786562010645866E-002;-1.018581911921501E-003;5.789981689304113E-003;
2.407166666666667E+009;1.974925696849823E-001;3.803911805152893E-002;-9.775541257113218E-004;5.721479654312134E-003;
2.407333333333334E+009;1.976727694272995E-001;3.844063729047775E-002;-7.057205075398088E-004;5.724547896534205E-003;
2.407500000000000E+009;1.977548003196716E-001;3.897476941347122E-002;-4.770385858137161E-004;5.669265519827604E-003;
2.407666666666667E+009;1.979745477437973E-001;3.923111036419869E-002;-2.846279239747673E-004;5.857328418642283E-003;
2.407833333333334E+009;1.976095438003540E-001;3.936494141817093E-002;-1.405825605615974E-004;5.767764989286661E-003;
2.408000000000000E+009;1.977358013391495E-001;3.957290947437286E-002;4.778539005201310E-005;5.950387101620436E-003;
2.408166666666667E+009;1.971558332443237E-001;3.964935615658760E-002;2.686743100639433E-004;5.803405307233334E-003;
2.408333333333334E+009;1.967046707868576E-001;3.953343257308006E-002;3.551843401510268E-004;5.680906120687723E-003;
2.408500000000000E+009;1.961077004671097E-001;3.947853296995163E-002;7.234426448121667E-004;5.593930371105671E-003;
2.408666666666667E+009;1.953069865703583E-001;3.930437937378883E-002;9.247438283637166E-004;5.482450127601624E-003;
2.408833333333334E+009;1.946658343076706E-001;3.888804093003273E-002;1.125441631302238E-003;5.360835231840611E-003;
2.409000000000000E+009;1.937448084354401E-001;3.822796046733856E-002;1.288670930080116E-003;5.263079889118671E-003;
2.409166666666667E+009;1.927663385868073E-001;3.772084414958954E-002;1.309628714807332E-003;5.087093450129032E-003;
2.409333333333334E+009;1.917600333690643E-001;3.697575628757477E-002;1.386444200761616E-003;5.093222949653864E-003;
2.409500000000000E+009;1.903375387191773E-001;3.607915714383125E-002;1.379654044285417E-003;5.011298228055239E-003;
2.409666666666667E+009;1.893056631088257E-001;3.494396805763245E-002;1.527757151052356E-003;4.788944032043219E-003;
2.409833333333334E+009;1.880225241184235E-001;3.373961523175240E-002;1.756856450811029E-003;4.950315225869417E-003;
2.410000000000000E+009;1.870538294315338E-001;3.232529386878014E-002;1.625537755899131E-003;4.797768779098988E-003;
2.410166666666667E+009;1.856336295604706E-001;3.071876242756844E-002;1.768029993399978E-003;4.915903788059950E-003;
2.410333333333334E+009;1.844627261161804E-001;2.892972715198994E-002;2.077692886814475E-003;4.754031542688608E-003;
2.410500000000000E+009;1.832221001386643E-001;2.739609964191914E-002;1.889479346573353E-003;4.856589250266552E-003;
2.410666666666667E+009;1.821562498807907E-001;2.500808611512184E-002;2.239646855741739E-003;4.610844422131777E-003;
2.410833333333334E+009;1.813847571611404E-001;2.302097156643868E-002;2.471192507073283E-003;4.773323889821768E-003;
2.411000000000000E+009;1.803395450115204E-001;2.089667320251465E-002;2.530253725126386E-003;4.763894248753786E-003;
2.411166666666667E+009;1.794041842222214E-001;1.863831654191017E-002;2.688895212486386E-003;4.656024742871523E-003;
2.411333333333334E+009;1.787076145410538E-001;1.608559861779213E-002;2.832094905897975E-003;4.523350857198238E-003;
2.411500000000000E+009;1.780974715948105E-001;1.366554107517004E-002;2.996536670252681E-003;4.548350349068642E-003;
2.411666666666667E+009;1.776617318391800E-001;1.137436646968126E-002;3.038974246010184E-003;4.483726806938648E-003;
2.411833333333334E+009;1.771112382411957E-001;8.835127577185631E-003;3.405731869861484E-003;4.217763431370258E-003;
2.412000000000000E+009;1.770350486040115E-001;6.087553687393665E-003;3.479777602478862E-003;4.056131932884455E-003;
2.412166666666667E+009;1.769694238901138E-001;3.717584535479546E-003;3.559313714504242E-003;4.104911815375090E-003;
2.412333333333334E+009;1.768915951251984E-001;9.304956183768809E-004;3.752923570573330E-003;4.066462628543377E-003;
2.412500000000000E+009;1.773466169834137E-001;-1.684165443293750E-003;3.879948752000928E-003;4.017231520265341E-003;
2.412666666666667E+009;1.776191741228104E-001;-4.364571068435907E-003;4.098584875464439E-003;3.704581875354052E-003;
2.412833333333334E+009;1.783286631107330E-001;-6.968720350414515E-003;4.119371529668570E-003;3.763328306376934E-003;
2.413000000000000E+009;1.790371239185333E-001;-9.531541727483273E-003;4.196615889668465E-003;3.631963161751628E-003;
2.413166666666667E+009;1.795204877853394E-001;-1.194268278777599E-002;4.316094331443310E-003;3.354732878506184E-003;
2.413333333333334E+009;1.808457076549530E-001;-1.451089326292276E-002;4.553871229290962E-003;3.212011419236660E-003;
2.413500000000000E+009;1.816299855709076E-001;-1.715395599603653E-002;4.722803365439177E-003;3.103790339082480E-003;
2.413666666666667E+009;1.827234178781509E-001;-1.946480944752693E-002;4.567979369312525E-003;2.902051201090217E-003;
2.413833333333334E+009;1.839998662471771E-001;-2.178879454731941E-002;4.870425909757614E-003;2.805556869134307E-003;
2.414000000000000E+009;1.851439923048019E-001;-2.407537400722504E-002;5.151288118213415E-003;2.529248129576445E-003;
2.414166666666667E+009;1.865314841270447E-001;-2.609310671687126E-002;5.065585486590862E-003;2.495360327884555E-003;
2.414333333333334E+009;1.878338605165482E-001;-2.827441506087780E-002;5.125121213495731E-003;2.219092799350619E-003;
2.414500000000000E+009;1.891675740480423E-001;-2.997761964797974E-002;5.263358820229769E-003;2.135673072189093E-003;
2.414666666666667E+009;1.904873102903366E-001;-3.174083679914475E-002;5.296266637742519E-003;1.872688648290932E-003;
2.414833333333334E+009;1.920054107904434E-001;-3.330878540873528E-002;5.419074557721615E-003;1.557867159135640E-003;
2.415000000000000E+009;1.932329237461090E-001;-3.475263714790344E-002;5.599031690508127E-003;1.433523604646325E-003;
2.415166666666667E+009;1.947376579046249E-001;-3.604929894208908E-002;5.363643169403076E-003;1.229012734256685E-003;
2.415333333333334E+009;1.962424069643021E-001;-3.707955405116081E-002;5.736947059631348E-003;1.166171976365149E-003;
2.415500000000000E+009;1.974764466285706E-001;-3.793618828058243E-002;5.728406831622124E-003;9.010155918076634E-004;
2.415666666666667E+009;1.989877074956894E-001;-3.896006196737289E-002;5.809269379824400E-003;5.430054152384400E-004;
2.415833333333334E+009;2.000064104795456E-001;-3.960885480046272E-002;5.844205617904663E-003;3.909471270162612E-004;
2.416000000000000E+009;2.011438608169556E-001;-4.024915769696236E-002;5.814195610582829E-003;2.908894748543389E-005;
2.416166666666667E+009;2.021774351596832E-001;-4.103415831923485E-002;5.683671217411757E-003;-2.117997355526313E-004;
2.416333333333334E+009;2.030737847089768E-001;-4.129750281572342E-002;5.809340160340071E-003;-4.832858685404062E-004;
2.416500000000000E+009;2.038651257753372E-001;-4.157151654362679E-002;5.653777625411749E-003;-8.978966507129371E-004;
2.416666666666667E+009;2.045140415430069E-001;-4.187186434864998E-002;5.353781860321760E-003;-1.047590980306268E-003;
2.416833333333334E+009;2.050140649080277E-001;-4.190505668520927E-002;5.405377596616745E-003;-1.241154968738556E-003;
2.417000000000000E+009;2.054624855518341E-001;-4.191095009446144E-002;5.322288721799851E-003;-1.385116949677467E-003;
2.417166666666667E+009;2.053879052400589E-001;-4.174219071865082E-002;5.048163700848818E-003;-1.370952464640141E-003;
2.417333333333334E+009;2.054379433393478E-001;-4.148996248841286E-002;4.935293924063444E-003;-1.516837393864989E-003;
2.417500000000000E+009;2.054192721843720E-001;-4.141101613640785E-002;4.791489336639643E-003;-1.617976347915828E-003;
2.417666666666667E+009;2.051890641450882E-001;-4.107346013188362E-002;4.690538160502911E-003;-1.667000935412943E-003;
2.417833333333334E+009;2.049869745969772E-001;-4.074491187930107E-002;4.662624094635248E-003;-1.647983910515904E-003;
2.418000000000000E+009;2.044662386178970E-001;-4.033501818776131E-002;4.701638594269753E-003;-1.813919981941581E-003;
2.418166666666667E+009;2.038404792547226E-001;-4.001332819461823E-002;4.722143989056349E-003;-1.934301923029125E-003;
2.418333333333334E+009;2.031205892562866E-001;-3.970610350370407E-002;4.657081793993712E-003;-1.965637551620603E-003;
2.418500000000000E+009;2.022526860237122E-001;-3.953238949179649E-002;4.629014525562525E-003;-2.136428607627749E-003;
2.418666666666667E+009;2.014740258455277E-001;-3.922414034605026E-002;4.654136486351490E-003;-2.155042253434658E-003;
2.418833333333334E+009;2.001913487911224E-001;-3.932597115635872E-002;4.529690835624933E-003;-2.380130114033818E-003;
2.419000000000000E+009;1.989022642374039E-001;-3.915454447269440E-002;4.600979387760162E-003;-2.600628882646561E-003;
2.419166666666667E+009;1.977388411760330E-001;-3.933944553136826E-002;4.502120427787304E-003;-2.750482177361846E-003;
2.419333333333334E+009;1.961992233991623E-001;-3.956866636872292E-002;4.438577685505152E-003;-3.055261913686991E-003;
2.419500000000000E+009;1.947558820247650E-001;-3.976730257272720E-002;4.446463659405708E-003;-3.012608736753464E-003;
2.419666666666667E+009;1.930726915597916E-001;-4.036316648125649E-002;4.275736864656210E-003;-3.473057877272368E-003;
2.419833333333334E+009;1.913183182477951E-001;-4.094681516289711E-002;4.188065417110920E-003;-3.622895572334528E-003;
2.420000000000000E+009;1.896509379148483E-001;-4.154401645064354E-002;4.228584934026003E-003;-3.620134200900793E-003;
2.420166666666667E+009;1.878090202808380E-001;-4.236051440238953E-002;3.829986322671175E-003;-3.744877874851227E-003;
2.420333333333334E+009;1.862042546272278E-001;-4.347074404358864E-002;3.797878045588732E-003;-3.880709409713745E-003;
2.420500000000000E+009;1.843491047620773E-001;-4.459026828408241E-002;3.603128716349602E-003;-3.900732612237334E-003;
2.420666666666667E+009;1.824557334184647E-001;-4.573087021708489E-002;3.566922154277563E-003;-4.035596270114183E-003;
2.420833333333334E+009;1.808151006698608E-001;-4.714713618159294E-002;3.407645970582962E-003;-4.232768435031176E-003;
2.421000000000000E+009;1.790215671062470E-001;-4.875441268086433E-002;3.167364280670881E-003;-4.233797546476126E-003;
2.421166666666667E+009;1.773922145366669E-001;-5.037650838494301E-002;3.065643832087517E-003;-4.421762656420469E-003;
2.421333333333334E+009;1.755374372005463E-001;-5.193374678492546E-002;3.096422413364053E-003;-4.535130225121975E-003;
2.421500000000000E+009;1.740764975547791E-001;-5.404261499643326E-002;2.817426575347781E-003;-4.718514624983072E-003;
2.421666666666667E+009;1.726245880126953E-001;-5.566304549574852E-002;2.666326239705086E-003;-4.816801752895117E-003;
2.421833333333334E+009;1.713086217641830E-001;-5.786834657192230E-002;2.631553681567311E-003;-4.903755616396666E-003;
2.422000000000000E+009;1.697169542312622E-001;-5.974602699279785E-002;2.438801806420088E-003;-5.069587845355272E-003;
2.422166666666667E+009;1.686895489692688E-001;-6.208989769220352E-002;2.232864964753389E-003;-5.099817179143429E-003;
2.422333333333334E+009;1.675497740507126E-001;-6.429444253444672E-002;1.952369231730700E-003;-5.297368392348290E-003;
2.422500000000000E+009;1.664863824844360E-001;-6.644104421138763E-002;1.664270530454814E-003;-5.394760519266129E-003;
2.422666666666667E+009;1.655288189649582E-001;-6.861579418182373E-002;1.625502016395330E-003;-5.413657519966364E-003;
2.422833333333334E+009;1.649663895368576E-001;-7.093805819749832E-002;1.455958117730916E-003;-5.539775826036930E-003;
2.423000000000000E+009;1.643536388874054E-001;-7.313891500234604E-002;9.535372373647988E-004;-5.689609795808792E-003;
2.423166666666667E+009;1.638659536838532E-001;-7.523375749588013E-002;8.401771774515510E-004;-5.747540853917599E-003;
2.423333333333334E+009;1.634989529848099E-001;-7.747360318899155E-002;6.626396207138896E-004;-5.656670778989792E-003;
2.423500000000000E+009;1.633427888154984E-001;-7.959822565317154E-002;3.219615900889039E-004;-5.684810690581799E-003;
2.423666666666667E+009;1.633054614067078E-001;-8.175384998321533E-002;1.787867950042710E-004;-5.729957483708859E-003;
2.423833333333334E+009;1.632511019706726E-001;-8.377517759799957E-002;-2.609562761790585E-005;-5.667792633175850E-003;
2.424000000000000E+009;1.634666025638580E-001;-8.586582541465759E-002;-3.159263578709215E-004;-5.629392340779305E-003;
2.424166666666667E+009;1.635008007287979E-001;-8.762738108634949E-002;-7.130711455829442E-004;-5.580401513725519E-003;
2.424333333333334E+009;1.637519747018814E-001;-8.945808559656143E-002;-8.115210221149027E-004;-5.448233801871538E-003;
2.424500000000000E+009;1.642246246337891E-001;-9.147482365369797E-002;-1.062114140950143E-003;-5.527540575712919E-003;
2.424666666666667E+009;1.645591706037521E-001;-9.302864223718643E-002;-1.383789931423962E-003;-5.308713298290968E-003;
2.424833333333334E+009;1.651155501604080E-001;-9.456723183393478E-002;-1.610913313925266E-003;-5.165359470993280E-003;
2.425000000000000E+009;1.654527485370636E-001;-9.605608135461807E-002;-1.819954602979124E-003;-5.003745201975107E-003;
2.425166666666667E+009;1.659450680017471E-001;-9.733063727617264E-002;-1.895524794235826E-003;-4.714832641184330E-003;
2.425333333333334E+009;1.665792912244797E-001;-9.850685298442841E-002;-2.144006080925465E-003;-4.725696984678507E-003;
2.425500000000000E+009;1.670750975608826E-001;-9.960100799798966E-002;-2.293860074132681E-003;-4.664708860218525E-003;
2.425666666666667E+009;1.677610725164414E-001;-1.006057709455490E-001;-2.636198885738850E-003;-4.460103809833527E-003;
2.425833333333334E+009;1.682180166244507E-001;-1.015032380819321E-001;-2.566790906712413E-003;-4.262243397533894E-003;
2.426000000000000E+009;1.689323335886002E-001;-1.019530221819878E-001;-2.625108696520329E-003;-4.164380021393299E-003;
2.426166666666667E+009;1.694868952035904E-001;-1.026063635945320E-001;-2.792160492390394E-003;-4.028623923659325E-003;
2.426333333333334E+009;1.698856949806213E-001;-1.031622663140297E-001;-2.911630552262068E-003;-3.950743470340967E-003;
2.426500000000000E+009;1.704032570123673E-001;-1.035761386156082E-001;-3.074479987844825E-003;-3.687996650114656E-003;
2.426666666666667E+009;1.709515750408173E-001;-1.038349494338036E-001;-2.995369024574757E-003;-3.510836977511644E-003;
2.426833333333334E+009;1.714245080947876E-001;-1.040190085768700E-001;-3.081826027482748E-003;-3.420644905418158E-003;
2.427000000000000E+009;1.716651618480682E-001;-1.043326407670975E-001;-3.255265532061458E-003;-3.261074423789978E-003;
2.427166666666667E+009;1.719041168689728E-001;-1.043404415249825E-001;-3.302822588011622E-003;-3.103172639384866E-003;
2.427333333333334E+009;1.721099913120270E-001;-1.044523864984512E-001;-3.201205516234040E-003;-3.023378551006317E-003;
2.427500000000000E+009;1.720980703830719E-001;-1.045721769332886E-001;-3.313972614705563E-003;-2.824222901836038E-003;
2.427666666666667E+009;1.718930155038834E-001;-1.044464111328125E-001;-3.529439214617014E-003;-2.489641774445772E-003;
2.427833333333334E+009;1.718295067548752E-001;-1.044350191950798E-001;-3.607669379562140E-003;-2.395097166299820E-003;
