# Version 1.00
#
freq[Hz];re:Trc1_S11;im:Trc1_S11;re:Trc2_S21;im:Trc2_S21;
2.400000000000000E+009;1.729912012815476E-001;4.841034486889839E-002;-3.735781181603670E-003;-3.417928004637361E-003;
2.400166666666667E+009;1.734689474105835E-001;4.803555831313133E-002;-3.764497116208077E-003;-3.595316084101796E-003;
2.400333333333334E+009;1.739099174737930E-001;4.730485379695892E-002;-3.771225223317742E-003;-3.392227459698916E-003;
2.400500000000000E+009;1.744212508201599E-001;4.663886129856110E-002;-3.886533668264747E-003;-3.110266756266356E-003;
2.400666666666667E+009;1.745986193418503E-001;4.595714434981346E-002;-4.120214842259884E-003;-3.111532889306545E-003;
2.400833333333334E+009;1.749949306249619E-001;4.553601890802383E-002;-4.209261853247881E-003;-3.274249378591776E-003;
2.401000000000000E+009;1.752597689628601E-001;4.475747421383858E-002;-4.302510060369968E-003;-2.943101804703474E-003;
2.401166666666667E+009;1.756080389022827E-001;4.409178346395493E-002;-4.404237028211355E-003;-2.797495806589723E-003;
2.401333333333334E+009;1.754793524742127E-001;4.362096637487412E-002;-4.466348327696323E-003;-2.608218463137746E-003;
2.401500000000000E+009;1.755805164575577E-001;4.282698407769203E-002;-4.649552050977945E-003;-2.606008201837540E-003;
2.401666666666667E+009;1.757123917341232E-001;4.237544536590576E-002;-4.723108839243650E-003;-2.579245250672102E-003;
2.401833333333334E+009;1.758664995431900E-001;4.145200178027153E-002;-4.719351883977652E-003;-2.174051245674491E-003;
2.402000000000000E+009;1.757061630487442E-001;4.065147787332535E-002;-4.859022330492735E-003;-2.199345733970404E-003;
2.402166666666667E+009;1.755424886941910E-001;3.963745385408402E-002;-4.874880891293287E-003;-1.889477018266916E-003;
2.402333333333334E+009;1.752795577049255E-001;3.886422887444496E-002;-4.984161816537380E-003;-1.698201871477068E-003;
2.402500000000000E+009;1.752155125141144E-001;3.793438151478767E-002;-5.060286261141300E-003;-1.655727974139154E-003;
2.402666666666667E+009;1.749570667743683E-001;3.689048066735268E-002;-5.090989638119936E-003;-1.422737841494381E-003;
2.402833333333334E+009;1.746775805950165E-001;3.571121767163277E-002;-4.987560212612152E-003;-1.304589211940765E-003;
2.403000000000000E+009;1.744178682565689E-001;3.457399457693100E-002;-5.008591338992119E-003;-9.904879843816161E-004;
2.403166666666667E+009;1.740920841693878E-001;3.302298113703728E-002;-5.074895452708006E-003;-8.528192411176860E-004;
2.403333333333334E+009;1.738326549530029E-001;3.190298005938530E-002;-5.044777411967516E-003;-6.394584779627621E-004;
2.403500000000000E+009;1.733868122100830E-001;3.049218654632568E-002;-4.949199967086315E-003;-6.469720392487943E-004;
2.403666666666667E+009;1.730706095695496E-001;2.870845235884190E-002;-4.980223253369331E-003;-3.322151314932853E-004;
2.403833333333334E+009;1.726795434951782E-001;2.712490037083626E-002;-4.672675393521786E-003;-1.662155700614676E-004;
2.404000000000000E+009;1.722239404916763E-001;2.535695768892765E-002;-4.714259412139654E-003;1.102176520362264E-005;
2.404166666666667E+009;1.719686985015869E-001;2.353530377149582E-002;-4.452236462384462E-003;2.441251126583666E-004;
2.404333333333334E+009;1.714609116315842E-001;2.183532901108265E-002;-4.355130717158318E-003;2.666107902768999E-004;
2.404500000000000E+009;1.713746935129166E-001;1.985149271786213E-002;-4.313977435231209E-003;4.031517601106316E-004;
2.404666666666667E+009;1.710568219423294E-001;1.806183159351349E-002;-4.203295335173607E-003;4.221580456942320E-004;
2.404833333333334E+009;1.707783043384552E-001;1.606705412268639E-002;-4.165161401033402E-003;5.460607935674489E-004;
2.405000000000000E+009;1.704935431480408E-001;1.407428085803986E-002;-3.865776816383004E-003;5.475342622958124E-004;
2.405166666666667E+009;1.705249100923538E-001;1.202112343162298E-002;-4.063956439495087E-003;4.988822620362043E-004;
2.405333333333334E+009;1.704612523317337E-001;9.816097095608711E-003;-3.776455298066139E-003;6.467864150181413E-004;
2.405500000000000E+009;1.704749315977097E-001;7.919403724372387E-003;-3.793713403865695E-003;6.549347308464348E-004;
2.405666666666667E+009;1.706934273242950E-001;5.945672746747732E-003;-3.706548130139709E-003;7.877775351516902E-004;
2.405833333333334E+009;1.706319302320480E-001;3.872443223372102E-003;-3.532496048137546E-003;6.551678525283933E-004;
2.406000000000000E+009;1.709750592708588E-001;1.603429671376944E-003;-3.479022299870849E-003;6.338435923680663E-004;
2.406166666666667E+009;1.711855977773666E-001;-2.447495353408158E-004;-3.545261686667800E-003;7.691853679716587E-004;
2.406333333333334E+009;1.717654615640640E-001;-2.348422538489103E-003;-3.461419837549329E-003;7.061728974804282E-004;
2.406500000000000E+009;1.719668805599213E-001;-4.395199008285999E-003;-3.507504006847739E-003;8.231891551986337E-004;
2.406666666666667E+009;1.722535192966461E-001;-6.327651906758547E-003;-3.398736473172903E-003;7.920099305920303E-004;
2.406833333333334E+009;1.728891879320145E-001;-8.268452249467373E-003;-3.487601410597563E-003;6.173584260977805E-004;
2.407000000000000E+009;1.735714524984360E-001;-1.035763695836067E-002;-3.405349096283317E-003;7.609291351400316E-004;
2.407166666666667E+009;1.742336153984070E-001;-1.215135119855404E-002;-3.391877282410860E-003;7.231616182252765E-004;
2.407333333333334E+009;1.748339533805847E-001;-1.394082978367806E-002;-3.410665784031153E-003;8.249321836046875E-004;
2.407500000000000E+009;1.754606068134308E-001;-1.576848514378071E-002;-3.501886967569590E-003;8.582478621974587E-004;
2.407666666666667E+009;1.762736588716507E-001;-1.751850359141827E-002;-3.430333221331239E-003;8.925761212594807E-004;
2.407833333333334E+009;1.767521947622299E-001;-1.921935565769672E-002;-3.429979085922241E-003;1.075729844160378E-003;
2.408000000000000E+009;1.777304112911224E-001;-2.096542157232761E-002;-3.337639383971691E-003;9.998582536354661E-004;
2.408166666666667E+009;1.782462894916534E-001;-2.234802022576332E-002;-3.530906513333321E-003;1.192961586639285E-003;
2.408333333333334E+009;1.791558712720871E-001;-2.384350076317787E-002;-3.421464236453176E-003;1.231349422596395E-003;
2.408500000000000E+009;1.796735227108002E-001;-2.511190623044968E-002;-3.582381177693605E-003;1.210347865708172E-003;
2.408666666666667E+009;1.802975982427597E-001;-2.645936608314514E-002;-3.410810371860862E-003;1.331558101810515E-003;
2.408833333333334E+009;1.807297319173813E-001;-2.765833958983421E-002;-3.417763859033585E-003;1.307947328314185E-003;
2.409000000000000E+009;1.812992841005325E-001;-2.882847748696804E-002;-3.444423200562596E-003;1.378251123242080E-003;
2.409166666666667E+009;1.817475259304047E-001;-2.981016784906387E-002;-3.439526539295912E-003;1.457091770134866E-003;
2.409333333333334E+009;1.821929216384888E-001;-3.054977208375931E-002;-3.487478010356426E-003;1.415862119756639E-003;
2.409500000000000E+009;1.825654357671738E-001;-3.158127143979073E-002;-3.487836802378297E-003;1.688596094027162E-003;
2.409666666666667E+009;1.829082071781158E-001;-3.220276534557343E-002;-3.443194786086679E-003;1.686218543909490E-003;
2.409833333333334E+009;1.830657422542572E-001;-3.262960165739059E-002;-3.369987942278385E-003;1.789024216122925E-003;
2.410000000000000E+009;1.833578646183014E-001;-3.328308463096619E-002;-3.433022648096085E-003;1.854628208093345E-003;
2.410166666666667E+009;1.835374683141708E-001;-3.363835439085960E-002;-3.516149241477251E-003;1.969610573723912E-003;
2.410333333333334E+009;1.836280226707459E-001;-3.426533192396164E-002;-3.528868546709418E-003;2.035819692537189E-003;
2.410500000000000E+009;1.835121959447861E-001;-3.456299006938934E-002;-3.587528364732862E-003;2.322703599929810E-003;
2.410666666666667E+009;1.834115386009216E-001;-3.498116508126259E-002;-3.509736387059093E-003;2.248171251267195E-003;
2.410833333333334E+009;1.834536194801331E-001;-3.520671278238297E-002;-3.354531712830067E-003;2.300851279869676E-003;
2.411000000000000E+009;1.830099523067474E-001;-3.555055335164070E-002;-3.439802210777998E-003;2.526049967855215E-003;
2.411166666666667E+009;1.828272193670273E-001;-3.574929758906364E-002;-3.390787169337273E-003;2.510296180844307E-003;
2.411333333333334E+009;1.825230419635773E-001;-3.604079037904739E-002;-3.381332382559776E-003;2.689302898943424E-003;
2.411500000000000E+009;1.819268316030502E-001;-3.651169314980507E-002;-3.376997308805585E-003;2.786524128168821E-003;
2.411666666666667E+009;1.816640198230743E-001;-3.682904317975044E-002;-3.311095759272575E-003;2.897964324802160E-003;
2.411833333333334E+009;1.808034032583237E-001;-3.723234310746193E-002;-3.367661265656352E-003;3.022978082299233E-003;
2.412000000000000E+009;1.802748590707779E-001;-3.768425807356834E-002;-3.247011220082641E-003;3.121732966974378E-003;
2.412166666666667E+009;1.792174428701401E-001;-3.821372240781784E-002;-3.197500715032220E-003;3.376443171873689E-003;
2.412333333333334E+009;1.784821450710297E-001;-3.858004137873650E-002;-3.040520008653402E-003;3.499068785458803E-003;
2.412500000000000E+009;1.773691624403000E-001;-3.904432430863380E-002;-2.967014675959945E-003;3.720700740814209E-003;
2.412666666666667E+009;1.763199269771576E-001;-3.992378339171410E-002;-2.995917806401849E-003;3.746006870642304E-003;
2.412833333333334E+009;1.752592623233795E-001;-4.044689983129501E-002;-2.738596638664603E-003;3.788128728047013E-003;
2.413000000000000E+009;1.738639920949936E-001;-4.114522784948349E-002;-2.600693609565496E-003;3.960420843213797E-003;
2.413166666666667E+009;1.726592332124710E-001;-4.204255342483521E-002;-2.593852812424302E-003;4.102846607565880E-003;
2.413333333333334E+009;1.714725196361542E-001;-4.286772012710571E-002;-2.546205651015043E-003;4.280271474272013E-003;
2.413500000000000E+009;1.701167225837708E-001;-4.386695101857185E-002;-2.246940508484840E-003;4.262035712599754E-003;
2.413666666666667E+009;1.690094619989395E-001;-4.484711587429047E-002;-2.245384966954589E-003;4.273648373782635E-003;
2.413833333333334E+009;1.676151752471924E-001;-4.586507380008698E-002;-1.924096606671810E-003;4.388770554214716E-003;
2.414000000000000E+009;1.662083864212036E-001;-4.710985720157623E-002;-1.730403164401650E-003;4.436769988387823E-003;
2.414166666666667E+009;1.649893373250961E-001;-4.844646528363228E-002;-1.624538330361247E-003;4.627541638910770E-003;
2.414333333333334E+009;1.636718511581421E-001;-4.963551089167595E-002;-1.448829774744809E-003;4.546616692095995E-003;
2.414500000000000E+009;1.626377701759338E-001;-5.091896653175354E-002;-1.222506165504456E-003;4.539599642157555E-003;
2.414666666666667E+009;1.614988148212433E-001;-5.238994583487511E-002;-1.093204249627888E-003;4.701742902398109E-003;
2.414833333333334E+009;1.603334695100784E-001;-5.417328700423241E-002;-8.678774465806782E-004;4.451880697160959E-003;
2.415000000000000E+009;1.591798812150955E-001;-5.563719570636749E-002;-7.700404385104775E-004;4.566556308418512E-003;
2.415166666666667E+009;1.582454144954681E-001;-5.747881904244423E-002;-6.576728774234653E-004;4.419525153934956E-003;
2.415333333333334E+009;1.574600636959076E-001;-5.908833071589470E-002;-5.992430378682911E-004;4.405965097248554E-003;
2.415500000000000E+009;1.566099077463150E-001;-6.085151806473732E-002;-3.171135904267430E-004;4.547030199319124E-003;
2.415666666666667E+009;1.559083908796310E-001;-6.263577193021774E-002;-3.033171815332025E-004;4.428340122103691E-003;
2.415833333333334E+009;1.550857275724411E-001;-6.465785205364227E-002;-1.639263064134866E-004;4.385071806609631E-003;
2.416000000000000E+009;1.544643789529800E-001;-6.660112738609314E-002;-4.265528332325630E-005;4.308580886572599E-003;
2.416166666666667E+009;1.540347784757614E-001;-6.843553483486176E-002;7.614185597049072E-005;4.252487793564796E-003;
2.416333333333334E+009;1.535908132791519E-001;-7.042751461267471E-002;9.709447476780042E-005;4.175990819931030E-003;
2.416500000000000E+009;1.530286967754364E-001;-7.227190583944321E-002;4.743450699606910E-005;4.078883212059736E-003;
2.416666666666667E+009;1.527394503355026E-001;-7.419069856405258E-002;1.835076254792512E-004;4.135295283049345E-003;
2.416833333333334E+009;1.525975465774536E-001;-7.631430029869080E-002;2.613560936879367E-004;4.007379058748484E-003;
2.417000000000000E+009;1.521317213773727E-001;-7.819496840238571E-002;2.452569606248289E-004;4.143772646784782E-003;
2.417166666666667E+009;1.520307213068008E-001;-7.985574752092362E-002;2.309843403054401E-004;4.037310834974051E-003;
2.417333333333334E+009;1.518919616937637E-001;-8.168623596429825E-002;4.020108899567276E-004;4.154166672378779E-003;
2.417500000000000E+009;1.518914550542831E-001;-8.343919366598129E-002;5.200759624131024E-004;4.092340357601643E-003;
2.417666666666667E+009;1.518993973731995E-001;-8.504458516836166E-002;5.709446850232780E-004;4.009854979813099E-003;
2.417833333333334E+009;1.518774330615997E-001;-8.659561723470688E-002;6.171243148855865E-004;4.098531324416399E-003;
2.418000000000000E+009;1.519374102354050E-001;-8.818590641021729E-002;5.970562924630940E-004;4.014346748590469E-003;
2.418166666666667E+009;1.521282196044922E-001;-8.946193754673004E-002;7.449581753462553E-004;3.944934345781803E-003;
2.418333333333334E+009;1.524542868137360E-001;-9.090904891490936E-002;6.912964745424688E-004;3.838385920971632E-003;
2.418500000000000E+009;1.524601131677628E-001;-9.212493896484375E-002;8.511229534633458E-004;3.818412544205785E-003;
2.418666666666667E+009;1.527875512838364E-001;-9.314774721860886E-002;9.761832188814879E-004;3.936605527997017E-003;
2.418833333333334E+009;1.528625488281250E-001;-9.415045380592346E-002;8.433143375441432E-004;4.020203836262226E-003;
2.419000000000000E+009;1.530531793832779E-001;-9.495297819375992E-002;8.576448890380561E-004;3.778518410399556E-003;
2.419166666666667E+009;1.532032191753388E-001;-9.571356326341629E-002;9.217709302902222E-004;3.831577021628618E-003;
2.419333333333334E+009;1.532954871654511E-001;-9.617852419614792E-002;8.999180281534791E-004;3.890512045472860E-003;
2.419500000000000E+009;1.534864157438278E-001;-9.693395346403122E-002;1.001425436697900E-003;3.858887823298574E-003;
2.419666666666667E+009;1.538975685834885E-001;-9.728685021400452E-002;1.121549634262919E-003;4.046198911964893E-003;
2.419833333333334E+009;1.538588553667069E-001;-9.750030934810638E-002;1.073640421964228E-003;4.032373428344727E-003;
2.420000000000000E+009;1.541614085435867E-001;-9.779186546802521E-002;1.004802528768778E-003;4.193443339318037E-003;
2.420166666666667E+009;1.540395170450211E-001;-9.780972450971603E-002;1.272022258490324E-003;4.174392204731703E-003;
2.420333333333334E+009;1.542189568281174E-001;-9.788755327463150E-002;1.352773280814290E-003;4.264470655471087E-003;
2.420500000000000E+009;1.541560143232346E-001;-9.750615805387497E-002;1.340279122814536E-003;4.366475157439709E-003;
2.420666666666667E+009;1.541263312101364E-001;-9.747892618179321E-002;1.560635631904006E-003;4.363628569990397E-003;
2.420833333333334E+009;1.541036814451218E-001;-9.736222773790360E-002;1.626723562367261E-003;4.389147739857435E-003;
2.421000000000000E+009;1.538190096616745E-001;-9.710852801799774E-002;1.726584159769118E-003;4.708626307547092E-003;
2.421166666666667E+009;1.536255925893784E-001;-9.664975851774216E-002;1.744958339259028E-003;4.627250134944916E-003;
2.421333333333334E+009;1.534821838140488E-001;-9.652119874954224E-002;2.028481801971793E-003;4.782001022249460E-003;
2.421500000000000E+009;1.530305594205856E-001;-9.608297049999237E-002;2.071997849270701E-003;4.697703290730715E-003;
2.421666666666667E+009;1.526676267385483E-001;-9.581109881401062E-002;2.388107590377331E-003;4.827493801712990E-003;
2.421833333333334E+009;1.520259529352188E-001;-9.551560133695602E-002;2.551336539909244E-003;4.968181718140841E-003;
2.422000000000000E+009;1.512703150510788E-001;-9.507200121879578E-002;2.899611368775368E-003;5.010299384593964E-003;
2.422166666666667E+009;1.506700515747070E-001;-9.523589164018631E-002;3.185145789757371E-003;5.009375978261232E-003;
2.422333333333334E+009;1.496870815753937E-001;-9.479698538780212E-002;3.369492478668690E-003;5.065587349236012E-003;
2.422500000000000E+009;1.487859934568405E-001;-9.435840696096420E-002;3.635529428720474E-003;5.071614403277636E-003;
2.422666666666667E+009;1.476851701736450E-001;-9.424618631601334E-002;3.977724816650152E-003;5.013016518205404E-003;
2.422833333333334E+009;1.465828865766525E-001;-9.421419352293015E-002;4.114238079637289E-003;4.762088414281607E-003;
2.423000000000000E+009;1.453469395637512E-001;-9.399333596229553E-002;4.527349956333637E-003;4.726237151771784E-003;
2.423166666666667E+009;1.440130174160004E-001;-9.406798332929611E-002;4.825984593480825E-003;4.632907919585705E-003;
2.423333333333334E+009;1.428499966859818E-001;-9.396384656429291E-002;5.117265507578850E-003;4.513729363679886E-003;
2.423500000000000E+009;1.413803398609161E-001;-9.402632713317871E-002;5.322063807398081E-003;4.334515891969204E-003;
2.423666666666667E+009;1.398320943117142E-001;-9.433598071336746E-002;5.621502641588450E-003;4.272483754903078E-003;
2.423833333333334E+009;1.384739130735397E-001;-9.461883455514908E-002;5.906588397920132E-003;4.094367846846581E-003;
2.424000000000000E+009;1.368859559297562E-001;-9.463085234165192E-002;6.075005512684584E-003;3.912366926670075E-003;
2.424166666666667E+009;1.351470649242401E-001;-9.517128765583038E-002;6.420043762773275E-003;3.552035894244909E-003;
2.424333333333334E+009;1.338981389999390E-001;-9.543404728174210E-002;6.508067715913057E-003;3.340000519528985E-003;
2.424500000000000E+009;1.323309540748596E-001;-9.605064243078232E-002;6.878311280161142E-003;2.790099708363414E-003;
2.424666666666667E+009;1.309901028871536E-001;-9.655866771936417E-002;6.858600303530693E-003;2.687373431399465E-003;
2.424833333333334E+009;1.293617337942123E-001;-9.728650003671646E-002;7.058196235448122E-003;2.224382478743792E-003;
2.425000000000000E+009;1.280675977468491E-001;-9.822414815425873E-002;7.400328293442726E-003;1.918267924338579E-003;
2.425166666666667E+009;1.265685558319092E-001;-9.905716776847839E-002;7.425480522215366E-003;1.496618962846696E-003;
2.425333333333334E+009;1.252992451190949E-001;-1.001288294792175E-001;7.358994800597429E-003;1.224853214807808E-003;
2.425500000000000E+009;1.240592896938324E-001;-1.011408269405365E-001;7.450673729181290E-003;1.013873727060854E-003;
2.425666666666667E+009;1.227860003709793E-001;-1.024045497179031E-001;7.602765224874020E-003;5.220867460593581E-004;
2.425833333333334E+009;1.217733770608902E-001;-1.035527363419533E-001;7.427909411489964E-003;1.954236504388973E-004;
2.426000000000000E+009;1.207550838589668E-001;-1.049098148941994E-001;7.396271452307701E-003;-1.707938063191250E-004;
2.426166666666667E+009;1.199645921587944E-001;-1.064278781414032E-001;7.293621543794870E-003;-5.060256808064878E-004;
2.426333333333334E+009;1.188912764191628E-001;-1.079109907150269E-001;7.140224333852530E-003;-9.481590241193771E-004;
2.426500000000000E+009;1.180885881185532E-001;-1.092906221747398E-001;7.132182363420725E-003;-1.307724509388208E-003;
2.426666666666667E+009;1.175229996442795E-001;-1.107049286365509E-001;6.977389100939035E-003;-1.576284179463983E-003;
2.426833333333334E+009;1.168643385171890E-001;-1.124068573117256E-001;6.725151091814041E-003;-1.880938769318163E-003;
2.427000000000000E+009;1.162899211049080E-001;-1.140916645526886E-001;6.456264294683933E-003;-2.128525404259563E-003;
2.427166666666667E+009;1.158660650253296E-001;-1.156238913536072E-001;6.343370303511620E-003;-2.342751948162913E-003;
2.427333333333334E+009;1.153874620795250E-001;-1.171580553054810E-001;6.134303286671639E-003;-2.437596907839179E-003;
2.427500000000000E+009;1.151811406016350E-001;-1.187277585268021E-001;5.891235545277596E-003;-2.715041860938072E-003;
2.427666666666667E+009;1.149057000875473E-001;-1.204088777303696E-001;5.588209256529808E-003;-2.883074106648564E-003;
2.427833333333334E+009;1.146331280469894E-001;-1.219703033566475E-001;5.451188422739506E-003;-2.982001286000013E-003;
