# Version 1.00
#
freq[Hz];re:Trc1_S11;im:Trc1_S11;re:Trc2_S21;im:Trc2_S21;
2.400000000000000E+009;1.689646393060684E-001;4.703672602772713E-002;-9.025082108564675E-004;1.380019937641919E-003;
2.400166666666667E+009;1.700467616319656E-001;4.613393917679787E-002;-8.644665358588100E-004;1.165437744930387E-003;
2.400333333333334E+009;1.708529144525528E-001;4.505560919642448E-002;-6.922777974978089E-004;1.062769326381385E-003;
2.400500000000000E+009;1.718406379222870E-001;4.405748099088669E-002;-7.092621526680887E-004;8.303986396640539E-004;
2.400666666666667E+009;1.726144850254059E-001;4.292650893330574E-002;-6.372311036102474E-004;7.192672928795219E-004;
2.400833333333334E+009;1.734513342380524E-001;4.229941591620445E-002;-7.412800332531333E-004;5.935919471085072E-004;
2.401000000000000E+009;1.742722094058991E-001;4.152733460068703E-002;-7.839316385798156E-004;4.897504113614559E-004;
2.401166666666667E+009;1.749735772609711E-001;4.062197729945183E-002;-5.224625347182155E-004;4.058377526234835E-004;
2.401333333333334E+009;1.756639033555985E-001;3.997493162751198E-002;-7.931104046292603E-004;1.255156093975529E-004;
2.401500000000000E+009;1.764812320470810E-001;3.917308524250984E-002;-9.671799489296973E-004;1.361026952508837E-004;
2.401666666666667E+009;1.769782304763794E-001;3.886713087558746E-002;-9.181059431284666E-004;5.946890087216161E-005;
2.401833333333334E+009;1.775862723588944E-001;3.806617856025696E-002;-1.144249574281275E-003;1.200728220283054E-004;
2.402000000000000E+009;1.779308766126633E-001;3.753596171736717E-002;-1.183386426419020E-003;-7.774438563501462E-005;
2.402166666666667E+009;1.781315356492996E-001;3.672341257333756E-002;-1.379452645778656E-003;-1.899716880870983E-004;
2.402333333333334E+009;1.786212325096130E-001;3.623078390955925E-002;-1.475532073527575E-003;-2.920971310231835E-004;
2.402500000000000E+009;1.788626760244370E-001;3.557471558451653E-002;-1.661141985096037E-003;-2.071466733468697E-004;
2.402666666666667E+009;1.791084706783295E-001;3.480888903141022E-002;-1.877881702966988E-003;-2.819335495587438E-004;
2.402833333333334E+009;1.791498661041260E-001;3.410603478550911E-002;-2.062223153188825E-003;-2.194372791564092E-004;
2.403000000000000E+009;1.794308573007584E-001;3.324976190924645E-002;-2.266027964651585E-003;-1.688005868345499E-004;
2.403166666666667E+009;1.793287992477417E-001;3.241118416190147E-002;-2.417651005089283E-003;-1.215486481669359E-004;
2.403333333333334E+009;1.793895512819290E-001;3.177584707736969E-002;-2.681910758838058E-003;-7.556995115010068E-005;
2.403500000000000E+009;1.790327578783035E-001;3.036558069288731E-002;-2.758024260401726E-003;1.427083188900724E-004;
2.403666666666667E+009;1.786789894104004E-001;2.965660020709038E-002;-2.917241072282195E-003;2.011954784393311E-004;
2.403833333333334E+009;1.784003078937531E-001;2.852261438965797E-002;-2.924607833847404E-003;2.162713644793257E-004;
2.404000000000000E+009;1.782740056514740E-001;2.748397737741470E-002;-3.328059334307909E-003;5.822497769258916E-004;
2.404166666666667E+009;1.778330206871033E-001;2.602155506610870E-002;-3.295900998637080E-003;7.698971312493086E-004;
2.404333333333334E+009;1.772251874208450E-001;2.487651631236076E-002;-3.748152637854219E-003;9.796508820727468E-004;
2.404500000000000E+009;1.767394691705704E-001;2.333426102995873E-002;-3.394378349184990E-003;1.306530204601586E-003;
2.404666666666667E+009;1.763103306293488E-001;2.217721566557884E-002;-3.520492697134614E-003;1.602916745468974E-003;
2.404833333333334E+009;1.759652048349381E-001;2.043365500867367E-002;-3.608723171055317E-003;1.914531108923256E-003;
2.405000000000000E+009;1.754430234432221E-001;1.896594651043415E-002;-3.640674287453294E-003;2.008744049817324E-003;
2.405166666666667E+009;1.750404238700867E-001;1.743850111961365E-002;-3.484066575765610E-003;2.333819400519133E-003;
2.405333333333334E+009;1.747539788484573E-001;1.575592905282974E-002;-3.477227641269565E-003;2.704683924093843E-003;
2.405500000000000E+009;1.741871684789658E-001;1.422544382512569E-002;-3.246644511818886E-003;2.946740016341209E-003;
2.405666666666667E+009;1.738727390766144E-001;1.218248717486858E-002;-3.250112989917398E-003;3.159354440867901E-003;
2.405833333333334E+009;1.734230220317841E-001;1.056444272398949E-002;-2.954832511022687E-003;3.322388976812363E-003;
2.406000000000000E+009;1.732357591390610E-001;8.609202690422535E-003;-2.821661299094558E-003;3.696386003866792E-003;
2.406166666666667E+009;1.729292422533035E-001;6.860890425741673E-003;-2.627150155603886E-003;3.917653113603592E-003;
2.406333333333334E+009;1.731329113245010E-001;4.894133657217026E-003;-2.418849617242813E-003;4.219635389745235E-003;
2.406500000000000E+009;1.728626191616058E-001;2.852653851732612E-003;-2.123546088114381E-003;4.037392325699329E-003;
2.406666666666667E+009;1.726198345422745E-001;9.190824348479509E-004;-1.900845789350569E-003;4.193095024675131E-003;
2.406833333333334E+009;1.727409213781357E-001;-1.266108825802803E-003;-1.633916865102947E-003;4.438021685928106E-003;
2.407000000000000E+009;1.730280965566635E-001;-3.356500295922160E-003;-1.442284556105733E-003;4.462482873350382E-003;
2.407166666666667E+009;1.731282025575638E-001;-5.283522419631481E-003;-1.153468620032072E-003;4.633115604519844E-003;
2.407333333333334E+009;1.732961535453796E-001;-7.480306085199118E-003;-9.801600826904178E-004;4.491626285016537E-003;
2.407500000000000E+009;1.734971702098846E-001;-9.484433569014072E-003;-9.512423421256244E-004;4.493699409067631E-003;
2.407666666666667E+009;1.739179491996765E-001;-1.162731740623713E-002;-3.276155330240727E-004;4.730523563921452E-003;
2.407833333333334E+009;1.742024719715118E-001;-1.368286088109016E-002;-2.430571767035872E-004;4.640946630388498E-003;
2.408000000000000E+009;1.746032088994980E-001;-1.582447253167629E-002;5.490326293511316E-005;4.611893557012081E-003;
2.408166666666667E+009;1.750372499227524E-001;-1.763060316443443E-002;1.286537371925078E-005;4.435515962541103E-003;
2.408333333333334E+009;1.755976825952530E-001;-1.962647400796413E-002;3.972762497141957E-004;4.369750153273344E-003;
2.408500000000000E+009;1.758982539176941E-001;-2.167852222919464E-002;5.132966907694936E-004;4.350322298705578E-003;
2.408666666666667E+009;1.763955056667328E-001;-2.344532497227192E-002;5.714370636269450E-004;4.292896483093500E-003;
2.408833333333334E+009;1.766907125711441E-001;-2.513981610536575E-002;8.381106308661401E-004;4.226048476994038E-003;
2.409000000000000E+009;1.771485805511475E-001;-2.680601365864277E-002;1.035199151374400E-003;3.997240215539932E-003;
2.409166666666667E+009;1.775960773229599E-001;-2.835298329591751E-002;1.199391903355718E-003;3.996171522885561E-003;
2.409333333333334E+009;1.779847890138626E-001;-2.975707501173019E-002;1.157783204689622E-003;3.989756107330322E-003;
2.409500000000000E+009;1.784387975931168E-001;-3.116193599998951E-002;1.316499896347523E-003;3.850369015708566E-003;
2.409666666666667E+009;1.787496060132980E-001;-3.218435496091843E-002;1.459579798392952E-003;3.637511283159256E-003;
2.409833333333334E+009;1.790896952152252E-001;-3.315067291259766E-002;1.500952988862991E-003;3.737449413165450E-003;
2.410000000000000E+009;1.797043234109879E-001;-3.407231345772743E-002;1.635552151128650E-003;3.574636764824390E-003;
2.410166666666667E+009;1.802149862051010E-001;-3.491716086864471E-002;1.713175443001092E-003;3.575826063752174E-003;
2.410333333333334E+009;1.804739683866501E-001;-3.586597740650177E-002;1.672568498179317E-003;3.437767038121820E-003;
2.410500000000000E+009;1.808996051549912E-001;-3.653240576386452E-002;1.857137656770647E-003;3.312399378046393E-003;
2.410666666666667E+009;1.811415255069733E-001;-3.720067441463471E-002;1.906456891447306E-003;3.365693613886833E-003;
2.410833333333334E+009;1.816102415323257E-001;-3.788452595472336E-002;2.094801282510161E-003;3.318758914247155E-003;
2.411000000000000E+009;1.819133758544922E-001;-3.827124461531639E-002;2.070560120046139E-003;3.336613764986396E-003;
2.411166666666667E+009;1.819870471954346E-001;-3.904798254370689E-002;2.150001004338265E-003;3.239207901060581E-003;
2.411333333333334E+009;1.821504384279251E-001;-3.916076943278313E-002;2.285532653331757E-003;3.202756633982062E-003;
2.411500000000000E+009;1.821871101856232E-001;-3.992162644863129E-002;2.360379090532661E-003;3.064865712076426E-003;
2.411666666666667E+009;1.822042316198349E-001;-4.013198241591454E-002;2.590412972494960E-003;3.120278008282185E-003;
2.411833333333334E+009;1.819159835577011E-001;-4.051014035940170E-002;2.748206024989486E-003;3.026302671059966E-003;
2.412000000000000E+009;1.820147335529327E-001;-4.082063958048821E-002;2.766649937257171E-003;3.015396883711219E-003;
2.412166666666667E+009;1.814836561679840E-001;-4.125566408038139E-002;2.826224546879530E-003;2.912928583100438E-003;
2.412333333333334E+009;1.810415238142014E-001;-4.147170111536980E-002;3.160399850457907E-003;2.899580169469118E-003;
2.412500000000000E+009;1.805760711431503E-001;-4.183496534824371E-002;3.086533164605498E-003;2.635749522596598E-003;
2.412666666666667E+009;1.799189597368240E-001;-4.230574890971184E-002;3.347745398059487E-003;2.586925402283669E-003;
2.412833333333334E+009;1.791693866252899E-001;-4.269152134656906E-002;3.359649097546935E-003;2.493223408237100E-003;
2.413000000000000E+009;1.786150783300400E-001;-4.289394617080689E-002;3.344860626384616E-003;2.225929405540228E-003;
2.413166666666667E+009;1.774848103523254E-001;-4.345691576600075E-002;3.380671609193087E-003;2.066352404654026E-003;
2.413333333333334E+009;1.764659881591797E-001;-4.394476860761643E-002;3.595676273107529E-003;2.051887568086386E-003;
2.413500000000000E+009;1.755746006965637E-001;-4.433593526482582E-002;3.744304180145264E-003;2.052520168945193E-003;
2.413666666666667E+009;1.746745258569717E-001;-4.495420306921005E-002;3.730142023414373E-003;1.904603210277855E-003;
2.413833333333334E+009;1.733269095420837E-001;-4.556963965296745E-002;3.907192032784224E-003;1.678032102063298E-003;
2.414000000000000E+009;1.722203344106674E-001;-4.629439115524292E-002;3.697200212627649E-003;1.661665155552328E-003;
2.414166666666667E+009;1.713267862796783E-001;-4.689824953675270E-002;3.823634469881654E-003;1.579526113346219E-003;
2.414333333333334E+009;1.698872894048691E-001;-4.790505766868591E-002;3.845035796985030E-003;1.317568356171250E-003;
2.414500000000000E+009;1.688544601202011E-001;-4.856977984309197E-002;3.941270522773266E-003;1.129929907619953E-003;
2.414666666666667E+009;1.675718277692795E-001;-4.963064193725586E-002;3.860333003103733E-003;1.110962242819369E-003;
2.414833333333334E+009;1.663543581962585E-001;-5.074185132980347E-002;3.699382068589330E-003;9.971212130039930E-004;
2.415000000000000E+009;1.650111377239227E-001;-5.195361003279686E-002;3.871184075251222E-003;8.809792925603688E-004;
2.415166666666667E+009;1.638713479042053E-001;-5.313472077250481E-002;3.830687375739217E-003;8.808276033960283E-004;
2.415333333333334E+009;1.628992706537247E-001;-5.461925640702248E-002;3.703159978613257E-003;8.201596210710704E-004;
2.415500000000000E+009;1.617441773414612E-001;-5.601162090897560E-002;3.908154089003801E-003;5.793284508399665E-004;
2.415666666666667E+009;1.606824845075607E-001;-5.753249302506447E-002;4.004296381026506E-003;4.317392595112324E-004;
2.415833333333334E+009;1.595337539911270E-001;-5.910439789295197E-002;4.118526354432106E-003;4.253007064107806E-004;
2.416000000000000E+009;1.582736670970917E-001;-6.087167561054230E-002;4.161157179623842E-003;4.586431023199111E-004;
2.416166666666667E+009;1.576317548751831E-001;-6.266962736845017E-002;4.330380354076624E-003;2.436667418805882E-004;
2.416333333333334E+009;1.565559357404709E-001;-6.450378149747849E-002;4.235370550304651E-003;5.599722862825729E-005;
2.416500000000000E+009;1.556159257888794E-001;-6.642048805952072E-002;4.458068870007992E-003;-1.115051927627064E-004;
2.416666666666667E+009;1.546628177165985E-001;-6.825111061334610E-002;4.432122688740492E-003;-2.816608757711947E-004;
2.416833333333334E+009;1.540002077817917E-001;-7.029291242361069E-002;4.351740702986717E-003;-4.945658729411662E-004;
2.417000000000000E+009;1.531112939119339E-001;-7.221940904855728E-002;4.564735107123852E-003;-5.719792097806931E-004;
2.417166666666667E+009;1.525782048702240E-001;-7.406167685985565E-002;4.531177692115307E-003;-7.569669978693128E-004;
2.417333333333334E+009;1.519690006971359E-001;-7.600498944520950E-002;4.453148692846298E-003;-1.031584339216352E-003;
2.417500000000000E+009;1.513636708259583E-001;-7.807664573192596E-002;4.545661620795727E-003;-1.162064028903842E-003;
2.417666666666667E+009;1.511838138103485E-001;-7.983772456645966E-002;4.426367580890656E-003;-1.613614731468260E-003;
2.417833333333334E+009;1.506958901882172E-001;-8.167257905006409E-002;4.505900200456381E-003;-1.664939569309354E-003;
2.418000000000000E+009;1.502583324909210E-001;-8.358423411846161E-002;4.403403494507074E-003;-1.914491178467870E-003;
2.418166666666667E+009;1.500308513641357E-001;-8.515298366546631E-002;4.268626682460308E-003;-2.257992047816515E-003;
2.418333333333334E+009;1.500773876905441E-001;-8.681046962738037E-002;4.132981877774000E-003;-2.311056014150381E-003;
2.418500000000000E+009;1.498388648033142E-001;-8.835335820913315E-002;4.108865745365620E-003;-2.621312858536840E-003;
2.418666666666667E+009;1.499132215976715E-001;-8.991595357656479E-002;3.885388839989901E-003;-2.815680578351021E-003;
2.418833333333334E+009;1.498137414455414E-001;-9.148135781288147E-002;3.778286511078477E-003;-3.041395917534828E-003;
2.419000000000000E+009;1.497722566127777E-001;-9.269031137228012E-002;3.771060844883323E-003;-3.322437871247530E-003;
2.419166666666667E+009;1.499737650156021E-001;-9.385134279727936E-002;3.426064737141132E-003;-3.451287047937512E-003;
2.419333333333334E+009;1.500100344419479E-001;-9.496994316577911E-002;3.256150521337986E-003;-3.507701447233558E-003;
2.419500000000000E+009;1.502548009157181E-001;-9.600498527288437E-002;3.056368324905634E-003;-3.682418027892709E-003;
2.419666666666667E+009;1.504905223846436E-001;-9.691933542490006E-002;2.605206798762083E-003;-3.783292602747679E-003;
2.419833333333334E+009;1.507991403341293E-001;-9.746754169464111E-002;2.472687279805541E-003;-3.853923408314586E-003;
2.420000000000000E+009;1.511543691158295E-001;-9.812264144420624E-002;2.135271672159433E-003;-3.924870863556862E-003;
2.420166666666667E+009;1.513399928808212E-001;-9.871038794517517E-002;1.971038756892085E-003;-3.891993314027786E-003;
2.420333333333334E+009;1.517591327428818E-001;-9.916926175355911E-002;1.798888086341322E-003;-3.929990809410811E-003;
2.420500000000000E+009;1.520027518272400E-001;-9.924857318401337E-002;1.651226077228785E-003;-3.996840678155422E-003;
2.420666666666667E+009;1.522540748119354E-001;-9.955005347728729E-002;1.390103716403246E-003;-3.967473283410072E-003;
2.420833333333334E+009;1.525934338569641E-001;-9.972950071096420E-002;1.207913504913449E-003;-3.841431345790625E-003;
2.421000000000000E+009;1.528548002243042E-001;-9.995535761117935E-002;1.075528445653617E-003;-3.909627441316843E-003;
2.421166666666667E+009;1.530183255672455E-001;-9.983332455158234E-002;8.281706832349300E-004;-3.867044579237700E-003;
2.421333333333334E+009;1.533551067113876E-001;-9.988997131586075E-002;7.054759771563113E-004;-3.816826501861215E-003;
2.421500000000000E+009;1.531969904899597E-001;-9.964327514171600E-002;5.771515425294638E-004;-3.766845911741257E-003;
2.421666666666667E+009;1.532666236162186E-001;-9.933664649724960E-002;3.660017973743379E-004;-3.787826513871551E-003;
2.421833333333334E+009;1.532434523105621E-001;-9.936067461967468E-002;1.400495966663584E-004;-3.710981691256166E-003;
2.422000000000000E+009;1.530421525239945E-001;-9.893886744976044E-002;2.310939162271097E-004;-3.649219870567322E-003;
2.422166666666667E+009;1.526376754045487E-001;-9.880585968494415E-002;1.394227001583204E-004;-3.620601724833250E-003;
2.422333333333334E+009;1.524008810520172E-001;-9.847441315650940E-002;-1.575424685142934E-004;-3.436849918216467E-003;
2.422500000000000E+009;1.519204974174500E-001;-9.819335490465164E-002;-1.491262810304761E-004;-3.583441488444805E-003;
2.422666666666667E+009;1.511374711990356E-001;-9.788038581609726E-002;-3.161865461152047E-004;-3.488326445221901E-003;
2.422833333333334E+009;1.505717635154724E-001;-9.763023257255554E-002;-3.364678414072841E-004;-3.507403424009681E-003;
2.423000000000000E+009;1.496064662933350E-001;-9.722424298524857E-002;-6.192581495270133E-004;-3.309610998257995E-003;
2.423166666666667E+009;1.488774269819260E-001;-9.698911011219025E-002;-8.047576411627233E-004;-3.340356983244419E-003;
2.423333333333334E+009;1.477838307619095E-001;-9.650793671607971E-002;-1.021888339892030E-003;-3.309125080704689E-003;
2.423500000000000E+009;1.466356515884399E-001;-9.624794125556946E-002;-1.034234301187098E-003;-3.099700668826699E-003;
2.423666666666667E+009;1.453241109848023E-001;-9.605685621500015E-002;-1.160242012701929E-003;-2.952344482764602E-003;
2.423833333333334E+009;1.441528648138046E-001;-9.568008780479431E-002;-1.162525382824242E-003;-2.717383671551943E-003;
2.424000000000000E+009;1.427247226238251E-001;-9.534212201833725E-002;-1.257912139408290E-003;-2.578279934823513E-003;
2.424166666666667E+009;1.413722634315491E-001;-9.514024108648300E-002;-1.440801890566945E-003;-2.486800774931908E-003;
2.424333333333334E+009;1.400339007377625E-001;-9.499793499708176E-002;-1.309770741499960E-003;-2.389800036326051E-003;
2.424500000000000E+009;1.386274546384811E-001;-9.518950432538986E-002;-1.385375275276601E-003;-2.125239931046963E-003;
2.424666666666667E+009;1.372560262680054E-001;-9.501376003026962E-002;-1.488942885771394E-003;-2.157945884391666E-003;
2.424833333333334E+009;1.355729401111603E-001;-9.529881179332733E-002;-1.454154029488564E-003;-2.062078798189759E-003;
2.425000000000000E+009;1.341885924339294E-001;-9.581831842660904E-002;-1.441289670765400E-003;-2.010532421991229E-003;
2.425166666666667E+009;1.323961466550827E-001;-9.613128751516342E-002;-1.383863273076713E-003;-1.894595217891038E-003;
2.425333333333334E+009;1.310865581035614E-001;-9.664221853017807E-002;-1.161379041150212E-003;-1.622867537662387E-003;
2.425500000000000E+009;1.296308934688568E-001;-9.734124690294266E-002;-1.230992609634996E-003;-1.619966817088425E-003;
2.425666666666667E+009;1.280477643013001E-001;-9.804298728704453E-002;-1.217279699631035E-003;-1.668706652708352E-003;
2.425833333333334E+009;1.266233474016190E-001;-9.902703762054443E-002;-1.253697904758155E-003;-1.512476708739996E-003;
2.426000000000000E+009;1.252517551183701E-001;-1.001700311899185E-001;-1.229483052156866E-003;-1.540479133836925E-003;
2.426166666666667E+009;1.239931955933571E-001;-1.011904627084732E-001;-9.317612275481224E-004;-1.402833033353090E-003;
2.426333333333334E+009;1.226415112614632E-001;-1.023469194769859E-001;-1.037041191011667E-003;-1.434806152246893E-003;
2.426500000000000E+009;1.214452311396599E-001;-1.037249416112900E-001;-1.012390130199492E-003;-1.444319612346590E-003;
2.426666666666667E+009;1.203119605779648E-001;-1.049949228763580E-001;-9.492012322880328E-004;-1.327514881268144E-003;
2.426833333333334E+009;1.192244589328766E-001;-1.065189614892006E-001;-9.579785401001573E-004;-1.273163361474872E-003;
2.427000000000000E+009;1.181493699550629E-001;-1.082701459527016E-001;-9.089267114177346E-004;-1.403608010150492E-003;
2.427166666666667E+009;1.172277629375458E-001;-1.097124367952347E-001;-9.466686751693487E-004;-1.300788833759725E-003;
2.427333333333334E+009;1.162457838654518E-001;-1.114649027585983E-001;-9.720589150674641E-004;-1.305606681853533E-003;
2.427500000000000E+009;1.155854761600494E-001;-1.132031157612801E-001;-7.958468631841242E-004;-1.477402518503368E-003;
2.427666666666667E+009;1.147092208266258E-001;-1.149528250098229E-001;-9.135481668636203E-004;-1.456733327358961E-003;
