# Version 1.00
#
freq[Hz];re:Trc1_S11;im:Trc1_S11;re:Trc2_S21;im:Trc2_S21;
2.400000000000000E+009;1.689109355211258E-001;4.718873649835587E-002;-8.043812704272568E-004;1.535686664283276E-003;
2.400166666666667E+009;1.698431521654129E-001;4.616297036409378E-002;-7.325486512854695E-004;1.322544179856777E-003;
2.400333333333334E+009;1.708073616027832E-001;4.496029019355774E-002;-7.063624216243625E-004;1.157730817794800E-003;
2.400500000000000E+009;1.718033701181412E-001;4.401944577693939E-002;-5.781241343356669E-004;1.011144020594657E-003;
2.400666666666667E+009;1.727235317230225E-001;4.309267550706863E-002;-6.005686009302735E-004;7.787497015669942E-004;
2.400833333333334E+009;1.735218316316605E-001;4.227703064680100E-002;-6.146664381958544E-004;5.743639776483178E-004;
2.401000000000000E+009;1.743426322937012E-001;4.144400358200073E-002;-7.472657016478479E-004;5.432932521216571E-004;
2.401166666666667E+009;1.750571578741074E-001;4.072113707661629E-002;-7.314328104257584E-004;4.049103299621493E-004;
2.401333333333334E+009;1.755609810352325E-001;3.999248519539833E-002;-7.597713265568018E-004;3.625561075750738E-004;
2.401500000000000E+009;1.764642000198364E-001;3.941339254379273E-002;-9.215226164087653E-004;1.332680403720588E-004;
2.401666666666667E+009;1.770005077123642E-001;3.886159509420395E-002;-9.137002052739263E-004;-2.085330925183371E-005;
2.401833333333334E+009;1.774586290121079E-001;3.800784051418304E-002;-1.243016333319247E-003;1.334353582933545E-004;
2.402000000000000E+009;1.779769808053970E-001;3.759157285094261E-002;-1.174805685877800E-003;-5.615493864752352E-005;
2.402166666666667E+009;1.783058494329453E-001;3.668777644634247E-002;-1.398441498167813E-003;-6.358098471537232E-005;
2.402333333333334E+009;1.785316318273544E-001;3.610264882445335E-002;-1.567046390846372E-003;-2.388172724749893E-004;
2.402500000000000E+009;1.791855096817017E-001;3.541854396462441E-002;-1.618139445781708E-003;-1.337730063823983E-004;
2.402666666666667E+009;1.792860627174377E-001;3.486073017120361E-002;-1.805980806238949E-003;-1.444554654881358E-004;
2.402833333333334E+009;1.793266534805298E-001;3.398900106549263E-002;-1.859783427789807E-003;-2.082712890114635E-004;
2.403000000000000E+009;1.792989224195480E-001;3.332943096756935E-002;-2.116644289344549E-003;-2.321625652257353E-004;
2.403166666666667E+009;1.793075948953629E-001;3.250995278358460E-002;-2.333971904590726E-003;-8.125246677082032E-005;
2.403333333333334E+009;1.792083978652954E-001;3.157798945903778E-002;-2.606661524623632E-003;-1.752428797772154E-004;
2.403500000000000E+009;1.789070218801498E-001;3.070291876792908E-002;-2.541337860748172E-003;-8.989841444417834E-005;
2.403666666666667E+009;1.787031590938568E-001;2.949439361691475E-002;-2.865666057914496E-003;2.069954643957317E-004;
2.403833333333334E+009;1.784729957580566E-001;2.838837355375290E-002;-2.986401785165072E-003;3.439121064729989E-004;
2.404000000000000E+009;1.781655997037888E-001;2.734318375587463E-002;-3.140742890536785E-003;5.403224495239556E-004;
2.404166666666667E+009;1.776080727577210E-001;2.615784294903278E-002;-3.509138477966189E-003;7.171543547883630E-004;
2.404333333333334E+009;1.772108078002930E-001;2.478324994444847E-002;-3.510124050080776E-003;1.074274536222220E-003;
2.404500000000000E+009;1.767435669898987E-001;2.349266037344933E-002;-3.513249801471829E-003;1.233521616086364E-003;
2.404666666666667E+009;1.763351112604141E-001;2.211470156908035E-002;-3.641497343778610E-003;1.584653160534799E-003;
2.404833333333334E+009;1.758752912282944E-001;2.068420313298702E-002;-3.667663550004363E-003;1.798487850464881E-003;
2.405000000000000E+009;1.753257960081101E-001;1.911125145852566E-002;-3.577667521312833E-003;2.077532466500998E-003;
2.405166666666667E+009;1.750184744596481E-001;1.736109703779221E-002;-3.631677012890577E-003;2.351246308535337E-003;
2.405333333333334E+009;1.745922267436981E-001;1.562295295298100E-002;-3.538286779075861E-003;2.675740979611874E-003;
2.405500000000000E+009;1.742268651723862E-001;1.409890502691269E-002;-3.395849373191595E-003;2.919275313615799E-003;
2.405666666666667E+009;1.739509552717209E-001;1.226945128291845E-002;-3.227611305192113E-003;3.156521590426564E-003;
2.405833333333334E+009;1.734651327133179E-001;1.065942924469709E-002;-3.061846597120166E-003;3.366147866472602E-003;
2.406000000000000E+009;1.733176708221436E-001;8.580543100833893E-003;-2.923876047134399E-003;3.669637022539973E-003;
2.406166666666667E+009;1.729291528463364E-001;6.838859990239143E-003;-2.567910356447101E-003;3.885679412633181E-003;
2.406333333333334E+009;1.729491353034973E-001;4.818931221961975E-003;-2.443356439471245E-003;4.107664804905653E-003;
2.406500000000000E+009;1.728658080101013E-001;2.833303296938539E-003;-2.126696286723018E-003;4.060754086822271E-003;
2.406666666666667E+009;1.726117879152298E-001;8.389959111809731E-004;-2.013620920479298E-003;4.457316361367703E-003;
2.406833333333334E+009;1.728213727474213E-001;-1.278077135793865E-003;-1.680319779552519E-003;4.325540270656347E-003;
2.407000000000000E+009;1.728603988885880E-001;-3.216973738744855E-003;-1.484754611738026E-003;4.502309020608664E-003;
2.407166666666667E+009;1.732167452573776E-001;-5.308748222887516E-003;-1.246222062036395E-003;4.553504288196564E-003;
2.407333333333334E+009;1.732562780380249E-001;-7.434734143316746E-003;-8.778717019595206E-004;4.550545010715723E-003;
2.407500000000000E+009;1.736497282981873E-001;-9.518197737634182E-003;-8.297563181258738E-004;4.545830190181732E-003;
2.407666666666667E+009;1.739812195301056E-001;-1.157847326248884E-002;-4.843434435315430E-004;4.617576021701098E-003;
2.407833333333334E+009;1.742061078548431E-001;-1.367881521582604E-002;-9.961747855413705E-005;4.579500760883093E-003;
2.408000000000000E+009;1.745844483375549E-001;-1.570436917245388E-002;-3.253983959439211E-005;4.649240057915449E-003;
2.408166666666667E+009;1.750955730676651E-001;-1.755496859550476E-002;9.495740232523531E-005;4.525694064795971E-003;
2.408333333333334E+009;1.757009029388428E-001;-1.965275220572949E-002;3.329643222969025E-004;4.416559822857380E-003;
2.408500000000000E+009;1.760217100381851E-001;-2.166146226227284E-002;7.145664421841502E-004;4.261074587702751E-003;
2.408666666666667E+009;1.764779388904572E-001;-2.341789752244949E-002;9.100190363824368E-004;4.132013767957687E-003;
2.408833333333334E+009;1.768157631158829E-001;-2.498559281229973E-002;9.520315797999501E-004;4.145866259932518E-003;
2.409000000000000E+009;1.770855337381363E-001;-2.680415846407414E-002;1.167919486761093E-003;3.908075857907534E-003;
2.409166666666667E+009;1.776920855045319E-001;-2.834127470850945E-002;1.182590494863689E-003;3.954894840717316E-003;
2.409333333333334E+009;1.782398223876953E-001;-2.980498969554901E-002;1.395028200931847E-003;3.804683918133378E-003;
2.409500000000000E+009;1.783540844917297E-001;-3.122283518314362E-002;1.392425037920475E-003;3.748038318008184E-003;
2.409666666666667E+009;1.786933243274689E-001;-3.232309222221375E-002;1.348001882433891E-003;3.612345783039928E-003;
2.409833333333334E+009;1.794200390577316E-001;-3.321196138858795E-002;1.624464755877852E-003;3.511370159685612E-003;
2.410000000000000E+009;1.797991394996643E-001;-3.427677974104881E-002;1.719805877655745E-003;3.388495184481144E-003;
2.410166666666667E+009;1.800965517759323E-001;-3.503055870532990E-002;1.724825473502278E-003;3.459356492385268E-003;
2.410333333333334E+009;1.804173588752747E-001;-3.582170233130455E-002;1.732082455419004E-003;3.376487409695983E-003;
2.410500000000000E+009;1.809635311365128E-001;-3.660754114389420E-002;1.864134450443089E-003;3.346265060827136E-003;
2.410666666666667E+009;1.811522096395493E-001;-3.740922734141350E-002;1.909696846269071E-003;3.211627015843988E-003;
2.410833333333334E+009;1.816691756248474E-001;-3.780130296945572E-002;2.028025453910232E-003;3.244698978960514E-003;
2.411000000000000E+009;1.818506121635437E-001;-3.832959383726120E-002;2.018789993599057E-003;3.366098739206791E-003;
2.411166666666667E+009;1.820646226406097E-001;-3.885859996080399E-002;2.127975458279252E-003;3.102486254647374E-003;
2.411333333333334E+009;1.820774972438812E-001;-3.931605443358421E-002;2.329494105651975E-003;3.096798900514841E-003;
2.411500000000000E+009;1.821663975715637E-001;-3.985425829887390E-002;2.365336986258626E-003;3.021295415237546E-003;
2.411666666666667E+009;1.821966171264648E-001;-4.012572765350342E-002;2.389616798609495E-003;3.091166960075498E-003;
2.411833333333334E+009;1.819592118263245E-001;-4.054789990186691E-002;2.635889686644077E-003;3.041463438421488E-003;
2.412000000000000E+009;1.818332076072693E-001;-4.083076119422913E-002;2.728716237470508E-003;2.989654894918203E-003;
2.412166666666667E+009;1.814847439527512E-001;-4.123356565833092E-002;2.765434794127941E-003;2.704334212467074E-003;
2.412333333333334E+009;1.812002211809158E-001;-4.152038693428040E-002;2.960136160254479E-003;2.812617458403111E-003;
2.412500000000000E+009;1.805877685546875E-001;-4.185348004102707E-002;3.004110418260098E-003;2.645062049850822E-003;
2.412666666666667E+009;1.799376457929611E-001;-4.229119047522545E-002;3.118132706731558E-003;2.482132520526648E-003;
2.412833333333334E+009;1.793696731328964E-001;-4.269563034176827E-002;3.242334118112922E-003;2.497405046597123E-003;
2.413000000000000E+009;1.784815192222595E-001;-4.298489168286324E-002;3.454816760495305E-003;2.327756257727742E-003;
2.413166666666667E+009;1.774598658084869E-001;-4.338061809539795E-002;3.494315780699253E-003;2.130551962181926E-003;
2.413333333333334E+009;1.765742897987366E-001;-4.392284527420998E-002;3.621015232056379E-003;2.094067167490721E-003;
2.413500000000000E+009;1.755554080009460E-001;-4.448252916336060E-002;3.596247173845768E-003;1.918662572279573E-003;
2.413666666666667E+009;1.746159642934799E-001;-4.481101781129837E-002;3.777163801714778E-003;1.801897888071835E-003;
2.413833333333334E+009;1.733871102333069E-001;-4.542857781052589E-002;3.631973173469305E-003;1.677505671977997E-003;
2.414000000000000E+009;1.722087264060974E-001;-4.618581756949425E-002;3.884479869157076E-003;1.527946093119681E-003;
2.414166666666667E+009;1.710770279169083E-001;-4.701028019189835E-002;3.883259138092399E-003;1.434050849638879E-003;
2.414333333333334E+009;1.697881072759628E-001;-4.777507483959198E-002;3.924189601093531E-003;1.406631781719625E-003;
2.414500000000000E+009;1.687793582677841E-001;-4.870691895484924E-002;3.918162547051907E-003;1.093147322535515E-003;
2.414666666666667E+009;1.674766391515732E-001;-4.954063147306442E-002;3.971109166741371E-003;1.073565101251006E-003;
2.414833333333334E+009;1.662023365497589E-001;-5.075140297412872E-002;3.819140372797847E-003;9.616254246793687E-004;
2.415000000000000E+009;1.650041937828064E-001;-5.188739672303200E-002;3.874929156154394E-003;7.957418565638363E-004;
2.415166666666667E+009;1.638627201318741E-001;-5.312144383788109E-002;4.071303643286228E-003;7.855841540731490E-004;
2.415333333333334E+009;1.628498882055283E-001;-5.453447252511978E-002;3.840567311272025E-003;8.847419521771371E-004;
2.415500000000000E+009;1.615167707204819E-001;-5.601597949862480E-002;4.033059813082218E-003;5.489535978995264E-004;
2.415666666666667E+009;1.605588346719742E-001;-5.745585635304451E-002;4.274520091712475E-003;5.822555976919830E-004;
2.415833333333334E+009;1.595225483179092E-001;-5.914222449064255E-002;4.033334553241730E-003;5.802909727208316E-004;
2.416000000000000E+009;1.583461910486221E-001;-6.085919961333275E-002;4.070166032761335E-003;2.554334932938218E-004;
2.416166666666667E+009;1.575105488300324E-001;-6.262814998626709E-002;4.307232331484556E-003;2.014172932831571E-004;
2.416333333333334E+009;1.565157175064087E-001;-6.436423957347870E-002;4.460067022591829E-003;5.724056245526299E-005;
2.416500000000000E+009;1.556200981140137E-001;-6.632357090711594E-002;4.277894273400307E-003;-2.575698599684984E-004;
2.416666666666667E+009;1.546606272459030E-001;-6.817366927862167E-002;4.364145919680595E-003;-3.098154847975820E-004;
2.416833333333334E+009;1.540061235427856E-001;-7.018866389989853E-002;4.373158793896437E-003;-4.991940222680569E-004;
2.417000000000000E+009;1.531614661216736E-001;-7.219602912664414E-002;4.573182668536902E-003;-6.627897964790463E-004;
2.417166666666667E+009;1.525544375181198E-001;-7.417576014995575E-002;4.486627411097288E-003;-7.967918645590544E-004;
2.417333333333334E+009;1.520364731550217E-001;-7.596628367900848E-002;4.469477105885744E-003;-1.133863348513842E-003;
2.417500000000000E+009;1.514089703559876E-001;-7.806682586669922E-002;4.391031339764595E-003;-1.388582051731646E-003;
2.417666666666667E+009;1.510409563779831E-001;-7.975374907255173E-002;4.595743957906961E-003;-1.467771944589913E-003;
2.417833333333334E+009;1.507010310888290E-001;-8.157321810722351E-002;4.301140550523996E-003;-1.828184816986322E-003;
2.418000000000000E+009;1.503055542707443E-001;-8.363769203424454E-002;4.514093510806561E-003;-1.918145106174052E-003;
2.418166666666667E+009;1.499505043029785E-001;-8.516749739646912E-002;4.193390719592571E-003;-2.160435542464256E-003;
2.418333333333334E+009;1.500913947820664E-001;-8.690174669027329E-002;4.289675038307905E-003;-2.477245638146997E-003;
2.418500000000000E+009;1.498370170593262E-001;-8.853936940431595E-002;3.965879790484905E-003;-2.569615840911865E-003;
2.418666666666667E+009;1.499107331037521E-001;-8.996333181858063E-002;4.016699735075235E-003;-2.782905939966440E-003;
2.418833333333334E+009;1.497671306133270E-001;-9.146037697792053E-002;3.791585564613342E-003;-3.062971867620945E-003;
2.419000000000000E+009;1.497516632080078E-001;-9.262796491384506E-002;3.590612439438701E-003;-3.103839233517647E-003;
2.419166666666667E+009;1.499755829572678E-001;-9.396786242723465E-002;3.440957283601165E-003;-3.480379935353994E-003;
2.419333333333334E+009;1.500183492898941E-001;-9.478151053190231E-002;3.176793223246932E-003;-3.496393095701933E-003;
2.419500000000000E+009;1.502921283245087E-001;-9.603133797645569E-002;2.969509921967983E-003;-3.612756263464689E-003;
2.419666666666667E+009;1.505949050188065E-001;-9.683929383754730E-002;2.744040451943874E-003;-3.818167606368661E-003;
2.419833333333334E+009;1.506884098052979E-001;-9.754569083452225E-002;2.489730948582292E-003;-3.884273348376155E-003;
2.420000000000000E+009;1.510537564754486E-001;-9.821929782629013E-002;2.361251041293144E-003;-3.930054605007172E-003;
2.420166666666667E+009;1.513396501541138E-001;-9.880169481039047E-002;2.057676436379552E-003;-3.978534601628780E-003;
2.420333333333334E+009;1.517990529537201E-001;-9.916613250970841E-002;1.627415302209556E-003;-4.045035690069199E-003;
2.420500000000000E+009;1.520711034536362E-001;-9.930740296840668E-002;1.496855984441936E-003;-3.907378297299147E-003;
2.420666666666667E+009;1.522685587406158E-001;-9.950490295886993E-002;1.342566218227148E-003;-3.907712176442146E-003;
2.420833333333334E+009;1.525593400001526E-001;-9.968928992748261E-002;1.215392723679543E-003;-3.839450655505061E-003;
2.421000000000000E+009;1.527925282716751E-001;-9.985975921154022E-002;1.073238207027316E-003;-3.773474832996726E-003;
2.421166666666667E+009;1.530670076608658E-001;-9.987907111644745E-002;8.681270410306752E-004;-3.886088961735368E-003;
2.421333333333334E+009;1.532791852951050E-001;-9.972121566534042E-002;6.278809159994125E-004;-3.774405457079411E-003;
2.421500000000000E+009;1.532997936010361E-001;-9.960387647151947E-002;6.366152083501220E-004;-3.685944247990847E-003;
2.421666666666667E+009;1.533854752779007E-001;-9.945754706859589E-002;4.493310989346355E-004;-3.632633946835995E-003;
2.421833333333334E+009;1.533649563789368E-001;-9.936410188674927E-002;4.005240043625236E-004;-3.677854547277093E-003;
2.422000000000000E+009;1.530483067035675E-001;-9.908422082662582E-002;1.459360209992155E-004;-3.574217669665813E-003;
2.422166666666667E+009;1.527644693851471E-001;-9.889684617519379E-002;1.157514852820896E-004;-3.578492440283299E-003;
2.422333333333334E+009;1.523997485637665E-001;-9.839901328086853E-002;-1.408746902598068E-004;-3.599790157750249E-003;
2.422500000000000E+009;1.518224328756332E-001;-9.801480919122696E-002;-8.966411405708641E-005;-3.633169224485755E-003;
2.422666666666667E+009;1.511625498533249E-001;-9.786128997802734E-002;-3.780611732508987E-004;-3.451268421486020E-003;
2.422833333333334E+009;1.506097465753555E-001;-9.769357740879059E-002;-3.911174135282636E-004;-3.327190410345793E-003;
2.423000000000000E+009;1.496567130088806E-001;-9.715700149536133E-002;-6.835465319454670E-004;-3.380596404895186E-003;
2.423166666666667E+009;1.487943232059479E-001;-9.688059985637665E-002;-7.000318146310747E-004;-3.209785558283329E-003;
2.423333333333334E+009;1.479047536849976E-001;-9.633228182792664E-002;-7.783344481140375E-004;-3.066878998652101E-003;
2.423500000000000E+009;1.466144472360611E-001;-9.625250101089478E-002;-1.023380667902529E-003;-3.115908242762089E-003;
2.423666666666667E+009;1.453184336423874E-001;-9.592045843601227E-002;-1.246227999217808E-003;-3.048691898584366E-003;
2.423833333333334E+009;1.441029906272888E-001;-9.560208022594452E-002;-1.194476266391575E-003;-2.718232106417418E-003;
2.424000000000000E+009;1.427905857563019E-001;-9.537883102893829E-002;-1.230471185408533E-003;-2.776497974991798E-003;
2.424166666666667E+009;1.413795650005341E-001;-9.523255378007889E-002;-1.255843206308782E-003;-2.612064825370908E-003;
2.424333333333334E+009;1.401117295026779E-001;-9.510675072669983E-002;-1.398592838086188E-003;-2.576095517724752E-003;
2.424500000000000E+009;1.385494917631149E-001;-9.504229575395584E-002;-1.343317911960185E-003;-2.238480607047677E-003;
2.424666666666667E+009;1.373546123504639E-001;-9.495390951633453E-002;-1.440574531443417E-003;-2.171402564272285E-003;
2.424833333333334E+009;1.355698257684708E-001;-9.527324885129929E-002;-1.480684964917600E-003;-1.953630708158016E-003;
2.425000000000000E+009;1.340565383434296E-001;-9.561940282583237E-002;-1.467020134441555E-003;-1.880197320133448E-003;
2.425166666666667E+009;1.325395107269287E-001;-9.599703550338745E-002;-1.367563498206437E-003;-1.837518415413797E-003;
2.425333333333334E+009;1.310277283191681E-001;-9.658014029264450E-002;-1.267237472347915E-003;-1.722573651932180E-003;
2.425500000000000E+009;1.297391653060913E-001;-9.739514440298080E-002;-1.178438193164766E-003;-1.745903631672263E-003;
2.425666666666667E+009;1.279535293579102E-001;-9.814435243606567E-002;-1.172836520709097E-003;-1.722086570225656E-003;
2.425833333333334E+009;1.266415864229202E-001;-9.904996305704117E-002;-1.246440340764821E-003;-1.631118706427515E-003;
2.426000000000000E+009;1.252316534519196E-001;-1.001426205039024E-001;-1.133847050368786E-003;-1.492398208938539E-003;
2.426166666666667E+009;1.241597309708595E-001;-1.012335717678070E-001;-1.099769026041031E-003;-1.385913230478764E-003;
2.426333333333334E+009;1.226303800940514E-001;-1.025076285004616E-001;-1.163086155429483E-003;-1.413003657944500E-003;
2.426500000000000E+009;1.213777139782906E-001;-1.036591678857803E-001;-1.083368551917374E-003;-1.386822201311588E-003;
2.426666666666667E+009;1.203625276684761E-001;-1.050418391823769E-001;-9.501735912635922E-004;-1.387007767334580E-003;
2.426833333333334E+009;1.192584633827210E-001;-1.065957471728325E-001;-8.846692508086562E-004;-1.292546745389700E-003;
2.427000000000000E+009;1.181464642286301E-001;-1.082864254713059E-001;-9.342788252979517E-004;-1.369783305563033E-003;
2.427166666666667E+009;1.170833483338356E-001;-1.097277477383614E-001;-7.344588520936668E-004;-1.259834971278906E-003;
2.427333333333334E+009;1.161733493208885E-001;-1.114595532417297E-001;-8.863269467838109E-004;-1.432745833881199E-003;
2.427500000000000E+009;1.154924482107163E-001;-1.131806969642639E-001;-8.728337124921382E-004;-1.559853553771973E-003;
2.427666666666667E+009;1.148478463292122E-001;-1.149862110614777E-001;-9.179297485388815E-004;-1.467716647312045E-003;
