# Version 1.00
#
freq[Hz];re:Trc1_S11;im:Trc1_S11;re:Trc2_S21;im:Trc2_S21;
2.400000000000000E+009;1.689053177833557E-001;4.559806734323502E-002;-3.435808466747403E-004;5.434249062091112E-003;
2.400166666666667E+009;1.699390709400177E-001;4.467010870575905E-002;-2.287019160576165E-004;5.508034024387598E-003;
2.400333333333334E+009;1.707906424999237E-001;4.347224906086922E-002;1.764043263392523E-004;5.323000717908144E-003;
2.400500000000000E+009;1.717525124549866E-001;4.235878959298134E-002;3.101437469013035E-004;5.312229972332716E-003;
2.400666666666667E+009;1.726081967353821E-001;4.131030291318893E-002;6.279816734604538E-004;4.986444022506475E-003;
2.400833333333334E+009;1.735525280237198E-001;4.072894901037216E-002;7.203212007880211E-004;5.121911875903606E-003;
2.401000000000000E+009;1.743287146091461E-001;3.990163281559944E-002;8.870380115695298E-004;4.947443492710590E-003;
2.401166666666667E+009;1.750806570053101E-001;3.905461356043816E-002;1.133057638071477E-003;4.715708550065756E-003;
2.401333333333334E+009;1.757240146398544E-001;3.848493099212647E-002;1.407464384101331E-003;4.529959987848997E-003;
2.401500000000000E+009;1.764095723628998E-001;3.796890750527382E-002;1.577346352860332E-003;4.558069631457329E-003;
2.401666666666667E+009;1.769565641880035E-001;3.743314370512962E-002;1.474099932238460E-003;4.370554350316525E-003;
2.401833333333334E+009;1.775728613138199E-001;3.661058470606804E-002;1.625261036679149E-003;4.096909426152706E-003;
2.402000000000000E+009;1.779784113168716E-001;3.630920872092247E-002;1.834532245993614E-003;3.886397695168853E-003;
2.402166666666667E+009;1.784212589263916E-001;3.570583462715149E-002;1.658403896726668E-003;4.050172399729490E-003;
2.402333333333334E+009;1.786818057298660E-001;3.509020432829857E-002;1.844453741796315E-003;3.774974495172501E-003;
2.402500000000000E+009;1.793121248483658E-001;3.441290184855461E-002;2.074347808957100E-003;3.764083608984947E-003;
2.402666666666667E+009;1.794804185628891E-001;3.399260714650154E-002;2.116202143952251E-003;3.672064980491996E-003;
2.402833333333334E+009;1.796145439147949E-001;3.321973234415054E-002;2.084665931761265E-003;3.539330093190074E-003;
2.403000000000000E+009;1.796442568302155E-001;3.255827724933624E-002;2.148068277165294E-003;3.371704369783402E-003;
2.403166666666667E+009;1.797042042016983E-001;3.188165649771690E-002;2.401825040578842E-003;3.403506008908153E-003;
2.403333333333334E+009;1.795710325241089E-001;3.105396591126919E-002;2.484095981344581E-003;3.351408289745450E-003;
2.403500000000000E+009;1.793541014194489E-001;2.998397685587406E-002;2.417067065834999E-003;3.338340437039733E-003;
2.403666666666667E+009;1.791726648807526E-001;2.896461263298988E-002;2.600464504212141E-003;3.193975659087300E-003;
2.403833333333334E+009;1.790216863155365E-001;2.821629121899605E-002;2.661114092916250E-003;3.188677364960313E-003;
2.404000000000000E+009;1.786265224218369E-001;2.718240953981876E-002;2.823379822075367E-003;2.849734853953123E-003;
2.404166666666667E+009;1.781842112541199E-001;2.574928291141987E-002;2.896285615861416E-003;2.757695503532887E-003;
2.404333333333334E+009;1.777659505605698E-001;2.471894770860672E-002;2.891783835366368E-003;2.762450370937586E-003;
2.404500000000000E+009;1.772604584693909E-001;2.313358709216118E-002;2.911075949668884E-003;2.746999729424715E-003;
2.404666666666667E+009;1.769014596939087E-001;2.189276553690434E-002;3.037721151486039E-003;2.609404269605875E-003;
2.404833333333334E+009;1.763667464256287E-001;2.067184634506702E-002;3.146116156131029E-003;2.282212954014540E-003;
2.405000000000000E+009;1.759368330240250E-001;1.895638182759285E-002;3.385118441656232E-003;2.069775247946382E-003;
2.405166666666667E+009;1.754055470228195E-001;1.745515689253807E-002;3.405942581593990E-003;2.001711400225759E-003;
2.405333333333334E+009;1.750110834836960E-001;1.562863774597645E-002;3.376028034836054E-003;1.710529555566609E-003;
2.405500000000000E+009;1.746308803558350E-001;1.418068539351225E-002;3.589497180655599E-003;1.648596255108714E-003;
2.405666666666667E+009;1.741790473461151E-001;1.232071407139301E-002;3.587147220969200E-003;1.503052655607462E-003;
2.405833333333334E+009;1.736388951539993E-001;1.068219542503357E-002;3.389886347576976E-003;1.302035525441170E-003;
2.406000000000000E+009;1.735974699258804E-001;8.507741615176201E-003;3.472492331638932E-003;1.073372899554670E-003;
2.406166666666667E+009;1.730127930641174E-001;6.834577303379774E-003;3.338783979415894E-003;7.403117488138378E-004;
2.406333333333334E+009;1.730943024158478E-001;4.995373077690601E-003;3.288615029305220E-003;7.675529341213405E-004;
2.406500000000000E+009;1.727704405784607E-001;2.877172315493226E-003;3.356687026098371E-003;7.809227681718767E-004;
2.406666666666667E+009;1.725478917360306E-001;8.816735935397446E-004;3.325607860460877E-003;4.289073403924704E-004;
2.406833333333334E+009;1.726692318916321E-001;-1.287446939386427E-003;3.193764947354794E-003;4.131338209845126E-004;
2.407000000000000E+009;1.727556884288788E-001;-3.299942938610911E-003;3.084096126258373E-003;8.994631934911013E-005;
2.407166666666667E+009;1.728455722332001E-001;-5.265819840133190E-003;2.951058791950345E-003;-1.795673051674385E-005;
2.407333333333334E+009;1.728912293910980E-001;-7.604186423122883E-003;3.042697208002210E-003;-9.238723578164354E-005;
2.407500000000000E+009;1.730680912733078E-001;-9.493048302829266E-003;2.981947967782617E-003;-4.559655644698069E-005;
2.407666666666667E+009;1.733772456645966E-001;-1.155781652778387E-002;2.644706284627318E-003;-1.937730266945437E-004;
2.407833333333334E+009;1.734749674797058E-001;-1.376902498304844E-002;2.643132582306862E-003;-3.801662824116647E-004;
2.408000000000000E+009;1.739088445901871E-001;-1.587213389575481E-002;2.500299597159028E-003;-3.418693668209016E-004;
2.408166666666667E+009;1.743009239435196E-001;-1.762275025248528E-002;2.566667273640633E-003;-4.502430092543364E-004;
2.408333333333334E+009;1.748622953891754E-001;-1.957610063254833E-002;2.394112292677164E-003;-5.254511488601565E-004;
2.408500000000000E+009;1.751611083745956E-001;-2.158374898135662E-002;2.179508563131094E-003;-5.465294816531241E-004;
2.408666666666667E+009;1.755665689706802E-001;-2.334330230951309E-002;2.121721860021353E-003;-6.594879087060690E-004;
2.408833333333334E+009;1.758926361799240E-001;-2.519109286367893E-002;1.970677170902491E-003;-6.025156471878290E-004;
2.409000000000000E+009;1.763658076524735E-001;-2.670908905565739E-002;1.875073765404522E-003;-6.151880952529609E-004;
2.409166666666667E+009;1.768699586391449E-001;-2.834470383822918E-002;1.733364770188928E-003;-6.161028868518770E-004;
2.409333333333334E+009;1.774122416973114E-001;-2.989791333675385E-002;1.610605977475643E-003;-6.818138645030558E-004;
2.409500000000000E+009;1.778190135955811E-001;-3.126467391848564E-002;1.462724176235497E-003;-3.933342231903225E-004;
2.409666666666667E+009;1.782132536172867E-001;-3.246387466788292E-002;1.406556461006403E-003;-3.640108916442841E-004;
2.409833333333334E+009;1.787555515766144E-001;-3.346854075789452E-002;1.328702433966100E-003;-4.488648264668882E-004;
2.410000000000000E+009;1.793418079614639E-001;-3.464321792125702E-002;1.306751044467092E-003;-2.972963557112962E-004;
2.410166666666667E+009;1.798769533634186E-001;-3.555843606591225E-002;1.274825772270560E-003;-7.739001739537343E-005;
2.410333333333334E+009;1.800595968961716E-001;-3.645469993352890E-002;1.237742719240487E-003;-1.097658096114174E-004;
2.410500000000000E+009;1.805077195167542E-001;-3.722574934363365E-002;1.430650940164924E-003;-1.486687833676115E-004;
2.410666666666667E+009;1.808521598577499E-001;-3.800544142723084E-002;1.291084685362876E-003;1.139199812314473E-004;
2.410833333333334E+009;1.813814938068390E-001;-3.861841186881065E-002;1.300846342928708E-003;1.375148276565597E-004;
2.411000000000000E+009;1.816030144691467E-001;-3.927440568804741E-002;1.297213253565133E-003;1.565192214911804E-004;
2.411166666666667E+009;1.816811710596085E-001;-3.979566693305969E-002;1.460776082240045E-003;3.293621120974422E-004;
2.411333333333334E+009;1.817514151334763E-001;-4.018090292811394E-002;1.563365454785526E-003;4.023565270472318E-004;
2.411500000000000E+009;1.819535195827484E-001;-4.084049165248871E-002;1.755945035256445E-003;3.098824818152934E-004;
2.411666666666667E+009;1.820706725120544E-001;-4.122585430741310E-002;1.836392446421087E-003;2.847973955795169E-004;
2.411833333333334E+009;1.819951832294464E-001;-4.147680476307869E-002;2.015781356021762E-003;4.486225661821663E-004;
2.412000000000000E+009;1.817801147699356E-001;-4.207829758524895E-002;2.005378948524594E-003;4.398399614728987E-004;
2.412166666666667E+009;1.813420504331589E-001;-4.262627288699150E-002;2.332261763513088E-003;3.907588834408671E-004;
2.412333333333334E+009;1.811592578887940E-001;-4.280931130051613E-002;2.548329299315810E-003;3.539841272868216E-004;
2.412500000000000E+009;1.804723143577576E-001;-4.304872825741768E-002;2.410459564998746E-003;2.354303578613326E-004;
2.412666666666667E+009;1.801055371761322E-001;-4.353177174925804E-002;2.647053450345993E-003;1.737602360663004E-005;
2.412833333333334E+009;1.794617772102356E-001;-4.391386732459068E-002;2.864519832655788E-003;-3.603669756557792E-005;
2.413000000000000E+009;1.787510961294174E-001;-4.424742981791496E-002;2.933955518528819E-003;-2.218843001173809E-004;
2.413166666666667E+009;1.778091788291931E-001;-4.474770277738571E-002;2.977317664772272E-003;-3.119234170299023E-004;
2.413333333333334E+009;1.768006086349487E-001;-4.501691460609436E-002;2.865871647372842E-003;-4.229373007547110E-004;
2.413500000000000E+009;1.759899258613586E-001;-4.560682177543640E-002;3.027602797374129E-003;-6.883477326482534E-004;
2.413666666666667E+009;1.750651150941849E-001;-4.621718078851700E-002;3.110366174951196E-003;-9.908861247822642E-004;
2.413833333333334E+009;1.737683415412903E-001;-4.667546600103378E-002;2.889393363147974E-003;-9.189450065605342E-004;
2.414000000000000E+009;1.725362837314606E-001;-4.753186181187630E-002;2.941703656688333E-003;-1.199860707856715E-003;
2.414166666666667E+009;1.716754585504532E-001;-4.811120778322220E-002;2.891521900892258E-003;-1.285037724301219E-003;
2.414333333333334E+009;1.704030781984329E-001;-4.886511340737343E-002;2.700013807043433E-003;-1.501614809967578E-003;
2.414500000000000E+009;1.693336963653565E-001;-4.980371519923210E-002;2.790227066725493E-003;-1.488720299676061E-003;
2.414666666666667E+009;1.679589450359345E-001;-5.070594325661659E-002;2.599202794954181E-003;-1.745371846482158E-003;
2.414833333333334E+009;1.667283177375794E-001;-5.183158069849014E-002;2.542565809562802E-003;-1.943341689184308E-003;
2.415000000000000E+009;1.655225604772568E-001;-5.284009501338005E-002;2.420085482299328E-003;-1.911112340167165E-003;
2.415166666666667E+009;1.642769724130631E-001;-5.400406196713448E-002;2.315046964213252E-003;-1.982477959245443E-003;
2.415333333333334E+009;1.631959527730942E-001;-5.551651120185852E-002;2.196701243519783E-003;-2.000996377319098E-003;
2.415500000000000E+009;1.619420647621155E-001;-5.667723342776299E-002;2.084867330268025E-003;-2.165143378078938E-003;
2.415666666666667E+009;1.608683615922928E-001;-5.814280733466148E-002;1.979464897885919E-003;-2.091443166136742E-003;
2.415833333333334E+009;1.598382592201233E-001;-5.977044627070427E-002;1.987387659028173E-003;-2.077275887131691E-003;
2.416000000000000E+009;1.586366146802902E-001;-6.132848188281059E-002;1.867699902504683E-003;-2.189734252169728E-003;
2.416166666666667E+009;1.577268838882446E-001;-6.300575286149979E-002;1.945866388268769E-003;-2.185556804761291E-003;
2.416333333333334E+009;1.567529737949371E-001;-6.482897698879242E-002;1.820409554056823E-003;-2.081813057884574E-003;
2.416500000000000E+009;1.558401137590408E-001;-6.664904206991196E-002;1.769094262272120E-003;-2.109125023707748E-003;
2.416666666666667E+009;1.548859626054764E-001;-6.851154565811157E-002;1.712564378976822E-003;-2.177536254748702E-003;
2.416833333333334E+009;1.541104912757874E-001;-7.045990973711014E-002;1.645979005843401E-003;-2.223972696810961E-003;
2.417000000000000E+009;1.532380133867264E-001;-7.231282442808151E-002;1.671036821790040E-003;-2.295080805197358E-003;
2.417166666666667E+009;1.526115238666534E-001;-7.408903539180756E-002;1.580009469762445E-003;-2.448713406920433E-003;
2.417333333333334E+009;1.519746184349060E-001;-7.601026445627213E-002;1.656714943237603E-003;-2.393893897533417E-003;
2.417500000000000E+009;1.514772176742554E-001;-7.808537781238556E-002;1.447475748136640E-003;-2.440672600641847E-003;
2.417666666666667E+009;1.509059369564056E-001;-7.984318584203720E-002;1.585111487656832E-003;-2.476155757904053E-003;
2.417833333333334E+009;1.506171822547913E-001;-8.158621937036514E-002;1.667350414209068E-003;-2.460319316014648E-003;
2.418000000000000E+009;1.501479595899582E-001;-8.356336504220963E-002;1.422573928721249E-003;-2.637699712067843E-003;
2.418166666666667E+009;1.498744934797287E-001;-8.510185778141022E-002;1.375399646349251E-003;-2.636753953993321E-003;
2.418333333333334E+009;1.498622149229050E-001;-8.686604350805283E-002;1.343997777439654E-003;-2.733159577473998E-003;
2.418500000000000E+009;1.496372818946838E-001;-8.843562006950378E-002;1.351431244984269E-003;-2.744865138083696E-003;
2.418666666666667E+009;1.495705395936966E-001;-9.007709473371506E-002;1.197373378090560E-003;-2.839287510141730E-003;
2.418833333333334E+009;1.494296193122864E-001;-9.151605516672134E-002;1.257583033293486E-003;-2.974725794047117E-003;
2.419000000000000E+009;1.493374556303024E-001;-9.286013245582581E-002;1.148832263424993E-003;-3.052511019632220E-003;
2.419166666666667E+009;1.496028155088425E-001;-9.401529282331467E-002;1.005574478767812E-003;-3.206046763807535E-003;
2.419333333333334E+009;1.493964493274689E-001;-9.507359564304352E-002;1.036976231262088E-003;-3.188797971233726E-003;
2.419500000000000E+009;1.496939361095429E-001;-9.626989811658859E-002;1.029146253131330E-003;-3.200347069650888E-003;
2.419666666666667E+009;1.499026566743851E-001;-9.717768430709839E-002;7.817302830517292E-004;-3.265742212533951E-003;
2.419833333333334E+009;1.499424278736115E-001;-9.779582172632217E-002;7.325619808398187E-004;-3.334125038236380E-003;
2.420000000000000E+009;1.504036784172058E-001;-9.858809411525726E-002;5.086794262751937E-004;-3.392559010535479E-003;
2.420166666666667E+009;1.506240516901016E-001;-9.908813983201981E-002;5.116647225804627E-004;-3.422632580623031E-003;
2.420333333333334E+009;1.508917957544327E-001;-9.970634430646896E-002;4.885888192802668E-004;-3.530320478603244E-003;
2.420500000000000E+009;1.510628461837769E-001;-9.980304539203644E-002;3.137617895845324E-004;-3.519677789881825E-003;
2.420666666666667E+009;1.513528525829315E-001;-1.000471711158752E-001;1.808779925340787E-004;-3.638324094936252E-003;
2.420833333333334E+009;1.516198366880417E-001;-1.002975255250931E-001;2.827491261996329E-004;-3.552154405042529E-003;
2.421000000000000E+009;1.518055796623230E-001;-1.004590913653374E-001;2.933074028987903E-005;-3.815077012404800E-003;
2.421166666666667E+009;1.520330309867859E-001;-1.003810539841652E-001;-5.597462950390764E-005;-3.739453386515379E-003;
2.421333333333334E+009;1.520660668611527E-001;-1.004956811666489E-001;-2.034569042734802E-004;-3.872820874676108E-003;
2.421500000000000E+009;1.520949453115463E-001;-1.003689542412758E-001;-3.273162583354861E-004;-3.953889477998018E-003;
2.421666666666667E+009;1.521701961755753E-001;-1.000292301177979E-001;-4.410777764860541E-004;-4.078557249158621E-003;
2.421833333333334E+009;1.523521244525909E-001;-9.999277442693710E-002;-5.071866326034069E-004;-4.012516234070063E-003;
2.422000000000000E+009;1.519088000059128E-001;-9.963426738977432E-002;-6.676433258689940E-004;-4.181901458650827E-003;
2.422166666666667E+009;1.519296467304230E-001;-9.942772984504700E-002;-1.002135220915079E-003;-4.250929690897465E-003;
2.422333333333334E+009;1.515481621026993E-001;-9.918960183858872E-002;-1.106185140088201E-003;-4.304986912757158E-003;
2.422500000000000E+009;1.509485393762589E-001;-9.873866289854050E-002;-1.333976979367435E-003;-4.411865025758743E-003;
2.422666666666667E+009;1.503122001886368E-001;-9.836260974407196E-002;-1.377969863824546E-003;-4.327610135078430E-003;
2.422833333333334E+009;1.497004330158234E-001;-9.827249497175217E-002;-1.751838368363679E-003;-4.319807048887014E-003;
2.423000000000000E+009;1.490364670753479E-001;-9.775861352682114E-002;-2.028944203630090E-003;-4.456067923456430E-003;
2.423166666666667E+009;1.481633633375168E-001;-9.756767749786377E-002;-2.471820916980505E-003;-4.430118016898632E-003;
2.423333333333334E+009;1.472969055175781E-001;-9.701686352491379E-002;-2.551079960539937E-003;-4.409291315823793E-003;
2.423500000000000E+009;1.461491435766220E-001;-9.693821519613266E-002;-2.854882506653667E-003;-4.301332868635654E-003;
2.423666666666667E+009;1.450042575597763E-001;-9.676408767700195E-002;-3.198313526809216E-003;-4.171797074377537E-003;
2.423833333333334E+009;1.437985748052597E-001;-9.658027440309525E-002;-3.445278154686093E-003;-3.885010024532676E-003;
2.424000000000000E+009;1.424387991428375E-001;-9.610778838396072E-002;-3.730923635885119E-003;-3.880701493471861E-003;
2.424166666666667E+009;1.409399807453156E-001;-9.609860181808472E-002;-3.898506751284003E-003;-3.615131834521890E-003;
2.424333333333334E+009;1.398777216672897E-001;-9.591376781463623E-002;-4.034540615975857E-003;-3.494510194286704E-003;
2.424500000000000E+009;1.383518874645233E-001;-9.593348950147629E-002;-4.371474962681532E-003;-3.274367423728108E-003;
2.424666666666667E+009;1.370592713356018E-001;-9.584529697895050E-002;-4.641558043658733E-003;-2.859602449461818E-003;
2.424833333333334E+009;1.353806406259537E-001;-9.611718356609345E-002;-4.715423099696636E-003;-2.781884511932731E-003;
2.425000000000000E+009;1.340110152959824E-001;-9.647306799888611E-002;-4.977226722985506E-003;-2.410264685750008E-003;
2.425166666666667E+009;1.324596405029297E-001;-9.691436588764191E-002;-4.968442954123020E-003;-2.247446682304144E-003;
2.425333333333334E+009;1.310767084360123E-001;-9.737416356801987E-002;-5.244875792413950E-003;-1.897164154797792E-003;
2.425500000000000E+009;1.296708881855011E-001;-9.805466234683991E-002;-5.179583095014095E-003;-1.481033163145185E-003;
2.425666666666667E+009;1.281469911336899E-001;-9.887030720710754E-002;-5.284606944769621E-003;-1.217728247866035E-003;
2.425833333333334E+009;1.266021281480789E-001;-9.972633421421051E-002;-5.387318786233664E-003;-7.518100319430232E-004;
2.426000000000000E+009;1.254476308822632E-001;-1.008282005786896E-001;-5.441836547106504E-003;-5.955089000053704E-004;
2.426166666666667E+009;1.241380125284195E-001;-1.018883883953095E-001;-5.264472216367722E-003;-2.439301897538826E-004;
2.426333333333334E+009;1.228033602237701E-001;-1.030046790838242E-001;-5.149316508322954E-003;2.565282629802823E-004;
2.426500000000000E+009;1.216755360364914E-001;-1.042464151978493E-001;-5.006856285035610E-003;6.345142028294504E-004;
2.426666666666667E+009;1.206303983926773E-001;-1.056380495429039E-001;-4.822361283004284E-003;9.139163303188980E-004;
2.426833333333334E+009;1.194510981440544E-001;-1.070803403854370E-001;-4.625917412340641E-003;1.182946143671870E-003;
2.427000000000000E+009;1.182281523942947E-001;-1.087824627757072E-001;-4.501490388065577E-003;1.301622134633362E-003;
2.427166666666667E+009;1.173618286848068E-001;-1.101591959595680E-001;-4.353216383606195E-003;1.497378805652261E-003;
2.427333333333334E+009;1.164758279919624E-001;-1.118879318237305E-001;-3.933087922632694E-003;1.621549483388662E-003;
2.427500000000000E+009;1.157662421464920E-001;-1.135527864098549E-001;-3.786020446568728E-003;1.767573412507772E-003;
2.427666666666667E+009;1.150386035442352E-001;-1.153332218527794E-001;-3.343949792906642E-003;1.890779472887516E-003;
