# Version 1.00
#
freq[Hz];re:Trc1_S11;im:Trc1_S11;re:Trc2_S21;im:Trc2_S21;
2.400000000000000E+009;1.622668653726578E-001;5.672157183289528E-002;1.248912885785103E-003;5.012877751141787E-003;
2.400166666666667E+009;1.622853130102158E-001;5.530326813459396E-002;1.403366215527058E-003;4.743694793432951E-003;
2.400333333333334E+009;1.623974293470383E-001;5.356240645051003E-002;1.559402560815215E-003;4.853165708482266E-003;
2.400500000000000E+009;1.625132113695145E-001;5.187028273940086E-002;1.640013302676380E-003;5.021245218813419E-003;
2.400666666666667E+009;1.625793427228928E-001;5.012753605842590E-002;1.834729453548789E-003;5.107600241899490E-003;
2.400833333333334E+009;1.629150807857513E-001;4.849908128380776E-002;1.889855135232210E-003;5.118506029248238E-003;
2.401000000000000E+009;1.629723906517029E-001;4.668724164366722E-002;2.124519087374210E-003;5.242356564849615E-003;
2.401166666666667E+009;1.631904691457748E-001;4.492550343275070E-002;2.402052516117692E-003;5.083260592073202E-003;
2.401333333333334E+009;1.633010357618332E-001;4.299377277493477E-002;2.609716029837728E-003;5.208908580243588E-003;
2.401500000000000E+009;1.637516468763351E-001;4.131685569882393E-002;2.825294854119420E-003;5.289852153509855E-003;
2.401666666666667E+009;1.638501733541489E-001;3.950719535350800E-002;3.027584170922637E-003;5.263230297714472E-003;
2.401833333333334E+009;1.641235947608948E-001;3.782325237989426E-002;3.278325079008937E-003;5.274998955428600E-003;
2.402000000000000E+009;1.643947660923004E-001;3.604274243116379E-002;3.577790223062038E-003;5.250663962215185E-003;
2.402166666666667E+009;1.647320985794067E-001;3.391732275485992E-002;3.867459949105978E-003;5.150454584509134E-003;
2.402333333333334E+009;1.651085019111633E-001;3.250441327691078E-002;4.289397969841957E-003;5.232325289398432E-003;
2.402500000000000E+009;1.657564342021942E-001;3.093170374631882E-002;4.377954639494419E-003;4.928552545607090E-003;
2.402666666666667E+009;1.660776883363724E-001;2.932116761803627E-002;4.727218300104141E-003;4.882730077952147E-003;
2.402833333333334E+009;1.668425798416138E-001;2.801412530243397E-002;5.039805546402931E-003;4.709194879978895E-003;
2.403000000000000E+009;1.673156023025513E-001;2.650060877203941E-002;5.335454829037190E-003;4.705327562987804E-003;
2.403166666666667E+009;1.677776873111725E-001;2.503103949129582E-002;5.561771336942911E-003;4.341508727520704E-003;
2.403333333333334E+009;1.683917343616486E-001;2.371427603065968E-002;5.890758242458105E-003;4.065926652401686E-003;
2.403500000000000E+009;1.689699888229370E-001;2.225327491760254E-002;6.186651065945625E-003;3.802804043516517E-003;
2.403666666666667E+009;1.697585731744766E-001;2.087423577904701E-002;6.250452250242233E-003;3.626675810664892E-003;
2.403833333333334E+009;1.703489422798157E-001;1.980261318385601E-002;6.616697181016207E-003;3.314070403575897E-003;
2.404000000000000E+009;1.709512472152710E-001;1.873868890106678E-002;6.837952416390181E-003;2.957006916403770E-003;
2.404166666666667E+009;1.715015918016434E-001;1.764925196766853E-002;6.928457412868738E-003;2.655031625181437E-003;
2.404333333333334E+009;1.720888763666153E-001;1.657085120677948E-002;7.221368141472340E-003;2.259511966258287E-003;
2.404500000000000E+009;1.726042330265045E-001;1.556672248989344E-002;7.373338565230370E-003;1.755709061399102E-003;
2.404666666666667E+009;1.734104901552200E-001;1.482842862606049E-002;7.341226562857628E-003;1.659367233514786E-003;
2.404833333333334E+009;1.738413572311401E-001;1.391125749796629E-002;7.289789617061615E-003;1.109567121602595E-003;
2.405000000000000E+009;1.743766069412231E-001;1.306980103254318E-002;7.368426304310560E-003;6.958210724405944E-004;
2.405166666666667E+009;1.748717725276947E-001;1.231306791305542E-002;7.573746144771576E-003;2.309876144863665E-004;
2.405333333333334E+009;1.754269599914551E-001;1.165432203561068E-002;7.552505005151033E-003;1.145281785284169E-004;
2.405500000000000E+009;1.757009029388428E-001;1.102268323302269E-002;7.481812033802271E-003;-4.401172045618296E-004;
2.405666666666667E+009;1.762131750583649E-001;1.052363310009241E-002;7.478409912437201E-003;-5.797421908937395E-004;
2.405833333333334E+009;1.766275763511658E-001;1.002053637057543E-002;7.334787864238024E-003;-1.156316255219281E-003;
2.406000000000000E+009;1.769472956657410E-001;9.406207129359245E-003;7.141420152038336E-003;-1.390744117088616E-003;
2.406166666666667E+009;1.772017925977707E-001;9.046174585819244E-003;7.033709902316332E-003;-1.713943900540471E-003;
2.406333333333334E+009;1.774882227182388E-001;8.580258116126061E-003;6.927458103746176E-003;-1.976981060579419E-003;
2.406500000000000E+009;1.775776743888855E-001;8.042981848120689E-003;6.751621142029762E-003;-2.512163249775767E-003;
2.406666666666667E+009;1.777261048555374E-001;7.690250407904387E-003;6.580110639333725E-003;-2.609968651086092E-003;
2.406833333333334E+009;1.777244210243225E-001;7.033692672848702E-003;6.460818462073803E-003;-2.977922093123198E-003;
2.407000000000000E+009;1.778494715690613E-001;6.440327968448401E-003;6.248886696994305E-003;-3.301774850115180E-003;
2.407166666666667E+009;1.779152154922485E-001;6.142409984022379E-003;5.975746549665928E-003;-3.458192339166999E-003;
2.407333333333334E+009;1.776777207851410E-001;5.405051633715630E-003;5.844783037900925E-003;-3.573411609977484E-003;
2.407500000000000E+009;1.776044666767120E-001;4.754256457090378E-003;5.590988788753748E-003;-3.965782467275858E-003;
2.407666666666667E+009;1.774309575557709E-001;4.206610843539238E-003;5.437287967652082E-003;-4.209505394101143E-003;
2.407833333333334E+009;1.770139634609222E-001;3.440365660935640E-003;5.213609430938959E-003;-4.177310038357973E-003;
2.408000000000000E+009;1.768475770950317E-001;2.739919349551201E-003;4.858682863414288E-003;-4.585175774991512E-003;
2.408166666666667E+009;1.764328628778458E-001;1.987958326935768E-003;4.631134681403637E-003;-4.548417404294014E-003;
2.408333333333334E+009;1.762457937002182E-001;1.211793627589941E-003;4.295264836400747E-003;-4.768606740981340E-003;
2.408500000000000E+009;1.757613420486450E-001;2.803166862577200E-004;4.121512640267611E-003;-4.901282023638487E-003;
2.408666666666667E+009;1.752541065216065E-001;-8.321658242493868E-004;3.734139492735267E-003;-5.044267512857914E-003;
2.408833333333334E+009;1.748722791671753E-001;-1.877673435956240E-003;3.689452540129423E-003;-5.238081328570843E-003;
2.409000000000000E+009;1.742925643920898E-001;-2.934746677055955E-003;3.345101140439510E-003;-5.085719283670187E-003;
2.409166666666667E+009;1.738861352205277E-001;-4.059041850268841E-003;3.091368824243546E-003;-5.237765144556761E-003;
2.409333333333334E+009;1.734937578439713E-001;-5.359651520848274E-003;2.884073182940483E-003;-5.223975051194429E-003;
2.409500000000000E+009;1.729135215282440E-001;-6.692207884043455E-003;2.559842541813850E-003;-5.117493215948343E-003;
2.409666666666667E+009;1.723820418119431E-001;-8.031945675611496E-003;2.432553563266993E-003;-5.067945923656225E-003;
2.409833333333334E+009;1.717235296964645E-001;-9.347941726446152E-003;2.115752780809999E-003;-5.269251763820648E-003;
2.410000000000000E+009;1.715283691883087E-001;-1.095589064061642E-002;1.863394863903523E-003;-5.275156814604998E-003;
2.410166666666667E+009;1.710881590843201E-001;-1.239801011979580E-002;1.803782419301570E-003;-5.130129866302013E-003;
2.410333333333334E+009;1.706150323152542E-001;-1.390191726386547E-002;1.462442218326032E-003;-5.178039427846670E-003;
2.410500000000000E+009;1.703203916549683E-001;-1.553094200789928E-002;1.411805511452258E-003;-5.075137596577406E-003;
2.410666666666667E+009;1.698565930128098E-001;-1.728549227118492E-002;1.160151092335582E-003;-5.141416098922491E-003;
2.410833333333334E+009;1.698537468910217E-001;-1.888104528188705E-002;8.549366029910743E-004;-5.087052937597036E-003;
2.411000000000000E+009;1.694443821907044E-001;-2.074053883552551E-002;7.398817106150091E-004;-4.813559819012880E-003;
2.411166666666667E+009;1.692366600036621E-001;-2.247750945389271E-002;6.805204320698977E-004;-4.896090831607580E-003;
2.411333333333334E+009;1.689217984676361E-001;-2.403947524726391E-002;4.680443962570280E-004;-4.791235085576773E-003;
2.411500000000000E+009;1.687947511672974E-001;-2.595529891550541E-002;3.469651273917407E-004;-4.689467605203390E-003;
2.411666666666667E+009;1.689436435699463E-001;-2.762280963361263E-002;2.004901180043817E-004;-4.671337548643351E-003;
2.411833333333334E+009;1.689247190952301E-001;-2.953525446355343E-002;1.260957942577079E-004;-4.597496241331101E-003;
2.412000000000000E+009;1.689729839563370E-001;-3.132457658648491E-002;9.455953113501892E-005;-4.530707839876413E-003;
2.412166666666667E+009;1.690273135900497E-001;-3.322809562087059E-002;3.411512807360850E-005;-4.560185130685568E-003;
2.412333333333334E+009;1.692393273115158E-001;-3.488882631063461E-002;-2.457128139212728E-004;-4.512286745011807E-003;
2.412500000000000E+009;1.693350076675415E-001;-3.678719699382782E-002;-4.295702965464443E-004;-4.489954095333815E-003;
2.412666666666667E+009;1.696360856294632E-001;-3.862239420413971E-002;-4.194534267298877E-004;-4.583912435919046E-003;
2.412833333333334E+009;1.699357777833939E-001;-4.020752012729645E-002;-6.093570264056325E-004;-4.535481799393892E-003;
2.413000000000000E+009;1.701006740331650E-001;-4.177757725119591E-002;-7.409958052448928E-004;-4.548001103103161E-003;
2.413166666666667E+009;1.704454272985458E-001;-4.344683140516281E-002;-7.155410130508244E-004;-4.386879038065672E-003;
2.413333333333334E+009;1.707302182912827E-001;-4.498188197612763E-002;-1.048153615556657E-003;-4.404920618981123E-003;
2.413500000000000E+009;1.713193804025650E-001;-4.648087173700333E-002;-1.148994080722332E-003;-4.357226658612490E-003;
2.413666666666667E+009;1.716884970664978E-001;-4.803338646888733E-002;-1.268969033844769E-003;-4.278771579265595E-003;
2.413833333333334E+009;1.719095110893250E-001;-4.924131557345390E-002;-1.285852631554008E-003;-4.246678669005632E-003;
2.414000000000000E+009;1.723140329122543E-001;-5.062478035688400E-002;-1.474617864005268E-003;-4.051393829286099E-003;
2.414166666666667E+009;1.728678047657013E-001;-5.179762467741966E-002;-1.798371202312410E-003;-3.933901432901621E-003;
2.414333333333334E+009;1.732220500707626E-001;-5.308538675308228E-002;-1.856865710578859E-003;-3.860404947772622E-003;
2.414500000000000E+009;1.737858802080154E-001;-5.410933867096901E-002;-1.954353647306562E-003;-3.660396439954639E-003;
2.414666666666667E+009;1.739381104707718E-001;-5.504161119461060E-002;-2.189879305660725E-003;-3.657886059954763E-003;
2.414833333333334E+009;1.743291467428207E-001;-5.600838735699654E-002;-2.231885446235538E-003;-3.587629180401564E-003;
2.415000000000000E+009;1.746197789907455E-001;-5.669056996703148E-002;-2.346762688830495E-003;-3.307874081656337E-003;
2.415166666666667E+009;1.749375164508820E-001;-5.751828476786614E-002;-2.338742604479194E-003;-3.215467091649771E-003;
2.415333333333334E+009;1.752821803092957E-001;-5.839361622929573E-002;-2.416330855339766E-003;-3.090669400990009E-003;
2.415500000000000E+009;1.754080057144165E-001;-5.901287868618965E-002;-2.536010462790728E-003;-3.074703970924020E-003;
2.415666666666667E+009;1.755031049251556E-001;-5.946238338947296E-002;-2.631440525874496E-003;-2.987460698932409E-003;
2.415833333333334E+009;1.756465137004852E-001;-6.019379198551178E-002;-2.671978669241071E-003;-2.893356839194894E-003;
2.416000000000000E+009;1.756444871425629E-001;-6.060006842017174E-002;-2.732834080234170E-003;-2.590093296021223E-003;
2.416166666666667E+009;1.757512688636780E-001;-6.095484644174576E-002;-2.918314421549439E-003;-2.521062968298793E-003;
2.416333333333334E+009;1.756553500890732E-001;-6.130325049161911E-002;-2.912300871685147E-003;-2.175725065171719E-003;
2.416500000000000E+009;1.754454374313355E-001;-6.179798394441605E-002;-3.024504287168384E-003;-2.292675431817770E-003;
2.416666666666667E+009;1.751446574926376E-001;-6.196821480989456E-002;-3.059240989387035E-003;-2.304839901626110E-003;
2.416833333333334E+009;1.749566048383713E-001;-6.248084828257561E-002;-3.023400669917464E-003;-2.099463716149330E-003;
2.417000000000000E+009;1.743769049644470E-001;-6.271947920322418E-002;-3.042990807443857E-003;-1.942062634043396E-003;
2.417166666666667E+009;1.739644259214401E-001;-6.283675134181976E-002;-3.255026182159782E-003;-1.726099639199674E-003;
2.417333333333334E+009;1.734349280595779E-001;-6.318681687116623E-002;-3.085852600634098E-003;-1.486907131038606E-003;
2.417500000000000E+009;1.728115379810333E-001;-6.363420188426971E-002;-3.163794986903667E-003;-1.549293054267764E-003;
2.417666666666667E+009;1.723341345787048E-001;-6.382421404123306E-002;-3.081255825236440E-003;-1.380032743327320E-003;
2.417833333333334E+009;1.714535355567932E-001;-6.406293809413910E-002;-3.143228357657790E-003;-1.413932885043323E-003;
2.418000000000000E+009;1.705322265625000E-001;-6.462239474058151E-002;-3.023851895704866E-003;-1.141601940616965E-003;
2.418166666666667E+009;1.696790158748627E-001;-6.479527056217194E-002;-3.119675442576408E-003;-1.037115231156349E-003;
2.418333333333334E+009;1.691396534442902E-001;-6.518539041280747E-002;-3.059624228626490E-003;-1.031626481562853E-003;
2.418500000000000E+009;1.679000854492188E-001;-6.560302525758743E-002;-3.120233071967959E-003;-7.949662976898253E-004;
2.418666666666667E+009;1.670186072587967E-001;-6.622399389743805E-002;-2.981900004670024E-003;-7.386451470665634E-004;
2.418833333333334E+009;1.657687872648239E-001;-6.675761193037033E-002;-3.105499781668186E-003;-5.798261845484376E-004;
2.419000000000000E+009;1.646521389484406E-001;-6.725222617387772E-002;-2.933477517217398E-003;-4.469164123293012E-004;
2.419166666666667E+009;1.636676490306854E-001;-6.798551231622696E-002;-3.036731388419867E-003;-4.148248699493706E-004;
2.419333333333334E+009;1.623721122741699E-001;-6.842514872550964E-002;-2.966848202049732E-003;-3.364072181284428E-004;
2.419500000000000E+009;1.613546460866928E-001;-6.953033059835434E-002;-2.976857358589768E-003;-2.229199599241838E-004;
2.419666666666667E+009;1.603892296552658E-001;-7.046016305685043E-002;-2.895594807341695E-003;-1.232914510183036E-004;
2.419833333333334E+009;1.592730283737183E-001;-7.115726917982101E-002;-2.857689745724201E-003;6.470148218795657E-005;
2.420000000000000E+009;1.580959856510162E-001;-7.222770899534226E-002;-2.840257016941905E-003;2.157365961465985E-004;
2.420166666666667E+009;1.569432765245438E-001;-7.331435382366180E-002;-2.739870687946677E-003;2.249940298497677E-004;
2.420333333333334E+009;1.560802757740021E-001;-7.448466122150421E-002;-2.672525588423014E-003;4.178879316896200E-004;
2.420500000000000E+009;1.551803201436997E-001;-7.543564587831497E-002;-2.591724740341306E-003;5.873303744010627E-004;
2.420666666666667E+009;1.540287137031555E-001;-7.663417607545853E-002;-2.555374987423420E-003;6.670469301752746E-004;
2.420833333333334E+009;1.532141715288162E-001;-7.800043374300003E-002;-2.454329980537295E-003;6.210801657289267E-004;
2.421000000000000E+009;1.521862745285034E-001;-7.932747900485992E-002;-2.259055152535439E-003;8.683636551722884E-004;
2.421166666666667E+009;1.515342742204666E-001;-8.084277063608170E-002;-2.122575882822275E-003;6.969892419874668E-004;
2.421333333333334E+009;1.509640365839005E-001;-8.225193619728088E-002;-2.008107956498861E-003;9.394820663146675E-004;
2.421500000000000E+009;1.502071321010590E-001;-8.374594151973724E-002;-1.868702704086900E-003;9.508542134426534E-004;
2.421666666666667E+009;1.497513502836227E-001;-8.532856404781342E-002;-1.864845049567521E-003;9.512616088613868E-004;
2.421833333333334E+009;1.491975337266922E-001;-8.688148111104965E-002;-1.653136685490608E-003;9.470271179452539E-004;
2.422000000000000E+009;1.485861539840698E-001;-8.849368244409561E-002;-1.550392829813063E-003;1.152045559138060E-003;
2.422166666666667E+009;1.482173800468445E-001;-9.029571712017059E-002;-1.534162787720561E-003;1.027604565024376E-003;
2.422333333333334E+009;1.480012387037277E-001;-9.176468849182129E-002;-1.400080043822527E-003;9.254566975869238E-004;
2.422500000000000E+009;1.477994769811630E-001;-9.339147061109543E-002;-1.310015446506441E-003;9.756072540767491E-004;
2.422666666666667E+009;1.472836136817932E-001;-9.515289217233658E-002;-1.221206621266902E-003;9.598662727512419E-004;
2.422833333333334E+009;1.472876816987991E-001;-9.688732773065567E-002;-1.069627469405532E-003;7.843299536034465E-004;
2.423000000000000E+009;1.474320292472839E-001;-9.840552508831024E-002;-1.039752736687660E-003;7.514614262618125E-004;
2.423166666666667E+009;1.474437266588211E-001;-9.996612370014191E-002;-8.620764128863812E-004;6.435838877223432E-004;
2.423333333333334E+009;1.476026922464371E-001;-1.015308722853661E-001;-9.245651308447123E-004;6.436691619455814E-004;
2.423500000000000E+009;1.476357579231262E-001;-1.031441986560822E-001;-9.371545165777206E-004;6.061296444386244E-004;
2.423666666666667E+009;1.476967632770538E-001;-1.046838238835335E-001;-8.070555632002652E-004;5.310195847414434E-004;
2.423833333333334E+009;1.482438594102860E-001;-1.062526479363442E-001;-8.346913382411003E-004;5.090695340186358E-004;
2.424000000000000E+009;1.481554955244064E-001;-1.073478013277054E-001;-7.738932035863400E-004;3.841508296318352E-004;
2.424166666666667E+009;1.483421474695206E-001;-1.088467910885811E-001;-8.646270143799484E-004;2.775678585749120E-004;
2.424333333333334E+009;1.487330347299576E-001;-1.100682616233826E-001;-8.182388264685869E-004;3.177097823936492E-004;
2.424500000000000E+009;1.491293311119080E-001;-1.114123687148094E-001;-8.433842449449003E-004;-3.789270294873859E-006;
2.424666666666667E+009;1.495215147733688E-001;-1.123446151614189E-001;-8.195968694053590E-004;1.113980470108800E-004;
2.424833333333334E+009;1.496603190898895E-001;-1.136033684015274E-001;-8.688410161994398E-004;4.496613109949976E-005;
2.425000000000000E+009;1.500230282545090E-001;-1.145833730697632E-001;-1.047123922035098E-003;9.643056546337903E-005;
2.425166666666667E+009;1.502388715744019E-001;-1.155115291476250E-001;-1.006482867524028E-003;2.545752249716315E-005;
2.425333333333334E+009;1.505338400602341E-001;-1.164549961686134E-001;-9.562121704220772E-004;6.778044189559296E-005;
2.425500000000000E+009;1.507578641176224E-001;-1.172333434224129E-001;-1.091897021979094E-003;-6.142427446320653E-005;
2.425666666666667E+009;1.508219391107559E-001;-1.179094389081001E-001;-1.106509356759489E-003;1.343883632216603E-004;
2.425833333333334E+009;1.510955393314362E-001;-1.185965240001679E-001;-1.055491389706731E-003;1.049960264936090E-004;
2.426000000000000E+009;1.511358767747879E-001;-1.193299368023872E-001;-1.040161005221307E-003;-5.209040318732150E-005;
2.426166666666667E+009;1.513927429914475E-001;-1.197567209601402E-001;-1.196994679048657E-003;7.860655750846490E-005;
2.426333333333334E+009;1.512588113546372E-001;-1.202039197087288E-001;-1.281268079765141E-003;-1.044935852405615E-004;
2.426500000000000E+009;1.512414515018463E-001;-1.206001415848732E-001;-1.192097435705364E-003;9.334982314612716E-005;
2.426666666666667E+009;1.512695848941803E-001;-1.208951771259308E-001;-1.140908803790808E-003;-6.467351340688765E-005;
2.426833333333334E+009;1.509768664836884E-001;-1.212512254714966E-001;-1.255140872672200E-003;1.010069609037601E-004;
2.427000000000000E+009;1.506667733192444E-001;-1.216518357396126E-001;-1.342124305665493E-003;-4.892027209280059E-005;
2.427166666666667E+009;1.504236012697220E-001;-1.216985136270523E-001;-1.396766863763332E-003;1.615815417608246E-004;
2.427333333333334E+009;1.499178707599640E-001;-1.219866722822189E-001;-1.444457215256989E-003;2.056717348750681E-004;
2.427500000000000E+009;1.495472341775894E-001;-1.220660954713821E-001;-1.328669954091311E-003;1.049183629220352E-004;
2.427666666666667E+009;1.489252746105194E-001;-1.224452629685402E-001;-1.502709230408073E-003;1.861577184172347E-004;
