# Version 1.00
#
freq[Hz];re:Trc1_S11;im:Trc1_S11;re:Trc2_S21;im:Trc2_S21;
2.400000000000000E+009;1.543817967176437E-001;6.141081824898720E-002;3.878148272633553E-003;2.585173584520817E-003;
2.400166666666667E+009;1.544030159711838E-001;5.928630754351616E-002;3.827430773526430E-003;2.457709982991219E-003;
2.400333333333334E+009;1.543959081172943E-001;5.707260593771935E-002;4.020474385470152E-003;2.260911744087935E-003;
2.400500000000000E+009;1.544949859380722E-001;5.509976670145989E-002;3.985143266618252E-003;2.210106700658798E-003;
2.400666666666667E+009;1.546918302774429E-001;5.278087779879570E-002;3.970956895500422E-003;1.982167363166809E-003;
2.400833333333334E+009;1.550128310918808E-001;5.061469599604607E-002;4.002091474831104E-003;1.929375110194087E-003;
2.401000000000000E+009;1.553768962621689E-001;4.837259650230408E-002;4.072123672813177E-003;1.730070915073156E-003;
2.401166666666667E+009;1.556921601295471E-001;4.595388099551201E-002;4.116290714591742E-003;1.674519735388458E-003;
2.401333333333334E+009;1.562274694442749E-001;4.377137869596481E-002;4.037153907120228E-003;1.487249857746065E-003;
2.401500000000000E+009;1.566905230283737E-001;4.177789762616158E-002;4.079033620655537E-003;1.371747697703540E-003;
2.401666666666667E+009;1.574178487062454E-001;3.969810530543327E-002;3.977569285780191E-003;1.303006196394563E-003;
2.401833333333334E+009;1.580487042665482E-001;3.751350566744804E-002;4.030333366245031E-003;1.380403875373304E-003;
2.402000000000000E+009;1.586982458829880E-001;3.558076173067093E-002;4.112751223146915E-003;1.221371348947287E-003;
2.402166666666667E+009;1.594733595848084E-001;3.330636397004128E-002;4.055043682456017E-003;1.082865870557725E-003;
2.402333333333334E+009;1.604475378990173E-001;3.167628124356270E-002;4.129977431148291E-003;1.031097606755793E-003;
2.402500000000000E+009;1.616059690713882E-001;2.978628501296043E-002;4.124798811972141E-003;7.979866350069642E-004;
2.402666666666667E+009;1.625400036573410E-001;2.833859995007515E-002;4.014466889202595E-003;7.997293723747134E-004;
2.402833333333334E+009;1.635069698095322E-001;2.659817971289158E-002;4.177996888756752E-003;7.791889365762472E-004;
2.403000000000000E+009;1.646384596824646E-001;2.502917870879173E-002;4.186760634183884E-003;6.498146685771644E-004;
2.403166666666667E+009;1.658515781164169E-001;2.362495288252831E-002;4.108991473913193E-003;4.591335600707680E-004;
2.403333333333334E+009;1.668856143951416E-001;2.239305153489113E-002;4.065770190209150E-003;3.829864435829222E-004;
2.403500000000000E+009;1.680378615856171E-001;2.113698422908783E-002;4.097563680261374E-003;3.595285525079817E-004;
2.403666666666667E+009;1.692882925271988E-001;1.997124217450619E-002;4.329040180891752E-003;1.454879529774189E-004;
2.403833333333334E+009;1.703871041536331E-001;1.895250007510185E-002;4.135878756642342E-003;4.998463919037022E-005;
2.404000000000000E+009;1.715837419033051E-001;1.815570890903473E-002;4.418897908180952E-003;5.696906737284735E-005;
2.404166666666667E+009;1.727254092693329E-001;1.720100082457066E-002;4.105666652321816E-003;-2.470485924277455E-004;
2.404333333333334E+009;1.738014817237854E-001;1.644457317888737E-002;4.212059546262026E-003;-1.584460405865684E-004;
2.404500000000000E+009;1.746633797883987E-001;1.569197513163090E-002;4.112360067665577E-003;-3.412923833820969E-004;
2.404666666666667E+009;1.757090836763382E-001;1.521937828511000E-002;4.321770742535591E-003;-5.304767983034253E-004;
2.404833333333334E+009;1.767196655273438E-001;1.469130441546440E-002;4.357068799436092E-003;-4.586377763189375E-004;
2.405000000000000E+009;1.775944679975510E-001;1.424407307058573E-002;4.261790774762631E-003;-6.171803106553853E-004;
2.405166666666667E+009;1.783125996589661E-001;1.397053059190512E-002;4.260593559592962E-003;-8.670528768561781E-004;
2.405333333333334E+009;1.791646480560303E-001;1.353732310235500E-002;4.369230009615421E-003;-9.734351770021021E-004;
2.405500000000000E+009;1.796493381261826E-001;1.348530314862728E-002;4.269696772098541E-003;-1.133442972786725E-003;
2.405666666666667E+009;1.802541762590408E-001;1.343249157071114E-002;4.235506523400545E-003;-1.090443460270762E-003;
2.405833333333334E+009;1.806348413228989E-001;1.331971865147352E-002;4.339683800935745E-003;-1.355036511085928E-003;
2.406000000000000E+009;1.810031682252884E-001;1.287733484059572E-002;4.285836126655340E-003;-1.429190160706639E-003;
2.406166666666667E+009;1.811115592718124E-001;1.294000167399645E-002;4.203854594379664E-003;-1.553828013129532E-003;
2.406333333333334E+009;1.815659254789352E-001;1.287985779345036E-002;4.236690234392881E-003;-1.595335663296282E-003;
2.406500000000000E+009;1.815338581800461E-001;1.271179132163525E-002;4.087342415004969E-003;-1.827953499741852E-003;
2.406666666666667E+009;1.813310086727142E-001;1.266376394778490E-002;4.058408550918102E-003;-1.871648360975087E-003;
2.406833333333334E+009;1.813016235828400E-001;1.247073244303465E-002;4.041686188429594E-003;-2.109010238200426E-003;
2.407000000000000E+009;1.811528801918030E-001;1.222683675587177E-002;3.992513753473759E-003;-2.185057615861297E-003;
2.407166666666667E+009;1.809516549110413E-001;1.200126390904188E-002;4.130006767809391E-003;-2.140215365216136E-003;
2.407333333333334E+009;1.805984675884247E-001;1.160844508558512E-002;3.984860610216856E-003;-2.534101950004697E-003;
2.407500000000000E+009;1.799594461917877E-001;1.122248638421297E-002;3.915430512279272E-003;-2.508093835785985E-003;
2.407666666666667E+009;1.794728040695190E-001;1.079196389764547E-002;3.824469400569797E-003;-2.637475263327360E-003;
2.407833333333334E+009;1.787199676036835E-001;1.003590598702431E-002;3.756832098588347E-003;-2.852694829925895E-003;
2.408000000000000E+009;1.781681030988693E-001;9.398975409567356E-003;3.808613633736968E-003;-2.913142088800669E-003;
2.408166666666667E+009;1.773331910371780E-001;8.849404752254486E-003;3.794746473431587E-003;-3.076626220718026E-003;
2.408333333333334E+009;1.766637861728668E-001;7.914121262729168E-003;3.743654815480113E-003;-3.228247398510575E-003;
2.408500000000000E+009;1.758345067501068E-001;6.838694680482149E-003;3.603864926844835E-003;-3.235169453546405E-003;
2.408666666666667E+009;1.749894618988037E-001;5.769667215645313E-003;3.547480329871178E-003;-3.424598602578044E-003;
2.408833333333334E+009;1.741380393505096E-001;4.712507128715515E-003;3.473559161648154E-003;-3.550337860360742E-003;
2.409000000000000E+009;1.732977926731110E-001;3.448684234172106E-003;3.382803406566382E-003;-3.608768107369542E-003;
2.409166666666667E+009;1.725011318922043E-001;2.052388386800885E-003;3.237281925976276E-003;-3.654880914837122E-003;
2.409333333333334E+009;1.716310083866119E-001;5.303464131429792E-004;3.227537265047431E-003;-3.856669878587127E-003;
2.409500000000000E+009;1.708067804574966E-001;-1.040334114804864E-003;3.153652185574174E-003;-4.011267330497503E-003;
2.409666666666667E+009;1.700399219989777E-001;-2.675254363566637E-003;3.049035556614399E-003;-4.144151229411364E-003;
2.409833333333334E+009;1.691468805074692E-001;-4.395190626382828E-003;3.019888186827302E-003;-4.199675749987364E-003;
2.410000000000000E+009;1.685586124658585E-001;-6.120944395661354E-003;2.798415487632155E-003;-4.369888454675674E-003;
2.410166666666667E+009;1.680742502212524E-001;-7.955559529364109E-003;2.625969704240561E-003;-4.558907821774483E-003;
2.410333333333334E+009;1.672900021076202E-001;-9.955211542546749E-003;2.371987095102668E-003;-4.741525743156672E-003;
2.410500000000000E+009;1.670747101306915E-001;-1.187548600137234E-002;2.364264801144600E-003;-4.732769448310137E-003;
2.410666666666667E+009;1.661715656518936E-001;-1.405694149434567E-002;2.160252071917057E-003;-4.652381408959627E-003;
2.410833333333334E+009;1.661460846662521E-001;-1.616857014596462E-002;2.016905695199966E-003;-4.952265881001949E-003;
2.411000000000000E+009;1.660132259130478E-001;-1.817693375051022E-002;1.889235223643482E-003;-5.082777701318264E-003;
2.411166666666667E+009;1.656536608934403E-001;-2.040126733481884E-002;1.721452223137021E-003;-5.259555298835039E-003;
2.411333333333334E+009;1.656011193990707E-001;-2.244419418275356E-002;1.535555929876864E-003;-5.342952441424131E-003;
2.411500000000000E+009;1.655021756887436E-001;-2.461630292236805E-002;1.380437402985990E-003;-5.200222134590149E-003;
2.411666666666667E+009;1.659801006317139E-001;-2.698821201920509E-002;1.109745935536921E-003;-5.488808266818523E-003;
2.411833333333334E+009;1.660154014825821E-001;-2.877185121178627E-002;9.810986230149865E-004;-5.516344215720892E-003;
2.412000000000000E+009;1.664061397314072E-001;-3.083612769842148E-002;5.698698805645108E-004;-5.391499027609825E-003;
2.412166666666667E+009;1.666809767484665E-001;-3.299193084239960E-002;2.726030652411282E-004;-5.601126234978437E-003;
2.412333333333334E+009;1.673451513051987E-001;-3.502797335386276E-002;1.764945773174986E-004;-5.585812963545322E-003;
2.412500000000000E+009;1.677292883396149E-001;-3.688554465770721E-002;1.733819408400450E-005;-5.632420536130667E-003;
2.412666666666667E+009;1.682725101709366E-001;-3.881305083632469E-002;-2.912506461143494E-004;-5.519811529666185E-003;
2.412833333333334E+009;1.689462065696716E-001;-4.077244177460671E-002;-4.883634974248707E-004;-5.404014606028795E-003;
2.413000000000000E+009;1.696958541870117E-001;-4.241197183728218E-002;-8.300304762087762E-004;-5.537787918001413E-003;
2.413166666666667E+009;1.702275723218918E-001;-4.409956932067871E-002;-1.071282429620624E-003;-5.356448702514172E-003;
2.413333333333334E+009;1.711214482784271E-001;-4.570420831441879E-002;-1.364140189252794E-003;-5.319341085851193E-003;
2.413500000000000E+009;1.717635542154312E-001;-4.710088297724724E-002;-1.437078230082989E-003;-5.289302207529545E-003;
2.413666666666667E+009;1.725292652845383E-001;-4.873611032962799E-002;-1.716919825412333E-003;-5.332136061042547E-003;
2.413833333333334E+009;1.733131855726242E-001;-5.006886646151543E-002;-2.030050149187446E-003;-5.017937626689673E-003;
2.414000000000000E+009;1.739532947540283E-001;-5.126203596591950E-002;-2.080226549878717E-003;-5.054724402725697E-003;
2.414166666666667E+009;1.748818755149841E-001;-5.238481611013413E-002;-2.354983473196626E-003;-4.845835734158754E-003;
2.414333333333334E+009;1.754950135946274E-001;-5.338657647371292E-002;-2.455257112160325E-003;-4.575940314680338E-003;
2.414500000000000E+009;1.764230728149414E-001;-5.430947244167328E-002;-2.598129678517580E-003;-4.554920829832554E-003;
2.414666666666667E+009;1.770584136247635E-001;-5.501997843384743E-002;-2.747354097664356E-003;-4.560516681522131E-003;
2.414833333333334E+009;1.774278134107590E-001;-5.588529258966446E-002;-2.960657700896263E-003;-4.265599884092808E-003;
2.415000000000000E+009;1.779780983924866E-001;-5.641784891486168E-002;-3.061684314161539E-003;-4.133475478738546E-003;
2.415166666666667E+009;1.784327626228333E-001;-5.687872320413590E-002;-3.147006034851074E-003;-3.902921918779612E-003;
2.415333333333334E+009;1.789771318435669E-001;-5.746369436383247E-002;-3.395190695300698E-003;-3.913040738552809E-003;
2.415500000000000E+009;1.792975366115570E-001;-5.766528472304344E-002;-3.466740483418107E-003;-3.590171458199620E-003;
2.415666666666667E+009;1.795448362827301E-001;-5.795573815703392E-002;-3.641127608716488E-003;-3.478651866316795E-003;
2.415833333333334E+009;1.796571016311646E-001;-5.825002491474152E-002;-3.633761545643210E-003;-3.485296154394746E-003;
2.416000000000000E+009;1.796826869249344E-001;-5.837101861834526E-002;-3.833186579868197E-003;-3.359740832820535E-003;
2.416166666666667E+009;1.796413660049439E-001;-5.848057195544243E-002;-3.974714782088995E-003;-3.012766828760505E-003;
2.416333333333334E+009;1.794996559619904E-001;-5.845029652118683E-002;-3.968385513871908E-003;-2.876845886930823E-003;
2.416500000000000E+009;1.792022883892059E-001;-5.850426480174065E-002;-3.893541870638728E-003;-2.849487820640206E-003;
2.416666666666667E+009;1.789220571517944E-001;-5.853388085961342E-002;-4.073002375662327E-003;-2.585923299193382E-003;
2.416833333333334E+009;1.785314232110977E-001;-5.876468122005463E-002;-3.953051287680864E-003;-2.419634256511927E-003;
2.417000000000000E+009;1.776758879423142E-001;-5.877323076128960E-002;-4.143736325204372E-003;-2.344321692362428E-003;
2.417166666666667E+009;1.771036982536316E-001;-5.861394107341766E-002;-4.138704389333725E-003;-2.246347256004810E-003;
2.417333333333334E+009;1.764069199562073E-001;-5.872013419866562E-002;-4.129304084926844E-003;-2.085944404825568E-003;
2.417500000000000E+009;1.754269599914551E-001;-5.908490717411041E-002;-4.350230097770691E-003;-1.899915165267885E-003;
2.417666666666667E+009;1.745709776878357E-001;-5.901074782013893E-002;-4.190619103610516E-003;-1.850199070759118E-003;
2.417833333333334E+009;1.735295057296753E-001;-5.922254174947739E-002;-4.240627400577068E-003;-1.505544874817133E-003;
2.418000000000000E+009;1.722847819328308E-001;-5.956242978572846E-002;-4.338919185101986E-003;-1.492779236286879E-003;
2.418166666666667E+009;1.711074262857437E-001;-5.981405451893807E-002;-4.430131055414677E-003;-1.165934954769909E-003;
2.418333333333334E+009;1.700969189405441E-001;-6.036257371306419E-002;-4.245987161993980E-003;-1.020568190142512E-003;
2.418500000000000E+009;1.686410158872604E-001;-6.073608994483948E-002;-4.180976189672947E-003;-9.800943080335856E-004;
2.418666666666667E+009;1.674586981534958E-001;-6.128695234656334E-002;-4.246493801474571E-003;-9.337194496765733E-004;
2.418833333333334E+009;1.659360527992249E-001;-6.197190657258034E-002;-4.182164091616869E-003;-7.263374864123762E-004;
2.419000000000000E+009;1.644235998392105E-001;-6.276395171880722E-002;-4.183521959930658E-003;-6.018928252160549E-004;
2.419166666666667E+009;1.631201058626175E-001;-6.365542858839035E-002;-4.115121439099312E-003;-5.962681025266647E-004;
2.419333333333334E+009;1.615978032350540E-001;-6.410004943609238E-002;-4.116114228963852E-003;-2.999443968292326E-004;
2.419500000000000E+009;1.602529883384705E-001;-6.550668925046921E-002;-4.029957111924887E-003;-2.588258357718587E-004;
2.419666666666667E+009;1.590167582035065E-001;-6.665804982185364E-002;-4.002499859780073E-003;-1.442375360056758E-004;
2.419833333333334E+009;1.575505584478378E-001;-6.758899986743927E-002;-4.021157976239920E-003;-6.802882126066834E-005;
2.420000000000000E+009;1.563259214162827E-001;-6.887304037809372E-002;-4.034980200231075E-003;5.385053009376861E-005;
2.420166666666667E+009;1.551386415958405E-001;-7.035299390554428E-002;-4.015257582068443E-003;9.386165766045451E-005;
2.420333333333334E+009;1.541393250226975E-001;-7.192917168140411E-002;-4.119275603443384E-003;1.897557231131941E-004;
2.420500000000000E+009;1.531087011098862E-001;-7.331402599811554E-002;-4.013060592114925E-003;4.703876620624214E-004;
2.420666666666667E+009;1.518913060426712E-001;-7.468419522047043E-002;-3.975221421569586E-003;6.488209473900497E-004;
2.420833333333334E+009;1.511316150426865E-001;-7.643881440162659E-002;-3.850947134196758E-003;6.931810057722032E-004;
2.421000000000000E+009;1.502432376146317E-001;-7.817040383815765E-002;-3.979073837399483E-003;7.850237889215350E-004;
2.421166666666667E+009;1.498173326253891E-001;-7.993120700120926E-002;-3.901882329955697E-003;9.672578889876604E-004;
2.421333333333334E+009;1.492273360490799E-001;-8.174069225788117E-002;-4.035396967083216E-003;1.148766954429448E-003;
2.421500000000000E+009;1.485736072063446E-001;-8.353815972805023E-002;-3.921153955161572E-003;1.031802268698812E-003;
2.421666666666667E+009;1.481987833976746E-001;-8.535537123680115E-002;-3.843859769403935E-003;1.313464832492173E-003;
2.421833333333334E+009;1.479096561670303E-001;-8.733775466680527E-002;-3.879479132592678E-003;1.647483441047370E-003;
2.422000000000000E+009;1.476934403181076E-001;-8.898146450519562E-002;-3.635187633335590E-003;1.728440052829683E-003;
2.422166666666667E+009;1.475850492715836E-001;-9.079146385192871E-002;-3.621099982410669E-003;1.847982755862176E-003;
2.422333333333334E+009;1.476459056138992E-001;-9.275492280721664E-002;-3.588231746107340E-003;2.054971177130938E-003;
2.422500000000000E+009;1.478565335273743E-001;-9.445386379957199E-002;-3.366789082065225E-003;2.191147534176707E-003;
2.422666666666667E+009;1.479199230670929E-001;-9.628459066152573E-002;-3.408757038414478E-003;2.419414464384317E-003;
2.422833333333334E+009;1.482973545789719E-001;-9.820292890071869E-002;-3.161662723869085E-003;2.505230950191617E-003;
2.423000000000000E+009;1.485822945833206E-001;-9.966286271810532E-002;-3.047164296731353E-003;2.608479699119926E-003;
2.423166666666667E+009;1.492769271135330E-001;-1.014968901872635E-001;-2.873413730412722E-003;2.743971301242709E-003;
2.423333333333334E+009;1.496108472347260E-001;-1.029117852449417E-001;-2.743361983448267E-003;2.780775539577007E-003;
2.423500000000000E+009;1.501250565052033E-001;-1.045089736580849E-001;-2.566137351095676E-003;2.996196504682303E-003;
2.423666666666667E+009;1.506125777959824E-001;-1.060491278767586E-001;-2.285379683598876E-003;3.193163080140948E-003;
2.423833333333334E+009;1.515303552150726E-001;-1.073976904153824E-001;-2.262945519760251E-003;3.119321307167411E-003;
2.424000000000000E+009;1.520184129476547E-001;-1.083766296505928E-001;-2.026258734986186E-003;3.164928872138262E-003;
2.424166666666667E+009;1.526442170143127E-001;-1.097722575068474E-001;-1.838833908550441E-003;3.250384004786611E-003;
2.424333333333334E+009;1.533598154783249E-001;-1.106526702642441E-001;-1.648834790103138E-003;3.299560863524675E-003;
2.424500000000000E+009;1.540567278862000E-001;-1.118419170379639E-001;-1.417615450918675E-003;3.386397613212466E-003;
2.424666666666667E+009;1.548972576856613E-001;-1.124691888689995E-001;-1.160529791377485E-003;3.514210460707545E-003;
2.424833333333334E+009;1.551940441131592E-001;-1.134882867336273E-001;-1.020716503262520E-003;3.272998146712780E-003;
2.425000000000000E+009;1.559324413537979E-001;-1.141841411590576E-001;-8.768133120611310E-004;3.552257083356381E-003;
2.425166666666667E+009;1.563359647989273E-001;-1.147605851292610E-001;-6.667354027740657E-004;3.265256294980645E-003;
2.425333333333334E+009;1.568154543638229E-001;-1.153082847595215E-001;-3.728336305357516E-004;3.380040405318141E-003;
2.425500000000000E+009;1.573798060417175E-001;-1.158840432763100E-001;-3.343712596688420E-004;3.258941695094109E-003;
2.425666666666667E+009;1.575960516929627E-001;-1.161663159728050E-001;4.809741767530795E-006;3.033555578440428E-003;
2.425833333333334E+009;1.578631848096848E-001;-1.165218353271484E-001;1.398601889377460E-004;2.991265850141645E-003;
2.426000000000000E+009;1.580051928758621E-001;-1.167797222733498E-001;2.512382925488055E-004;3.115264931693673E-003;
2.426166666666667E+009;1.581871211528778E-001;-1.170100942254067E-001;5.133210797794163E-004;2.836806932464242E-003;
2.426333333333334E+009;1.580975055694580E-001;-1.170994117856026E-001;4.920085775665939E-004;2.763675060123205E-003;
2.426500000000000E+009;1.580439060926437E-001;-1.171889305114746E-001;5.708992830477655E-004;2.461605006828904E-003;
2.426666666666667E+009;1.579453349113464E-001;-1.170377507805824E-001;7.660554838366807E-004;2.490697894245386E-003;
2.426833333333334E+009;1.575433760881424E-001;-1.170859187841415E-001;7.732208468951285E-004;2.298059407621622E-003;
2.427000000000000E+009;1.571680009365082E-001;-1.172216013073921E-001;7.635078509338200E-004;2.344763372093439E-003;
2.427166666666667E+009;1.566671878099442E-001;-1.169860661029816E-001;8.623756002634764E-004;2.229648875072599E-003;
2.427333333333334E+009;1.558788716793060E-001;-1.170222833752632E-001;1.018194830976427E-003;1.861417316831648E-003;
2.427500000000000E+009;1.552639603614807E-001;-1.170502528548241E-001;1.098925014957786E-003;1.811346504837275E-003;
2.427666666666667E+009;1.543677151203156E-001;-1.170140132308006E-001;8.790413266979158E-004;1.882893266156316E-003;
