# Version 1.00
#
freq[Hz];re:Trc1_S11;im:Trc1_S11;re:Trc2_S21;im:Trc2_S21;
2.400000000000000E+009;1.544664353132248E-001;6.131850183010101E-002;3.866398474201560E-003;2.280275570228696E-003;
2.400166666666667E+009;1.545062214136124E-001;5.942570045590401E-002;3.915654029697180E-003;2.304825233295560E-003;
2.400333333333334E+009;1.543733030557632E-001;5.728035420179367E-002;3.877461887896061E-003;2.199422568082809E-003;
2.400500000000000E+009;1.546725928783417E-001;5.505910515785217E-002;3.885299665853381E-003;1.914720167405903E-003;
2.400666666666667E+009;1.547999382019043E-001;5.279543995857239E-002;3.963229246437550E-003;1.928769052028656E-003;
2.400833333333334E+009;1.551919281482697E-001;5.058281496167183E-002;3.983970265835524E-003;1.723070978187025E-003;
2.401000000000000E+009;1.553061157464981E-001;4.837087169289589E-002;4.024404566735029E-003;1.501509686931968E-003;
2.401166666666667E+009;1.558992415666580E-001;4.613494127988815E-002;4.130409099161625E-003;1.424316200427711E-003;
2.401333333333334E+009;1.563087105751038E-001;4.385623708367348E-002;4.040338099002838E-003;1.260819029994309E-003;
2.401500000000000E+009;1.568329632282257E-001;4.166042059659958E-002;3.931705374270678E-003;1.298816641792655E-003;
2.401666666666667E+009;1.574501395225525E-001;3.967259079217911E-002;4.051017574965954E-003;1.168118556961417E-003;
2.401833333333334E+009;1.581884771585465E-001;3.757945448160172E-002;3.965836483985186E-003;1.046778983436525E-003;
2.402000000000000E+009;1.588531434535980E-001;3.549617901444435E-002;3.921778406947851E-003;7.539470097981393E-004;
2.402166666666667E+009;1.595941185951233E-001;3.336460888385773E-002;4.175095818936825E-003;7.244790322147310E-004;
2.402333333333334E+009;1.604899168014526E-001;3.162512928247452E-002;3.873736597597599E-003;5.917300586588681E-004;
2.402500000000000E+009;1.617651134729385E-001;2.979979291558266E-002;4.038423765450716E-003;5.745985545217991E-004;
2.402666666666667E+009;1.625978797674179E-001;2.813526988029480E-002;3.943282645195723E-003;4.281081492081285E-004;
2.402833333333334E+009;1.636929512023926E-001;2.642531134188175E-002;4.029127769172192E-003;4.680709389504045E-004;
2.403000000000000E+009;1.648124456405640E-001;2.489872649312019E-002;4.078974481672049E-003;2.970007481053472E-004;
2.403166666666667E+009;1.659600287675858E-001;2.340015769004822E-002;3.972214646637440E-003;2.722523349802941E-004;
2.403333333333334E+009;1.671434640884399E-001;2.225195243954659E-002;3.973829559981823E-003;2.284225774928927E-004;
2.403500000000000E+009;1.681188344955444E-001;2.116755396127701E-002;4.038720391690731E-003;1.795555726857856E-004;
2.403666666666667E+009;1.692934334278107E-001;1.976888813078404E-002;3.907605540007353E-003;-3.983222995884717E-005;
2.403833333333334E+009;1.704951673746109E-001;1.885195448994637E-002;3.905730554834008E-003;7.755788828944787E-005;
2.404000000000000E+009;1.716344803571701E-001;1.783581078052521E-002;3.890264080837369E-003;-4.215865556034260E-005;
2.404166666666667E+009;1.726506203413010E-001;1.702069304883480E-002;3.985998220741749E-003;-2.527949982322753E-004;
2.404333333333334E+009;1.737269908189774E-001;1.645351760089397E-002;4.222903866320849E-003;-3.023875178769231E-004;
2.404500000000000E+009;1.747524291276932E-001;1.570090465247631E-002;4.047031980007887E-003;-4.389611713122577E-004;
2.404666666666667E+009;1.757562607526779E-001;1.516416855156422E-002;4.111682530492544E-003;-4.862331843469292E-004;
2.404833333333334E+009;1.767236143350601E-001;1.465293299406767E-002;4.156002309173346E-003;-4.953155876137316E-004;
2.405000000000000E+009;1.774821430444717E-001;1.425657514482737E-002;4.009000491350889E-003;-8.388182613998652E-004;
2.405166666666667E+009;1.781650036573410E-001;1.380302943289280E-002;4.152435343712568E-003;-9.279665537178516E-004;
2.405333333333334E+009;1.791488677263260E-001;1.351966615766287E-002;4.116271622478962E-003;-1.009834813885391E-003;
2.405500000000000E+009;1.797709614038467E-001;1.329404860734940E-002;4.076230805367231E-003;-1.271052402444184E-003;
2.405666666666667E+009;1.802416145801544E-001;1.323744095861912E-002;4.071697592735291E-003;-1.286161015741527E-003;
2.405833333333334E+009;1.805258542299271E-001;1.320296153426170E-002;4.126283805817366E-003;-1.389435958117247E-003;
2.406000000000000E+009;1.810449063777924E-001;1.286335755139589E-002;3.864230820909143E-003;-1.402330584824085E-003;
2.406166666666667E+009;1.810861676931381E-001;1.293877698481083E-002;3.968263510614634E-003;-1.686295960098505E-003;
2.406333333333334E+009;1.815935969352722E-001;1.282767765223980E-002;4.011734388768673E-003;-1.735843135975301E-003;
2.406500000000000E+009;1.814892143011093E-001;1.259338203817606E-002;3.883170429617167E-003;-1.910221413709223E-003;
2.406666666666667E+009;1.812774837017059E-001;1.264127809554339E-002;3.983146976679564E-003;-1.895940396934748E-003;
2.406833333333334E+009;1.813061833381653E-001;1.241646055132151E-002;3.809234360232949E-003;-2.041915431618691E-003;
2.407000000000000E+009;1.810926198959351E-001;1.213302090764046E-002;3.741512540727854E-003;-2.080941107124090E-003;
2.407166666666667E+009;1.809151470661163E-001;1.191474776715040E-002;3.769104136154056E-003;-2.290580188855529E-003;
2.407333333333334E+009;1.804474741220474E-001;1.142345741391182E-002;3.557238029316068E-003;-2.323423977941275E-003;
2.407500000000000E+009;1.799806058406830E-001;1.106996927410364E-002;3.848947584629059E-003;-2.524030394852161E-003;
2.407666666666667E+009;1.793610155582428E-001;1.079944055527449E-002;3.811544505879283E-003;-2.503520343452692E-003;
2.407833333333334E+009;1.787600219249725E-001;1.003471110016108E-002;3.594445064663887E-003;-2.740869298577309E-003;
2.408000000000000E+009;1.781428307294846E-001;9.452056139707565E-003;3.437735373154283E-003;-2.912373514845967E-003;
2.408166666666667E+009;1.773202121257782E-001;8.743397891521454E-003;3.499071579426527E-003;-2.980690682306886E-003;
2.408333333333334E+009;1.768760234117508E-001;7.920240983366966E-003;3.414742415770888E-003;-3.076615743339062E-003;
2.408500000000000E+009;1.758964359760284E-001;6.800477858632803E-003;3.335008397698402E-003;-3.299964126199484E-003;
2.408666666666667E+009;1.749607324600220E-001;5.886284634470940E-003;3.227390581741929E-003;-3.302196040749550E-003;
2.408833333333334E+009;1.739772111177445E-001;4.635286051779985E-003;3.185610985383391E-003;-3.422592533752322E-003;
2.409000000000000E+009;1.733682751655579E-001;3.474470227956772E-003;3.012728877365589E-003;-3.444185247644782E-003;
2.409166666666667E+009;1.724047213792801E-001;2.016657963395119E-003;2.976564224809408E-003;-3.532624337822199E-003;
2.409333333333334E+009;1.716104149818420E-001;4.808781377505511E-004;3.001651726663113E-003;-3.620878327637911E-003;
2.409500000000000E+009;1.708565652370453E-001;-1.182476757094264E-003;2.870465628802776E-003;-4.020136781036854E-003;
2.409666666666667E+009;1.698111891746521E-001;-2.726439153775573E-003;2.696030773222446E-003;-3.853947389870882E-003;
2.409833333333334E+009;1.691866368055344E-001;-4.544782917946577E-003;2.638899488374591E-003;-4.097035620361567E-003;
2.410000000000000E+009;1.687068343162537E-001;-6.176364142447710E-003;2.507132943719626E-003;-4.269300494343042E-003;
2.410166666666667E+009;1.679668575525284E-001;-8.105442859232426E-003;2.137403003871441E-003;-4.279524553567171E-003;
2.410333333333334E+009;1.674066632986069E-001;-1.010157540440559E-002;2.101119142025709E-003;-4.415015224367380E-003;
2.410500000000000E+009;1.670180410146713E-001;-1.206085272133350E-002;2.147487597540021E-003;-4.547251854091883E-003;
2.410666666666667E+009;1.663170754909515E-001;-1.425824500620365E-002;1.853834837675095E-003;-4.632753320038319E-003;
2.410833333333334E+009;1.660553663969040E-001;-1.622159965336323E-002;1.989084761589766E-003;-4.757724702358246E-003;
2.411000000000000E+009;1.658185720443726E-001;-1.824301294982433E-002;1.659458270296454E-003;-4.758470691740513E-003;
2.411166666666667E+009;1.656833589076996E-001;-2.060374431312084E-002;1.232874346897006E-003;-4.796122200787067E-003;
2.411333333333334E+009;1.656522750854492E-001;-2.245241217315197E-002;1.333772554062307E-003;-5.000305362045765E-003;
2.411500000000000E+009;1.655063033103943E-001;-2.472583018243313E-002;1.102817943319678E-003;-5.079862661659718E-003;
2.411666666666667E+009;1.658071875572205E-001;-2.692201547324657E-002;8.263764320872724E-004;-5.111670121550560E-003;
2.411833333333334E+009;1.658535152673721E-001;-2.879985049366951E-002;7.278291741386056E-004;-5.093517247587442E-003;
2.412000000000000E+009;1.662088632583618E-001;-3.099191002547741E-002;4.919549101032317E-004;-5.157398991286755E-003;
2.412166666666667E+009;1.664959341287613E-001;-3.300333395600319E-002;1.644390722503886E-004;-5.212341435253620E-003;
2.412333333333334E+009;1.673197746276856E-001;-3.494410589337349E-002;9.257833880838007E-005;-5.259783007204533E-003;
2.412500000000000E+009;1.675300598144531E-001;-3.699588030576706E-002;-1.554598857183009E-004;-5.297564901411533E-003;
2.412666666666667E+009;1.682741045951843E-001;-3.894345834851265E-002;-4.983982653357089E-004;-5.204154178500176E-003;
2.412833333333334E+009;1.689293533563614E-001;-4.061579704284668E-002;-5.710459663532674E-004;-5.243573337793350E-003;
2.413000000000000E+009;1.694157123565674E-001;-4.226255044341087E-002;-8.022778201848269E-004;-5.170292221009731E-003;
2.413166666666667E+009;1.701547354459763E-001;-4.401298239827156E-002;-1.067565637640655E-003;-5.249765701591969E-003;
2.413333333333334E+009;1.708954274654388E-001;-4.581619426608086E-002;-1.243046717718244E-003;-5.010300781577826E-003;
2.413500000000000E+009;1.716914921998978E-001;-4.718391969799995E-002;-1.538624637760222E-003;-4.921238403767347E-003;
2.413666666666667E+009;1.727246046066284E-001;-4.873200505971909E-002;-1.638767425902188E-003;-4.892560187727213E-003;
2.413833333333334E+009;1.733042001724243E-001;-5.005253478884697E-002;-1.775105716660619E-003;-4.880207125097513E-003;
2.414000000000000E+009;1.739273220300674E-001;-5.130425468087196E-002;-1.976671628654003E-003;-4.678021650761366E-003;
2.414166666666667E+009;1.748968660831451E-001;-5.217242240905762E-002;-2.182486234232783E-003;-4.505399614572525E-003;
2.414333333333334E+009;1.755227595567703E-001;-5.330778658390045E-002;-2.317786216735840E-003;-4.432290792465210E-003;
2.414500000000000E+009;1.764263063669205E-001;-5.428354069590569E-002;-2.403166377916932E-003;-4.348598886281252E-003;
2.414666666666667E+009;1.769219785928726E-001;-5.498431622982025E-002;-2.654020907357335E-003;-4.348114132881165E-003;
2.414833333333334E+009;1.773443073034287E-001;-5.585745349526405E-002;-2.840982051566243E-003;-3.998422063887119E-003;
2.415000000000000E+009;1.780418604612351E-001;-5.641292408108711E-002;-2.987684914842248E-003;-3.888409817591310E-003;
2.415166666666667E+009;1.785340756177902E-001;-5.678613856434822E-002;-3.012150060385466E-003;-3.633010201156139E-003;
2.415333333333334E+009;1.788866519927979E-001;-5.730772390961647E-002;-3.099466441199184E-003;-3.453668905422092E-003;
2.415500000000000E+009;1.793443262577057E-001;-5.762857198715210E-002;-3.269483102485538E-003;-3.451662370935082E-003;
2.415666666666667E+009;1.794852018356323E-001;-5.783732235431671E-002;-3.266783896833658E-003;-3.274363232776523E-003;
2.415833333333334E+009;1.796318292617798E-001;-5.814766138792038E-002;-3.566297469660640E-003;-3.031363943591714E-003;
2.416000000000000E+009;1.796142160892487E-001;-5.836068093776703E-002;-3.488289192318916E-003;-2.949888585135341E-003;
2.416166666666667E+009;1.796805709600449E-001;-5.848803371191025E-002;-3.674190957099199E-003;-2.989221829921007E-003;
2.416333333333334E+009;1.795296221971512E-001;-5.852208286523819E-002;-3.746926086023450E-003;-2.605073852464557E-003;
2.416500000000000E+009;1.792474687099457E-001;-5.859791859984398E-002;-3.716030623763800E-003;-2.458156319335103E-003;
2.416666666666667E+009;1.788839697837830E-001;-5.860415473580360E-002;-3.895273199304938E-003;-2.216875087469816E-003;
2.416833333333334E+009;1.785994917154312E-001;-5.876560881733894E-002;-3.806252498179674E-003;-2.279261592775583E-003;
2.417000000000000E+009;1.776794046163559E-001;-5.886806175112724E-002;-3.860829398036003E-003;-2.099608071148396E-003;
2.417166666666667E+009;1.771119087934494E-001;-5.869896709918976E-002;-4.004298243671656E-003;-1.871752087026835E-003;
2.417333333333334E+009;1.763485372066498E-001;-5.876852199435234E-002;-3.779374761506915E-003;-1.839510747231543E-003;
2.417500000000000E+009;1.754442304372788E-001;-5.904906615614891E-002;-4.003260750323534E-003;-1.695303129963577E-003;
2.417666666666667E+009;1.745219528675079E-001;-5.909225717186928E-002;-3.959628287702799E-003;-1.460770610719919E-003;
2.417833333333334E+009;1.734362244606018E-001;-5.933235585689545E-002;-3.881108015775681E-003;-1.309531158767641E-003;
2.418000000000000E+009;1.723194420337677E-001;-5.961775779724121E-002;-3.891813335940242E-003;-1.114563317969441E-003;
2.418166666666667E+009;1.710813641548157E-001;-5.994670465588570E-002;-3.882159478962421E-003;-9.471414377912879E-004;
2.418333333333334E+009;1.700462549924851E-001;-6.037495657801628E-002;-3.962231799960136E-003;-7.679290138185024E-004;
2.418500000000000E+009;1.686483770608902E-001;-6.083979457616806E-002;-3.902786644175649E-003;-8.059846004471183E-004;
2.418666666666667E+009;1.674072444438934E-001;-6.139592826366425E-002;-3.814732190221548E-003;-5.105850868858397E-004;
2.418833333333334E+009;1.657266765832901E-001;-6.193640455603600E-002;-3.716800361871719E-003;-6.536213913932443E-004;
2.419000000000000E+009;1.643727421760559E-001;-6.274346262216568E-002;-3.818955039605498E-003;-3.560392069630325E-004;
2.419166666666667E+009;1.630477756261826E-001;-6.359376758337021E-002;-3.841568715870380E-003;-3.652146551758051E-004;
2.419333333333334E+009;1.616698056459427E-001;-6.434676051139832E-002;-3.857929492369294E-003;-1.863468351075426E-004;
2.419500000000000E+009;1.602028459310532E-001;-6.546135991811752E-002;-3.711653640493751E-003;-7.773294055368751E-005;
2.419666666666667E+009;1.590602546930313E-001;-6.666665524244309E-002;-3.750525647774339E-003;-2.342245716135949E-004;
2.419833333333334E+009;1.575340032577515E-001;-6.766740232706070E-002;-3.895110217854381E-003;-1.203480278491043E-004;
2.420000000000000E+009;1.564243584871292E-001;-6.894603371620178E-002;-3.680796828120947E-003;1.695837709121406E-004;
2.420166666666667E+009;1.551197767257690E-001;-7.044813036918640E-002;-3.687811549752951E-003;2.490169717930257E-004;
2.420333333333334E+009;1.540485620498657E-001;-7.194536179304123E-002;-3.782156854867935E-003;3.763358981814235E-004;
2.420500000000000E+009;1.530025899410248E-001;-7.329493761062622E-002;-3.678641980513930E-003;4.761868913192302E-004;
2.420666666666667E+009;1.519904732704163E-001;-7.482959330081940E-002;-3.687946824356914E-003;5.682329647243023E-004;
2.420833333333334E+009;1.512078940868378E-001;-7.654619216918945E-002;-3.717603394761682E-003;6.941992905922234E-004;
2.421000000000000E+009;1.502183079719544E-001;-7.818998396396637E-002;-3.682088106870651E-003;8.432176546193659E-004;
2.421166666666667E+009;1.496520787477493E-001;-8.004710823297501E-002;-3.651891136541963E-003;9.673160384409130E-004;
2.421333333333334E+009;1.491228491067886E-001;-8.186617493629456E-002;-3.587169107049704E-003;9.333923808299005E-004;
2.421500000000000E+009;1.486281156539917E-001;-8.357290923595429E-002;-3.691473742946982E-003;1.162084168754518E-003;
2.421666666666667E+009;1.481668651103973E-001;-8.537542819976807E-002;-3.458437277004123E-003;1.421151333488524E-003;
2.421833333333334E+009;1.481441110372543E-001;-8.720298111438751E-002;-3.472429001703858E-003;1.572335138916969E-003;
2.422000000000000E+009;1.476133614778519E-001;-8.904486894607544E-002;-3.468332579359412E-003;1.655904576182365E-003;
2.422166666666667E+009;1.477495133876801E-001;-9.113838523626328E-002;-3.215124132111669E-003;1.800757832825184E-003;
2.422333333333334E+009;1.477089673280716E-001;-9.273156523704529E-002;-3.295229980722070E-003;1.928427140228450E-003;
2.422500000000000E+009;1.477479785680771E-001;-9.449546784162521E-002;-3.178293351083994E-003;2.079894300550222E-003;
2.422666666666667E+009;1.478779166936874E-001;-9.636359661817551E-002;-3.036670386791229E-003;2.233987208455801E-003;
2.422833333333334E+009;1.484465152025223E-001;-9.820529818534851E-002;-2.801329130306840E-003;2.356681507080793E-003;
2.423000000000000E+009;1.486508846282959E-001;-9.988436847925186E-002;-2.820810768753290E-003;2.463214099407196E-003;
2.423166666666667E+009;1.491851657629013E-001;-1.015016287565231E-001;-2.736784284934402E-003;2.547017298638821E-003;
2.423333333333334E+009;1.497376114130020E-001;-1.029586568474770E-001;-2.598639810457826E-003;2.685300074517727E-003;
2.423500000000000E+009;1.502847075462341E-001;-1.045668274164200E-001;-2.531238598749042E-003;2.801087219268084E-003;
2.423666666666667E+009;1.506733745336533E-001;-1.060124114155769E-001;-2.311258343979716E-003;2.877603517845273E-003;
2.423833333333334E+009;1.514163762331009E-001;-1.073949784040451E-001;-2.153857145458460E-003;2.981868106871843E-003;
2.424000000000000E+009;1.520155221223831E-001;-1.085149496793747E-001;-1.956602325662971E-003;3.132245270535350E-003;
2.424166666666667E+009;1.526880413293839E-001;-1.097261533141136E-001;-1.770265167579055E-003;3.070554696023464E-003;
2.424333333333334E+009;1.533855795860291E-001;-1.108382195234299E-001;-1.589404535479844E-003;3.162914887070656E-003;
2.424500000000000E+009;1.539528071880341E-001;-1.118244752287865E-001;-1.205548527650535E-003;3.251820802688599E-003;
2.424666666666667E+009;1.548018157482147E-001;-1.126418411731720E-001;-1.120535074733198E-003;3.091208403930068E-003;
2.424833333333334E+009;1.553237736225128E-001;-1.134324371814728E-001;-9.937150171026588E-004;3.171957330778241E-003;
2.425000000000000E+009;1.559695452451706E-001;-1.143596246838570E-001;-8.069151081144810E-004;3.040782641619444E-003;
2.425166666666667E+009;1.562063992023468E-001;-1.148314625024796E-001;-5.629990482702851E-004;3.207150613889098E-003;
2.425333333333334E+009;1.568997055292130E-001;-1.154974550008774E-001;-3.969410317949951E-004;3.213815158233047E-003;
2.425500000000000E+009;1.573880314826965E-001;-1.159131303429604E-001;-2.779886126518250E-004;3.093159524723887E-003;
2.425666666666667E+009;1.574261784553528E-001;-1.162432730197907E-001;-1.730169969960116E-005;2.985626691952348E-003;
2.425833333333334E+009;1.578481793403626E-001;-1.165467277169228E-001;9.588363900547847E-005;3.012651344761252E-003;
2.426000000000000E+009;1.579194664955139E-001;-1.169606894254684E-001;1.701759028946981E-004;2.790879458189011E-003;
2.426166666666667E+009;1.582379341125488E-001;-1.170265674591065E-001;4.034046432934701E-004;2.742945216596127E-003;
2.426333333333334E+009;1.580800712108612E-001;-1.172743141651154E-001;4.029280971735716E-004;2.619308419525623E-003;
2.426500000000000E+009;1.579645574092865E-001;-1.172449439764023E-001;6.607370451092720E-004;2.547114854678512E-003;
2.426666666666667E+009;1.579048931598663E-001;-1.171220615506172E-001;7.580277160741389E-004;2.439079573377967E-003;
2.426833333333334E+009;1.575149446725845E-001;-1.172199249267578E-001;7.947919657453895E-004;2.240343485027552E-003;
2.427000000000000E+009;1.570104807615280E-001;-1.172885969281197E-001;9.106317302212119E-004;2.251096768304706E-003;
2.427166666666667E+009;1.564417481422424E-001;-1.171173080801964E-001;9.738607914187014E-004;2.115648705512285E-003;
2.427333333333334E+009;1.556381732225418E-001;-1.171886101365089E-001;9.220080100931227E-004;2.042784588411450E-003;
2.427500000000000E+009;1.550799608230591E-001;-1.171522662043572E-001;9.985062060877681E-004;1.791452523320913E-003;
2.427666666666667E+009;1.541477888822556E-001;-1.171660274267197E-001;1.119885360822082E-003;1.777336932718754E-003;
