# Version 1.00
#
freq[Hz];re:Trc1_S11;im:Trc1_S11;re:Trc2_S21;im:Trc2_S21;
2.400000000000000E+009;1.543085128068924E-001;6.142115592956543E-002;3.764402586966753E-003;2.493127714842558E-003;
2.400166666666667E+009;1.544984281063080E-001;5.948205292224884E-002;3.782305633649230E-003;2.282777801156044E-003;
2.400333333333334E+009;1.543870568275452E-001;5.733568966388702E-002;3.805883228778839E-003;2.128733554854989E-003;
2.400500000000000E+009;1.545507609844208E-001;5.517606437206268E-002;3.808033885434270E-003;2.031163312494755E-003;
2.400666666666667E+009;1.546345800161362E-001;5.285605415701866E-002;3.790101734921336E-003;1.944360672496259E-003;
2.400833333333334E+009;1.550934016704559E-001;5.083434283733368E-002;3.938414156436920E-003;1.699326676316559E-003;
2.401000000000000E+009;1.554161608219147E-001;4.843760654330254E-002;4.037637263536453E-003;1.685740426182747E-003;
2.401166666666667E+009;1.559209376573563E-001;4.632560536265373E-002;4.042053595185280E-003;1.499383128248155E-003;
2.401333333333334E+009;1.561327278614044E-001;4.373651742935181E-002;3.844171063974500E-003;1.365884440019727E-003;
2.401500000000000E+009;1.570243388414383E-001;4.182805493474007E-002;3.924537450075150E-003;1.290312269702554E-003;
2.401666666666667E+009;1.576898097991943E-001;3.969591110944748E-002;3.981364890933037E-003;1.063314266502857E-003;
2.401833333333334E+009;1.582804173231125E-001;3.760743513703346E-002;4.007535986602306E-003;9.115153225138784E-004;
2.402000000000000E+009;1.588618308305740E-001;3.548163548111916E-002;4.047642927616835E-003;1.007690327242017E-003;
2.402166666666667E+009;1.597222089767456E-001;3.335596621036530E-002;3.970781806856394E-003;8.064079447649419E-004;
2.402333333333334E+009;1.606715470552445E-001;3.153477981686592E-002;3.895348869264126E-003;8.097406825982034E-004;
2.402500000000000E+009;1.616668403148651E-001;2.975136600434780E-002;3.932083956897259E-003;6.209503044374287E-004;
2.402666666666667E+009;1.627475172281265E-001;2.809497714042664E-002;3.858283394947648E-003;5.605559563264251E-004;
2.402833333333334E+009;1.638197600841522E-001;2.653147280216217E-002;4.046543035656214E-003;5.568627966567874E-004;
2.403000000000000E+009;1.648206114768982E-001;2.512530051171780E-002;4.024961497634649E-003;5.718307802453637E-004;
2.403166666666667E+009;1.660362780094147E-001;2.364613860845566E-002;3.938752226531506E-003;4.008137912023813E-004;
2.403333333333334E+009;1.671127676963806E-001;2.223855257034302E-002;4.144487902522087E-003;3.422537411097437E-004;
2.403500000000000E+009;1.682441681623459E-001;2.104361914098263E-002;3.985024057328701E-003;1.231042988365516E-004;
2.403666666666667E+009;1.694218963384628E-001;1.991641893982887E-002;3.958955407142639E-003;6.409468187484890E-005;
2.403833333333334E+009;1.705847680568695E-001;1.875195465981960E-002;4.146424122154713E-003;-2.444776873744559E-005;
2.404000000000000E+009;1.715525835752487E-001;1.782302930951119E-002;3.990476485341787E-003;-1.083679489966016E-005;
2.404166666666667E+009;1.728122085332871E-001;1.697808317840099E-002;4.084438551217318E-003;-2.862403343897313E-004;
2.404333333333334E+009;1.738510876893997E-001;1.638107933104038E-002;4.153110552579165E-003;-3.732413169927895E-004;
2.404500000000000E+009;1.748279929161072E-001;1.575667224824429E-002;4.119669552892447E-003;-3.755599318537861E-004;
2.404666666666667E+009;1.757060289382935E-001;1.505837030708790E-002;4.156638868153095E-003;-6.182218203321099E-004;
2.404833333333334E+009;1.767811626195908E-001;1.465757004916668E-002;4.080669023096561E-003;-7.128065335564315E-004;
2.405000000000000E+009;1.776192933320999E-001;1.410174556076527E-002;4.103630315512419E-003;-7.124351686798036E-004;
2.405166666666667E+009;1.782909333705902E-001;1.383249741047621E-002;4.051241092383862E-003;-9.016018011607230E-004;
2.405333333333334E+009;1.792032122612000E-001;1.334257051348686E-002;4.118266049772501E-003;-9.720579837448895E-004;
2.405500000000000E+009;1.797315776348114E-001;1.341532543301582E-002;3.971565049141645E-003;-1.100542955100536E-003;
2.405666666666667E+009;1.802192181348801E-001;1.318445056676865E-002;4.066333640366793E-003;-1.370676560327411E-003;
2.405833333333334E+009;1.805559694766998E-001;1.314793340861797E-002;4.086472094058991E-003;-1.298126997426152E-003;
2.406000000000000E+009;1.811319738626480E-001;1.287306193262339E-002;4.142695106565952E-003;-1.420448068529367E-003;
2.406166666666667E+009;1.812402755022049E-001;1.291618309915066E-002;4.100257530808449E-003;-1.605438650585711E-003;
2.406333333333334E+009;1.816114038228989E-001;1.280811242759228E-002;3.986391238868237E-003;-1.706870622001588E-003;
2.406500000000000E+009;1.814731359481812E-001;1.250654552131891E-002;3.882335731759667E-003;-1.760960440151393E-003;
2.406666666666667E+009;1.813589185476303E-001;1.253996510058641E-002;3.894487861543894E-003;-1.873159431852400E-003;
2.406833333333334E+009;1.812922358512878E-001;1.229948922991753E-002;3.736870596185327E-003;-2.041704952716827E-003;
2.407000000000000E+009;1.811348497867584E-001;1.203823462128639E-002;3.805499523878098E-003;-2.375919604673982E-003;
2.407166666666667E+009;1.809782534837723E-001;1.181248761713505E-002;3.796393517404795E-003;-2.238968154415488E-003;
2.407333333333334E+009;1.804177016019821E-001;1.138638239353895E-002;3.877745009958744E-003;-2.338084625080228E-003;
2.407500000000000E+009;1.799674183130264E-001;1.112123858183622E-002;3.781672799959779E-003;-2.404080238193274E-003;
2.407666666666667E+009;1.794380992650986E-001;1.068742293864489E-002;3.642348805442452E-003;-2.490407554432750E-003;
2.407833333333334E+009;1.786977797746658E-001;1.001237984746695E-002;3.583705285564065E-003;-2.766428515315056E-003;
2.408000000000000E+009;1.780579686164856E-001;9.308157488703728E-003;3.485528985038400E-003;-2.866816241294146E-003;
2.408166666666667E+009;1.773693263530731E-001;8.649749681353569E-003;3.636715235188603E-003;-2.791608218103647E-003;
2.408333333333334E+009;1.767432689666748E-001;7.930384948849678E-003;3.527261782437563E-003;-3.069373778998852E-003;
2.408500000000000E+009;1.758386194705963E-001;6.803586147725582E-003;3.356814850121737E-003;-3.038000082597137E-003;
2.408666666666667E+009;1.748941689729691E-001;5.661346018314362E-003;3.238343400880694E-003;-3.348628757521510E-003;
2.408833333333334E+009;1.740341782569885E-001;4.594729747623205E-003;3.115231171250343E-003;-3.414042759686709E-003;
2.409000000000000E+009;1.731170713901520E-001;3.279343014582992E-003;3.166090231388807E-003;-3.602683776989579E-003;
2.409166666666667E+009;1.724115610122681E-001;2.063675783574581E-003;2.974766073748469E-003;-3.578494302928448E-003;
2.409333333333334E+009;1.715908199548721E-001;5.827485001645982E-004;3.022207412868738E-003;-3.760614432394505E-003;
2.409500000000000E+009;1.706741005182266E-001;-1.290344051085413E-003;2.982566133141518E-003;-3.860543714836240E-003;
2.409666666666667E+009;1.698568612337112E-001;-2.790797734633088E-003;2.919783582910895E-003;-3.985126037150621E-003;
2.409833333333334E+009;1.690948307514191E-001;-4.361761733889580E-003;2.723516197875142E-003;-4.065934568643570E-003;
2.410000000000000E+009;1.685674786567688E-001;-6.084836088120937E-003;2.528763376176357E-003;-4.185672383755446E-003;
2.410166666666667E+009;1.678264886140823E-001;-8.145607076585293E-003;2.388297347351909E-003;-4.345720633864403E-003;
2.410333333333334E+009;1.673089414834976E-001;-1.001016423106194E-002;2.348534064367414E-003;-4.603944253176451E-003;
2.410500000000000E+009;1.669864058494568E-001;-1.196828112006187E-002;2.214623149484396E-003;-4.472388885915279E-003;
2.410666666666667E+009;1.664318740367889E-001;-1.418545935302973E-002;2.024537418037653E-003;-4.581660497933626E-003;
2.410833333333334E+009;1.661363393068314E-001;-1.609907671809197E-002;1.866600709035993E-003;-4.734852351248264E-003;
2.411000000000000E+009;1.657746583223343E-001;-1.823002099990845E-002;1.610076171346009E-003;-4.864561371505261E-003;
2.411166666666667E+009;1.656480431556702E-001;-2.048585191369057E-002;1.449284376576543E-003;-4.897616803646088E-003;
2.411333333333334E+009;1.655561327934265E-001;-2.240419946610928E-002;1.287428662180901E-003;-5.031085573136807E-003;
2.411500000000000E+009;1.655936539173126E-001;-2.472467720508575E-002;1.114301732741296E-003;-4.896518774330616E-003;
2.411666666666667E+009;1.657344996929169E-001;-2.683340199291706E-002;8.773760637268424E-004;-5.207040812820196E-003;
2.411833333333334E+009;1.660032570362091E-001;-2.878325805068016E-002;5.996907711960375E-004;-5.387599579989910E-003;
2.412000000000000E+009;1.664265394210815E-001;-3.101931512355804E-002;5.733716534450650E-004;-5.388600286096335E-003;
2.412166666666667E+009;1.665630489587784E-001;-3.289838507771492E-002;1.288381754420698E-004;-5.281354300677776E-003;
2.412333333333334E+009;1.671521812677383E-001;-3.507763892412186E-002;-7.641610136488453E-005;-5.247815977782011E-003;
2.412500000000000E+009;1.674707680940628E-001;-3.696072101593018E-002;-2.232975966762751E-004;-5.376288201659918E-003;
2.412666666666667E+009;1.681258976459503E-001;-3.894144296646118E-002;-3.996353771071881E-004;-5.195932928472757E-003;
2.412833333333334E+009;1.688558608293533E-001;-4.070193320512772E-002;-6.556226871907711E-004;-5.305448547005653E-003;
2.413000000000000E+009;1.693730205297470E-001;-4.250876978039742E-002;-8.981013088487089E-004;-5.170428194105625E-003;
2.413166666666667E+009;1.700657010078430E-001;-4.412334412336350E-002;-1.166930538602173E-003;-5.094686523079872E-003;
2.413333333333334E+009;1.708594411611557E-001;-4.558485746383667E-002;-1.321583637036383E-003;-5.022392142564058E-003;
2.413500000000000E+009;1.716673970222473E-001;-4.729425534605980E-002;-1.333464635536075E-003;-4.870840348303318E-003;
2.413666666666667E+009;1.725343912839890E-001;-4.865083843469620E-002;-1.595371752046049E-003;-4.788950085639954E-003;
2.413833333333334E+009;1.731167584657669E-001;-5.002527311444283E-002;-1.787141896784306E-003;-4.810736980289221E-003;
2.414000000000000E+009;1.739742308855057E-001;-5.113231390714645E-002;-2.073702635243535E-003;-4.756950307637453E-003;
2.414166666666667E+009;1.748141795396805E-001;-5.218496546149254E-002;-2.185314893722534E-003;-4.531514830887318E-003;
2.414333333333334E+009;1.754914373159409E-001;-5.327809974551201E-002;-2.355654956772924E-003;-4.529125057160854E-003;
2.414500000000000E+009;1.762802749872208E-001;-5.398979783058167E-002;-2.589242998510599E-003;-4.470637999475002E-003;
2.414666666666667E+009;1.769656538963318E-001;-5.487336590886116E-002;-2.765765879303217E-003;-4.323171451687813E-003;
2.414833333333334E+009;1.775090396404266E-001;-5.569402128458023E-002;-2.645460888743401E-003;-4.128167405724526E-003;
2.415000000000000E+009;1.779349893331528E-001;-5.624974519014359E-002;-3.081949660554528E-003;-4.008458461612463E-003;
2.415166666666667E+009;1.783985495567322E-001;-5.670595169067383E-002;-3.043578471988440E-003;-3.732768353074789E-003;
2.415333333333334E+009;1.789560616016388E-001;-5.714815482497215E-002;-3.062303643673658E-003;-3.573292167857289E-003;
2.415500000000000E+009;1.792286187410355E-001;-5.753665044903755E-002;-3.234053496271372E-003;-3.492982592433691E-003;
2.415666666666667E+009;1.795592904090881E-001;-5.769445374608040E-002;-3.311955370008946E-003;-3.358758287504315E-003;
2.415833333333334E+009;1.797524243593216E-001;-5.806759372353554E-002;-3.531963098794222E-003;-3.142400877550244E-003;
2.416000000000000E+009;1.796365082263947E-001;-5.813691765069962E-002;-3.437542123720050E-003;-3.101853886619210E-003;
2.416166666666667E+009;1.797953993082047E-001;-5.830283835530281E-002;-3.697348060086370E-003;-2.834739396348596E-003;
2.416333333333334E+009;1.794861555099487E-001;-5.837807431817055E-002;-3.723421832546592E-003;-2.707944251596928E-003;
2.416500000000000E+009;1.792514473199844E-001;-5.856132879853249E-002;-3.680523950606585E-003;-2.515208441764116E-003;
2.416666666666667E+009;1.789491474628449E-001;-5.856114625930786E-002;-3.902429016306996E-003;-2.515052445232868E-003;
2.416833333333334E+009;1.784819811582565E-001;-5.865374952554703E-002;-3.782303771004081E-003;-2.278927946463227E-003;
2.417000000000000E+009;1.776963621377945E-001;-5.870169773697853E-002;-3.759062848985195E-003;-2.112878719344735E-003;
2.417166666666667E+009;1.771651208400726E-001;-5.862115323543549E-002;-3.941687755286694E-003;-1.933102961629629E-003;
2.417333333333334E+009;1.763827502727509E-001;-5.866134911775589E-002;-3.963037859648466E-003;-1.744198030792177E-003;
2.417500000000000E+009;1.753958314657211E-001;-5.901541188359261E-002;-3.999634180217981E-003;-1.584957120940089E-003;
2.417666666666667E+009;1.744479238986969E-001;-5.896858125925064E-002;-4.041298758238554E-003;-1.553522539325059E-003;
2.417833333333334E+009;1.735276728868485E-001;-5.919016525149345E-002;-3.989164251834154E-003;-1.380254630930722E-003;
2.418000000000000E+009;1.722185462713242E-001;-5.956420302391052E-002;-3.990154713392258E-003;-1.040927949361503E-003;
2.418166666666667E+009;1.710380464792252E-001;-5.975638329982758E-002;-3.924093674868345E-003;-9.928616927936673E-004;
2.418333333333334E+009;1.699672937393189E-001;-6.027582660317421E-002;-3.941388335078955E-003;-9.654071182012558E-004;
2.418500000000000E+009;1.685859709978104E-001;-6.080496683716774E-002;-3.863239428028464E-003;-8.263887139037252E-004;
2.418666666666667E+009;1.672956645488739E-001;-6.133541837334633E-002;-3.900029696524143E-003;-6.029095966368914E-004;
2.418833333333334E+009;1.658245176076889E-001;-6.195989251136780E-002;-3.933793865144253E-003;-6.025381153449416E-004;
2.419000000000000E+009;1.644243001937866E-001;-6.274108588695526E-002;-4.008273594081402E-003;-4.202100390102714E-004;
2.419166666666667E+009;1.630579084157944E-001;-6.353607028722763E-002;-3.968862351030111E-003;-3.489354858174920E-004;
2.419333333333334E+009;1.615103185176849E-001;-6.422287970781326E-002;-3.894856432452798E-003;-2.103925799019635E-004;
2.419500000000000E+009;1.601534932851791E-001;-6.539132446050644E-002;-3.790404414758086E-003;-9.310517634730786E-005;
2.419666666666667E+009;1.587978452444077E-001;-6.655141711235046E-002;-3.786996239796281E-003;-1.160717365564778E-004;
2.419833333333334E+009;1.574826985597611E-001;-6.773033738136292E-002;-3.787262132391334E-003;-1.081080990843475E-004;
2.420000000000000E+009;1.563766598701477E-001;-6.907454133033752E-002;-3.873316571116447E-003;2.748183615040034E-004;
2.420166666666667E+009;1.553124785423279E-001;-7.046677917242050E-002;-3.853446105495095E-003;3.821541322395206E-004;
2.420333333333334E+009;1.539911627769470E-001;-7.182145863771439E-002;-3.835684387013316E-003;2.536418323870748E-004;
2.420500000000000E+009;1.531284302473068E-001;-7.305610179901123E-002;-3.826464293524623E-003;5.221575847826898E-004;
2.420666666666667E+009;1.520235389471054E-001;-7.474213838577271E-002;-3.751132637262344E-003;5.958991823717952E-004;
2.420833333333334E+009;1.512124240398407E-001;-7.634021341800690E-002;-3.603461897000670E-003;8.412346360273659E-004;
2.421000000000000E+009;1.503042876720429E-001;-7.829540967941284E-002;-3.783892607316375E-003;7.470531272701919E-004;
2.421166666666667E+009;1.495422273874283E-001;-7.990109920501709E-002;-3.673424012959003E-003;9.555922588333488E-004;
2.421333333333334E+009;1.490949988365173E-001;-8.172880113124847E-002;-3.552044043317437E-003;1.084067975170910E-003;
2.421500000000000E+009;1.486079543828964E-001;-8.361938595771790E-002;-3.559111617505550E-003;1.269978936761618E-003;
2.421666666666667E+009;1.482750475406647E-001;-8.533888310194016E-002;-3.500915132462978E-003;1.332896878011525E-003;
2.421833333333334E+009;1.479973345994949E-001;-8.719330281019211E-002;-3.463319502770901E-003;1.469505717977881E-003;
2.422000000000000E+009;1.479006707668304E-001;-8.893913775682449E-002;-3.385017160326242E-003;1.647948869504035E-003;
2.422166666666667E+009;1.477185636758804E-001;-9.107615798711777E-002;-3.589148866012693E-003;1.843371894210577E-003;
2.422333333333334E+009;1.477666199207306E-001;-9.281141310930252E-002;-3.379457863047719E-003;1.958414213731885E-003;
2.422500000000000E+009;1.478186249732971E-001;-9.452722221612930E-002;-3.197708399966359E-003;2.183351432904601E-003;
2.422666666666667E+009;1.479820758104324E-001;-9.635887295007706E-002;-3.108005970716476E-003;2.323148306459189E-003;
2.422833333333334E+009;1.482994258403778E-001;-9.812030941247940E-002;-2.998540410771966E-003;2.299147192388773E-003;
2.423000000000000E+009;1.487693190574646E-001;-9.968671202659607E-002;-2.856862964108586E-003;2.580189844593406E-003;
2.423166666666667E+009;1.492657065391541E-001;-1.014602854847908E-001;-2.561448374763131E-003;2.637073397636414E-003;
2.423333333333334E+009;1.498579531908035E-001;-1.029588878154755E-001;-2.470543840900064E-003;2.736079972237349E-003;
2.423500000000000E+009;1.501783877611160E-001;-1.044775024056435E-001;-2.240842673927546E-003;2.800503280013800E-003;
2.423666666666667E+009;1.507206708192825E-001;-1.059776172041893E-001;-2.209965372458100E-003;3.048484679311514E-003;
2.423833333333334E+009;1.516537964344025E-001;-1.072896271944046E-001;-2.282392466440797E-003;3.102235961705446E-003;
2.424000000000000E+009;1.521990448236466E-001;-1.084421277046204E-001;-1.896687084808946E-003;3.118289634585381E-003;
2.424166666666667E+009;1.526397019624710E-001;-1.098311170935631E-001;-1.702169887721539E-003;3.250839654356241E-003;
2.424333333333334E+009;1.534397006034851E-001;-1.107409968972206E-001;-1.402635010890663E-003;3.115868661552668E-003;
2.424500000000000E+009;1.541186273097992E-001;-1.118459254503250E-001;-1.206156215630472E-003;3.466655034571886E-003;
2.424666666666667E+009;1.548534631729126E-001;-1.125975325703621E-001;-1.136963139288127E-003;3.314265049993992E-003;
2.424833333333334E+009;1.552781462669373E-001;-1.135068461298943E-001;-8.295820443890989E-004;3.305920632556081E-003;
2.425000000000000E+009;1.559741646051407E-001;-1.141381040215492E-001;-7.657649694010615E-004;3.232839051634073E-003;
2.425166666666667E+009;1.564061045646668E-001;-1.148655638098717E-001;-4.431483394000679E-004;3.161070169880986E-003;
2.425333333333334E+009;1.569061130285263E-001;-1.153969764709473E-001;-4.840546753257513E-004;3.278720658272505E-003;
2.425500000000000E+009;1.572728157043457E-001;-1.159173324704170E-001;-2.234226412838325E-004;3.020879114046693E-003;
2.425666666666667E+009;1.575345993041992E-001;-1.162347495555878E-001;1.044381060637534E-004;3.044591983780265E-003;
2.425833333333334E+009;1.579171121120453E-001;-1.165566071867943E-001;2.141974546248093E-004;2.931795082986355E-003;
2.426000000000000E+009;1.581522375345230E-001;-1.169468536973000E-001;3.864816681016237E-004;2.907341113314033E-003;
2.426166666666667E+009;1.583005636930466E-001;-1.170182004570961E-001;5.156112601980567E-004;2.714492613449693E-003;
2.426333333333334E+009;1.581034958362579E-001;-1.171903312206268E-001;5.397875793278217E-004;2.726460574194789E-003;
2.426500000000000E+009;1.580670624971390E-001;-1.171191260218620E-001;6.460217991843820E-004;2.526825293898583E-003;
2.426666666666667E+009;1.579759716987610E-001;-1.171119809150696E-001;8.259397000074387E-004;2.323653781786561E-003;
2.426833333333334E+009;1.575036644935608E-001;-1.171887069940567E-001;8.513560751453042E-004;2.416303381323814E-003;
2.427000000000000E+009;1.571062654256821E-001;-1.172808036208153E-001;9.866572218015790E-004;2.213268075138331E-003;
2.427166666666667E+009;1.566017717123032E-001;-1.170622333884239E-001;9.884219616651535E-004;2.045743865892291E-003;
2.427333333333334E+009;1.557973474264145E-001;-1.170952841639519E-001;1.082074013538659E-003;1.766589586623013E-003;
2.427500000000000E+009;1.551719754934311E-001;-1.171025410294533E-001;9.470923105254769E-004;1.832700916565955E-003;
2.427666666666667E+009;1.542045027017593E-001;-1.170812770724297E-001;1.088421093299985E-003;1.676023355685175E-003;
