# Version 1.00
#
freq[Hz];re:Trc1_S11;im:Trc1_S11;re:Trc2_S21;im:Trc2_S21;
2.400000000000000E+009;1.544342637062073E-001;6.130649894475937E-002;3.642044262960553E-003;2.224346157163382E-003;
2.400166666666667E+009;1.543817520141602E-001;5.956735461950302E-002;3.581261029466987E-003;2.135009737685323E-003;
2.400333333333334E+009;1.543183773756027E-001;5.739534273743630E-002;3.769378410652280E-003;2.130197826772928E-003;
2.400500000000000E+009;1.545386016368866E-001;5.509201064705849E-002;3.590251319110394E-003;1.927667064592242E-003;
2.400666666666667E+009;1.546608358621597E-001;5.296406894922257E-002;3.810206661000848E-003;1.743740052916110E-003;
2.400833333333334E+009;1.550968736410141E-001;5.073409527540207E-002;3.911438863724470E-003;1.767315436154604E-003;
2.401000000000000E+009;1.553763151168823E-001;4.857984185218811E-002;3.888876177370548E-003;1.446628128178418E-003;
2.401166666666667E+009;1.557417213916779E-001;4.626387730240822E-002;3.994144964963198E-003;1.400245702825487E-003;
2.401333333333334E+009;1.562687456607819E-001;4.403302818536758E-002;3.822924802079797E-003;1.468637143261731E-003;
2.401500000000000E+009;1.568769812583923E-001;4.186626896262169E-002;4.001598339527845E-003;1.222345279529691E-003;
2.401666666666667E+009;1.575063318014145E-001;3.973487764596939E-002;3.966259304434061E-003;1.140114152804017E-003;
2.401833333333334E+009;1.582509726285934E-001;3.751479089260101E-002;3.992236219346523E-003;9.874536190181971E-004;
2.402000000000000E+009;1.587800532579422E-001;3.554788231849670E-002;3.820965997874737E-003;8.832435123622417E-004;
2.402166666666667E+009;1.597240120172501E-001;3.355934470891953E-002;3.915848676115274E-003;8.565426687709987E-004;
2.402333333333334E+009;1.605358868837357E-001;3.163848444819450E-002;3.926065284758806E-003;8.284649811685085E-004;
2.402500000000000E+009;1.617080122232437E-001;2.984233386814594E-002;4.084452986717224E-003;6.576038431376219E-004;
2.402666666666667E+009;1.625925600528717E-001;2.831477858126164E-002;3.849826520308852E-003;6.815898232161999E-004;
2.402833333333334E+009;1.637676507234573E-001;2.658578939735889E-002;4.035345278680325E-003;4.733761306852102E-004;
2.403000000000000E+009;1.647232472896576E-001;2.510601840913296E-002;3.867744002491236E-003;4.828039382118732E-004;
2.403166666666667E+009;1.660590618848801E-001;2.362678945064545E-002;3.995324950665236E-003;2.948910114355385E-004;
2.403333333333334E+009;1.671632081270218E-001;2.249265275895596E-002;3.877308918163180E-003;4.003059584647417E-004;
2.403500000000000E+009;1.682184189558029E-001;2.109448052942753E-002;4.016589373350143E-003;2.146299666492268E-004;
2.403666666666667E+009;1.693222373723984E-001;1.992157660424709E-002;4.090099129825831E-003;-3.901361924363300E-005;
2.403833333333334E+009;1.705337613821030E-001;1.869949512183666E-002;4.084812011569738E-003;-2.231828148069326E-005;
2.404000000000000E+009;1.716083288192749E-001;1.794497855007649E-002;4.052978940308094E-003;-5.534950832952745E-005;
2.404166666666667E+009;1.726928502321243E-001;1.691243611276150E-002;3.927172161638737E-003;-1.790685782907531E-004;
2.404333333333334E+009;1.738971471786499E-001;1.630614697933197E-002;4.138895310461521E-003;-3.272839821875095E-004;
2.404500000000000E+009;1.748530268669128E-001;1.556549686938524E-002;4.075946751981974E-003;-4.851330304518342E-004;
2.404666666666667E+009;1.759408116340637E-001;1.509665232151747E-002;4.295252729207277E-003;-4.318052961025387E-004;
2.404833333333334E+009;1.767124831676483E-001;1.456421706825495E-002;4.062986932694912E-003;-6.343113491311669E-004;
2.405000000000000E+009;1.778086870908737E-001;1.424691639840603E-002;4.178586415946484E-003;-8.209669613279402E-004;
2.405166666666667E+009;1.785123944282532E-001;1.396025996655226E-002;4.157406743615866E-003;-8.623680914752185E-004;
2.405333333333334E+009;1.792768239974976E-001;1.343811210244894E-002;4.048608243465424E-003;-9.452305966988206E-004;
2.405500000000000E+009;1.798965632915497E-001;1.328966766595841E-002;4.066392313688994E-003;-1.120465341955423E-003;
2.405666666666667E+009;1.802256554365158E-001;1.308001857250929E-002;4.068912472575903E-003;-1.138732419349253E-003;
2.405833333333334E+009;1.807219684123993E-001;1.313513983041048E-002;4.093437921255827E-003;-1.397965126670897E-003;
2.406000000000000E+009;1.812123358249664E-001;1.285064127296209E-002;4.152888897806406E-003;-1.496023847721517E-003;
2.406166666666667E+009;1.812450289726257E-001;1.289900764822960E-002;4.125970881432295E-003;-1.706616254523397E-003;
2.406333333333334E+009;1.815320402383804E-001;1.277440879493952E-002;4.023888614028692E-003;-1.653994549997151E-003;
2.406500000000000E+009;1.815769225358963E-001;1.245495770126581E-002;3.882363904267550E-003;-1.796371070668101E-003;
2.406666666666667E+009;1.814196705818176E-001;1.247668173164129E-002;3.695088671520352E-003;-1.892442815005779E-003;
2.406833333333334E+009;1.813209950923920E-001;1.228298153728247E-002;3.935100510716438E-003;-1.999393105506897E-003;
2.407000000000000E+009;1.811743080615997E-001;1.208200398832560E-002;3.869757289066911E-003;-2.196165733039379E-003;
2.407166666666667E+009;1.809985339641571E-001;1.191162317991257E-002;3.768639406189323E-003;-2.220909576863051E-003;
2.407333333333334E+009;1.804728507995606E-001;1.137530431151390E-002;3.562072524800897E-003;-2.317989477887750E-003;
2.407500000000000E+009;1.799632161855698E-001;1.107877120375633E-002;3.651053877547383E-003;-2.455073874443770E-003;
2.407666666666667E+009;1.793506294488907E-001;1.069770101457834E-002;3.616638947278261E-003;-2.570676617324352E-003;
2.407833333333334E+009;1.787737011909485E-001;1.006336510181427E-002;3.503394778817892E-003;-2.738547977060080E-003;
2.408000000000000E+009;1.781506091356278E-001;9.362305514514446E-003;3.585308790206909E-003;-2.966174157336354E-003;
2.408166666666667E+009;1.773413568735123E-001;8.675592951476574E-003;3.518309444189072E-003;-3.117850748822093E-003;
2.408333333333334E+009;1.767452955245972E-001;7.764832582324743E-003;3.545971820130944E-003;-3.037636401131749E-003;
2.408500000000000E+009;1.759722530841827E-001;6.875673308968544E-003;3.283601021394134E-003;-3.322529606521130E-003;
2.408666666666667E+009;1.750923693180084E-001;5.729841999709606E-003;3.255549119785428E-003;-3.180813975632191E-003;
2.408833333333334E+009;1.741488575935364E-001;4.676197189837694E-003;3.340247552841902E-003;-3.297113347798586E-003;
2.409000000000000E+009;1.731754988431931E-001;3.273338312283158E-003;3.158475970849395E-003;-3.533135633915663E-003;
2.409166666666667E+009;1.724008768796921E-001;1.854910515248776E-003;3.070521866902709E-003;-3.689083969220519E-003;
2.409333333333334E+009;1.716043651103973E-001;4.408895911183208E-004;3.011813387274742E-003;-3.675958374515176E-003;
2.409500000000000E+009;1.708526313304901E-001;-1.114248763769865E-003;2.807653509080410E-003;-3.928552381694317E-003;
2.409666666666667E+009;1.699357330799103E-001;-2.738637151196599E-003;2.749439328908920E-003;-4.025585483759642E-003;
2.409833333333334E+009;1.692189425230026E-001;-4.536410793662071E-003;2.718470059335232E-003;-4.132698755711317E-003;
2.410000000000000E+009;1.684477776288986E-001;-6.221891846507788E-003;2.480012597516179E-003;-4.337057005614042E-003;
2.410166666666667E+009;1.677788645029068E-001;-8.004882372915745E-003;2.377283293753862E-003;-4.343533422797918E-003;
2.410333333333334E+009;1.672319769859314E-001;-1.015791576355696E-002;2.300147898495197E-003;-4.534729756414890E-003;
2.410500000000000E+009;1.668519377708435E-001;-1.191067509353161E-002;2.145717618986964E-003;-4.500852897763252E-003;
2.410666666666667E+009;1.663631945848465E-001;-1.415804494172335E-002;1.941084978170693E-003;-4.890487994998694E-003;
2.410833333333334E+009;1.660766750574112E-001;-1.623920723795891E-002;1.734982011839747E-003;-4.906699992716312E-003;
2.411000000000000E+009;1.658505797386169E-001;-1.825495064258575E-002;1.618927461095154E-003;-4.964034538716078E-003;
2.411166666666667E+009;1.656646430492401E-001;-2.035007439553738E-002;1.627755118533969E-003;-5.067761056125164E-003;
2.411333333333334E+009;1.654629558324814E-001;-2.248951233923435E-002;1.306650461629033E-003;-5.086715333163738E-003;
2.411500000000000E+009;1.656468659639359E-001;-2.469208836555481E-002;1.088200137019157E-003;-5.265848245471716E-003;
2.411666666666667E+009;1.656466573476791E-001;-2.676234953105450E-002;9.402277646586299E-004;-5.353666841983795E-003;
2.411833333333334E+009;1.659747809171677E-001;-2.879835106432438E-002;5.735718877986074E-004;-5.376509390771389E-003;
2.412000000000000E+009;1.662761867046356E-001;-3.109723702073097E-002;3.464848268777132E-004;-5.355370230972767E-003;
2.412166666666667E+009;1.663696765899658E-001;-3.308841958642006E-002;1.006563834380359E-004;-5.258688237518072E-003;
2.412333333333334E+009;1.672215908765793E-001;-3.487349301576614E-002;-3.823973020189442E-005;-5.369570571929216E-003;
2.412500000000000E+009;1.674825400114059E-001;-3.680334240198135E-002;-2.217525470769033E-004;-5.287162493914366E-003;
2.412666666666667E+009;1.682372093200684E-001;-3.882179409265518E-002;-4.767406499013305E-004;-5.385026801377535E-003;
2.412833333333334E+009;1.687811613082886E-001;-4.064257442951202E-002;-7.285021711140871E-004;-5.247573368251324E-003;
2.413000000000000E+009;1.693287044763565E-001;-4.239901900291443E-002;-9.728993754833937E-004;-5.150095093995333E-003;
2.413166666666667E+009;1.702606081962585E-001;-4.409042745828629E-002;-1.149060553871095E-003;-5.061192438006401E-003;
2.413333333333334E+009;1.708306521177292E-001;-4.577071219682694E-002;-1.271431799978018E-003;-5.024475976824760E-003;
2.413500000000000E+009;1.716231256723404E-001;-4.730877652764320E-002;-1.443244051188231E-003;-4.949237219989300E-003;
2.413666666666667E+009;1.724857389926910E-001;-4.870506376028061E-002;-1.787665300071240E-003;-4.874900449067354E-003;
2.413833333333334E+009;1.732313036918640E-001;-4.985759034752846E-002;-1.934744883328676E-003;-4.709979053586721E-003;
2.414000000000000E+009;1.739412546157837E-001;-5.119598656892777E-002;-2.045805333182216E-003;-4.839047789573669E-003;
2.414166666666667E+009;1.747227311134338E-001;-5.221281573176384E-002;-2.219946589320898E-003;-4.720502067357302E-003;
2.414333333333334E+009;1.755259633064270E-001;-5.329298228025436E-002;-2.350598340854049E-003;-4.458711482584477E-003;
2.414500000000000E+009;1.764531433582306E-001;-5.411097779870033E-002;-2.597851445898414E-003;-4.352120682597160E-003;
2.414666666666667E+009;1.768335103988648E-001;-5.488860234618187E-002;-2.710137050598860E-003;-4.357755649834871E-003;
2.414833333333334E+009;1.774675250053406E-001;-5.580069497227669E-002;-2.924503991380334E-003;-4.108787514269352E-003;
2.415000000000000E+009;1.779661327600479E-001;-5.618974566459656E-002;-3.021938493475318E-003;-4.086891654878855E-003;
2.415166666666667E+009;1.784317940473557E-001;-5.676880106329918E-002;-3.154812846332789E-003;-3.844712395220995E-003;
2.415333333333334E+009;1.789429932832718E-001;-5.715454742312431E-002;-3.129215911030769E-003;-3.583253361284733E-003;
2.415500000000000E+009;1.792748570442200E-001;-5.745388194918633E-002;-3.221256658434868E-003;-3.461982123553753E-003;
2.415666666666667E+009;1.794668138027191E-001;-5.784900486469269E-002;-3.550829365849495E-003;-3.490298520773649E-003;
2.415833333333334E+009;1.797014623880386E-001;-5.800249800086021E-002;-3.453007433563471E-003;-3.284257603809238E-003;
2.416000000000000E+009;1.795693933963776E-001;-5.834713205695152E-002;-3.482853760942817E-003;-2.980062505230308E-003;
2.416166666666667E+009;1.797931343317032E-001;-5.844017490744591E-002;-3.744884161278606E-003;-2.974292496219277E-003;
2.416333333333334E+009;1.794220954179764E-001;-5.855174735188484E-002;-3.802580293267965E-003;-2.768600592389703E-003;
2.416500000000000E+009;1.792970299720764E-001;-5.845374614000320E-002;-3.850616514682770E-003;-2.544364891946316E-003;
2.416666666666667E+009;1.788134425878525E-001;-5.842277780175209E-002;-3.999390173703432E-003;-2.469238825142384E-003;
2.416833333333334E+009;1.784276962280273E-001;-5.866216495633125E-002;-3.944303374737501E-003;-2.292577875778079E-003;
2.417000000000000E+009;1.777079403400421E-001;-5.873219296336174E-002;-3.937835805118084E-003;-2.160016447305679E-003;
2.417166666666667E+009;1.771697103977203E-001;-5.867439880967140E-002;-3.932494670152664E-003;-1.964083174243569E-003;
2.417333333333334E+009;1.763953268527985E-001;-5.874940752983093E-002;-4.071743227541447E-003;-1.779134967364371E-003;
2.417500000000000E+009;1.753599792718887E-001;-5.901868268847466E-002;-3.998504951596260E-003;-1.623583491891623E-003;
2.417666666666667E+009;1.745340079069138E-001;-5.904814600944519E-002;-4.020786844193935E-003;-1.439886051230133E-003;
2.417833333333334E+009;1.734722107648850E-001;-5.925117433071137E-002;-4.133827053010464E-003;-1.291507622227073E-003;
2.418000000000000E+009;1.722290366888046E-001;-5.957919359207153E-002;-3.917131572961807E-003;-1.164400833658874E-003;
2.418166666666667E+009;1.710440516471863E-001;-5.977470800280571E-002;-3.927328623831272E-003;-1.082173432223499E-003;
2.418333333333334E+009;1.699908524751663E-001;-6.026330962777138E-002;-4.075104836374521E-003;-9.151167469099164E-004;
2.418500000000000E+009;1.686300486326218E-001;-6.072286516427994E-002;-3.932390362024307E-003;-8.602941525168717E-004;
2.418666666666667E+009;1.673942208290100E-001;-6.126499548554421E-002;-3.839399432763457E-003;-6.142298225313425E-004;
2.418833333333334E+009;1.658956706523895E-001;-6.191623210906982E-002;-3.900824580341578E-003;-4.891208373010159E-004;
2.419000000000000E+009;1.642717719078064E-001;-6.268524378538132E-002;-3.968397621065378E-003;-5.137703265063465E-004;
2.419166666666667E+009;1.630518287420273E-001;-6.343495100736618E-002;-3.801346290856600E-003;-4.172962217126042E-004;
2.419333333333334E+009;1.615065187215805E-001;-6.423992663621903E-002;-3.796604927629232E-003;-1.477975019952282E-004;
2.419500000000000E+009;1.602103710174561E-001;-6.535493582487106E-002;-3.947160206735134E-003;-6.750925240339711E-005;
2.419666666666667E+009;1.588747352361679E-001;-6.652341037988663E-002;-3.866913029924035E-003;-3.014303729287349E-005;
2.419833333333334E+009;1.575690209865570E-001;-6.754012405872345E-002;-3.797770943492651E-003;3.299342279206030E-005;
2.420000000000000E+009;1.564209759235382E-001;-6.899756938219070E-002;-3.754689125344157E-003;9.344418504042551E-005;
2.420166666666667E+009;1.551127433776856E-001;-7.027368247509003E-002;-3.795349271968007E-003;3.367074532434344E-004;
2.420333333333334E+009;1.540318876504898E-001;-7.184323668479919E-002;-3.783212509006262E-003;3.950149985030294E-004;
2.420500000000000E+009;1.532101184129715E-001;-7.310675084590912E-002;-3.760865656659007E-003;6.073859985917807E-004;
2.420666666666667E+009;1.519965529441834E-001;-7.456323504447937E-002;-3.741856897249818E-003;5.515622906386852E-004;
2.420833333333334E+009;1.512465327978134E-001;-7.649133354425430E-002;-3.696787171065807E-003;7.473434670828283E-004;
2.421000000000000E+009;1.503297835588455E-001;-7.816263288259506E-002;-3.764849854633212E-003;8.661350002512336E-004;
2.421166666666667E+009;1.496699899435043E-001;-7.976892590522766E-002;-3.653870429843664E-003;1.034588087350130E-003;
2.421333333333334E+009;1.491592824459076E-001;-8.173477649688721E-002;-3.664016956463456E-003;1.200225437059999E-003;
2.421500000000000E+009;1.486454606056213E-001;-8.346793055534363E-002;-3.491297597065568E-003;1.223133062012494E-003;
2.421666666666667E+009;1.482753157615662E-001;-8.540907502174377E-002;-3.739067818969488E-003;1.535784685984254E-003;
2.421833333333334E+009;1.479469686746597E-001;-8.699605613946915E-002;-3.529399400576949E-003;1.677891588769853E-003;
2.422000000000000E+009;1.476295143365860E-001;-8.900993317365646E-002;-3.410962643101811E-003;1.715549849905074E-003;
2.422166666666667E+009;1.476648151874542E-001;-9.105207026004791E-002;-3.292724257335067E-003;1.987706869840622E-003;
2.422333333333334E+009;1.478782147169113E-001;-9.256327152252197E-002;-3.328067017719150E-003;1.929056947119534E-003;
2.422500000000000E+009;1.476757228374481E-001;-9.447629004716873E-002;-2.980879507958889E-003;2.175145549699664E-003;
2.422666666666667E+009;1.479679644107819E-001;-9.635816514492035E-002;-3.188567468896508E-003;2.296604914590716E-003;
2.422833333333334E+009;1.483860164880753E-001;-9.819476306438446E-002;-2.937974408268929E-003;2.620038343593478E-003;
2.423000000000000E+009;1.486667245626450E-001;-9.977706521749497E-002;-2.883866894990206E-003;2.601083368062973E-003;
2.423166666666667E+009;1.491988152265549E-001;-1.013109982013702E-001;-2.716604387387633E-003;2.746446989476681E-003;
2.423333333333334E+009;1.497989743947983E-001;-1.026981025934219E-001;-2.453202148899436E-003;2.838362473994494E-003;
2.423500000000000E+009;1.502374261617661E-001;-1.043595746159554E-001;-2.436150563880801E-003;2.987988758832216E-003;
2.423666666666667E+009;1.507987976074219E-001;-1.060477271676064E-001;-2.260172739624977E-003;3.227493958547711E-003;
2.423833333333334E+009;1.514463573694229E-001;-1.074898242950440E-001;-1.990298973396421E-003;3.084382507950068E-003;
2.424000000000000E+009;1.520747244358063E-001;-1.084560155868530E-001;-1.955676591023803E-003;3.146389499306679E-003;
2.424166666666667E+009;1.526610404253006E-001;-1.096235066652298E-001;-1.690815784968436E-003;3.237727330997586E-003;
2.424333333333334E+009;1.534798443317413E-001;-1.107385307550430E-001;-1.388023607432842E-003;3.374657360836864E-003;
2.424500000000000E+009;1.541644334793091E-001;-1.117883920669556E-001;-1.289177569560707E-003;3.336868481710553E-003;
2.424666666666667E+009;1.548672914505005E-001;-1.125470399856567E-001;-9.685109835118055E-004;3.505107481032610E-003;
2.424833333333334E+009;1.552593111991882E-001;-1.134150549769402E-001;-8.611132507212460E-004;3.330542938783765E-003;
2.425000000000000E+009;1.559561342000961E-001;-1.142200529575348E-001;-5.700579495169222E-004;3.307720180600882E-003;
2.425166666666667E+009;1.563983410596848E-001;-1.148654296994209E-001;-4.148741427343339E-004;3.187482710927725E-003;
2.425333333333334E+009;1.569192409515381E-001;-1.154046058654785E-001;-3.387764736544341E-004;3.247528802603483E-003;
2.425500000000000E+009;1.574225872755051E-001;-1.159188523888588E-001;-7.455415470758453E-005;3.004270838573575E-003;
2.425666666666667E+009;1.574769467115402E-001;-1.163104102015495E-001;6.266799914556032E-007;3.118309192359448E-003;
2.425833333333334E+009;1.578363627195358E-001;-1.165919154882431E-001;2.920687256846577E-004;3.007519058883190E-003;
2.426000000000000E+009;1.580763310194016E-001;-1.169572919607163E-001;1.691845682216808E-004;2.911074552685022E-003;
2.426166666666667E+009;1.582853943109512E-001;-1.171603277325630E-001;4.143644182477146E-004;2.651873510330916E-003;
2.426333333333334E+009;1.581906229257584E-001;-1.170986071228981E-001;6.439178250730038E-004;2.505511976778507E-003;
2.426500000000000E+009;1.581229120492935E-001;-1.171948239207268E-001;7.685888558626175E-004;2.430469729006290E-003;
2.426666666666667E+009;1.580239236354828E-001;-1.171742752194405E-001;8.126671309582889E-004;2.359886420890689E-003;
2.426833333333334E+009;1.576001644134522E-001;-1.171646490693092E-001;8.815319160930812E-004;2.218465320765972E-003;
2.427000000000000E+009;1.571527421474457E-001;-1.173177063465118E-001;9.591412963345647E-004;2.216266002506018E-003;
2.427166666666667E+009;1.566187143325806E-001;-1.171449422836304E-001;9.519226150587201E-004;1.959693152457476E-003;
2.427333333333334E+009;1.559141725301743E-001;-1.171145215630531E-001;1.075527514331043E-003;1.761791878379881E-003;
2.427500000000000E+009;1.552516818046570E-001;-1.170718073844910E-001;1.120020519010723E-003;1.709726057015359E-003;
2.427666666666667E+009;1.543325334787369E-001;-1.171047464013100E-001;1.054756692610681E-003;1.512685441412032E-003;
