# Version 1.00
#
freq[Hz];re:Trc1_S11;im:Trc1_S11;re:Trc2_S21;im:Trc2_S21;
2.400000000000000E+009;1.543543487787247E-001;6.132722645998001E-002;3.851246088743210E-003;2.252908656373620E-003;
2.400166666666667E+009;1.543438732624054E-001;5.929023027420044E-002;3.962203860282898E-003;2.164380857720971E-003;
2.400333333333334E+009;1.542246490716934E-001;5.714659020304680E-002;4.102444276213646E-003;2.117841504514217E-003;
2.400500000000000E+009;1.543992161750794E-001;5.506765469908714E-002;4.022819921374321E-003;1.807438093237579E-003;
2.400666666666667E+009;1.545244604349136E-001;5.283716320991516E-002;3.935270942747593E-003;1.771744573488832E-003;
2.400833333333334E+009;1.548323631286621E-001;5.066290497779846E-002;3.968991339206696E-003;1.678007072769105E-003;
2.401000000000000E+009;1.551354676485062E-001;4.844210669398308E-002;4.169026389718056E-003;1.579344389028847E-003;
2.401166666666667E+009;1.558294743299484E-001;4.607788100838661E-002;4.071969073265791E-003;1.556207658722997E-003;
2.401333333333334E+009;1.560451537370682E-001;4.374414309859276E-002;4.026500508189201E-003;1.231511123478413E-003;
2.401500000000000E+009;1.567941457033157E-001;4.173303022980690E-002;4.104945342987776E-003;1.147281378507614E-003;
2.401666666666667E+009;1.572096049785614E-001;3.967404365539551E-002;4.101991653442383E-003;1.076804357580841E-003;
2.401833333333334E+009;1.580700278282166E-001;3.741326928138733E-002;4.100980237126350E-003;9.837249526754022E-004;
2.402000000000000E+009;1.587422490119934E-001;3.559129312634468E-002;4.180571995675564E-003;7.996378117240965E-004;
2.402166666666667E+009;1.595359742641449E-001;3.332142904400826E-002;4.139898344874382E-003;9.457320556975901E-004;
2.402333333333334E+009;1.604484319686890E-001;3.166248276829720E-002;4.068708512932062E-003;5.978919216431677E-004;
2.402500000000000E+009;1.615832746028900E-001;2.971179224550724E-002;4.081483464688063E-003;5.659754970110953E-004;
2.402666666666667E+009;1.623866558074951E-001;2.830565348267555E-002;4.031481221318245E-003;6.111637339927256E-004;
2.402833333333334E+009;1.634385138750076E-001;2.670484222471714E-002;4.164378158748150E-003;6.481344462372363E-004;
2.403000000000000E+009;1.645075231790543E-001;2.508993074297905E-002;4.081072285771370E-003;3.832634829450399E-004;
2.403166666666667E+009;1.657441407442093E-001;2.362326346337795E-002;4.106688313186169E-003;3.013769746758044E-004;
2.403333333333334E+009;1.668718755245209E-001;2.234101295471191E-002;4.103547893464565E-003;2.160872245440260E-004;
2.403500000000000E+009;1.680538207292557E-001;2.118949778378010E-002;4.225112497806549E-003;3.630355058703572E-005;
2.403666666666667E+009;1.691925078630447E-001;1.998753286898136E-002;4.256593063473702E-003;6.831684731878340E-005;
2.403833333333334E+009;1.703067421913147E-001;1.904291659593582E-002;4.225068725645542E-003;-2.174871406168677E-005;
2.404000000000000E+009;1.716005057096481E-001;1.805530115962029E-002;4.032148979604244E-003;4.189607352600433E-005;
2.404166666666667E+009;1.726446598768234E-001;1.705672033131123E-002;4.159023985266686E-003;-2.119731361744925E-004;
2.404333333333334E+009;1.737329959869385E-001;1.652579195797443E-002;4.135229624807835E-003;-2.615297853481025E-004;
2.404500000000000E+009;1.747188270092011E-001;1.571580395102501E-002;4.118548240512610E-003;-4.317541606724262E-004;
2.404666666666667E+009;1.757429242134094E-001;1.526474300771952E-002;4.222973249852657E-003;-7.400554022751749E-004;
2.404833333333334E+009;1.766617894172669E-001;1.489575859159231E-002;4.164497833698988E-003;-7.116427295841277E-004;
2.405000000000000E+009;1.774803102016449E-001;1.422229502350092E-002;4.236514214426279E-003;-8.812273736111820E-004;
2.405166666666667E+009;1.784169077873230E-001;1.385296601802111E-002;4.228241741657257E-003;-1.189705100841820E-003;
2.405333333333334E+009;1.790841817855835E-001;1.364804990589619E-002;4.338212311267853E-003;-9.969600941985846E-004;
2.405500000000000E+009;1.798665523529053E-001;1.342932321131229E-002;4.084612242877483E-003;-1.202964922413230E-003;
2.405666666666667E+009;1.802032589912415E-001;1.335815060883761E-002;4.234808497130871E-003;-1.368250697851181E-003;
2.405833333333334E+009;1.805518269538879E-001;1.332633197307587E-002;4.243074916303158E-003;-1.543493242934346E-003;
2.406000000000000E+009;1.811918169260025E-001;1.294664479792118E-002;3.976397681981325E-003;-1.583222532644868E-003;
2.406166666666667E+009;1.812600791454315E-001;1.303624268621206E-002;4.173475783318281E-003;-1.697790808975697E-003;
2.406333333333334E+009;1.816150695085526E-001;1.282245758920908E-002;4.088739864528179E-003;-1.834982889704406E-003;
2.406500000000000E+009;1.815565228462219E-001;1.257566176354885E-002;4.117606673389673E-003;-1.948288292624056E-003;
2.406666666666667E+009;1.814613491296768E-001;1.268251612782478E-002;3.929223399609327E-003;-2.024715766310692E-003;
2.406833333333334E+009;1.812782138586044E-001;1.237156148999929E-002;3.770885057747364E-003;-2.300677588209510E-003;
2.407000000000000E+009;1.811699718236923E-001;1.212435960769653E-002;3.814840689301491E-003;-2.281548222526908E-003;
2.407166666666667E+009;1.809562444686890E-001;1.205690111964941E-002;3.938882611691952E-003;-2.415572991594672E-003;
2.407333333333334E+009;1.804083883762360E-001;1.151132304221392E-002;3.726510331034660E-003;-2.427229192107916E-003;
2.407500000000000E+009;1.800975203514099E-001;1.113382168114185E-002;3.651461796835065E-003;-2.674608724191785E-003;
2.407666666666667E+009;1.795087754726410E-001;1.073394622653723E-002;3.672780469059944E-003;-2.773132408037782E-003;
2.407833333333334E+009;1.788088530302048E-001;1.007522922009230E-002;3.600447438657284E-003;-2.761020790785551E-003;
2.408000000000000E+009;1.782271862030029E-001;9.315564297139645E-003;3.648348152637482E-003;-3.012030152603984E-003;
2.408166666666667E+009;1.774385720491409E-001;8.746651001274586E-003;3.476612037047744E-003;-2.979246433824301E-003;
2.408333333333334E+009;1.769412606954575E-001;7.773627992719412E-003;3.507849294692278E-003;-3.186549525707960E-003;
2.408500000000000E+009;1.758599877357483E-001;6.749154534190893E-003;3.425683593377471E-003;-3.253754694014788E-003;
2.408666666666667E+009;1.750198751688004E-001;5.611944012343884E-003;3.315202426165342E-003;-3.544178791344166E-003;
2.408833333333334E+009;1.741689145565033E-001;4.546786192804575E-003;3.265827195718885E-003;-3.466490888968110E-003;
2.409000000000000E+009;1.733194738626480E-001;3.343826625496149E-003;3.088809782639146E-003;-3.760607680305839E-003;
2.409166666666667E+009;1.724094301462174E-001;1.949272002093494E-003;2.914134180173278E-003;-3.773067612200975E-003;
2.409333333333334E+009;1.717043220996857E-001;4.016051534563303E-004;2.831564052030444E-003;-3.886457066982985E-003;
2.409500000000000E+009;1.709570139646530E-001;-1.142386114224792E-003;2.931232796981931E-003;-3.903941716998816E-003;
2.409666666666667E+009;1.699377149343491E-001;-2.812745282426477E-003;2.833161270245910E-003;-4.018146079033613E-003;
2.409833333333334E+009;1.692083477973938E-001;-4.460841882973909E-003;2.684117527678609E-003;-4.293619189411402E-003;
2.410000000000000E+009;1.686467230319977E-001;-6.129838991910219E-003;2.492498606443405E-003;-4.301054868847132E-003;
2.410166666666667E+009;1.680752038955689E-001;-8.126141503453255E-003;2.408887259662151E-003;-4.519124049693346E-003;
2.410333333333334E+009;1.674476414918900E-001;-1.004402991384268E-002;2.398008713498712E-003;-4.608612041920424E-003;
2.410500000000000E+009;1.668585240840912E-001;-1.199328806251288E-002;2.119180513545871E-003;-4.706989508122206E-003;
2.410666666666667E+009;1.664179116487503E-001;-1.412688847631216E-002;1.966116251423955E-003;-4.743857774883509E-003;
2.410833333333334E+009;1.661931872367859E-001;-1.614401303231716E-002;1.799881807528436E-003;-4.768609069287777E-003;
2.411000000000000E+009;1.658550500869751E-001;-1.821628957986832E-002;1.682529342360795E-003;-5.005178041756153E-003;
2.411166666666667E+009;1.658884882926941E-001;-2.039760164916515E-002;1.421974739059806E-003;-5.264171399176121E-003;
2.411333333333334E+009;1.656435579061508E-001;-2.255964092910290E-002;1.286919927224517E-003;-5.108047742396593E-003;
2.411500000000000E+009;1.655005365610123E-001;-2.468732744455338E-002;1.090330537408590E-003;-5.245166830718517E-003;
2.411666666666667E+009;1.658482849597931E-001;-2.684899047017098E-002;7.916513714008033E-004;-5.397970788180828E-003;
2.411833333333334E+009;1.660602390766144E-001;-2.893763966858387E-002;6.658011698164046E-004;-5.288003012537956E-003;
2.412000000000000E+009;1.663965135812759E-001;-3.098305314779282E-002;3.917128778994083E-004;-5.442354828119278E-003;
2.412166666666667E+009;1.666325479745865E-001;-3.311688452959061E-002;8.587128832004964E-005;-5.425531882792711E-003;
2.412333333333334E+009;1.673506498336792E-001;-3.500418365001679E-002;-1.143805347965099E-004;-5.538903176784515E-003;
2.412500000000000E+009;1.676687598228455E-001;-3.698701038956642E-002;-3.394518862478435E-004;-5.362767260521650E-003;
2.412666666666667E+009;1.682454049587250E-001;-3.883508220314980E-002;-5.118608241900802E-004;-5.369276273995638E-003;
2.412833333333334E+009;1.689507216215134E-001;-4.078039154410362E-002;-9.514148114249110E-004;-5.394190084189177E-003;
2.413000000000000E+009;1.696751713752747E-001;-4.251890629529953E-002;-1.040779985487461E-003;-5.210259463638067E-003;
2.413166666666667E+009;1.702282577753067E-001;-4.395553842186928E-002;-1.292617642320693E-003;-5.159656982868910E-003;
2.413333333333334E+009;1.709155291318893E-001;-4.576387256383896E-002;-1.408334472216666E-003;-5.307261366397142E-003;
2.413500000000000E+009;1.717675626277924E-001;-4.727828130126000E-002;-1.669092802330852E-003;-5.129011813551188E-003;
2.413666666666667E+009;1.725699901580811E-001;-4.882920905947685E-002;-2.035679528489709E-003;-5.030654370784760E-003;
2.413833333333334E+009;1.733392626047134E-001;-4.999059811234474E-002;-2.253184095025063E-003;-4.783476237207651E-003;
2.414000000000000E+009;1.740340590476990E-001;-5.118266865611076E-002;-2.273581223562360E-003;-4.749144427478313E-003;
2.414166666666667E+009;1.748560369014740E-001;-5.232244729995728E-002;-2.442510798573494E-003;-4.550337791442871E-003;
2.414333333333334E+009;1.755541115999222E-001;-5.363220348954201E-002;-2.794939791783691E-003;-4.431511275470257E-003;
2.414500000000000E+009;1.764012277126312E-001;-5.428370460867882E-002;-2.909829374402762E-003;-4.370680078864098E-003;
2.414666666666667E+009;1.769494861364365E-001;-5.509217083454132E-002;-2.910693176090717E-003;-4.202299751341343E-003;
2.414833333333334E+009;1.775750815868378E-001;-5.587494745850563E-002;-3.026852849870920E-003;-4.187198355793953E-003;
2.415000000000000E+009;1.780929416418076E-001;-5.631346628069878E-002;-3.254231065511704E-003;-3.779168706387281E-003;
2.415166666666667E+009;1.784856468439102E-001;-5.692589282989502E-002;-3.454744350165129E-003;-3.888458479195833E-003;
2.415333333333334E+009;1.790572404861450E-001;-5.755474418401718E-002;-3.431363264098764E-003;-3.615715075284243E-003;
2.415500000000000E+009;1.793122887611389E-001;-5.777982249855995E-002;-3.446873044595122E-003;-3.457960672676563E-003;
2.415666666666667E+009;1.794482320547104E-001;-5.794802680611610E-002;-3.577244235202670E-003;-3.361021634191275E-003;
2.415833333333334E+009;1.797869056463242E-001;-5.830644816160202E-002;-3.760337131097913E-003;-3.111652098596096E-003;
2.416000000000000E+009;1.796925365924835E-001;-5.844173952937126E-002;-3.799640573561192E-003;-2.934726653620601E-003;
2.416166666666667E+009;1.797385215759277E-001;-5.854040756821632E-002;-3.927980083972216E-003;-2.813587663695216E-003;
2.416333333333334E+009;1.795252561569214E-001;-5.857245251536369E-002;-4.066935740411282E-003;-2.680052304640412E-003;
2.416500000000000E+009;1.792273074388504E-001;-5.866724997758865E-002;-4.112806171178818E-003;-2.553995698690414E-003;
2.416666666666667E+009;1.789063811302185E-001;-5.862889066338539E-002;-4.091494716703892E-003;-2.271808451041579E-003;
2.416833333333334E+009;1.785234063863754E-001;-5.877770483493805E-002;-4.070182796567679E-003;-2.111811656504870E-003;
2.417000000000000E+009;1.776133328676224E-001;-5.880985036492348E-002;-4.285175353288651E-003;-2.000902080908418E-003;
2.417166666666667E+009;1.770686358213425E-001;-5.879225954413414E-002;-4.216607194393873E-003;-1.915585598908365E-003;
2.417333333333334E+009;1.762820333242416E-001;-5.886438861489296E-002;-4.082496743649244E-003;-1.573514193296433E-003;
2.417500000000000E+009;1.753437072038651E-001;-5.908662453293800E-002;-4.185477737337351E-003;-1.426372560672462E-003;
2.417666666666667E+009;1.746200621128082E-001;-5.915055423974991E-002;-4.319285042583942E-003;-1.301829935982823E-003;
2.417833333333334E+009;1.733831912279129E-001;-5.935470014810562E-002;-4.247560631483793E-003;-1.041868119500577E-003;
2.418000000000000E+009;1.722399890422821E-001;-5.971082672476769E-002;-4.194200038909912E-003;-1.002386445179582E-003;
2.418166666666667E+009;1.710189729928970E-001;-5.988064035773277E-002;-4.121172707527876E-003;-8.011915488168597E-004;
2.418333333333334E+009;1.699392944574356E-001;-6.036674603819847E-002;-4.056531935930252E-003;-7.921666256152093E-004;
2.418500000000000E+009;1.684529483318329E-001;-6.077162921428680E-002;-4.162036813795567E-003;-6.664226530119777E-004;
2.418666666666667E+009;1.672914326190949E-001;-6.135657802224159E-002;-4.080571234226227E-003;-5.843180697411299E-004;
2.418833333333334E+009;1.656585931777954E-001;-6.202498078346252E-002;-4.044783767312765E-003;-4.622234264388681E-004;
2.419000000000000E+009;1.644334048032761E-001;-6.266871839761734E-002;-3.969482146203518E-003;-4.141234676353633E-004;
2.419166666666667E+009;1.629509776830673E-001;-6.369085609912872E-002;-3.924927208572626E-003;-1.855477457866073E-004;
2.419333333333334E+009;1.614605039358139E-001;-6.431625783443451E-002;-3.967773169279099E-003;-1.706575130810961E-004;
2.419500000000000E+009;1.600771099328995E-001;-6.560099869966507E-002;-4.092123825103045E-003;-1.339522532362025E-005;
2.419666666666667E+009;1.589235812425613E-001;-6.663838773965836E-002;-3.989509306848049E-003;2.749880150076933E-005;
2.419833333333334E+009;1.575814187526703E-001;-6.775237619876862E-002;-4.010485485196114E-003;2.696071460377425E-004;
2.420000000000000E+009;1.564147770404816E-001;-6.907356530427933E-002;-3.942520823329687E-003;2.447677252348512E-004;
2.420166666666667E+009;1.550569683313370E-001;-7.027793675661087E-002;-3.873173147439957E-003;3.739794192370027E-004;
2.420333333333334E+009;1.539598107337952E-001;-7.171664386987686E-002;-3.986665513366461E-003;5.940199480392039E-004;
2.420500000000000E+009;1.530583053827286E-001;-7.330299168825150E-002;-3.912745043635368E-003;5.415432970039547E-004;
2.420666666666667E+009;1.520263999700546E-001;-7.470145821571350E-002;-3.885898040607572E-003;8.663088083267212E-004;
2.420833333333334E+009;1.511019915342331E-001;-7.651425898075104E-002;-3.958979621529579E-003;8.634846890345216E-004;
2.421000000000000E+009;1.502306312322617E-001;-7.807728648185730E-002;-3.859930671751499E-003;1.009419560432434E-003;
2.421166666666667E+009;1.496629267930985E-001;-7.992091029882431E-002;-3.867920488119125E-003;1.091203768737614E-003;
2.421333333333334E+009;1.491961479187012E-001;-8.165729045867920E-002;-3.829782595857978E-003;1.266657607629895E-003;
2.421500000000000E+009;1.484483331441879E-001;-8.341251313686371E-002;-3.869184060022235E-003;1.408536452800036E-003;
2.421666666666667E+009;1.482058316469193E-001;-8.523479104042053E-002;-3.737737191841006E-003;1.518937060609460E-003;
2.421833333333334E+009;1.480601578950882E-001;-8.702581375837326E-002;-3.653885331004858E-003;1.835207338444889E-003;
2.422000000000000E+009;1.477492749691010E-001;-8.901924639940262E-002;-3.496178891509771E-003;1.788110821507871E-003;
2.422166666666667E+009;1.477400064468384E-001;-9.098386764526367E-002;-3.470496274530888E-003;1.896817819215357E-003;
2.422333333333334E+009;1.477480381727219E-001;-9.269334375858307E-002;-3.417957574129105E-003;2.063186839222908E-003;
2.422500000000000E+009;1.477328240871429E-001;-9.441067278385162E-002;-3.338159061968327E-003;2.213512081652880E-003;
2.422666666666667E+009;1.480669826269150E-001;-9.624817967414856E-002;-3.315585432574153E-003;2.305976580828428E-003;
2.422833333333334E+009;1.483061909675598E-001;-9.804731607437134E-002;-3.183433553203940E-003;2.701881807297468E-003;
2.423000000000000E+009;1.487812250852585E-001;-9.964109957218170E-002;-2.955574076622725E-003;2.745806472375989E-003;
2.423166666666667E+009;1.491519510746002E-001;-1.013985946774483E-001;-2.858472289517522E-003;2.962030004709959E-003;
2.423333333333334E+009;1.498172283172607E-001;-1.029662862420082E-001;-2.714830916374922E-003;3.226042259484530E-003;
2.423500000000000E+009;1.502657830715179E-001;-1.044442504644394E-001;-2.517462242394686E-003;3.244982101023197E-003;
2.423666666666667E+009;1.507315486669540E-001;-1.059930399060249E-001;-2.337277168408036E-003;3.233428811654449E-003;
2.423833333333334E+009;1.515020281076431E-001;-1.072866544127464E-001;-2.167814411222935E-003;3.518941579386592E-003;
2.424000000000000E+009;1.519689112901688E-001;-1.086578071117401E-001;-1.919994479976594E-003;3.535439260303974E-003;
2.424166666666667E+009;1.526784896850586E-001;-1.096882075071335E-001;-1.681450055912137E-003;3.565184073522687E-003;
2.424333333333334E+009;1.533463597297669E-001;-1.108358278870583E-001;-1.486708875745535E-003;3.673462662845850E-003;
2.424500000000000E+009;1.540942192077637E-001;-1.117858886718750E-001;-1.194431097246707E-003;3.769902978092432E-003;
2.424666666666667E+009;1.547608375549316E-001;-1.124693080782890E-001;-1.014095963910222E-003;3.778551006689668E-003;
2.424833333333334E+009;1.553107500076294E-001;-1.134371310472488E-001;-8.519669645465910E-004;3.697159234434366E-003;
2.425000000000000E+009;1.558904051780701E-001;-1.143733188509941E-001;-5.661812028847635E-004;3.502492327243090E-003;
2.425166666666667E+009;1.563050001859665E-001;-1.148297861218453E-001;-4.148996958974749E-004;3.647373290732503E-003;
2.425333333333334E+009;1.568672508001328E-001;-1.153289452195168E-001;-2.673440030775964E-004;3.596678143367171E-003;
2.425500000000000E+009;1.573098301887512E-001;-1.159806326031685E-001;8.756057650316507E-005;3.425745526328683E-003;
2.425666666666667E+009;1.574514955282211E-001;-1.163388341665268E-001;1.370388345094398E-004;3.316800575703383E-003;
2.425833333333334E+009;1.576056331396103E-001;-1.165189146995544E-001;3.796551900450140E-004;3.216624492779374E-003;
2.426000000000000E+009;1.578515172004700E-001;-1.168875098228455E-001;4.641946579795331E-004;3.080141264945269E-003;
2.426166666666667E+009;1.582094132900238E-001;-1.170345321297646E-001;4.917976912111044E-004;2.859511179849505E-003;
2.426333333333334E+009;1.581353545188904E-001;-1.172110065817833E-001;7.345945923589170E-004;2.911658957600594E-003;
2.426500000000000E+009;1.580319404602051E-001;-1.171718388795853E-001;8.399162907153368E-004;2.639760030433536E-003;
2.426666666666667E+009;1.580628007650375E-001;-1.170529499650002E-001;9.421127615496516E-004;2.492906758561730E-003;
2.426833333333334E+009;1.576112657785416E-001;-1.171834468841553E-001;9.585091029293835E-004;2.506563672795892E-003;
2.427000000000000E+009;1.571568548679352E-001;-1.172251999378204E-001;1.104045310057700E-003;2.348301699385047E-003;
2.427166666666667E+009;1.565982550382614E-001;-1.170554235577583E-001;1.019064919091761E-003;2.085660351440311E-003;
2.427333333333334E+009;1.558236181735992E-001;-1.171498075127602E-001;1.059961505234242E-003;2.004152862355113E-003;
2.427500000000000E+009;1.551820188760757E-001;-1.170236393809319E-001;1.214232528582215E-003;1.864436897449195E-003;
2.427666666666667E+009;1.543730944395065E-001;-1.169871389865875E-001;1.239677658304572E-003;1.772120478563011E-003;
