# Version 1.00
#
freq[Hz];re:Trc1_S11;im:Trc1_S11;re:Trc2_S21;im:Trc2_S21;
2.400000000000000E+009;1.545202434062958E-001;6.119777262210846E-002;3.877210430800915E-003;2.434667199850082E-003;
2.400166666666667E+009;1.543527841567993E-001;5.936508625745773E-002;3.959225490689278E-003;2.445434220135212E-003;
2.400333333333334E+009;1.542674303054810E-001;5.702337622642517E-002;3.936011809855700E-003;2.315147779881954E-003;
2.400500000000000E+009;1.545077264308929E-001;5.491430684924126E-002;4.006631672382355E-003;2.138768322765827E-003;
2.400666666666667E+009;1.546514928340912E-001;5.251498520374298E-002;4.027599003165960E-003;2.044144552201033E-003;
2.400833333333334E+009;1.549967080354691E-001;5.057108774781227E-002;3.979973960667849E-003;1.784280058927834E-003;
2.401000000000000E+009;1.553028225898743E-001;4.801782593131065E-002;4.114514682441950E-003;1.803426654078066E-003;
2.401166666666667E+009;1.556862592697144E-001;4.581755772233009E-002;4.171691834926605E-003;1.712485449388623E-003;
2.401333333333334E+009;1.560198068618774E-001;4.358863830566406E-002;4.042430315166712E-003;1.499815727584064E-003;
2.401500000000000E+009;1.568206250667572E-001;4.177532717585564E-002;4.193828906863928E-003;1.369803096167743E-003;
2.401666666666667E+009;1.571530401706696E-001;3.947332873940468E-002;4.142939578741789E-003;1.296473550610244E-003;
2.401833333333334E+009;1.580187678337097E-001;3.733103349804878E-002;4.245825577527285E-003;1.150556607171893E-003;
2.402000000000000E+009;1.585955917835236E-001;3.530587628483772E-002;4.105333704501391E-003;9.818554390221834E-004;
2.402166666666667E+009;1.596470773220062E-001;3.334500640630722E-002;4.153933376073837E-003;9.391421917825937E-004;
2.402333333333334E+009;1.603353619575501E-001;3.157765418291092E-002;4.263203125447035E-003;6.716515636071563E-004;
2.402500000000000E+009;1.614705175161362E-001;2.964712306857109E-002;4.206010606139898E-003;8.201646851375699E-004;
2.402666666666667E+009;1.623779386281967E-001;2.818552963435650E-002;4.032861441373825E-003;6.633978919126093E-004;
2.402833333333334E+009;1.634485423564911E-001;2.655360661447048E-002;4.232373088598251E-003;6.219376809895039E-004;
2.403000000000000E+009;1.644655615091324E-001;2.507582679390907E-002;4.225030075758696E-003;3.817474062088877E-004;
2.403166666666667E+009;1.657240241765976E-001;2.351146563887596E-002;4.250799771398306E-003;3.278421063441783E-004;
2.403333333333334E+009;1.668730676174164E-001;2.235119789838791E-002;4.222705028951168E-003;2.902544219978154E-004;
2.403500000000000E+009;1.679158806800842E-001;2.098426781594753E-002;4.227731376886368E-003;2.768471604213119E-004;
2.403666666666667E+009;1.692523658275604E-001;1.989761181175709E-002;4.199526272714138E-003;2.164122124668211E-004;
2.403833333333334E+009;1.702437251806259E-001;1.897039823234081E-002;4.103614483028650E-003;3.521730832289904E-006;
2.404000000000000E+009;1.714815795421600E-001;1.802495308220387E-002;4.208429716527462E-003;-1.792468101484701E-004;
2.404166666666667E+009;1.725164055824280E-001;1.718052662909031E-002;4.350572824478149E-003;-3.914574335794896E-004;
2.404333333333334E+009;1.736539155244827E-001;1.664068922400475E-002;4.126366227865219E-003;-3.271682944614440E-004;
2.404500000000000E+009;1.745154857635498E-001;1.575363241136074E-002;4.351659677922726E-003;-3.790987248066813E-004;
2.404666666666667E+009;1.755761355161667E-001;1.523085404187441E-002;4.217634908854961E-003;-5.265112849883735E-004;
2.404833333333334E+009;1.766480654478073E-001;1.477525010704994E-002;4.233526065945625E-003;-6.002363516017795E-004;
2.405000000000000E+009;1.775121986865997E-001;1.441222708672285E-002;4.289531148970127E-003;-8.572243386879563E-004;
2.405166666666667E+009;1.782070249319077E-001;1.403890550136566E-002;4.330097697675228E-003;-9.102043113671243E-004;
2.405333333333334E+009;1.791897416114807E-001;1.363159995526075E-002;4.206612706184387E-003;-8.983717416413128E-004;
2.405500000000000E+009;1.797754764556885E-001;1.353262737393379E-002;4.245961550623179E-003;-1.202407409437001E-003;
2.405666666666667E+009;1.802788525819778E-001;1.341668516397476E-002;4.332394804805517E-003;-1.212759991176426E-003;
2.405833333333334E+009;1.806874126195908E-001;1.326988730579615E-002;4.335508216172457E-003;-1.359086018055677E-003;
2.406000000000000E+009;1.810627281665802E-001;1.302582491189241E-002;4.186685197055340E-003;-1.538751763291657E-003;
2.406166666666667E+009;1.811971664428711E-001;1.300008781254292E-002;4.038162529468536E-003;-1.469809794798493E-003;
2.406333333333334E+009;1.815776824951172E-001;1.283227279782295E-002;4.136499948799610E-003;-1.725339330732822E-003;
2.406500000000000E+009;1.816384792327881E-001;1.281103305518627E-002;3.974835388362408E-003;-1.863572979345918E-003;
2.406666666666667E+009;1.813945025205612E-001;1.276529766619206E-002;4.079666454344988E-003;-2.005969407036901E-003;
2.406833333333334E+009;1.812846213579178E-001;1.236826274544001E-002;4.091539885848761E-003;-1.972352154552937E-003;
2.407000000000000E+009;1.811430603265762E-001;1.229564752429724E-002;4.019143059849739E-003;-2.079353434965015E-003;
2.407166666666667E+009;1.810993701219559E-001;1.212072931230068E-002;3.795418888330460E-003;-2.248895820230246E-003;
2.407333333333334E+009;1.804483979940414E-001;1.158926449716091E-002;3.780666505917907E-003;-2.336811274290085E-003;
2.407500000000000E+009;1.800360381603241E-001;1.123720221221447E-002;3.767893183976412E-003;-2.476181834936142E-003;
2.407666666666667E+009;1.794191151857376E-001;1.088151801377535E-002;3.667730605229735E-003;-2.569063799455762E-003;
2.407833333333334E+009;1.787172704935074E-001;1.014960557222366E-002;3.699622349813581E-003;-2.750018378719688E-003;
2.408000000000000E+009;1.781933605670929E-001;9.412242099642754E-003;3.681944217532873E-003;-2.750234678387642E-003;
2.408166666666667E+009;1.773548126220703E-001;8.871926926076412E-003;3.585655707865953E-003;-2.904266817495227E-003;
2.408333333333334E+009;1.768596470355988E-001;8.011677302420139E-003;3.542299848049879E-003;-3.247544867917895E-003;
2.408500000000000E+009;1.758886724710465E-001;6.925797089934349E-003;3.445342415943742E-003;-3.154942067340016E-003;
2.408666666666667E+009;1.751437783241272E-001;5.799439270049334E-003;3.270486136898398E-003;-3.329445607960224E-003;
2.408833333333334E+009;1.742352396249771E-001;4.643858876079321E-003;3.432960016652942E-003;-3.502560779452324E-003;
2.409000000000000E+009;1.733546704053879E-001;3.464588196948171E-003;3.277297364547849E-003;-3.604077268391848E-003;
2.409166666666667E+009;1.726260632276535E-001;2.146106446161866E-003;3.207585541531444E-003;-3.606273559853435E-003;
2.409333333333334E+009;1.716912686824799E-001;4.885426606051624E-004;3.057644469663501E-003;-3.850942011922598E-003;
2.409500000000000E+009;1.709181219339371E-001;-1.085467287339270E-003;2.827228046953678E-003;-3.920308314263821E-003;
2.409666666666667E+009;1.700955033302307E-001;-2.708438085392118E-003;2.821734175086021E-003;-4.022746812552214E-003;
2.409833333333334E+009;1.693358868360519E-001;-4.328766372054815E-003;2.766245976090431E-003;-4.173286259174347E-003;
2.410000000000000E+009;1.685618311166763E-001;-6.067700218409300E-003;2.670513233169913E-003;-4.252223297953606E-003;
2.410166666666667E+009;1.680146455764771E-001;-7.977712899446487E-003;2.446715719997883E-003;-4.499774891883135E-003;
2.410333333333334E+009;1.674388200044632E-001;-1.003627944737673E-002;2.350423485040665E-003;-4.615139681845903E-003;
2.410500000000000E+009;1.671052426099777E-001;-1.188369654119015E-002;2.236467553302646E-003;-4.773029126226902E-003;
2.410666666666667E+009;1.663724631071091E-001;-1.409103721380234E-002;2.143858000636101E-003;-4.792211111634970E-003;
2.410833333333334E+009;1.663791090250015E-001;-1.600340381264687E-002;2.042434178292751E-003;-4.957217257469893E-003;
2.411000000000000E+009;1.658619493246079E-001;-1.813050918281078E-002;1.825553947128356E-003;-4.994971677660942E-003;
2.411166666666667E+009;1.657526493072510E-001;-2.032106742262840E-002;1.589139923453331E-003;-5.176067817956209E-003;
2.411333333333334E+009;1.658196747303009E-001;-2.253671921789646E-002;1.452572876587510E-003;-5.172301549464464E-003;
2.411500000000000E+009;1.657764315605164E-001;-2.462090365588665E-002;1.233707414940000E-003;-5.366967525333166E-003;
2.411666666666667E+009;1.661174893379211E-001;-2.681872434914112E-002;8.903607376851142E-004;-5.314776673913002E-003;
2.411833333333334E+009;1.662009209394455E-001;-2.885633148252964E-002;6.032050005160272E-004;-5.308554973453283E-003;
2.412000000000000E+009;1.664786338806152E-001;-3.101285360753536E-002;4.944489919580519E-004;-5.472488701343536E-003;
2.412166666666667E+009;1.666823923587799E-001;-3.305014967918396E-002;3.927648067474365E-004;-5.560623016208410E-003;
2.412333333333334E+009;1.674213856458664E-001;-3.502801805734634E-002;1.809362147469074E-004;-5.500496365129948E-003;
2.412500000000000E+009;1.677601486444473E-001;-3.671582415699959E-002;-7.767743227304891E-005;-5.576120689511299E-003;
2.412666666666667E+009;1.683446019887924E-001;-3.905519843101502E-002;-4.453320871107280E-004;-5.467041861265898E-003;
2.412833333333334E+009;1.691767275333405E-001;-4.087211564183235E-002;-7.557692588306963E-004;-5.486121866852045E-003;
2.413000000000000E+009;1.696740239858627E-001;-4.264332354068756E-002;-9.061056771315634E-004;-5.271290894597769E-003;
2.413166666666667E+009;1.702520549297333E-001;-4.414021223783493E-002;-1.118140411563218E-003;-5.167322698980570E-003;
2.413333333333334E+009;1.711369156837463E-001;-4.586775228381157E-002;-1.411084667779505E-003;-5.298762582242489E-003;
2.413500000000000E+009;1.718735843896866E-001;-4.741206765174866E-002;-1.582051394507289E-003;-5.197080317884684E-003;
2.413666666666667E+009;1.727246344089508E-001;-4.886220395565033E-002;-1.766939298249781E-003;-5.083152558654547E-003;
2.413833333333334E+009;1.733359545469284E-001;-5.017150938510895E-002;-1.995013095438480E-003;-5.230629350990057E-003;
2.414000000000000E+009;1.740409582853317E-001;-5.141553655266762E-002;-2.194510307163000E-003;-4.998440854251385E-003;
2.414166666666667E+009;1.749999076128006E-001;-5.255049467086792E-002;-2.274855505675077E-003;-4.695354960858822E-003;
2.414333333333334E+009;1.754709184169769E-001;-5.355921760201454E-002;-2.495731692761183E-003;-4.479422699660063E-003;
2.414500000000000E+009;1.764940917491913E-001;-5.432916432619095E-002;-2.752710832282901E-003;-4.478849936276674E-003;
2.414666666666667E+009;1.770764738321304E-001;-5.509827286005020E-002;-2.831279998645186E-003;-4.337708000093699E-003;
2.414833333333334E+009;1.774686723947525E-001;-5.588065832853317E-002;-2.986059989780188E-003;-4.198904614895582E-003;
2.415000000000000E+009;1.780203133821487E-001;-5.645114928483963E-002;-3.232954069972038E-003;-3.958918154239655E-003;
2.415166666666667E+009;1.784659326076508E-001;-5.687458068132401E-002;-3.357429988682270E-003;-3.977281507104635E-003;
2.415333333333334E+009;1.789618730545044E-001;-5.750267952680588E-002;-3.337192581966519E-003;-3.775728633627296E-003;
2.415500000000000E+009;1.793705821037293E-001;-5.783280357718468E-002;-3.450442804023624E-003;-3.685608971863985E-003;
2.415666666666667E+009;1.796483397483826E-001;-5.795449018478394E-002;-3.627647645771503E-003;-3.466462949290872E-003;
2.415833333333334E+009;1.797399073839188E-001;-5.822084844112396E-002;-3.725526155903935E-003;-3.250251291319728E-003;
2.416000000000000E+009;1.795601248741150E-001;-5.845257267355919E-002;-3.852575784549117E-003;-3.123308066278696E-003;
2.416166666666667E+009;1.797767281532288E-001;-5.854838714003563E-002;-3.797943238168955E-003;-3.018887480720878E-003;
2.416333333333334E+009;1.795150041580200E-001;-5.859880521893501E-002;-4.018005449324846E-003;-2.755439607426524E-003;
2.416500000000000E+009;1.791949719190598E-001;-5.868486687541008E-002;-3.858971875160933E-003;-2.598082413896918E-003;
2.416666666666667E+009;1.788599342107773E-001;-5.876182392239571E-002;-4.129215143620968E-003;-2.285817172378302E-003;
2.416833333333334E+009;1.784826964139938E-001;-5.879664421081543E-002;-4.148385021835566E-003;-2.284722868353128E-003;
2.417000000000000E+009;1.776760965585709E-001;-5.895414575934410E-002;-4.144808277487755E-003;-2.064317930489779E-003;
2.417166666666667E+009;1.770922839641571E-001;-5.879706516861916E-002;-4.254681989550591E-003;-1.847350155003369E-003;
2.417333333333334E+009;1.762739121913910E-001;-5.885593220591545E-002;-4.236319568008184E-003;-1.771950861439109E-003;
2.417500000000000E+009;1.753194183111191E-001;-5.917184054851532E-002;-4.068597685545683E-003;-1.607415149919689E-003;
2.417666666666667E+009;1.746366471052170E-001;-5.909897387027741E-002;-4.153984133154154E-003;-1.449466217309237E-003;
2.417833333333334E+009;1.734257489442825E-001;-5.937185510993004E-002;-4.125705920159817E-003;-1.372165046632290E-003;
2.418000000000000E+009;1.722436696290970E-001;-5.972180888056755E-002;-4.127958789467812E-003;-1.235614181496203E-003;
2.418166666666667E+009;1.710187494754791E-001;-5.989741161465645E-002;-4.109529778361321E-003;-1.038990914821625E-003;
2.418333333333334E+009;1.700075715780258E-001;-6.040607765316963E-002;-4.275774583220482E-003;-9.308086591772735E-004;
2.418500000000000E+009;1.685688793659210E-001;-6.085879355669022E-002;-4.128885921090841E-003;-8.298270404338837E-004;
2.418666666666667E+009;1.673260629177094E-001;-6.140350922942162E-002;-4.026832990348339E-003;-7.295450777746737E-004;
2.418833333333334E+009;1.657263040542603E-001;-6.208513677120209E-002;-4.150632303208113E-003;-6.165619706735015E-004;
2.419000000000000E+009;1.642918884754181E-001;-6.271995604038239E-002;-3.979254979640245E-003;-4.582633846439421E-004;
2.419166666666667E+009;1.629250198602676E-001;-6.362363696098328E-002;-4.013578873127699E-003;-3.550482506398112E-004;
2.419333333333334E+009;1.613795906305313E-001;-6.429802626371384E-002;-4.000161774456501E-003;-2.337786718271673E-004;
2.419500000000000E+009;1.600654125213623E-001;-6.563789397478104E-002;-4.028499592095614E-003;-2.154830290237442E-004;
2.419666666666667E+009;1.588561832904816E-001;-6.656374782323837E-002;-4.061069805175066E-003;-7.086087407515151E-006;
2.419833333333334E+009;1.573867201805115E-001;-6.767027080059052E-002;-4.145633429288864E-003;8.889318269211799E-005;
2.420000000000000E+009;1.563758254051209E-001;-6.896132230758667E-002;-3.963273484259844E-003;3.389704797882587E-004;
2.420166666666667E+009;1.550476551055908E-001;-7.047123461961746E-002;-3.984844312071800E-003;2.112332294927910E-004;
2.420333333333334E+009;1.539665162563324E-001;-7.177419215440750E-002;-3.818548517301679E-003;3.166245878674090E-004;
2.420500000000000E+009;1.529817432165146E-001;-7.324811071157455E-002;-3.986397758126259E-003;5.769429844804108E-004;
2.420666666666667E+009;1.519484072923660E-001;-7.466886937618256E-002;-4.047246649861336E-003;6.302728434093297E-004;
2.420833333333334E+009;1.511600762605667E-001;-7.648860663175583E-002;-4.021386150270701E-003;6.932380492798984E-004;
2.421000000000000E+009;1.502070724964142E-001;-7.817267626523972E-002;-4.012604709714651E-003;9.584110230207443E-004;
2.421166666666667E+009;1.496006101369858E-001;-7.987635582685471E-002;-4.009283613413572E-003;1.233958988450468E-003;
2.421333333333334E+009;1.491856127977371E-001;-8.191929757595062E-002;-3.884088015183806E-003;1.300819916650653E-003;
2.421500000000000E+009;1.485532224178314E-001;-8.348229527473450E-002;-4.079479724168778E-003;1.435507321730256E-003;
2.421666666666667E+009;1.483083665370941E-001;-8.527640253305435E-002;-3.927257377654314E-003;1.538107171654701E-003;
2.421833333333334E+009;1.479876637458801E-001;-8.718238025903702E-002;-3.751533804461360E-003;1.804431667551398E-003;
2.422000000000000E+009;1.477379947900772E-001;-8.907533437013626E-002;-3.961067646741867E-003;1.955305458977819E-003;
2.422166666666667E+009;1.476491540670395E-001;-9.115408360958099E-002;-3.537388984113932E-003;2.044556895270944E-003;
2.422333333333334E+009;1.478989571332932E-001;-9.291109442710877E-002;-3.542874241247773E-003;2.235363470390439E-003;
2.422500000000000E+009;1.479646563529968E-001;-9.451907128095627E-002;-3.552572103217244E-003;2.390749985352159E-003;
2.422666666666667E+009;1.479296386241913E-001;-9.633345156908035E-002;-3.422929672524333E-003;2.481382107362151E-003;
2.422833333333334E+009;1.483124643564224E-001;-9.822069108486176E-002;-3.217065241187811E-003;2.575814956799150E-003;
2.423000000000000E+009;1.487099230289459E-001;-9.978067874908447E-002;-2.998139010742307E-003;2.571313409134746E-003;
2.423166666666667E+009;1.491013616323471E-001;-1.013688817620277E-001;-2.836907748132944E-003;2.916690893471241E-003;
2.423333333333334E+009;1.496201455593109E-001;-1.028885245323181E-001;-2.828082302585244E-003;2.885444322600961E-003;
2.423500000000000E+009;1.502155214548111E-001;-1.044230461120606E-001;-2.580087631940842E-003;3.151651937514544E-003;
2.423666666666667E+009;1.507096886634827E-001;-1.057962924242020E-001;-2.310190582647920E-003;3.236877266317606E-003;
2.423833333333334E+009;1.515575200319290E-001;-1.072423383593559E-001;-2.245380310341716E-003;3.451708238571882E-003;
2.424000000000000E+009;1.519601345062256E-001;-1.084254533052445E-001;-2.013909630477428E-003;3.470003604888916E-003;
2.424166666666667E+009;1.526250690221787E-001;-1.096408739686012E-001;-1.842090743593872E-003;3.495238954201341E-003;
2.424333333333334E+009;1.533699631690979E-001;-1.106798872351646E-001;-1.599925686605275E-003;3.497410332784057E-003;
2.424500000000000E+009;1.539805382490158E-001;-1.117740571498871E-001;-1.272947760298848E-003;3.529462264850736E-003;
2.424666666666667E+009;1.547812223434448E-001;-1.125447824597359E-001;-1.107541029341519E-003;3.562225960195065E-003;
2.424833333333334E+009;1.552838385105133E-001;-1.133786588907242E-001;-9.462394518777728E-004;3.430189797654748E-003;
2.425000000000000E+009;1.559586375951767E-001;-1.141367629170418E-001;-5.629947991110385E-004;3.440372413024306E-003;
2.425166666666667E+009;1.562905013561249E-001;-1.147842332720757E-001;-4.848458920605481E-004;3.428036114200950E-003;
2.425333333333334E+009;1.567785888910294E-001;-1.152556315064430E-001;-2.999604912474752E-004;3.375384956598282E-003;
2.425500000000000E+009;1.573528796434403E-001;-1.158017963171005E-001;-1.717332270345651E-005;3.215707372874022E-003;
2.425666666666667E+009;1.575254350900650E-001;-1.161927953362465E-001;1.016025780700147E-004;3.357775742188096E-003;
2.425833333333334E+009;1.578944921493530E-001;-1.164317652583122E-001;2.931751660071313E-004;3.047771053388715E-003;
2.426000000000000E+009;1.579995155334473E-001;-1.167998388409615E-001;4.912289441563189E-004;2.821060828864574E-003;
2.426166666666667E+009;1.583075374364853E-001;-1.170448139309883E-001;5.765896639786661E-004;2.861291868612170E-003;
2.426333333333334E+009;1.581353694200516E-001;-1.171002238988876E-001;6.827519391663373E-004;2.783724106848240E-003;
2.426500000000000E+009;1.581067889928818E-001;-1.171002835035324E-001;9.325686260126531E-004;2.646792680025101E-003;
2.426666666666667E+009;1.580534875392914E-001;-1.168996095657349E-001;8.497090311720967E-004;2.432125853374600E-003;
2.426833333333334E+009;1.575669050216675E-001;-1.170868426561356E-001;9.186044335365295E-004;2.144562313333154E-003;
2.427000000000000E+009;1.572025120258331E-001;-1.171449348330498E-001;9.870461653918028E-004;2.115055453032255E-003;
2.427166666666667E+009;1.566195189952850E-001;-1.169857829809189E-001;1.091961632482708E-003;2.015485428273678E-003;
2.427333333333334E+009;1.559802442789078E-001;-1.170108616352081E-001;1.073511200957000E-003;1.802062615752220E-003;
2.427500000000000E+009;1.552427113056183E-001;-1.169581413269043E-001;9.834025986492634E-004;1.712883240543306E-003;
2.427666666666667E+009;1.543669551610947E-001;-1.169987097382546E-001;1.285895123146474E-003;1.561180804856122E-003;
