# Version 1.00
#
freq[Hz];re:Trc1_S11;im:Trc1_S11;re:Trc2_S21;im:Trc2_S21;
2.400000000000000E+009;1.583995968103409E-001;6.190709769725800E-002;1.092334277927876E-003;-3.395561594516039E-003;
2.400166666666667E+009;1.581498980522156E-001;6.039763987064362E-002;1.116388244554400E-003;-3.478699829429388E-003;
2.400333333333334E+009;1.580526679754257E-001;5.855463445186615E-002;9.674491011537612E-004;-3.540111472830176E-003;
2.400500000000000E+009;1.582716703414917E-001;5.653942748904228E-002;9.262815583497286E-004;-3.733390709385276E-003;
2.400666666666667E+009;1.582157015800476E-001;5.461802333593369E-002;8.897310472093523E-004;-3.851422341540456E-003;
2.400833333333334E+009;1.583985835313797E-001;5.284646525979042E-002;9.400857961736620E-004;-3.761565079912543E-003;
2.401000000000000E+009;1.584830731153488E-001;5.070452764630318E-002;8.732893038541079E-004;-3.819535020738840E-003;
2.401166666666667E+009;1.586108505725861E-001;4.862454906105995E-002;8.264960488304496E-004;-3.917653579264879E-003;
2.401333333333334E+009;1.586983203887940E-001;4.658445715904236E-002;5.149931530468166E-004;-4.114682320505381E-003;
2.401500000000000E+009;1.591961383819580E-001;4.459490627050400E-002;4.667183675337583E-004;-4.113185685127974E-003;
2.401666666666667E+009;1.593918800354004E-001;4.264948144555092E-002;3.711934841703624E-004;-4.387940745800734E-003;
2.401833333333334E+009;1.596524864435196E-001;4.046140611171722E-002;3.252651367802173E-004;-4.275209736078978E-003;
2.402000000000000E+009;1.600324362516403E-001;3.863424062728882E-002;1.815342257032171E-004;-4.424143582582474E-003;
2.402166666666667E+009;1.606469899415970E-001;3.657830879092217E-002;1.978111686185002E-005;-4.666456021368504E-003;
2.402333333333334E+009;1.611584722995758E-001;3.485666215419769E-002;-1.743337197694928E-004;-4.829308949410915E-003;
2.402500000000000E+009;1.620181351900101E-001;3.313061967492104E-002;-2.840032684616745E-004;-4.842993337661028E-003;
2.402666666666667E+009;1.627466380596161E-001;3.137269988656044E-002;-7.331552333198488E-004;-4.930889233946800E-003;
2.402833333333334E+009;1.633309870958328E-001;2.950227633118630E-002;-9.255977929569781E-004;-4.909232258796692E-003;
2.403000000000000E+009;1.641650795936585E-001;2.795244939625263E-002;-1.100002671591938E-003;-5.078784655779600E-003;
2.403166666666667E+009;1.650595664978027E-001;2.663563191890717E-002;-1.344415242783725E-003;-5.040768533945084E-003;
2.403333333333334E+009;1.658445149660111E-001;2.512679807841778E-002;-1.525626052170992E-003;-5.060422699898481E-003;
2.403500000000000E+009;1.666147112846375E-001;2.355251088738442E-002;-1.853323774412274E-003;-4.953935276716948E-003;
2.403666666666667E+009;1.676927208900452E-001;2.234009653329849E-002;-2.117461757734418E-003;-4.883355926722288E-003;
2.403833333333334E+009;1.687142401933670E-001;2.088898979127407E-002;-2.366596600040793E-003;-4.875319078564644E-003;
2.404000000000000E+009;1.696749776601791E-001;1.978415250778198E-002;-2.591182012110949E-003;-4.716498777270317E-003;
2.404166666666667E+009;1.706437766551971E-001;1.848211698234081E-002;-2.870679600164294E-003;-4.577714949846268E-003;
2.404333333333334E+009;1.715156137943268E-001;1.760289818048477E-002;-3.048392478376627E-003;-4.577278625220060E-003;
2.404500000000000E+009;1.722084134817123E-001;1.654974743723869E-002;-3.321216441690922E-003;-4.225511103868485E-003;
2.404666666666667E+009;1.732200831174851E-001;1.577129587531090E-002;-3.576734336093068E-003;-4.197605419903994E-003;
2.404833333333334E+009;1.740682423114777E-001;1.494858879595995E-002;-3.824170911684632E-003;-4.008144140243530E-003;
2.405000000000000E+009;1.750458031892777E-001;1.415515877306461E-002;-3.897771006450057E-003;-3.662363858893514E-003;
2.405166666666667E+009;1.757340580224991E-001;1.355918403714895E-002;-4.076533485203981E-003;-3.568331710994244E-003;
2.405333333333334E+009;1.767559349536896E-001;1.294079795479775E-002;-4.109062720090151E-003;-3.385569900274277E-003;
2.405500000000000E+009;1.772152483463287E-001;1.247937232255936E-002;-4.270438570529223E-003;-3.287677653133869E-003;
2.405666666666667E+009;1.778938919305801E-001;1.196387037634850E-002;-4.424626473337412E-003;-3.097795648500323E-003;
2.405833333333334E+009;1.782766580581665E-001;1.150528620928526E-002;-4.457568284124136E-003;-2.715413691475987E-003;
2.406000000000000E+009;1.789999157190323E-001;1.107084192335606E-002;-4.639070015400648E-003;-2.548060612753034E-003;
2.406166666666667E+009;1.791407316923142E-001;1.075233425945044E-002;-4.521057475358248E-003;-2.221722388640046E-003;
2.406333333333334E+009;1.798051148653030E-001;1.046780124306679E-002;-4.726779647171497E-003;-2.165704965591431E-003;
2.406500000000000E+009;1.799901276826859E-001;1.009496953338385E-002;-4.738127347081900E-003;-1.870202599093318E-003;
2.406666666666667E+009;1.799881458282471E-001;9.732327423989773E-003;-4.640410654246807E-003;-1.727756578475237E-003;
2.406833333333334E+009;1.803368330001831E-001;9.311804547905922E-003;-4.674810916185379E-003;-1.495669246651232E-003;
2.407000000000000E+009;1.803512722253799E-001;8.968243375420570E-003;-4.734783433377743E-003;-1.315663568675518E-003;
2.407166666666667E+009;1.804047375917435E-001;8.763623423874378E-003;-4.787123762071133E-003;-1.319918199442327E-003;
2.407333333333334E+009;1.802704185247421E-001;8.267336525022984E-003;-4.748083185404539E-003;-9.423621231690049E-004;
2.407500000000000E+009;1.800628602504730E-001;7.837820798158646E-003;-4.773696884512901E-003;-7.624474819749594E-004;
2.407666666666667E+009;1.797467172145844E-001;7.418696768581867E-003;-4.803799092769623E-003;-7.400551112368703E-004;
2.407833333333334E+009;1.794989109039307E-001;6.727033760398626E-003;-4.713506437838078E-003;-6.227400735951960E-004;
2.408000000000000E+009;1.791117042303085E-001;6.142223253846169E-003;-4.639615304768086E-003;-4.513954627327621E-004;
2.408166666666667E+009;1.786319762468338E-001;5.544874351471663E-003;-4.490747116506100E-003;-1.922563824336976E-004;
2.408333333333334E+009;1.783709079027176E-001;4.796300549060106E-003;-4.645687062293291E-003;-1.737428101478145E-004;
2.408500000000000E+009;1.776974797248840E-001;3.904382931068540E-003;-4.574568010866642E-003;-1.207293898914941E-004;
2.408666666666667E+009;1.771578490734100E-001;2.934762276709080E-003;-4.466739948838949E-003;1.767560315784067E-004;
2.408833333333334E+009;1.764592677354813E-001;2.135951537638903E-003;-4.586644936352968E-003;4.249361227266491E-004;
2.409000000000000E+009;1.757490485906601E-001;9.687878191471100E-004;-4.517408087849617E-003;4.859690670855343E-004;
2.409166666666667E+009;1.753194481134415E-001;-7.740871660644189E-005;-4.401461686939001E-003;6.719728698953986E-004;
2.409333333333334E+009;1.746723204851151E-001;-1.367391902022064E-003;-4.375932738184929E-003;6.061264430172741E-004;
2.409500000000000E+009;1.738532781600952E-001;-2.738985465839505E-003;-4.451207350939512E-003;6.315582431852818E-004;
2.409666666666667E+009;1.731303781270981E-001;-4.014241974800825E-003;-4.311681725084782E-003;9.304495761170983E-004;
2.409833333333334E+009;1.728046387434006E-001;-5.432582926005125E-003;-4.127107094973326E-003;8.949871989898384E-004;
2.410000000000000E+009;1.721060276031494E-001;-7.079738192260265E-003;-4.111280199140310E-003;9.934206027537584E-004;
2.410166666666667E+009;1.712951809167862E-001;-8.586368523538113E-003;-4.229987971484661E-003;1.160176005214453E-003;
2.410333333333334E+009;1.707469820976257E-001;-1.027410477399826E-002;-4.089522641152144E-003;1.273786881938577E-003;
2.410500000000000E+009;1.702684164047241E-001;-1.179840508848429E-002;-4.025815054774284E-003;1.346427947282791E-003;
2.410666666666667E+009;1.698026955127716E-001;-1.361950114369392E-002;-3.964561969041824E-003;1.476533710956574E-003;
2.410833333333334E+009;1.693802326917648E-001;-1.539500616490841E-002;-3.814117750152946E-003;1.609825296327472E-003;
2.411000000000000E+009;1.690429449081421E-001;-1.725872792303562E-002;-3.767961636185646E-003;1.667650067247450E-003;
2.411166666666667E+009;1.689447909593582E-001;-1.916351541876793E-002;-3.787393216043711E-003;1.713411533273757E-003;
2.411333333333334E+009;1.685863882303238E-001;-2.090602368116379E-002;-3.765614703297615E-003;1.748857903294265E-003;
2.411500000000000E+009;1.683158874511719E-001;-2.293168194591999E-002;-3.660814603790641E-003;1.943901297636330E-003;
2.411666666666667E+009;1.684103161096573E-001;-2.479556575417519E-002;-3.687642281875014E-003;1.925016986206174E-003;
2.411833333333334E+009;1.683369129896164E-001;-2.659163624048233E-002;-3.600589232519269E-003;1.985776936635375E-003;
2.412000000000000E+009;1.685571521520615E-001;-2.873300015926361E-002;-3.541751531884074E-003;2.204092219471932E-003;
2.412166666666667E+009;1.684570014476776E-001;-3.059810586273670E-002;-3.575751557946205E-003;2.402377314865589E-003;
2.412333333333334E+009;1.687049865722656E-001;-3.229439258575440E-002;-3.496249206364155E-003;2.339722355827689E-003;
2.412500000000000E+009;1.688764691352844E-001;-3.430591523647308E-002;-3.339050570502877E-003;2.468730555847287E-003;
2.412666666666667E+009;1.692887246608734E-001;-3.612664714455605E-002;-3.305091755464673E-003;2.681444631889463E-003;
2.412833333333334E+009;1.696212589740753E-001;-3.792322799563408E-002;-3.203220199793577E-003;2.843393012881279E-003;
2.413000000000000E+009;1.699091047048569E-001;-3.975525870919228E-002;-3.154804231598973E-003;2.968117361888290E-003;
2.413166666666667E+009;1.702090054750443E-001;-4.144213721156120E-002;-3.040008014068008E-003;2.959188073873520E-003;
2.413333333333334E+009;1.709488630294800E-001;-4.303945973515511E-002;-3.032340202480555E-003;2.907957648858428E-003;
2.413500000000000E+009;1.712986975908279E-001;-4.459813609719276E-002;-2.882136963307858E-003;3.196144476532936E-003;
2.413666666666667E+009;1.719929277896881E-001;-4.633218050003052E-002;-2.766582649201155E-003;3.293784800916910E-003;
2.413833333333334E+009;1.723205596208572E-001;-4.782185330986977E-002;-2.640235936269164E-003;3.228432266041637E-003;
2.414000000000000E+009;1.729521900415421E-001;-4.908985272049904E-002;-2.488714177161455E-003;3.528232220560312E-003;
2.414166666666667E+009;1.734415888786316E-001;-5.050721019506455E-002;-2.429421292617917E-003;3.631345229223371E-003;
2.414333333333334E+009;1.739545762538910E-001;-5.175161361694336E-002;-2.220055088400841E-003;3.672434948384762E-003;
2.414500000000000E+009;1.745661050081253E-001;-5.279325321316719E-002;-2.042684704065323E-003;3.817732678726316E-003;
2.414666666666667E+009;1.750168800354004E-001;-5.373860523104668E-002;-1.919327769428492E-003;3.765144385397434E-003;
2.414833333333334E+009;1.753463149070740E-001;-5.475560948252678E-002;-1.731777098029852E-003;3.756103571504355E-003;
2.415000000000000E+009;1.757754385471344E-001;-5.562680587172508E-002;-1.733635785058141E-003;3.706404240801930E-003;
2.415166666666667E+009;1.761425882577896E-001;-5.644357949495316E-002;-1.450810232199729E-003;3.927945159375668E-003;
2.415333333333334E+009;1.765347123146057E-001;-5.717213824391365E-002;-1.259911223314703E-003;3.888029605150223E-003;
2.415500000000000E+009;1.769089400768280E-001;-5.774902924895287E-002;-1.150847296230495E-003;3.724380629137158E-003;
2.415666666666667E+009;1.769798099994659E-001;-5.832133442163467E-002;-1.109245698899031E-003;3.784549888223410E-003;
2.415833333333334E+009;1.771737337112427E-001;-5.882942304015160E-002;-8.636473794467747E-004;3.737551392987371E-003;
2.416000000000000E+009;1.772010773420334E-001;-5.931942909955978E-002;-7.726019248366356E-004;3.674237523227930E-003;
2.416166666666667E+009;1.774531304836273E-001;-5.961435288190842E-002;-7.312683155760169E-004;3.600444644689560E-003;
2.416333333333334E+009;1.773112863302231E-001;-6.002825871109963E-002;-6.810490158386529E-004;3.682622453197837E-003;
2.416500000000000E+009;1.772128939628601E-001;-6.033692881464958E-002;-7.027724059298635E-004;3.617739304900169E-003;
2.416666666666667E+009;1.768816709518433E-001;-6.055940315127373E-002;-5.014901398681104E-004;3.637380199506879E-003;
2.416833333333334E+009;1.767140179872513E-001;-6.110211834311485E-002;-3.486251225695014E-004;3.636491252109408E-003;
2.417000000000000E+009;1.761780530214310E-001;-6.120401993393898E-002;-4.500728100538254E-004;3.510248847305775E-003;
2.417166666666667E+009;1.757602244615555E-001;-6.134479492902756E-002;-1.758788712322712E-004;3.652428509667516E-003;
2.417333333333334E+009;1.751509308815002E-001;-6.152680143713951E-002;-1.956031483132392E-004;3.473880002275109E-003;
2.417500000000000E+009;1.744548678398132E-001;-6.189595535397530E-002;-1.607588346814737E-004;3.458394901826978E-003;
2.417666666666667E+009;1.738370060920715E-001;-6.212414428591728E-002;-1.400619366904721E-004;3.593288827687502E-003;
2.417833333333334E+009;1.731596887111664E-001;-6.223984435200691E-002;-1.523523969808593E-004;3.509496804326773E-003;
2.418000000000000E+009;1.721830666065216E-001;-6.276906281709671E-002;-2.860858330677729E-005;3.407740034162998E-003;
2.418166666666667E+009;1.711335927248001E-001;-6.304784864187241E-002;3.259182994952425E-005;3.387759206816554E-003;
2.418333333333334E+009;1.705304533243179E-001;-6.344611942768097E-002;4.641059058485553E-005;3.577468451112509E-003;
2.418500000000000E+009;1.693326681852341E-001;-6.393522024154663E-002;-1.085073963622563E-004;3.461357671767473E-003;
2.418666666666667E+009;1.683991700410843E-001;-6.439438462257385E-002;2.152617526007816E-004;3.505907254293561E-003;
2.418833333333334E+009;1.670497357845306E-001;-6.507771462202072E-002;9.819936531130225E-005;3.529471345245838E-003;
2.419000000000000E+009;1.659919321537018E-001;-6.564239412546158E-002;2.571868244558573E-004;3.447797382250428E-003;
2.419166666666667E+009;1.648731827735901E-001;-6.632226705551148E-002;2.126916951965541E-004;3.473061136901379E-003;
2.419333333333334E+009;1.636549681425095E-001;-6.683403998613358E-002;3.154805162921548E-004;3.499973099678755E-003;
2.419500000000000E+009;1.624584943056107E-001;-6.787943840026856E-002;4.667011380661279E-004;3.576349699869752E-003;
2.419666666666667E+009;1.613913923501968E-001;-6.876401603221893E-002;3.235669282730669E-004;3.642943920567632E-003;
2.419833333333334E+009;1.601342856884003E-001;-6.964640319347382E-002;4.618171369656920E-004;3.615552792325616E-003;
2.420000000000000E+009;1.592719405889511E-001;-7.084625214338303E-002;5.169523064978421E-004;3.570103552192450E-003;
2.420166666666667E+009;1.579249650239945E-001;-7.192633301019669E-002;6.217662594281137E-004;3.477263497188687E-003;
2.420333333333334E+009;1.569725871086121E-001;-7.323932647705078E-002;7.459812914021313E-004;3.630741499364376E-003;
2.420500000000000E+009;1.560696661472321E-001;-7.434591650962830E-002;7.433446589857340E-004;3.537268145009875E-003;
2.420666666666667E+009;1.551079005002976E-001;-7.557436078786850E-002;8.612707606516779E-004;3.674518316984177E-003;
2.420833333333334E+009;1.541624218225479E-001;-7.707425206899643E-002;9.762075496837497E-004;3.860196098685265E-003;
2.421000000000000E+009;1.533340066671372E-001;-7.849738001823425E-002;1.102643203921616E-003;3.832644550129771E-003;
2.421166666666667E+009;1.527810096740723E-001;-8.001984655857086E-002;1.133284531533718E-003;3.789047710597515E-003;
2.421333333333334E+009;1.521441042423248E-001;-8.147521317005158E-002;1.198219368234277E-003;3.838912118226290E-003;
2.421500000000000E+009;1.514913588762283E-001;-8.324775844812393E-002;1.317372196353972E-003;3.886544611304998E-003;
2.421666666666667E+009;1.509257704019547E-001;-8.475370705127716E-002;1.523219165392220E-003;3.847547108307481E-003;
2.421833333333334E+009;1.507183313369751E-001;-8.662131428718567E-002;1.664648763835430E-003;3.994490951299667E-003;
2.422000000000000E+009;1.501683145761490E-001;-8.827292919158936E-002;1.767695182934403E-003;3.904592711478472E-003;
2.422166666666667E+009;1.498597115278244E-001;-8.996166288852692E-002;1.933777821250260E-003;3.880237694829702E-003;
2.422333333333334E+009;1.495431661605835E-001;-9.152852743864059E-002;1.978016225621104E-003;4.009109456092119E-003;
2.422500000000000E+009;1.495138853788376E-001;-9.315027296543121E-002;2.166359685361385E-003;3.926783334463835E-003;
2.422666666666667E+009;1.494592875242233E-001;-9.492312371730804E-002;2.253294689580798E-003;3.816358279436827E-003;
2.422833333333334E+009;1.496514230966568E-001;-9.654360264539719E-002;2.386409789323807E-003;3.973466809839010E-003;
2.423000000000000E+009;1.497240364551544E-001;-9.803777188062668E-002;2.597220707684755E-003;3.928838763386011E-003;
2.423166666666667E+009;1.499854773283005E-001;-9.974254667758942E-002;2.710388740524650E-003;3.936937078833580E-003;
2.423333333333334E+009;1.502074450254440E-001;-1.012013852596283E-001;2.905241213738918E-003;3.917543217539787E-003;
2.423500000000000E+009;1.503777801990509E-001;-1.029262766242027E-001;3.041448537260294E-003;3.902732394635677E-003;
2.423666666666667E+009;1.506370007991791E-001;-1.044236943125725E-001;3.061927622184157E-003;3.812320297583938E-003;
2.423833333333334E+009;1.511909961700440E-001;-1.057142317295075E-001;3.488457063212991E-003;3.648557700216770E-003;
2.424000000000000E+009;1.514626592397690E-001;-1.069987565279007E-001;3.731629811227322E-003;3.622095100581646E-003;
2.424166666666667E+009;1.518815159797669E-001;-1.082805767655373E-001;3.785619512200356E-003;3.537926822900772E-003;
2.424333333333334E+009;1.524181514978409E-001;-1.093882769346237E-001;3.886736230924726E-003;3.454474499449134E-003;
2.424500000000000E+009;1.529288440942764E-001;-1.105392053723335E-001;3.961441107094288E-003;3.154649632051587E-003;
2.424666666666667E+009;1.533517390489578E-001;-1.114112138748169E-001;4.105906933546066E-003;3.159875748679042E-003;
2.424833333333334E+009;1.537851989269257E-001;-1.124962940812111E-001;4.619438666850328E-003;3.160439431667328E-003;
2.425000000000000E+009;1.541138589382172E-001;-1.134412884712219E-001;4.597926046699286E-003;2.732866210862994E-003;
2.425166666666667E+009;1.543575972318649E-001;-1.141569912433624E-001;4.719470161944628E-003;2.561214147135615E-003;
2.425333333333334E+009;1.549117863178253E-001;-1.149519979953766E-001;4.957281053066254E-003;2.379382494837046E-003;
2.425500000000000E+009;1.553009748458862E-001;-1.156519278883934E-001;5.097527522593737E-003;2.328085247427225E-003;
2.425666666666667E+009;1.553963720798492E-001;-1.161745116114616E-001;5.317165981978178E-003;2.298039849847555E-003;
2.425833333333334E+009;1.557441502809525E-001;-1.166117042303085E-001;5.368836689740419E-003;1.975529128685594E-003;
2.426000000000000E+009;1.557495892047882E-001;-1.171409115195274E-001;5.475664045661688E-003;1.757589401677251E-003;
2.426166666666667E+009;1.561081856489182E-001;-1.174804940819740E-001;5.451342556625605E-003;1.486212946474552E-003;
2.426333333333334E+009;1.559880077838898E-001;-1.178274676203728E-001;5.579725373536348E-003;1.173464232124388E-003;
2.426500000000000E+009;1.559877395629883E-001;-1.180222630500794E-001;5.767515860497952E-003;1.177889527752996E-003;
2.426666666666667E+009;1.560204625129700E-001;-1.181539967656136E-001;5.892990157008171E-003;8.725989609956741E-004;
2.426833333333334E+009;1.557090282440186E-001;-1.184758841991425E-001;5.738763138651848E-003;6.069972878322005E-004;
2.427000000000000E+009;1.554091870784760E-001;-1.187654733657837E-001;5.761539563536644E-003;4.287639749236405E-004;
2.427166666666667E+009;1.550511121749878E-001;-1.186987608671188E-001;5.892514716833830E-003;9.246133413398638E-005;
2.427333333333334E+009;1.544475853443146E-001;-1.188704594969750E-001;5.867139436304569E-003;-1.777567958924919E-004;
2.427500000000000E+009;1.539906561374664E-001;-1.189856380224228E-001;5.768923554569483E-003;-1.238006952917203E-004;
2.427666666666667E+009;1.533116102218628E-001;-1.191765442490578E-001;5.860084667801857E-003;-4.078243509866297E-004;
2.427833333333334E+009;1.526078134775162E-001;-1.192906051874161E-001;5.667133722454310E-003;-6.598695181310177E-004;
