# Version 1.00
#
freq[Hz];re:Trc1_S11;im:Trc1_S11;re:Trc2_S21;im:Trc2_S21;
2.400000000000000E+009;1.582053452730179E-001;6.200236082077026E-002;1.028351369313896E-003;-3.537284210324287E-003;
2.400166666666667E+009;1.582140773534775E-001;6.047312170267105E-002;1.159836421720684E-003;-3.475991310551763E-003;
2.400333333333334E+009;1.579855829477310E-001;5.852585658431053E-002;9.868962224572897E-004;-3.414879087358713E-003;
2.400500000000000E+009;1.581635773181915E-001;5.659614875912666E-002;8.940952830016613E-004;-3.550282446667552E-003;
2.400666666666667E+009;1.580530554056168E-001;5.462668091058731E-002;1.040487899444997E-003;-3.770205890759826E-003;
2.400833333333334E+009;1.581256091594696E-001;5.276015028357506E-002;8.196508861146867E-004;-3.840422024950385E-003;
2.401000000000000E+009;1.582202017307282E-001;5.063041672110558E-002;8.496358059346676E-004;-3.899287665262818E-003;
2.401166666666667E+009;1.585240364074707E-001;4.875506460666657E-002;8.437773212790489E-004;-4.042509477585554E-003;
2.401333333333334E+009;1.586553901433945E-001;4.679194465279579E-002;7.038688054308295E-004;-4.081917461007834E-003;
2.401500000000000E+009;1.590629070997238E-001;4.450869187712669E-002;5.731285200454295E-004;-4.349224269390106E-003;
2.401666666666667E+009;1.593813002109528E-001;4.283417016267777E-002;3.119758039247245E-004;-4.372495692223311E-003;
2.401833333333334E+009;1.598401367664337E-001;4.069918394088745E-002;3.098035813309252E-004;-4.355112556368113E-003;
2.402000000000000E+009;1.603314578533173E-001;3.863079100847244E-002;-4.045098467031494E-005;-4.592643119394779E-003;
2.402166666666667E+009;1.607269644737244E-001;3.679576143622398E-002;3.649267819127999E-005;-4.531534854322672E-003;
2.402333333333334E+009;1.612354516983032E-001;3.495718538761139E-002;-2.168509963667020E-004;-4.820751491934061E-003;
2.402500000000000E+009;1.620082557201386E-001;3.314745053648949E-002;-5.088006728328764E-004;-4.715037532150745E-003;
2.402666666666667E+009;1.627198308706284E-001;3.134880959987640E-002;-6.782111013308168E-004;-4.853993654251099E-003;
2.402833333333334E+009;1.633593291044235E-001;2.978198044002056E-002;-9.325246210210025E-004;-4.899414256215096E-003;
2.403000000000000E+009;1.642129272222519E-001;2.808188460767269E-002;-1.118642394430935E-003;-4.940611775964499E-003;
2.403166666666667E+009;1.650485396385193E-001;2.656516991555691E-002;-1.379107008688152E-003;-4.937043879181147E-003;
2.403333333333334E+009;1.658919900655747E-001;2.517110854387283E-002;-1.687497715465725E-003;-4.763608332723379E-003;
2.403500000000000E+009;1.666746884584427E-001;2.366615459322929E-002;-1.914218999445438E-003;-4.989658016711474E-003;
2.403666666666667E+009;1.677861660718918E-001;2.237003669142723E-002;-2.065029693767428E-003;-4.869503900408745E-003;
2.403833333333334E+009;1.687531471252441E-001;2.091883309185505E-002;-2.281937748193741E-003;-4.836391191929579E-003;
2.404000000000000E+009;1.696425229310989E-001;1.990806683897972E-002;-2.631926909089088E-003;-4.592694807797670E-003;
2.404166666666667E+009;1.705888658761978E-001;1.869238913059235E-002;-2.962835365906358E-003;-4.616022109985352E-003;
2.404333333333334E+009;1.715963333845139E-001;1.775053516030312E-002;-3.052366431802511E-003;-4.491712898015976E-003;
2.404500000000000E+009;1.723404675722122E-001;1.665180921554565E-002;-3.317369613796473E-003;-4.174310248345137E-003;
2.404666666666667E+009;1.732543408870697E-001;1.580767519772053E-002;-3.623350290581584E-003;-4.032832570374012E-003;
2.404833333333334E+009;1.741159707307816E-001;1.495923940092325E-002;-3.902078839018941E-003;-3.931239712983370E-003;
2.405000000000000E+009;1.749676465988159E-001;1.420389208942652E-002;-3.990076947957277E-003;-3.754299134016037E-003;
2.405166666666667E+009;1.757787317037582E-001;1.359737850725651E-002;-4.073828458786011E-003;-3.496203571557999E-003;
2.405333333333334E+009;1.765426397323608E-001;1.271815970540047E-002;-4.072568379342556E-003;-3.300393931567669E-003;
2.405500000000000E+009;1.772504895925522E-001;1.250387821346521E-002;-4.286235664039850E-003;-3.140093525871635E-003;
2.405666666666667E+009;1.778800040483475E-001;1.191967725753784E-002;-4.380854777991772E-003;-2.917759353294969E-003;
2.405833333333334E+009;1.783308982849121E-001;1.159119512885809E-002;-4.354570060968399E-003;-2.839462831616402E-003;
2.406000000000000E+009;1.788365393877029E-001;1.105899270623922E-002;-4.562668036669493E-003;-2.597287995740771E-003;
2.406166666666667E+009;1.791083663702011E-001;1.086250972002745E-002;-4.623902961611748E-003;-2.540191169828177E-003;
2.406333333333334E+009;1.796514987945557E-001;1.049965806305409E-002;-4.680243320763111E-003;-1.857274444773793E-003;
2.406500000000000E+009;1.798587888479233E-001;1.018677465617657E-002;-4.757045302540064E-003;-1.976396655663848E-003;
2.406666666666667E+009;1.798883527517319E-001;9.963918477296829E-003;-4.866975825279951E-003;-1.873041153885424E-003;
2.406833333333334E+009;1.801203042268753E-001;9.408483281731606E-003;-4.519491922110319E-003;-1.359512447379530E-003;
2.407000000000000E+009;1.802185624837875E-001;9.160106070339680E-003;-4.760073963552713E-003;-1.174691016785801E-003;
2.407166666666667E+009;1.804889142513275E-001;8.819298818707466E-003;-4.813123960047960E-003;-1.321046496741474E-003;
2.407333333333334E+009;1.801281273365021E-001;8.301123045384884E-003;-4.762249067425728E-003;-1.028074300847948E-003;
2.407500000000000E+009;1.800953149795532E-001;7.888748310506344E-003;-4.652773961424828E-003;-8.166118059307337E-004;
2.407666666666667E+009;1.796954125165939E-001;7.574666291475296E-003;-4.842605907469988E-003;-9.166301460936666E-004;
2.407833333333334E+009;1.793765276670456E-001;6.827031727880240E-003;-4.659039899706841E-003;-5.013396148569882E-004;
2.408000000000000E+009;1.791274696588516E-001;6.087406538426876E-003;-4.469670355319977E-003;-4.454989975783974E-004;
2.408166666666667E+009;1.785462945699692E-001;5.584277678281069E-003;-4.757152404636145E-003;-4.297105188015848E-004;
2.408333333333334E+009;1.783654838800430E-001;4.892148077487946E-003;-4.591693170368671E-003;-1.439907064195722E-004;
2.408500000000000E+009;1.776463538408279E-001;4.033918492496014E-003;-4.776884336024523E-003;1.057238841895014E-004;
2.408666666666667E+009;1.770283132791519E-001;3.104473231360316E-003;-4.578693304210901E-003;1.376913569401950E-004;
2.408833333333334E+009;1.764561533927918E-001;2.066022949293256E-003;-4.500268492847681E-003;3.875119145959616E-004;
2.409000000000000E+009;1.758757531642914E-001;9.516953723505139E-004;-4.078204277902842E-003;4.969234578311443E-004;
2.409166666666667E+009;1.752378344535828E-001;2.064171894744504E-005;-4.475757945328951E-003;4.327015485614538E-004;
2.409333333333334E+009;1.746396422386169E-001;-1.399030326865614E-003;-4.331186413764954E-003;5.705390358343720E-004;
2.409500000000000E+009;1.738325506448746E-001;-2.793474355712533E-003;-4.342102911323309E-003;7.628885214217007E-004;
2.409666666666667E+009;1.732556819915772E-001;-4.037928767502308E-003;-4.280178807675839E-003;9.692896855995059E-004;
2.409833333333334E+009;1.725436896085739E-001;-5.434347782284021E-003;-4.262539558112621E-003;1.020753406919539E-003;
2.410000000000000E+009;1.720603704452515E-001;-6.844523828476667E-003;-4.150861874222755E-003;1.068027922883630E-003;
2.410166666666667E+009;1.714201122522354E-001;-8.386457338929176E-003;-4.066410008817911E-003;1.250485889613628E-003;
2.410333333333334E+009;1.708169728517532E-001;-1.012993231415749E-002;-4.119763616472483E-003;1.448715571314097E-003;
2.410500000000000E+009;1.706121414899826E-001;-1.165457721799612E-002;-3.914570901542902E-003;1.363697811029851E-003;
2.410666666666667E+009;1.698196977376938E-001;-1.377799361944199E-002;-3.883079625666142E-003;1.287482213228941E-003;
2.410833333333334E+009;1.695279628038406E-001;-1.531174406409264E-002;-3.839445766061544E-003;1.648019417189062E-003;
2.411000000000000E+009;1.688779741525650E-001;-1.714504882693291E-002;-3.839648561552167E-003;1.563710160553455E-003;
2.411166666666667E+009;1.688336282968521E-001;-1.900432258844376E-002;-3.690671874210239E-003;1.627590623684228E-003;
2.411333333333334E+009;1.686144769191742E-001;-2.086994051933289E-002;-3.786323359236121E-003;1.879733172245324E-003;
2.411500000000000E+009;1.682943701744080E-001;-2.288415096700192E-002;-3.554271766915917E-003;1.925958553329110E-003;
2.411666666666667E+009;1.684011369943619E-001;-2.481248043477535E-002;-3.597021801397204E-003;1.881621894426644E-003;
2.411833333333334E+009;1.682811826467514E-001;-2.661239542067051E-002;-3.589903004467487E-003;2.237031236290932E-003;
2.412000000000000E+009;1.684077680110931E-001;-2.864179201424122E-002;-3.420858178287745E-003;2.194219734519720E-003;
2.412166666666667E+009;1.685874313116074E-001;-3.050979413092136E-002;-3.378228982910514E-003;2.315915655344725E-003;
2.412333333333334E+009;1.688509285449982E-001;-3.222548589110375E-002;-3.383668372407556E-003;2.342111663892865E-003;
2.412500000000000E+009;1.688407361507416E-001;-3.409743309020996E-002;-3.465284593403339E-003;2.483382588252425E-003;
2.412666666666667E+009;1.692789345979691E-001;-3.616641461849213E-002;-3.221085760742426E-003;2.632235409691930E-003;
2.412833333333334E+009;1.696959882974625E-001;-3.791875392198563E-002;-3.202783409506083E-003;2.783498493954539E-003;
2.413000000000000E+009;1.701271981000900E-001;-3.969632461667061E-002;-3.378980560228229E-003;2.798478584736586E-003;
2.413166666666667E+009;1.703458130359650E-001;-4.126781970262528E-002;-3.019375028088689E-003;3.119125496596098E-003;
2.413333333333334E+009;1.707234680652618E-001;-4.315966740250588E-002;-2.971954876556993E-003;3.160203108564019E-003;
2.413500000000000E+009;1.713366061449051E-001;-4.466650635004044E-002;-2.805696334689856E-003;2.988036954775453E-003;
2.413666666666667E+009;1.719274073839188E-001;-4.633462056517601E-002;-2.506396733224392E-003;3.218104364350438E-003;
2.413833333333334E+009;1.724803596735001E-001;-4.774967208504677E-002;-2.446695463731885E-003;3.317863447591662E-003;
2.414000000000000E+009;1.727435439825058E-001;-4.927043989300728E-002;-2.474885899573565E-003;3.414780134335160E-003;
2.414166666666667E+009;1.733897775411606E-001;-5.036980286240578E-002;-2.359491540119052E-003;3.509434172883630E-003;
2.414333333333334E+009;1.739883869886398E-001;-5.163364484906197E-002;-2.071218099445105E-003;3.570106811821461E-003;
2.414500000000000E+009;1.746354550123215E-001;-5.277419090270996E-002;-1.975976396352053E-003;3.648139536380768E-003;
2.414666666666667E+009;1.748889982700348E-001;-5.373952165246010E-002;-1.870617968961597E-003;3.734848229214549E-003;
2.414833333333334E+009;1.753930002450943E-001;-5.475437268614769E-002;-1.720287720672786E-003;3.674360457807779E-003;
2.415000000000000E+009;1.757251769304276E-001;-5.559859052300453E-002;-1.754241762682796E-003;3.718724241480231E-003;
2.415166666666667E+009;1.761897653341293E-001;-5.645307898521423E-002;-1.322190160863102E-003;3.850079374387860E-003;
2.415333333333334E+009;1.765105575323105E-001;-5.724320188164711E-002;-1.357643632218242E-003;3.799661062657833E-003;
2.415500000000000E+009;1.767119616270065E-001;-5.772572010755539E-002;-1.148573122918606E-003;3.731358563527465E-003;
2.415666666666667E+009;1.769652515649796E-001;-5.832990631461144E-002;-1.049691229127348E-003;3.729123389348388E-003;
2.415833333333334E+009;1.772176325321198E-001;-5.887757241725922E-002;-8.554661180824041E-004;3.675193293020129E-003;
2.416000000000000E+009;1.771946400403976E-001;-5.938825011253357E-002;-8.522479329258204E-004;3.717478131875396E-003;
2.416166666666667E+009;1.774380058050156E-001;-5.975303053855896E-002;-7.665680022910237E-004;3.492008196190000E-003;
2.416333333333334E+009;1.771656274795532E-001;-5.990576744079590E-002;-7.511923322454095E-004;3.430191194638610E-003;
2.416500000000000E+009;1.771611571311951E-001;-6.035996228456497E-002;-5.357273039408028E-004;3.596821567043662E-003;
2.416666666666667E+009;1.768826097249985E-001;-6.057890132069588E-002;-4.359275044407696E-004;3.426708746701479E-003;
2.416833333333334E+009;1.767518073320389E-001;-6.082956865429878E-002;-3.220612707082182E-004;3.540581557899714E-003;
2.417000000000000E+009;1.761063784360886E-001;-6.109767407178879E-002;-2.158864081138745E-004;3.632951062172651E-003;
2.417166666666667E+009;1.757328808307648E-001;-6.139105558395386E-002;-2.932369243353605E-004;3.419285174459219E-003;
2.417333333333334E+009;1.752603501081467E-001;-6.144354492425919E-002;-2.765188110060990E-004;3.465740941464901E-003;
2.417500000000000E+009;1.746490746736527E-001;-6.194460019469261E-002;-7.368775550276041E-005;3.356021596118808E-003;
2.417666666666667E+009;1.738834232091904E-001;-6.210034713149071E-002;-2.221021568402648E-004;3.346650395542383E-003;
2.417833333333334E+009;1.730856001377106E-001;-6.234310567378998E-002;-2.367420966038480E-004;3.264486324042082E-003;
2.418000000000000E+009;1.722045689821243E-001;-6.276670843362808E-002;-1.793650590116158E-004;3.462665015831590E-003;
2.418166666666667E+009;1.712833344936371E-001;-6.297563761472702E-002;-1.692982477834448E-004;3.449936863034964E-003;
2.418333333333334E+009;1.705912053585053E-001;-6.343943625688553E-002;-2.497854802641086E-005;3.635850269347429E-003;
2.418500000000000E+009;1.694995462894440E-001;-6.387612223625183E-002;-4.486941907089204E-005;3.347947727888823E-003;
2.418666666666667E+009;1.684892028570175E-001;-6.451135873794556E-002;1.233973307535052E-005;3.535394789651036E-003;
2.418833333333334E+009;1.671916842460632E-001;-6.502129137516022E-002;1.759163715178147E-004;3.520917845889926E-003;
2.419000000000000E+009;1.659245342016220E-001;-6.564194709062576E-002;1.091834346880205E-004;3.517078235745430E-003;
2.419166666666667E+009;1.650147140026093E-001;-6.631419807672501E-002;1.998472580453381E-004;3.415301209315658E-003;
2.419333333333334E+009;1.635088473558426E-001;-6.692466139793396E-002;1.347776851616800E-004;3.511535236611962E-003;
2.419500000000000E+009;1.624316871166229E-001;-6.800948828458786E-002;2.313707373104990E-004;3.542661899700761E-003;
2.419666666666667E+009;1.615123599767685E-001;-6.894587725400925E-002;3.830003843177110E-004;3.476614132523537E-003;
2.419833333333334E+009;1.601704955101013E-001;-6.963787227869034E-002;4.836049047298729E-004;3.631427185609937E-003;
2.420000000000000E+009;1.591301709413528E-001;-7.089049369096756E-002;6.411698414012790E-004;3.557657590135932E-003;
2.420166666666667E+009;1.581511795520783E-001;-7.192663848400116E-002;5.783679662272334E-004;3.545428859069943E-003;
2.420333333333334E+009;1.571193933486939E-001;-7.312380522489548E-002;6.865388713777065E-004;3.603697288781405E-003;
2.420500000000000E+009;1.560928672552109E-001;-7.438434660434723E-002;7.555260672233999E-004;3.668638411909342E-003;
2.420666666666667E+009;1.551255881786346E-001;-7.561144232749939E-002;7.750706281512976E-004;3.597159171476960E-003;
2.420833333333334E+009;1.542137712240219E-001;-7.692920416593552E-002;9.438585257157683E-004;3.685851814225316E-003;
2.421000000000000E+009;1.533977091312408E-001;-7.853388041257858E-002;8.961067651398480E-004;3.796445205807686E-003;
2.421166666666667E+009;1.527509689331055E-001;-8.004724234342575E-002;9.977619629353285E-004;3.714377526193857E-003;
2.421333333333334E+009;1.520401686429977E-001;-8.169000595808029E-002;1.213287585414946E-003;3.760986262932420E-003;
2.421500000000000E+009;1.514186114072800E-001;-8.315189182758331E-002;1.269680098630488E-003;3.689915174618363E-003;
2.421666666666667E+009;1.508953124284744E-001;-8.480292558670044E-002;1.425276161171496E-003;3.864814760163426E-003;
2.421833333333334E+009;1.506778001785278E-001;-8.636470884084702E-002;1.539821387268603E-003;3.750464413315058E-003;
2.422000000000000E+009;1.499977409839630E-001;-8.809899538755417E-002;1.752725918777287E-003;3.790742950513959E-003;
2.422166666666667E+009;1.499242782592773E-001;-8.987144380807877E-002;1.692277262918651E-003;3.859731834381819E-003;
2.422333333333334E+009;1.495706737041473E-001;-9.138134866952896E-002;1.885690609924495E-003;3.804013598710299E-003;
2.422500000000000E+009;1.495001167058945E-001;-9.314010292291641E-002;2.022614702582359E-003;3.817676799371839E-003;
2.422666666666667E+009;1.494295150041580E-001;-9.474343806505203E-002;2.151090884581208E-003;3.844610881060362E-003;
2.422833333333334E+009;1.494827866554260E-001;-9.656882286071777E-002;2.335853176191449E-003;3.774010110646486E-003;
2.423000000000000E+009;1.496160626411438E-001;-9.820104390382767E-002;2.452702959999442E-003;3.704229602590203E-003;
2.423166666666667E+009;1.498021334409714E-001;-9.961529821157455E-002;2.538812113925815E-003;3.837729338556528E-003;
2.423333333333334E+009;1.502116024494171E-001;-1.011384949088097E-001;2.847288502380252E-003;3.804847830906510E-003;
2.423500000000000E+009;1.504579186439514E-001;-1.026651263237000E-001;2.965323859825730E-003;3.732892451807857E-003;
2.423666666666667E+009;1.506039649248123E-001;-1.041946932673454E-001;3.080898197367787E-003;3.604311961680651E-003;
2.423833333333334E+009;1.512595564126968E-001;-1.056956201791763E-001;3.399549517780542E-003;3.573940135538578E-003;
2.424000000000000E+009;1.514297127723694E-001;-1.068080067634583E-001;3.535105148330331E-003;3.627771511673927E-003;
2.424166666666667E+009;1.517472863197327E-001;-1.082944944500923E-001;3.674981649965048E-003;3.516295459121466E-003;
2.424333333333334E+009;1.524339765310288E-001;-1.092753931879997E-001;3.907055128365755E-003;3.485662164166570E-003;
2.424500000000000E+009;1.528504639863968E-001;-1.105596423149109E-001;3.974822349846363E-003;3.337727859616280E-003;
2.424666666666667E+009;1.532410532236099E-001;-1.112573593854904E-001;4.206472076475620E-003;3.140992717817426E-003;
2.424833333333334E+009;1.534955650568008E-001;-1.124305278062820E-001;4.267607815563679E-003;2.958434168249369E-003;
2.425000000000000E+009;1.542062610387802E-001;-1.133230105042458E-001;4.467792809009552E-003;2.903454005718231E-003;
2.425166666666667E+009;1.543955951929092E-001;-1.140832379460335E-001;4.744111094623804E-003;2.743663033470511E-003;
2.425333333333334E+009;1.548394709825516E-001;-1.147241070866585E-001;4.804086405783892E-003;2.447749953716993E-003;
2.425500000000000E+009;1.552170515060425E-001;-1.156007051467896E-001;4.942241124808788E-003;2.356339478865266E-003;
2.425666666666667E+009;1.554202884435654E-001;-1.161520332098007E-001;5.015418864786625E-003;2.012284472584724E-003;
2.425833333333334E+009;1.557018756866455E-001;-1.165879964828491E-001;5.340009462088347E-003;1.933938241563737E-003;
2.426000000000000E+009;1.558053493499756E-001;-1.172198206186295E-001;5.246836226433516E-003;1.768363057635725E-003;
2.426166666666667E+009;1.561153531074524E-001;-1.175338178873062E-001;5.363921634852886E-003;1.352871069684625E-003;
2.426333333333334E+009;1.560385227203369E-001;-1.178695634007454E-001;5.493337754160166E-003;1.343202427960932E-003;
2.426500000000000E+009;1.559966355562210E-001;-1.180969625711441E-001;5.660715978592634E-003;1.164246466942132E-003;
2.426666666666667E+009;1.559909433126450E-001;-1.181932985782623E-001;5.689946934580803E-003;8.806537371128798E-004;
2.426833333333334E+009;1.557638943195343E-001;-1.184122189879417E-001;5.752625875174999E-003;6.411829963326454E-004;
2.427000000000000E+009;1.554278731346130E-001;-1.186311095952988E-001;5.594475194811821E-003;5.360561772249639E-004;
2.427166666666667E+009;1.550888568162918E-001;-1.186490803956986E-001;5.849463399499655E-003;1.204615909955464E-004;
2.427333333333334E+009;1.545188426971436E-001;-1.188697144389153E-001;5.627888254821301E-003;-1.470888237236068E-004;
2.427500000000000E+009;1.541372388601303E-001;-1.189331933856010E-001;5.670086946338415E-003;-1.570388267282397E-004;
2.427666666666667E+009;1.533465385437012E-001;-1.191203296184540E-001;5.852447822690010E-003;-4.237726971041411E-004;
2.427833333333334E+009;1.524435430765152E-001;-1.191997230052948E-001;5.708088167011738E-003;-7.960929069668055E-004;
