# Version 1.00
#
freq[Hz];re:Trc1_S11;im:Trc1_S11;re:Trc2_S21;im:Trc2_S21;
2.400000000000000E+009;1.504566669464111E-001;1.138988733291626E-001;1.803623512387276E-003;7.824875647202134E-004;
2.400166666666667E+009;1.505191922187805E-001;1.116134002804756E-001;1.668019918724895E-003;6.251951563172042E-004;
2.400333333333334E+009;1.504253000020981E-001;1.094598621129990E-001;1.507228706032038E-003;3.289373416919261E-004;
2.400500000000000E+009;1.504168212413788E-001;1.067626923322678E-001;1.446919050067663E-003;-2.664359635673463E-004;
2.400666666666667E+009;1.505782008171082E-001;1.045112609863281E-001;1.196876517497003E-003;-5.033827619627118E-004;
2.400833333333334E+009;1.509283781051636E-001;1.014987900853157E-001;9.331458131782711E-004;-8.044198621064425E-004;
2.401000000000000E+009;1.510073691606522E-001;9.876136481761932E-002;6.074286065995693E-004;-7.717210683040321E-004;
2.401166666666667E+009;1.513755172491074E-001;9.580492228269577E-002;2.975840179715306E-004;-1.024853321723640E-003;
2.401333333333334E+009;1.517745703458786E-001;9.321776032447815E-002;-3.606927930377424E-005;-1.164546702057123E-003;
2.401500000000000E+009;1.522291600704193E-001;9.020911902189255E-002;-2.720126067288220E-004;-9.542410844005644E-004;
2.401666666666667E+009;1.527145951986313E-001;8.755347132682800E-002;-6.645707762800157E-004;-1.002342440187931E-003;
2.401833333333334E+009;1.534661501646042E-001;8.487743139266968E-002;-9.489999501965940E-004;-8.008738514035940E-004;
2.402000000000000E+009;1.544342041015625E-001;8.194577693939209E-002;-1.456064521335065E-003;-5.575654795393348E-004;
2.402166666666667E+009;1.555544137954712E-001;7.943899929523468E-002;-1.547269523143768E-003;-3.981484624091536E-004;
2.402333333333334E+009;1.565751284360886E-001;7.677246630191803E-002;-1.638604677282274E-003;-8.596692350693047E-005;
2.402500000000000E+009;1.580407172441483E-001;7.428232580423355E-002;-1.793614006601274E-003;1.821549667511135E-004;
2.402666666666667E+009;1.592610031366348E-001;7.195844501256943E-002;-1.858310773968697E-003;3.570466360542923E-004;
2.402833333333334E+009;1.608145236968994E-001;6.947574019432068E-002;-1.891427906230092E-003;7.206947775557637E-004;
2.403000000000000E+009;1.623410135507584E-001;6.722943484783173E-002;-1.868425286374986E-003;1.073197228834033E-003;
2.403166666666667E+009;1.644812077283859E-001;6.506287306547165E-002;-2.024145564064384E-003;1.227621803991497E-003;
2.403333333333334E+009;1.661278307437897E-001;6.260774284601212E-002;-1.816907199099660E-003;1.514332834631205E-003;
2.403500000000000E+009;1.678681820631027E-001;6.080381944775581E-002;-1.812573289498687E-003;1.827938132919371E-003;
2.403666666666667E+009;1.699096411466599E-001;5.883342400193214E-002;-1.556140487082303E-003;1.819738303311169E-003;
2.403833333333334E+009;1.718639582395554E-001;5.682557821273804E-002;-1.515099313110113E-003;2.238551620393992E-003;
2.404000000000000E+009;1.735398322343826E-001;5.479693040251732E-002;-1.272098161280155E-003;2.260711276903749E-003;
2.404166666666667E+009;1.755719780921936E-001;5.360641330480576E-002;-1.071382313966751E-003;2.279212465509772E-003;
2.404333333333334E+009;1.774244606494904E-001;5.173814669251442E-002;-1.058998401276767E-003;2.466847421601415E-003;
2.404500000000000E+009;1.791095733642578E-001;5.030250549316406E-002;-6.522079347632825E-004;2.636062446981669E-003;
2.404666666666667E+009;1.810102462768555E-001;4.907819256186485E-002;-5.602139281108975E-004;2.815850777551532E-003;
2.404833333333334E+009;1.827613860368729E-001;4.801739752292633E-002;-3.998294414486736E-004;2.800590591505170E-003;
2.405000000000000E+009;1.843400895595551E-001;4.722907766699791E-002;-1.074918327503838E-004;2.836219035089016E-003;
2.405166666666667E+009;1.858908981084824E-001;4.656460508704186E-002;-9.620850323699415E-005;2.865408081561327E-003;
2.405333333333334E+009;1.875979751348496E-001;4.595472663640976E-002;8.700854959897697E-005;2.943615894764662E-003;
2.405500000000000E+009;1.890497356653214E-001;4.542591050267220E-002;2.613184624351561E-004;2.929534763097763E-003;
2.405666666666667E+009;1.904551982879639E-001;4.495795816183090E-002;3.968004311900586E-004;2.952784067019820E-003;
2.405833333333334E+009;1.919615864753723E-001;4.464402049779892E-002;5.482389242388308E-004;2.950518392026424E-003;
2.406000000000000E+009;1.929840743541718E-001;4.441958665847778E-002;5.601459997706115E-004;2.782483585178852E-003;
2.406166666666667E+009;1.941836476325989E-001;4.415483027696610E-002;8.766966639086604E-004;2.797930268570781E-003;
2.406333333333334E+009;1.951726973056793E-001;4.422235116362572E-002;9.979228489100933E-004;2.756231464445591E-003;
2.406500000000000E+009;1.961110532283783E-001;4.425852000713348E-002;1.273639616556466E-003;2.892946824431419E-003;
2.406666666666667E+009;1.968227028846741E-001;4.402157291769981E-002;1.533900853246450E-003;2.686873078346252E-003;
2.406833333333334E+009;1.975178271532059E-001;4.413020610809326E-002;1.488106325268745E-003;2.698489930480719E-003;
2.407000000000000E+009;1.978512257337570E-001;4.404282197356224E-002;1.719436142593622E-003;2.432076726108789E-003;
2.407166666666667E+009;1.982586681842804E-001;4.392060264945030E-002;1.893718377687037E-003;2.552843652665615E-003;
2.407333333333334E+009;1.983094215393066E-001;4.401572421193123E-002;1.991210738196969E-003;2.310821553692222E-003;
2.407500000000000E+009;1.982632726430893E-001;4.401162266731262E-002;2.018576255068183E-003;2.319728024303913E-003;
2.407666666666667E+009;1.982645988464356E-001;4.389009252190590E-002;2.189494902268052E-003;2.008254174143076E-003;
2.407833333333334E+009;1.978002637624741E-001;4.368568584322929E-002;2.359229838475585E-003;1.837740885093808E-003;
2.408000000000000E+009;1.977205127477646E-001;4.345762729644775E-002;2.463881392031908E-003;1.842079567722976E-003;
2.408166666666667E+009;1.971279531717300E-001;4.305697605013847E-002;2.429180778563023E-003;1.604777644388378E-003;
2.408333333333334E+009;1.965266168117523E-001;4.251055419445038E-002;2.507761120796204E-003;1.525009167380631E-003;
2.408500000000000E+009;1.958746612071991E-001;4.203295335173607E-002;2.542481524869800E-003;1.452778466045857E-003;
2.408666666666667E+009;1.951788812875748E-001;4.158345609903336E-002;2.593059791252017E-003;1.155908801592886E-003;
2.408833333333334E+009;1.943375766277313E-001;4.074925184249878E-002;2.586840651929379E-003;1.241193152964115E-003;
2.409000000000000E+009;1.933668404817581E-001;3.983198851346970E-002;2.557068597525358E-003;1.069709658622742E-003;
2.409166666666667E+009;1.922665089368820E-001;3.886306285858154E-002;2.535781124606729E-003;8.374977624043822E-004;
2.409333333333334E+009;1.913720816373825E-001;3.789189830422401E-002;2.628959715366364E-003;8.316178573295474E-004;
2.409500000000000E+009;1.900610327720642E-001;3.650452569127083E-002;2.524519106373191E-003;8.022063993848860E-004;
2.409666666666667E+009;1.890646368265152E-001;3.510847687721252E-002;2.655196236446500E-003;3.947946825064719E-004;
2.409833333333334E+009;1.878543943166733E-001;3.369607403874397E-002;2.602121327072382E-003;4.903541994281113E-004;
2.410000000000000E+009;1.868730187416077E-001;3.199682012200356E-002;2.584359375759959E-003;2.691404661163688E-004;
2.410166666666667E+009;1.857936829328537E-001;3.017351962625980E-002;2.524362411350012E-003;2.022774569923058E-004;
2.410333333333334E+009;1.845626533031464E-001;2.859807573258877E-002;2.718334086239338E-003;4.822028495254926E-005;
2.410500000000000E+009;1.834283322095871E-001;2.654201909899712E-002;2.573308767750859E-003;-5.937105743214488E-005;
2.410666666666667E+009;1.825836449861527E-001;2.438884973526001E-002;2.387152053415775E-003;-8.831130253383890E-005;
2.410833333333334E+009;1.818034052848816E-001;2.211274206638336E-002;2.428467152640224E-003;-1.670948840910569E-004;
2.411000000000000E+009;1.810567677021027E-001;1.990696974098682E-002;2.264068461954594E-003;-6.535291322506964E-005;
2.411166666666667E+009;1.802992522716522E-001;1.772624626755714E-002;2.354023046791554E-003;-3.121014451608062E-004;
2.411333333333334E+009;1.798358261585236E-001;1.525285933166742E-002;2.027443144470453E-003;-4.989834851585329E-004;
2.411500000000000E+009;1.793186813592911E-001;1.283055450767279E-002;2.229321282356978E-003;-4.978385986760259E-004;
2.411666666666667E+009;1.792566627264023E-001;1.053799781948328E-002;2.083247294649482E-003;-6.530947284772992E-004;
2.411833333333334E+009;1.788124144077301E-001;7.950474508106709E-003;2.141458680853248E-003;-5.712371785193682E-004;
2.412000000000000E+009;1.788309216499329E-001;5.332645494490862E-003;2.135509625077248E-003;-6.870157667435706E-004;
2.412166666666667E+009;1.788743436336517E-001;3.064112039282918E-003;2.028122078627348E-003;-7.212558411993086E-004;
2.412333333333334E+009;1.790531724691391E-001;6.148322136141360E-004;1.901356037706137E-003;-7.360659074038267E-004;
2.412500000000000E+009;1.796861886978149E-001;-1.832888578064740E-003;1.911149010993540E-003;-6.555296131409705E-004;
2.412666666666667E+009;1.800301373004913E-001;-4.427255596965551E-003;1.904976437799633E-003;-7.278447737917304E-004;
2.412833333333334E+009;1.807927936315537E-001;-6.706852931529284E-003;1.875406247563660E-003;-7.059065392240882E-004;
2.413000000000000E+009;1.816057115793228E-001;-9.071493521332741E-003;1.758634927682579E-003;-7.587861036881805E-004;
2.413166666666667E+009;1.824360936880112E-001;-1.133045740425587E-002;1.686458010226488E-003;-7.229301263578236E-004;
2.413333333333334E+009;1.833526492118835E-001;-1.384055335074663E-002;1.722893444821239E-003;-7.363162003457546E-004;
2.413500000000000E+009;1.842237710952759E-001;-1.606592908501625E-002;1.785803819075227E-003;-7.884434307925403E-004;
2.413666666666667E+009;1.854805201292038E-001;-1.825257577002049E-002;1.651549013331533E-003;-8.750149281695485E-004;
2.413833333333334E+009;1.864738315343857E-001;-2.021814510226250E-002;1.586903701536357E-003;-7.473888108506799E-004;
2.414000000000000E+009;1.875759512186050E-001;-2.228146418929100E-002;1.714274869300425E-003;-8.824048563838005E-004;
2.414166666666667E+009;1.889073401689529E-001;-2.392879314720631E-002;1.771186594851315E-003;-9.823573054745793E-004;
2.414333333333334E+009;1.900470256805420E-001;-2.613541111350060E-002;1.799140824005008E-003;-9.811584604904056E-004;
2.414500000000000E+009;1.913579255342484E-001;-2.755438163876534E-002;1.866812235675752E-003;-1.165305962786079E-003;
2.414666666666667E+009;1.927153021097183E-001;-2.905992232263088E-002;1.852453453466296E-003;-1.164130982942879E-003;
2.414833333333334E+009;1.937485784292221E-001;-3.049579448997974E-002;1.754016033373773E-003;-1.334822154603899E-003;
2.415000000000000E+009;1.949967443943024E-001;-3.181313350796700E-002;1.733073848299682E-003;-1.398677122779191E-003;
2.415166666666667E+009;1.962515860795975E-001;-3.285863250494003E-002;1.613630447536707E-003;-1.545636681839824E-003;
2.415333333333334E+009;1.976664960384369E-001;-3.389850258827210E-002;1.720054657198489E-003;-1.744595821946859E-003;
2.415500000000000E+009;1.987335979938507E-001;-3.457926213741303E-002;1.543891150504351E-003;-1.865913276560605E-003;
2.415666666666667E+009;1.997881382703781E-001;-3.545599803328514E-002;1.418869476765394E-003;-1.762630767188966E-003;
2.415833333333334E+009;2.005577832460403E-001;-3.608141839504242E-002;1.126433606259525E-003;-1.756217796355486E-003;
2.416000000000000E+009;2.014676183462143E-001;-3.667669743299484E-002;1.056880573742092E-003;-1.883987453766167E-003;
2.416166666666667E+009;2.022623717784882E-001;-3.730148449540138E-002;9.282921091653407E-004;-1.989597221836448E-003;
2.416333333333334E+009;2.028965651988983E-001;-3.757536411285400E-002;9.416319662705064E-004;-1.903945580124855E-003;
2.416500000000000E+009;2.034064829349518E-001;-3.773069754242897E-002;8.495354559272528E-004;-1.826210529543459E-003;
2.416666666666667E+009;2.037087678909302E-001;-3.808398172259331E-002;7.620660471729934E-004;-1.838966854847968E-003;
2.416833333333334E+009;2.038857638835907E-001;-3.800248354673386E-002;7.067722617648542E-004;-1.496813143603504E-003;
2.417000000000000E+009;2.040508091449738E-001;-3.811067715287209E-002;6.724728737026453E-004;-1.609538099728525E-003;
2.417166666666667E+009;2.038746029138565E-001;-3.802558407187462E-002;7.179328822530806E-004;-1.705019501969218E-003;
2.417333333333334E+009;2.036458402872086E-001;-3.780199959874153E-002;6.737650837749243E-004;-1.697512692771852E-003;
2.417500000000000E+009;2.035064250230789E-001;-3.772276639938355E-002;6.091667455621064E-004;-1.634358894079924E-003;
2.417666666666667E+009;2.030213177204132E-001;-3.756550326943398E-002;7.083587697707117E-004;-1.692931633442640E-003;
2.417833333333334E+009;2.025316208600998E-001;-3.724925965070725E-002;7.747668423689902E-004;-1.616071560420096E-003;
2.418000000000000E+009;2.019797563552856E-001;-3.693349286913872E-002;5.940441042184830E-004;-1.800715574063361E-003;
2.418166666666667E+009;2.010709643363953E-001;-3.682605922222138E-002;5.458164378069341E-004;-1.940803020261228E-003;
2.418333333333334E+009;2.002465426921845E-001;-3.665870055556297E-002;3.623690281528980E-004;-2.066306769847870E-003;
2.418500000000000E+009;1.994075924158096E-001;-3.653911501169205E-002;2.993352245539427E-004;-2.070253714919090E-003;
2.418666666666667E+009;1.984607726335526E-001;-3.657766431570053E-002;1.280820288229734E-004;-2.098788972944021E-003;
2.418833333333334E+009;1.971684992313385E-001;-3.669123724102974E-002;-5.174652687855996E-005;-2.040576189756393E-003;
2.419000000000000E+009;1.958826631307602E-001;-3.681381419301033E-002;-2.253301499877125E-004;-1.908820238895714E-003;
2.419166666666667E+009;1.946568936109543E-001;-3.704594820737839E-002;-3.207612026017159E-004;-1.853159279562533E-003;
2.419333333333334E+009;1.933323889970779E-001;-3.765214234590530E-002;-2.304881636518985E-004;-1.767972484230995E-003;
2.419500000000000E+009;1.918583214282990E-001;-3.787643089890480E-002;-4.146107530687004E-004;-1.581746153533459E-003;
2.419666666666667E+009;1.904024034738541E-001;-3.875824436545372E-002;-4.116636409889907E-004;-1.584774465300143E-003;
2.419833333333334E+009;1.887365430593491E-001;-3.938730061054230E-002;-5.029109888710082E-004;-1.307074446231127E-003;
2.420000000000000E+009;1.871652752161026E-001;-4.016903415322304E-002;-3.585439699236304E-004;-1.012788736261427E-003;
2.420166666666667E+009;1.855368763208389E-001;-4.135904833674431E-002;-2.079516707453877E-004;-9.935883572325110E-004;
2.420333333333334E+009;1.837653219699860E-001;-4.250248521566391E-002;-1.019937408273108E-004;-8.440265664830804E-004;
2.420500000000000E+009;1.821505725383759E-001;-4.385663568973541E-002;1.902858457469847E-005;-6.827511242590845E-004;
2.420666666666667E+009;1.804876327514648E-001;-4.496949911117554E-002;3.585001395549625E-004;-7.342604221776128E-004;
2.420833333333334E+009;1.787944734096527E-001;-4.647006839513779E-002;4.385522042866796E-004;-6.819988484494388E-004;
2.421000000000000E+009;1.771569997072220E-001;-4.820228368043900E-002;5.992547376081348E-004;-7.498640334233642E-004;
2.421166666666667E+009;1.757325679063797E-001;-4.968875274062157E-002;6.252997554838657E-004;-8.618502761237323E-004;
2.421333333333334E+009;1.741293668746948E-001;-5.134367197751999E-002;8.038793457672000E-004;-1.173362834379077E-003;
2.421500000000000E+009;1.727713495492935E-001;-5.319290980696678E-002;8.736909367144108E-004;-1.349726342596114E-003;
2.421666666666667E+009;1.713885962963104E-001;-5.500847473740578E-002;1.176443882286549E-003;-1.495175296440721E-003;
2.421833333333334E+009;1.703655719757080E-001;-5.659893527626991E-002;1.000545104034245E-003;-1.835318980738521E-003;
2.422000000000000E+009;1.690042614936829E-001;-5.865319818258286E-002;9.704885887913406E-004;-2.004145644605160E-003;
2.422166666666667E+009;1.683081388473511E-001;-6.057818606495857E-002;8.702804334461689E-004;-2.113341121003032E-003;
2.422333333333334E+009;1.673467308282852E-001;-6.264881789684296E-002;8.168472559191287E-004;-2.378568751737475E-003;
2.422500000000000E+009;1.666414886713028E-001;-6.443966180086136E-002;7.369561935774982E-004;-2.576012862846255E-003;
2.422666666666667E+009;1.657487750053406E-001;-6.646079570055008E-002;5.243738414719701E-004;-2.636219607666135E-003;
2.422833333333334E+009;1.655033230781555E-001;-6.856019794940949E-002;4.095967742614448E-004;-2.883798442780972E-003;
2.423000000000000E+009;1.649737805128098E-001;-7.059394568204880E-002;3.887239290634170E-005;-2.905769972130656E-003;
2.423166666666667E+009;1.646322011947632E-001;-7.249239832162857E-002;-5.318485636962578E-005;-3.029160900041461E-003;
2.423333333333334E+009;1.644048541784287E-001;-7.451869547367096E-002;-2.585224865470082E-004;-3.070587292313576E-003;
2.423500000000000E+009;1.645172387361527E-001;-7.630690932273865E-002;-5.283610662445426E-004;-3.033271757885814E-003;
2.423666666666667E+009;1.645354926586151E-001;-7.832340896129608E-002;-6.527366349473596E-004;-3.103645984083414E-003;
2.423833333333334E+009;1.646114438772202E-001;-8.002320677042007E-002;-8.926808368414640E-004;-3.075711196288467E-003;
2.424000000000000E+009;1.647482216358185E-001;-8.190871775150299E-002;-1.098183332942426E-003;-3.143356414511800E-003;
2.424166666666667E+009;1.649485230445862E-001;-8.348138630390167E-002;-1.213429844938219E-003;-2.827189397066832E-003;
2.424333333333334E+009;1.652338206768036E-001;-8.505353331565857E-002;-1.477628480643034E-003;-2.944499719887972E-003;
2.424500000000000E+009;1.657563447952271E-001;-8.687441051006317E-002;-1.793722389265895E-003;-3.087998833507299E-003;
2.424666666666667E+009;1.660420894622803E-001;-8.822026848793030E-002;-1.878607203252614E-003;-2.755796769633889E-003;
2.424833333333334E+009;1.667149215936661E-001;-8.935654908418655E-002;-1.845613121986389E-003;-2.800786634907126E-003;
2.425000000000000E+009;1.671433597803116E-001;-9.062040597200394E-002;-2.111112000420690E-003;-2.549518598243594E-003;
2.425166666666667E+009;1.676253378391266E-001;-9.164138883352280E-002;-2.172942273318768E-003;-2.585701644420624E-003;
2.425333333333334E+009;1.679880768060684E-001;-9.255678951740265E-002;-2.584742614999414E-003;-2.402967773377895E-003;
2.425500000000000E+009;1.687088906764984E-001;-9.356245398521423E-002;-2.436315640807152E-003;-2.346083521842957E-003;
2.425666666666667E+009;1.692066639661789E-001;-9.431832283735275E-002;-2.625262830406427E-003;-2.119976794347167E-003;
2.425833333333334E+009;1.696723550558090E-001;-9.513950347900391E-002;-2.897508209571242E-003;-2.038825070485473E-003;
2.426000000000000E+009;1.701930761337280E-001;-9.553130716085434E-002;-2.786444732919335E-003;-1.914793858304620E-003;
2.426166666666667E+009;1.707950681447983E-001;-9.609463065862656E-002;-3.075016429647803E-003;-1.779050915502012E-003;
2.426333333333334E+009;1.711085289716721E-001;-9.655585139989853E-002;-3.054096130654216E-003;-1.456831232644618E-003;
2.426500000000000E+009;1.716100126504898E-001;-9.691596031188965E-002;-3.172003198415041E-003;-1.414271653629839E-003;
2.426666666666667E+009;1.719218492507935E-001;-9.724558889865875E-002;-3.257300239056349E-003;-1.357133151032031E-003;
2.426833333333334E+009;1.724180430173874E-001;-9.752918034791946E-002;-3.127593081444502E-003;-1.026478712446988E-003;
2.427000000000000E+009;1.725371927022934E-001;-9.778390079736710E-002;-3.389216959476471E-003;-8.892549667507410E-004;
2.427166666666667E+009;1.727208942174912E-001;-9.792272746562958E-002;-3.266470041126013E-003;-6.544801872223616E-004;
2.427333333333334E+009;1.727891117334366E-001;-9.815800935029984E-002;-3.162039211019874E-003;-4.827845841646195E-004;
2.427500000000000E+009;1.726804673671722E-001;-9.844433516263962E-002;-3.287672298029065E-003;-4.484475066419691E-004;
2.427666666666667E+009;1.724884957075119E-001;-9.858038276433945E-002;-3.229276742786169E-003;-1.690841309027746E-004;
