# Version 1.00
#
freq[Hz];re:Trc1_S11;im:Trc1_S11;re:Trc2_S21;im:Trc2_S21;
2.400000000000000E+009;1.501538008451462E-001;1.137376800179482E-001;1.628862926736474E-003;7.194890640676022E-004;
2.400166666666667E+009;1.499908566474915E-001;1.114817336201668E-001;1.546688494272530E-003;3.280644305050373E-004;
2.400333333333334E+009;1.501412987709045E-001;1.091450825333595E-001;1.594446133822203E-003;1.212281131302007E-004;
2.400500000000000E+009;1.500575989484787E-001;1.064283698797226E-001;1.242511207237840E-003;-1.349680242128670E-004;
2.400666666666667E+009;1.503945440053940E-001;1.042577698826790E-001;1.148159382864833E-003;-6.021503359079361E-004;
2.400833333333334E+009;1.503807306289673E-001;1.012335792183876E-001;9.200033964589238E-004;-6.405246676877141E-004;
2.401000000000000E+009;1.508416384458542E-001;9.852476418018341E-002;5.251772818155587E-004;-8.560003479942679E-004;
2.401166666666667E+009;1.508430093526840E-001;9.589719772338867E-002;2.607221540529281E-004;-8.912947960197926E-004;
2.401333333333334E+009;1.515970528125763E-001;9.307570010423660E-002;-6.684480467811227E-005;-1.059830072335899E-003;
2.401500000000000E+009;1.521669328212738E-001;9.017676860094070E-002;-5.113744409754872E-004;-9.452349040657282E-004;
2.401666666666667E+009;1.525838971138001E-001;8.739499002695084E-002;-8.346470422111452E-004;-7.471476565115154E-004;
2.401833333333334E+009;1.532674729824066E-001;8.484223484992981E-002;-1.063637668266892E-003;-8.109375485219061E-004;
2.402000000000000E+009;1.541437804698944E-001;8.201039582490921E-002;-1.428675372153521E-003;-5.770412972196937E-004;
2.402166666666667E+009;1.552040874958038E-001;7.942899316549301E-002;-1.677094958722591E-003;-3.334181383252144E-004;
2.402333333333334E+009;1.561478823423386E-001;7.676003873348236E-002;-1.779473852366209E-003;-9.643147495808080E-005;
2.402500000000000E+009;1.576331704854965E-001;7.424124330282211E-002;-2.034349367022514E-003;1.015888992697001E-004;
2.402666666666667E+009;1.589459627866745E-001;7.187654823064804E-002;-2.135677030310035E-003;3.971972037106752E-004;
2.402833333333334E+009;1.603295058012009E-001;6.943461298942566E-002;-2.018420258536935E-003;6.543425843119621E-004;
2.403000000000000E+009;1.619525998830795E-001;6.705152243375778E-002;-2.077822573482990E-003;9.336629300378263E-004;
2.403166666666667E+009;1.640712618827820E-001;6.504727154970169E-002;-1.837122719734907E-003;1.149345771409571E-003;
2.403333333333334E+009;1.656080484390259E-001;6.270080059766769E-002;-2.139404183253646E-003;1.474802265875042E-003;
2.403500000000000E+009;1.676063090562820E-001;6.061954051256180E-002;-1.783918356522918E-003;1.732951728627086E-003;
2.403666666666667E+009;1.695209294557571E-001;5.880414322018623E-002;-1.653314218856394E-003;1.967520453035832E-003;
2.403833333333334E+009;1.714717149734497E-001;5.681216716766357E-002;-1.512494287453592E-003;2.283164532855153E-003;
2.404000000000000E+009;1.732521951198578E-001;5.490060150623322E-002;-1.433233497664332E-003;2.219432266429067E-003;
2.404166666666667E+009;1.753307580947876E-001;5.334534496068955E-002;-1.264594728127122E-003;2.395735355094075E-003;
2.404333333333334E+009;1.772467643022537E-001;5.187175795435906E-002;-1.100720255635679E-003;2.477531321346760E-003;
2.404500000000000E+009;1.789561212062836E-001;5.030979588627815E-002;-8.485123398713768E-004;2.656487980857492E-003;
2.404666666666667E+009;1.806414276361466E-001;4.921096563339233E-002;-7.815670687705278E-004;2.552087185904384E-003;
2.404833333333334E+009;1.826237291097641E-001;4.819517210125923E-002;-5.824457039125264E-004;2.888438291847706E-003;
2.405000000000000E+009;1.841228753328323E-001;4.735069349408150E-002;-4.453517613001168E-004;2.821791917085648E-003;
2.405166666666667E+009;1.857204139232636E-001;4.649986326694489E-002;-2.033844211837277E-004;3.002427751198411E-003;
2.405333333333334E+009;1.871968954801559E-001;4.604762047529221E-002;-3.259795266785659E-005;3.053472144529223E-003;
2.405500000000000E+009;1.888614147901535E-001;4.560753330588341E-002;2.340621285839006E-004;2.817973727360368E-003;
2.405666666666667E+009;1.900498718023300E-001;4.519489780068398E-002;3.543655329849571E-004;2.859771950170398E-003;
2.405833333333334E+009;1.917077600955963E-001;4.469418153166771E-002;3.986166848335415E-004;2.985129831358790E-003;
2.406000000000000E+009;1.927805393934250E-001;4.455336183309555E-002;8.348897681571543E-004;2.858920022845268E-003;
2.406166666666667E+009;1.939282864332199E-001;4.435966536402702E-002;8.780481875874102E-004;2.820848952978849E-003;
2.406333333333334E+009;1.949288398027420E-001;4.436724632978439E-002;9.644253295846283E-004;2.861053682863712E-003;
2.406500000000000E+009;1.957734376192093E-001;4.428558424115181E-002;1.191116985864937E-003;2.709671854972839E-003;
2.406666666666667E+009;1.965264379978180E-001;4.429767653346062E-002;1.252389862202108E-003;2.787781879305840E-003;
2.406833333333334E+009;1.971353143453598E-001;4.429128021001816E-002;1.602348987944424E-003;2.719984157010913E-003;
2.407000000000000E+009;1.975103169679642E-001;4.437736794352531E-002;1.674970029853284E-003;2.675202442333102E-003;
2.407166666666667E+009;1.979936659336090E-001;4.414301738142967E-002;1.838864176534116E-003;2.489160047844052E-003;
2.407333333333334E+009;1.981100887060165E-001;4.426020383834839E-002;2.018735278397799E-003;2.415820490568876E-003;
2.407500000000000E+009;1.980244517326355E-001;4.432961717247963E-002;2.129333093762398E-003;2.291859593242407E-003;
2.407666666666667E+009;1.979711353778839E-001;4.412577301263809E-002;2.275093458592892E-003;2.152115572243929E-003;
2.407833333333334E+009;1.976625025272369E-001;4.389416053891182E-002;2.328206086531282E-003;1.996822189539671E-003;
2.408000000000000E+009;1.974509060382843E-001;4.382847249507904E-002;2.388144144788384E-003;1.705905888229609E-003;
2.408166666666667E+009;1.968671381473541E-001;4.340230301022530E-002;2.610659226775169E-003;1.753098680637777E-003;
2.408333333333334E+009;1.964488178491592E-001;4.287013784050942E-002;2.553128404542804E-003;1.489213900640607E-003;
2.408500000000000E+009;1.955858319997788E-001;4.255212843418121E-002;2.557365922257304E-003;1.408596406690776E-003;
2.408666666666667E+009;1.949142813682556E-001;4.193830490112305E-002;2.598566468805075E-003;1.400679000653327E-003;
2.408833333333334E+009;1.941467821598053E-001;4.110488295555115E-002;2.519820583984256E-003;1.226167660206556E-003;
2.409000000000000E+009;1.931125372648239E-001;4.011356830596924E-002;2.476010471582413E-003;1.225452404469252E-003;
2.409166666666667E+009;1.921093165874481E-001;3.921410813927651E-002;2.574766520410776E-003;1.013905042782426E-003;
2.409333333333334E+009;1.911699920892716E-001;3.812606632709503E-002;2.538704080507159E-003;7.554968469776213E-004;
2.409500000000000E+009;1.898756921291351E-001;3.691935166716576E-002;2.538373460993171E-003;7.492572767660022E-004;
2.409666666666667E+009;1.887616813182831E-001;3.542891889810562E-002;2.505244920030236E-003;6.540585891343653E-004;
2.409833333333334E+009;1.877013146877289E-001;3.411066159605980E-002;2.561965258792043E-003;5.705891526304185E-004;
2.410000000000000E+009;1.865378469228745E-001;3.233891353011131E-002;2.628111047670245E-003;5.187166971154511E-004;
2.410166666666667E+009;1.855750828981400E-001;3.055030852556229E-002;2.521556336432695E-003;2.911633346229792E-004;
2.410333333333334E+009;1.845094412565231E-001;2.884558215737343E-002;2.664142986759543E-003;2.211435930803418E-004;
2.410500000000000E+009;1.835813522338867E-001;2.692731469869614E-002;2.623175270855427E-003;1.394798018736765E-004;
2.410666666666667E+009;1.825615912675858E-001;2.479197457432747E-002;2.498049056157470E-003;6.113684503361583E-005;
2.410833333333334E+009;1.818146556615830E-001;2.252232283353806E-002;2.446267986670137E-003;4.058839840581641E-005;
2.411000000000000E+009;1.808964312076569E-001;2.034857124090195E-002;2.371690701693296E-003;-2.794450847432017E-004;
2.411166666666667E+009;1.803467869758606E-001;1.822842657566071E-002;2.420525997877121E-003;-3.193204174749553E-004;
2.411333333333334E+009;1.797843873500824E-001;1.558535918593407E-002;2.266289666295052E-003;-2.291627897648141E-004;
2.411500000000000E+009;1.792119294404984E-001;1.330965105444193E-002;2.335347700864077E-003;-3.990514378529042E-004;
2.411666666666667E+009;1.791663169860840E-001;1.085058879107237E-002;2.173488726839423E-003;-5.997417028993368E-004;
2.411833333333334E+009;1.788034141063690E-001;8.513750508427620E-003;2.094258787110448E-003;-5.291128763929009E-004;
2.412000000000000E+009;1.790269166231155E-001;5.779843311756849E-003;2.058956539258361E-003;-4.573708574753255E-004;
2.412166666666667E+009;1.789892315864563E-001;3.527438035234809E-003;2.041140338405967E-003;-6.024034228175879E-004;
2.412333333333334E+009;1.793089359998703E-001;8.765393868088722E-004;2.031302312389016E-003;-5.703735514543951E-004;
2.412500000000000E+009;1.796500384807587E-001;-1.791452639736235E-003;1.884424244053662E-003;-5.993553204461932E-004;
2.412666666666667E+009;1.800527274608612E-001;-4.133384209126234E-003;2.090482739731669E-003;-8.692568517290056E-004;
2.412833333333334E+009;1.806778758764267E-001;-6.617841776460409E-003;1.917341956868768E-003;-5.819806829094887E-004;
2.413000000000000E+009;1.815554797649384E-001;-8.894071914255619E-003;1.733813667669892E-003;-6.412237999029458E-004;
2.413166666666667E+009;1.823805868625641E-001;-1.118507701903582E-002;1.841143472120166E-003;-6.386837339960039E-004;
2.413333333333334E+009;1.832559108734131E-001;-1.355982758104801E-002;1.749297953210771E-003;-7.343600154854357E-004;
2.413500000000000E+009;1.843276470899582E-001;-1.576967909932137E-002;1.782954670488834E-003;-7.069245330058038E-004;
2.413666666666667E+009;1.854060292243958E-001;-1.807247474789619E-002;1.675239298492670E-003;-7.792057585902512E-004;
2.413833333333334E+009;1.867018043994904E-001;-2.005390822887421E-002;1.763949054293335E-003;-8.844544063322246E-004;
2.414000000000000E+009;1.876949965953827E-001;-2.211878076195717E-002;1.812858274206519E-003;-8.200423908419907E-004;
2.414166666666667E+009;1.890387386083603E-001;-2.383825555443764E-002;1.872938475571573E-003;-8.203244069591165E-004;
2.414333333333334E+009;1.902753263711929E-001;-2.593173272907734E-002;1.934175263158977E-003;-9.719021036289632E-004;
2.414500000000000E+009;1.916552633047104E-001;-2.725944854319096E-002;1.872986438684166E-003;-1.068174024112523E-003;
2.414666666666667E+009;1.927121132612228E-001;-2.885445393621922E-002;1.946660922840238E-003;-1.196019817143679E-003;
2.414833333333334E+009;1.941035836935043E-001;-3.026944585144520E-002;1.828455948270857E-003;-1.228473614901304E-003;
2.415000000000000E+009;1.952335834503174E-001;-3.153172880411148E-002;1.927695120684803E-003;-1.294013229198754E-003;
2.415166666666667E+009;1.966638714075089E-001;-3.275021165609360E-002;1.810573157854378E-003;-1.609937055036426E-003;
2.415333333333334E+009;1.976857930421829E-001;-3.373430296778679E-002;1.762607484124601E-003;-1.759037608280778E-003;
2.415500000000000E+009;1.987901777029038E-001;-3.434054180979729E-002;1.567622879520059E-003;-1.808851375244558E-003;
2.415666666666667E+009;1.999685168266296E-001;-3.520084172487259E-002;1.519005279988051E-003;-1.742012100294232E-003;
2.415833333333334E+009;2.008114010095596E-001;-3.594921529293060E-002;1.244333921931684E-003;-1.802063197828829E-003;
2.416000000000000E+009;2.016387581825256E-001;-3.647404536604881E-002;1.197758363559842E-003;-1.913782558403909E-003;
2.416166666666667E+009;2.023200541734695E-001;-3.709939122200012E-002;1.020593917928636E-003;-1.892921631224453E-003;
2.416333333333334E+009;2.030552327632904E-001;-3.728145360946655E-002;8.597875130362809E-004;-1.852526795119047E-003;
2.416500000000000E+009;2.035059332847595E-001;-3.768238797783852E-002;7.801207830198109E-004;-1.801301259547472E-003;
2.416666666666667E+009;2.039657086133957E-001;-3.794441372156143E-002;7.118436042219400E-004;-1.671988633461297E-003;
2.416833333333334E+009;2.041534930467606E-001;-3.782745078206062E-002;8.605356561020017E-004;-1.751976786181331E-003;
2.417000000000000E+009;2.043509781360626E-001;-3.795439377427101E-002;7.755171973258257E-004;-1.745663816109300E-003;
2.417166666666667E+009;2.039966583251953E-001;-3.787468373775482E-002;7.938693743199110E-004;-1.632116385735571E-003;
2.417333333333334E+009;2.038642317056656E-001;-3.765714168548584E-002;7.189583266153932E-004;-1.613490399904549E-003;
2.417500000000000E+009;2.037287503480911E-001;-3.764639049768448E-002;7.599623640999198E-004;-1.660099602304399E-003;
2.417666666666667E+009;2.031592577695847E-001;-3.723872825503349E-002;7.397105218842626E-004;-1.671810867264867E-003;
2.417833333333334E+009;2.028042376041412E-001;-3.706475347280502E-002;6.053565884940326E-004;-1.881213043816388E-003;
2.418000000000000E+009;2.021415531635284E-001;-3.686513751745224E-002;6.630436982959509E-004;-2.037133323028684E-003;
2.418166666666667E+009;2.014270573854446E-001;-3.682053089141846E-002;4.544883558992297E-004;-2.009236020967364E-003;
2.418333333333334E+009;2.005154192447662E-001;-3.661698102951050E-002;5.724147194996476E-004;-2.078165998682380E-003;
2.418500000000000E+009;1.996135413646698E-001;-3.650759160518646E-002;2.211627434007824E-004;-2.074063522741199E-003;
2.418666666666667E+009;1.987007707357407E-001;-3.637715429067612E-002;3.207797999493778E-004;-2.058582613244653E-003;
2.418833333333334E+009;1.974145323038101E-001;-3.650901094079018E-002;9.722616232465953E-005;-2.049941569566727E-003;
2.419000000000000E+009;1.962416321039200E-001;-3.669012337923050E-002;-8.635384438093752E-005;-1.875019515864551E-003;
2.419166666666667E+009;1.949835866689682E-001;-3.701725602149963E-002;-2.326826215721667E-004;-1.893869019113481E-003;
2.419333333333334E+009;1.935693621635437E-001;-3.741957247257233E-002;-3.719042288139463E-004;-1.734992722049356E-003;
2.419500000000000E+009;1.919893622398377E-001;-3.789792209863663E-002;-4.846464144065976E-004;-1.529157860204577E-003;
2.419666666666667E+009;1.905187666416168E-001;-3.863925486803055E-002;-3.946725628338754E-004;-1.339757349342108E-003;
2.419833333333334E+009;1.888880878686905E-001;-3.940230980515480E-002;-3.973894054070115E-004;-1.186544890515506E-003;
2.420000000000000E+009;1.874096542596817E-001;-4.031332209706307E-002;-3.013501118402928E-004;-1.050722552463412E-003;
2.420166666666667E+009;1.856441795825958E-001;-4.138430953025818E-002;-1.447896211175248E-004;-1.020406372845173E-003;
2.420333333333334E+009;1.840331405401230E-001;-4.249615967273712E-002;-4.865075243287720E-005;-7.984328549355269E-004;
2.420500000000000E+009;1.821887940168381E-001;-4.383364319801331E-002;3.522427505231462E-005;-7.971524028107524E-004;
2.420666666666667E+009;1.805903762578964E-001;-4.504659026861191E-002;3.660064830910415E-004;-7.011377601884306E-004;
2.420833333333334E+009;1.788947731256485E-001;-4.639313742518425E-002;3.697982174344361E-004;-8.790432475507259E-004;
2.421000000000000E+009;1.774106174707413E-001;-4.798288270831108E-002;6.311038159765303E-004;-9.386452147737145E-004;
2.421166666666667E+009;1.759171932935715E-001;-4.978157952427864E-002;8.945832960307598E-004;-1.025483477860689E-003;
2.421333333333334E+009;1.742701977491379E-001;-5.128802359104157E-002;8.021038956940174E-004;-1.200661296024919E-003;
2.421500000000000E+009;1.729441285133362E-001;-5.320481210947037E-002;9.883921593427658E-004;-1.449608011171222E-003;
2.421666666666667E+009;1.715461462736130E-001;-5.497132614254952E-002;1.065789256244898E-003;-1.495290896855295E-003;
2.421833333333334E+009;1.705638766288757E-001;-5.677042156457901E-002;1.123622525483370E-003;-1.787891495041549E-003;
2.422000000000000E+009;1.692460179328919E-001;-5.867198854684830E-002;1.107822987250984E-003;-2.014754340052605E-003;
2.422166666666667E+009;1.684585362672806E-001;-6.086842715740204E-002;9.442000882700086E-004;-2.158781047910452E-003;
2.422333333333334E+009;1.675296574831009E-001;-6.281451880931854E-002;9.071750682778657E-004;-2.408957807347179E-003;
2.422500000000000E+009;1.667439490556717E-001;-6.466662138700485E-002;6.926202913746238E-004;-2.613312331959605E-003;
2.422666666666667E+009;1.660038381814957E-001;-6.664270162582398E-002;3.866364131681621E-004;-2.866672351956368E-003;
2.422833333333334E+009;1.656909584999085E-001;-6.876461952924728E-002;4.046626854687929E-004;-2.868552459403873E-003;
2.423000000000000E+009;1.651196479797363E-001;-7.066083699464798E-002;3.441559092607349E-004;-2.942387480288744E-003;
2.423166666666667E+009;1.647606045007706E-001;-7.273572683334351E-002;2.274511280120350E-005;-3.068524645641446E-003;
2.423333333333334E+009;1.646016985177994E-001;-7.472311705350876E-002;-2.741453063208610E-004;-3.122458001598716E-003;
2.423500000000000E+009;1.645253896713257E-001;-7.649762928485870E-002;-4.809768579434604E-004;-3.127128351479769E-003;
2.423666666666667E+009;1.645625978708267E-001;-7.847283035516739E-002;-8.030715980567038E-004;-3.248335095122457E-003;
2.423833333333334E+009;1.647095382213593E-001;-8.021863549947739E-002;-8.127247565425932E-004;-3.195867640897632E-003;
2.424000000000000E+009;1.649165600538254E-001;-8.196473866701126E-002;-1.063810079358518E-003;-3.202715422958136E-003;
2.424166666666667E+009;1.650378853082657E-001;-8.352009952068329E-002;-1.229567918926477E-003;-3.042316529899836E-003;
2.424333333333334E+009;1.653496623039246E-001;-8.522135019302368E-002;-1.532983267679811E-003;-3.037452697753906E-003;
2.424500000000000E+009;1.659261435270309E-001;-8.693828433752060E-002;-1.639744616113603E-003;-2.833991777151823E-003;
2.424666666666667E+009;1.660907715559006E-001;-8.825922757387161E-002;-1.920852577313781E-003;-2.925290027633309E-003;
2.424833333333334E+009;1.667779088020325E-001;-8.961944282054901E-002;-2.010666532441974E-003;-2.777659334242344E-003;
2.425000000000000E+009;1.673019230365753E-001;-9.078180789947510E-002;-2.095201751217246E-003;-2.684130799025297E-003;
2.425166666666667E+009;1.677978932857513E-001;-9.181218594312668E-002;-2.449777210131288E-003;-2.570410259068012E-003;
2.425333333333334E+009;1.682299077510834E-001;-9.277431666851044E-002;-2.387413522228599E-003;-2.495251828804612E-003;
2.425500000000000E+009;1.686830520629883E-001;-9.376742690801621E-002;-2.483173739165068E-003;-2.436390612274408E-003;
2.425666666666667E+009;1.693642139434815E-001;-9.440291672945023E-002;-2.622463740408421E-003;-2.182158874347806E-003;
2.425833333333334E+009;1.697229892015457E-001;-9.526468813419342E-002;-2.756275236606598E-003;-2.095181727781892E-003;
2.426000000000000E+009;1.703815609216690E-001;-9.571012854576111E-002;-2.888692077249289E-003;-1.971521414816380E-003;
2.426166666666667E+009;1.708415299654007E-001;-9.619870781898499E-002;-3.120629815384746E-003;-1.969339093193412E-003;
2.426333333333334E+009;1.711598783731461E-001;-9.677686542272568E-002;-3.024407662451267E-003;-1.687974086962640E-003;
2.426500000000000E+009;1.715804636478424E-001;-9.703302383422852E-002;-3.246354172006249E-003;-1.494808122515678E-003;
2.426666666666667E+009;1.720311045646668E-001;-9.741530567407608E-002;-3.273945301771164E-003;-1.313363551162183E-003;
2.426833333333334E+009;1.724999248981476E-001;-9.767466038465500E-002;-3.284136764705181E-003;-1.080459798686206E-003;
2.427000000000000E+009;1.725478172302246E-001;-9.790419787168503E-002;-3.284552367404103E-003;-9.366922895424068E-004;
2.427166666666667E+009;1.727522462606430E-001;-9.802610427141190E-002;-3.344259923323989E-003;-8.681781473569572E-004;
2.427333333333334E+009;1.728091239929199E-001;-9.833577275276184E-002;-3.445634618401527E-003;-6.261023227125406E-004;
2.427500000000000E+009;1.726333051919937E-001;-9.852576255798340E-002;-3.468455513939261E-003;-4.509103018790484E-004;
2.427666666666667E+009;1.725324541330338E-001;-9.860183298587799E-002;-3.391537116840482E-003;-2.824972907546908E-004;
