# Version 1.00
#
freq[Hz];re:Trc1_S11;im:Trc1_S11;re:Trc2_S21;im:Trc2_S21;
2.400000000000000E+009;1.504361480474472E-001;1.139302253723145E-001;1.770194387063384E-003;8.103416766971350E-004;
2.400166666666667E+009;1.503109782934189E-001;1.116921901702881E-001;1.657808315940201E-003;6.180971395224333E-004;
2.400333333333334E+009;1.505314707756043E-001;1.093966141343117E-001;1.649090670980513E-003;2.299330808455125E-004;
2.400500000000000E+009;1.504478007555008E-001;1.067346557974815E-001;1.377649721689522E-003;-1.551650784676895E-004;
2.400666666666667E+009;1.506901234388351E-001;1.043100357055664E-001;1.283987658098340E-003;-4.097231721971184E-004;
2.400833333333334E+009;1.508851498365402E-001;1.013979762792587E-001;1.049418584443629E-003;-4.847702803090215E-004;
2.401000000000000E+009;1.509714722633362E-001;9.862583130598068E-002;6.691134185530245E-004;-8.512512431479991E-004;
2.401166666666667E+009;1.512426882982254E-001;9.603724628686905E-002;3.842482401523739E-004;-1.086666248738766E-003;
2.401333333333334E+009;1.518824547529221E-001;9.321336448192596E-002;-2.053313073702157E-005;-1.040341332554817E-003;
2.401500000000000E+009;1.522735804319382E-001;9.019719064235687E-002;-3.054130356758833E-004;-8.573897066526115E-004;
2.401666666666667E+009;1.528902351856232E-001;8.756060153245926E-002;-8.185086189769208E-004;-9.046195773407817E-004;
2.401833333333334E+009;1.534167826175690E-001;8.488478511571884E-002;-9.049477521330118E-004;-8.146769250743091E-004;
2.402000000000000E+009;1.544748991727829E-001;8.216924965381622E-002;-1.288928324356675E-003;-6.716909119859338E-004;
2.402166666666667E+009;1.555293947458267E-001;7.949993014335632E-002;-1.394499442540109E-003;-2.800642396323383E-004;
2.402333333333334E+009;1.565683186054230E-001;7.676660269498825E-002;-1.633104751817882E-003;-8.793060260359198E-005;
2.402500000000000E+009;1.580880582332611E-001;7.421360164880753E-002;-1.874569337815046E-003;1.454847079003230E-004;
2.402666666666667E+009;1.591983139514923E-001;7.201475650072098E-002;-1.944955554790795E-003;4.018069012090564E-004;
2.402833333333334E+009;1.607429683208466E-001;6.949026137590408E-002;-1.964217517524958E-003;6.228737183846533E-004;
2.403000000000000E+009;1.624265909194946E-001;6.720460206270218E-002;-1.894746907055378E-003;9.185468079522252E-004;
2.403166666666667E+009;1.642114222049713E-001;6.485906243324280E-002;-1.929762773215771E-003;1.112278783693910E-003;
2.403333333333334E+009;1.659800857305527E-001;6.287602335214615E-002;-1.785878906957805E-003;1.520071877166629E-003;
2.403500000000000E+009;1.681048125028610E-001;6.051302701234818E-002;-1.659723580814898E-003;1.671306323260069E-003;
2.403666666666667E+009;1.698516011238098E-001;5.856779217720032E-002;-1.657571643590927E-003;1.755388686433435E-003;
2.403833333333334E+009;1.719247251749039E-001;5.674029886722565E-002;-1.553488778881729E-003;2.151132794097066E-003;
2.404000000000000E+009;1.735174804925919E-001;5.497090145945549E-002;-1.426341710612178E-003;2.274503232911229E-003;
2.404166666666667E+009;1.756819486618042E-001;5.326355248689652E-002;-1.213359995745122E-003;2.530441153794527E-003;
2.404333333333334E+009;1.774331629276276E-001;5.162605270743370E-002;-1.002585515379906E-003;2.533441176638007E-003;
2.404500000000000E+009;1.791604608297348E-001;5.022678896784782E-002;-8.151452057063580E-004;2.642201026901603E-003;
2.404666666666667E+009;1.811006069183350E-001;4.907123371958733E-002;-7.034262525849044E-004;2.804581774398685E-003;
2.404833333333334E+009;1.829239279031754E-001;4.786285385489464E-002;-4.635106015484780E-004;2.643912564963102E-003;
2.405000000000000E+009;1.843893527984619E-001;4.720550775527954E-002;-2.788358251564205E-004;2.930086338892579E-003;
2.405166666666667E+009;1.861147880554199E-001;4.649514704942703E-002;-1.346887729596347E-004;2.912360243499279E-003;
2.405333333333334E+009;1.877215504646301E-001;4.571175575256348E-002;-1.202883504447527E-004;2.884839894250035E-003;
2.405500000000000E+009;1.892769038677216E-001;4.535557329654694E-002;1.648419420234859E-004;2.971079433336854E-003;
2.405666666666667E+009;1.905435025691986E-001;4.491236433386803E-002;4.049763083457947E-004;2.809547586366534E-003;
2.405833333333334E+009;1.919775605201721E-001;4.458369314670563E-002;3.518631274346262E-004;2.732420107349753E-003;
2.406000000000000E+009;1.930332183837891E-001;4.446996375918388E-002;5.892756744287908E-004;2.952710026875138E-003;
2.406166666666667E+009;1.942636966705322E-001;4.408094659447670E-002;8.770730928517878E-004;2.817911561578512E-003;
2.406333333333334E+009;1.953013241291046E-001;4.416248947381973E-002;1.152126118540764E-003;2.909117843955755E-003;
2.406500000000000E+009;1.961826980113983E-001;4.408551007509232E-002;1.133391750045121E-003;2.726044040173292E-003;
2.406666666666667E+009;1.969253867864609E-001;4.390345513820648E-002;1.324508339166641E-003;2.748755039647222E-003;
2.406833333333334E+009;1.975870281457901E-001;4.398401826620102E-002;1.469224109314382E-003;2.724152524024248E-003;
2.407000000000000E+009;1.979641318321228E-001;4.406780749559403E-002;1.769712427631021E-003;2.581116044893861E-003;
2.407166666666667E+009;1.983869820833206E-001;4.383910074830055E-002;1.804257626645267E-003;2.469740342348814E-003;
2.407333333333334E+009;1.983668953180313E-001;4.398117959499359E-002;2.061618957668543E-003;2.340906532481313E-003;
2.407500000000000E+009;1.983699500560761E-001;4.397928342223167E-002;2.168967388570309E-003;2.313275588676333E-003;
2.407666666666667E+009;1.983258426189423E-001;4.374760389328003E-002;2.138225361704826E-003;2.237498061731458E-003;
2.407833333333334E+009;1.978227943181992E-001;4.358274862170219E-002;2.347376197576523E-003;1.908914651721716E-003;
2.408000000000000E+009;1.977716237306595E-001;4.339519143104553E-002;2.422472927719355E-003;1.875112182460725E-003;
2.408166666666667E+009;1.971167325973511E-001;4.274272918701172E-002;2.536524552851915E-003;1.689728815108538E-003;
2.408333333333334E+009;1.966218650341034E-001;4.261200502514839E-002;2.484587486833334E-003;1.452826312743127E-003;
2.408500000000000E+009;1.958137005567551E-001;4.208203777670860E-002;2.592298202216625E-003;1.371354330331087E-003;
2.408666666666667E+009;1.951477974653244E-001;4.153666272759438E-002;2.631257520988584E-003;1.167632057331502E-003;
2.408833333333334E+009;1.942959576845169E-001;4.073403030633926E-002;2.557955449447036E-003;1.136553240939975E-003;
2.409000000000000E+009;1.932709068059921E-001;3.973595425486565E-002;2.619247185066342E-003;1.049073995091021E-003;
2.409166666666667E+009;1.921270638704300E-001;3.888309001922607E-002;2.712436020374298E-003;8.181908633559942E-004;
2.409333333333334E+009;1.912128180265427E-001;3.790640458464623E-002;2.570502460002899E-003;7.453071884810925E-004;
2.409500000000000E+009;1.899930983781815E-001;3.661343455314636E-002;2.540141111239791E-003;6.765849539078772E-004;
2.409666666666667E+009;1.889180690050125E-001;3.522139415144920E-002;2.504960633814335E-003;6.209001876413822E-004;
2.409833333333334E+009;1.877586841583252E-001;3.375614061951637E-002;2.687585307285190E-003;4.021364147774875E-004;
2.410000000000000E+009;1.867132633924484E-001;3.207901120185852E-002;2.719221403822303E-003;3.912844113074243E-004;
2.410166666666667E+009;1.857748925685883E-001;3.030915930867195E-002;2.689158078283072E-003;1.715359103400260E-004;
2.410333333333334E+009;1.844737827777863E-001;2.860314026474953E-002;2.519323490560055E-003;3.171052594552748E-005;
2.410500000000000E+009;1.834973692893982E-001;2.655746415257454E-002;2.562684472650290E-003;-3.461370215518400E-005;
2.410666666666667E+009;1.825077980756760E-001;2.442393451929092E-002;2.618356607854366E-003;8.595014151069336E-006;
2.410833333333334E+009;1.817867606878281E-001;2.225576154887676E-002;2.429600106552243E-003;-3.626563120633364E-004;
2.411000000000000E+009;1.808921694755554E-001;2.001243084669113E-002;2.337814774364233E-003;-2.894237986765802E-004;
2.411166666666667E+009;1.802300512790680E-001;1.782429590821266E-002;2.418202813714743E-003;-4.087607667315751E-004;
2.411333333333334E+009;1.798677593469620E-001;1.533899363130331E-002;2.313257660716772E-003;-5.480188410729170E-004;
2.411500000000000E+009;1.792854964733124E-001;1.284426171332598E-002;2.177463611587882E-003;-4.866598756052554E-004;
2.411666666666667E+009;1.790038347244263E-001;1.047940086573362E-002;2.100663259625435E-003;-4.131750902161002E-004;
2.411833333333334E+009;1.786960661411285E-001;8.117796853184700E-003;2.073457464575768E-003;-6.527137593366206E-004;
2.412000000000000E+009;1.787110716104507E-001;5.377096589654684E-003;2.047892194241285E-003;-5.979667184874415E-004;
2.412166666666667E+009;1.788609474897385E-001;3.124253824353218E-003;1.877395668998361E-003;-6.985556101426482E-004;
2.412333333333334E+009;1.790938973426819E-001;5.616346024908125E-004;1.817302661947906E-003;-6.451078224927187E-004;
2.412500000000000E+009;1.795260012149811E-001;-2.055200282484293E-003;1.887134858407080E-003;-7.274090894497931E-004;
2.412666666666667E+009;1.799481213092804E-001;-4.416608251631260E-003;1.745485700666904E-003;-6.821276037953794E-004;
2.412833333333334E+009;1.808265894651413E-001;-6.891079246997833E-003;1.606495934538543E-003;-7.884937222115696E-004;
2.413000000000000E+009;1.813040673732758E-001;-9.276644326746464E-003;1.701715053059161E-003;-7.049161358736455E-004;
2.413166666666667E+009;1.820031404495239E-001;-1.141409296542406E-002;1.656252425163984E-003;-7.204374414868653E-004;
2.413333333333334E+009;1.832443624734879E-001;-1.393461134284735E-002;1.715548103675246E-003;-7.623429992236197E-004;
2.413500000000000E+009;1.841642707586289E-001;-1.612767949700356E-002;1.704233698546886E-003;-8.050707983784378E-004;
2.413666666666667E+009;1.853719651699066E-001;-1.832776889204979E-002;1.719864318147302E-003;-8.153404924087226E-004;
2.413833333333334E+009;1.863079071044922E-001;-2.039393596351147E-002;1.787517336197197E-003;-6.726109422743321E-004;
2.414000000000000E+009;1.876210272312164E-001;-2.229080162942410E-002;1.773998606950045E-003;-8.873663609847426E-004;
2.414166666666667E+009;1.888677179813385E-001;-2.421655692160130E-002;1.684956368990243E-003;-1.064200303517282E-003;
2.414333333333334E+009;1.900241374969482E-001;-2.610209956765175E-002;1.855140435509384E-003;-1.007631071843207E-003;
2.414500000000000E+009;1.914086043834686E-001;-2.769217267632484E-002;1.828334759920836E-003;-1.112196594476700E-003;
2.414666666666667E+009;1.925902515649796E-001;-2.906021475791931E-002;1.860875403508544E-003;-1.297277864068747E-003;
2.414833333333334E+009;1.937519311904907E-001;-3.063194453716278E-002;1.811707625165582E-003;-1.278311363421381E-003;
2.415000000000000E+009;1.949131786823273E-001;-3.171205893158913E-002;1.799653982743621E-003;-1.429170952178538E-003;
2.415166666666667E+009;1.961984187364578E-001;-3.307322785258293E-002;1.690219389274716E-003;-1.492429641075432E-003;
2.415333333333334E+009;1.974332183599472E-001;-3.401604667305946E-002;1.523195183835924E-003;-1.635476714000106E-003;
2.415500000000000E+009;1.985372751951218E-001;-3.456054627895355E-002;1.534849870949984E-003;-1.720059197396040E-003;
2.415666666666667E+009;1.996940374374390E-001;-3.546640649437904E-002;1.346602570265532E-003;-1.936182612553239E-003;
2.415833333333334E+009;2.005970627069473E-001;-3.602595254778862E-002;1.181530999019742E-003;-1.730080228298903E-003;
2.416000000000000E+009;2.013791203498840E-001;-3.673558682203293E-002;1.183671760372818E-003;-1.808585482649505E-003;
2.416166666666667E+009;2.022694796323776E-001;-3.723457455635071E-002;1.049045822583139E-003;-1.808048458769918E-003;
2.416333333333334E+009;2.028746157884598E-001;-3.749346733093262E-002;7.689933991059661E-004;-1.838950789533556E-003;
2.416500000000000E+009;2.034506052732468E-001;-3.771072253584862E-002;7.010414847172797E-004;-1.964409602805972E-003;
2.416666666666667E+009;2.037365585565567E-001;-3.800725936889648E-002;7.047035614959896E-004;-1.668242504820228E-003;
2.416833333333334E+009;2.039660066366196E-001;-3.796449676156044E-002;7.330919033847749E-004;-1.725457725115120E-003;
2.417000000000000E+009;2.041736543178558E-001;-3.808357194066048E-002;5.719012115150690E-004;-1.616645837202668E-003;
2.417166666666667E+009;2.039000391960144E-001;-3.798409551382065E-002;8.174505201168358E-004;-1.703561167232692E-003;
2.417333333333334E+009;2.036821097135544E-001;-3.781348466873169E-002;7.730316719971597E-004;-1.535544870421290E-003;
2.417500000000000E+009;2.034361958503723E-001;-3.774343058466911E-002;6.825000164099038E-004;-1.524618826806545E-003;
2.417666666666667E+009;2.029679715633392E-001;-3.745497763156891E-002;6.015808903612196E-004;-1.636928063817322E-003;
2.417833333333334E+009;2.025846838951111E-001;-3.722489625215530E-002;6.481061573140323E-004;-1.818826538510621E-003;
2.418000000000000E+009;2.019322812557221E-001;-3.691007196903229E-002;7.221263949759305E-004;-1.770833856426179E-003;
2.418166666666667E+009;2.011876255273819E-001;-3.668129071593285E-002;4.812536935787648E-004;-1.889269100502133E-003;
2.418333333333334E+009;2.003052830696106E-001;-3.653063252568245E-002;4.761111049447209E-004;-1.919200527481735E-003;
2.418500000000000E+009;1.994162648916245E-001;-3.652516379952431E-002;2.546912583056837E-004;-2.092130947858095E-003;
2.418666666666667E+009;1.983570605516434E-001;-3.636744245886803E-002;1.988837611861527E-004;-1.957172993570566E-003;
2.418833333333334E+009;1.971490830183029E-001;-3.653325140476227E-002;8.014409831957892E-005;-2.013566903769970E-003;
2.419000000000000E+009;1.959998458623886E-001;-3.663722053170204E-002;-1.209366382681765E-004;-1.865027472376823E-003;
2.419166666666667E+009;1.947316378355026E-001;-3.698541969060898E-002;-2.102412545355037E-004;-1.746675814501941E-003;
2.419333333333334E+009;1.933163404464722E-001;-3.744501620531082E-002;-2.322546642972156E-004;-1.728046569041908E-003;
2.419500000000000E+009;1.918885111808777E-001;-3.788042813539505E-002;-5.344850942492485E-004;-1.621086150407791E-003;
2.419666666666667E+009;1.901322007179260E-001;-3.866356611251831E-002;-4.105453554075211E-004;-1.411953358910978E-003;
2.419833333333334E+009;1.887627989053726E-001;-3.944467008113861E-002;-3.714994527399540E-004;-1.304838922806084E-003;
2.420000000000000E+009;1.870522648096085E-001;-4.034022986888886E-002;-4.171550972387195E-004;-1.009940169751644E-003;
2.420166666666667E+009;1.854464411735535E-001;-4.112659767270088E-002;-2.358746278332546E-004;-9.379565599374473E-004;
2.420333333333334E+009;1.837413311004639E-001;-4.243624210357666E-002;2.679987119336147E-006;-8.531351340934634E-004;
2.420500000000000E+009;1.819824129343033E-001;-4.371761530637741E-002;-7.290505436685635E-006;-8.360925712622702E-004;
2.420666666666667E+009;1.804344803094864E-001;-4.485129565000534E-002;2.548135526012629E-004;-7.034964510239661E-004;
2.420833333333334E+009;1.786617338657379E-001;-4.648775234818459E-002;4.550417361315340E-004;-6.515745772048831E-004;
2.421000000000000E+009;1.770664453506470E-001;-4.794582352042198E-002;5.440830718725920E-004;-9.285227861255407E-004;
2.421166666666667E+009;1.758048385381699E-001;-4.963703081011772E-002;8.727103704586625E-004;-9.077722788788378E-004;
2.421333333333334E+009;1.738959401845932E-001;-5.108482390642166E-002;9.480887674726546E-004;-1.123205642215908E-003;
2.421500000000000E+009;1.727654188871384E-001;-5.310204997658730E-002;8.862206013873220E-004;-1.330662984400988E-003;
2.421666666666667E+009;1.713186502456665E-001;-5.487043410539627E-002;1.017982605844736E-003;-1.552743022330105E-003;
2.421833333333334E+009;1.703500598669052E-001;-5.669258534908295E-002;1.142402179539204E-003;-1.817725831642747E-003;
2.422000000000000E+009;1.690185666084290E-001;-5.846656113862991E-002;1.214810879901052E-003;-2.013865858316422E-003;
2.422166666666667E+009;1.681940257549286E-001;-6.065485253930092E-002;1.099745393730700E-003;-2.227089367806912E-003;
2.422333333333334E+009;1.672344356775284E-001;-6.248107552528381E-002;8.563177543692291E-004;-2.350813709199429E-003;
2.422500000000000E+009;1.665624082088471E-001;-6.450542062520981E-002;6.363972788676620E-004;-2.491979859769344E-003;
2.422666666666667E+009;1.658217906951904E-001;-6.654008477926254E-002;4.587241564877331E-004;-2.617970574647188E-003;
2.422833333333334E+009;1.654060930013657E-001;-6.850102543830872E-002;3.941484901588410E-004;-2.795433392748237E-003;
2.423000000000000E+009;1.648908406496048E-001;-7.061446458101273E-002;1.772553659975529E-004;-2.916051307693124E-003;
2.423166666666667E+009;1.646795421838760E-001;-7.234865427017212E-002;-1.175226043415023E-005;-3.033642191439867E-003;
2.423333333333334E+009;1.645640581846237E-001;-7.443721592426300E-002;-2.507682656869292E-004;-3.046921221539378E-003;
2.423500000000000E+009;1.645520776510239E-001;-7.642010599374771E-002;-5.123639130033553E-004;-3.094338113442063E-003;
2.423666666666667E+009;1.645422577857971E-001;-7.815419137477875E-002;-6.052250391803682E-004;-3.223435254767537E-003;
2.423833333333334E+009;1.646920144557953E-001;-8.008791506290436E-002;-8.974631782621145E-004;-3.261646488681436E-003;
2.424000000000000E+009;1.647853553295136E-001;-8.195649087429047E-002;-1.037462614476681E-003;-3.163337009027600E-003;
2.424166666666667E+009;1.650939285755158E-001;-8.348309248685837E-002;-1.306597026996315E-003;-2.986252773553133E-003;
2.424333333333334E+009;1.653666496276856E-001;-8.503524214029312E-002;-1.580220530740917E-003;-2.981761237606406E-003;
2.424500000000000E+009;1.657645106315613E-001;-8.682851493358612E-002;-1.553552458062768E-003;-2.925429260358214E-003;
2.424666666666667E+009;1.661052405834198E-001;-8.821864426136017E-002;-1.771592651493847E-003;-2.757337875664234E-003;
2.424833333333334E+009;1.667588800191879E-001;-8.947478979825974E-002;-1.946886186487973E-003;-2.704341895878315E-003;
2.425000000000000E+009;1.670785546302795E-001;-9.074337780475617E-002;-2.220418537035584E-003;-2.652927068993449E-003;
2.425166666666667E+009;1.676311343908310E-001;-9.160642325878143E-002;-2.299522981047630E-003;-2.555291401222348E-003;
2.425333333333334E+009;1.680359840393066E-001;-9.269043803215027E-002;-2.398205455392599E-003;-2.359072212129831E-003;
2.425500000000000E+009;1.687086969614029E-001;-9.360039234161377E-002;-2.547039184719324E-003;-2.274392638355494E-003;
2.425666666666667E+009;1.693056076765060E-001;-9.432947635650635E-002;-2.562274923548102E-003;-2.009195741266012E-003;
2.425833333333334E+009;1.695473790168762E-001;-9.516749531030655E-002;-2.824246184900403E-003;-1.926400698721409E-003;
2.426000000000000E+009;1.702825427055359E-001;-9.556637704372406E-002;-2.925847889855504E-003;-1.881513395346701E-003;
2.426166666666667E+009;1.707938909530640E-001;-9.605607390403748E-002;-2.962730824947357E-003;-1.756143639795482E-003;
2.426333333333334E+009;1.711159944534302E-001;-9.667916595935822E-002;-2.941114362329245E-003;-1.647537807002664E-003;
2.426500000000000E+009;1.716541945934296E-001;-9.694179892539978E-002;-3.067913232371211E-003;-1.403913018293679E-003;
2.426666666666667E+009;1.719619333744049E-001;-9.724175930023193E-002;-3.056405577808619E-003;-1.266731531359255E-003;
2.426833333333334E+009;1.724655777215958E-001;-9.753020852804184E-002;-3.224823623895645E-003;-1.007213839329779E-003;
2.427000000000000E+009;1.725597828626633E-001;-9.783267229795456E-002;-3.157045925036073E-003;-9.882645681500435E-004;
2.427166666666667E+009;1.728103458881378E-001;-9.794798493385315E-002;-3.195512341335416E-003;-7.394458516500890E-004;
2.427333333333334E+009;1.728228926658630E-001;-9.819053858518601E-002;-3.366715973243117E-003;-5.081947892904282E-004;
2.427500000000000E+009;1.727523505687714E-001;-9.841274470090866E-002;-3.362846560776234E-003;-3.170637646690011E-004;
2.427666666666667E+009;1.725138127803803E-001;-9.855128079652786E-002;-3.329709637910128E-003;-2.767223049886525E-004;
