# Version 1.00
#
freq[Hz];re:Trc1_S11;im:Trc1_S11;re:Trc2_S21;im:Trc2_S21;
2.400000000000000E+009;1.588432639837265E-001;6.279766559600830E-002;-1.073822611942887E-003;4.802519921213388E-003;
2.400166666666667E+009;1.587684750556946E-001;6.128685548901558E-002;-9.641759097576141E-004;4.825385753065348E-003;
2.400333333333334E+009;1.584209352731705E-001;5.945973098278046E-002;-6.252641323953867E-004;4.960476420819759E-003;
2.400500000000000E+009;1.582590788602829E-001;5.755030363798142E-002;-5.310745327733457E-004;4.948698915541172E-003;
2.400666666666667E+009;1.583282351493835E-001;5.548908933997154E-002;-3.056880377698690E-004;4.986295010894537E-003;
2.400833333333334E+009;1.583927720785141E-001;5.375625938177109E-002;-1.368254743283615E-004;4.997375886887312E-003;
2.401000000000000E+009;1.582838743925095E-001;5.169579386711121E-002;8.712574344826862E-005;4.984306171536446E-003;
2.401166666666667E+009;1.585798263549805E-001;4.969508945941925E-002;2.172189851989970E-004;5.158995743840933E-003;
2.401333333333334E+009;1.584926694631577E-001;4.777657613158226E-002;6.033004028722644E-004;4.871103446930647E-003;
2.401500000000000E+009;1.588693708181381E-001;4.555042460560799E-002;7.456092862412334E-004;5.108133424073458E-003;
2.401666666666667E+009;1.591917425394058E-001;4.358416795730591E-002;7.929237326607108E-004;4.863865673542023E-003;
2.401833333333334E+009;1.596071720123291E-001;4.153174534440041E-002;1.107256393879652E-003;4.950426984578371E-003;
2.402000000000000E+009;1.597746610641480E-001;3.975134715437889E-002;1.324572251178324E-003;4.929687362164259E-003;
2.402166666666667E+009;1.602580994367600E-001;3.747520968317986E-002;1.514382776804268E-003;4.836310632526875E-003;
2.402333333333334E+009;1.607555299997330E-001;3.562365472316742E-002;1.578598399646580E-003;4.762806463986635E-003;
2.402500000000000E+009;1.615255326032639E-001;3.377673774957657E-002;1.932053244672716E-003;4.768301267176867E-003;
2.402666666666667E+009;1.620318889617920E-001;3.210690990090370E-002;1.996241509914398E-003;4.796824418008328E-003;
2.402833333333334E+009;1.627658307552338E-001;3.030062094330788E-002;2.341729588806629E-003;4.573497455567122E-003;
2.403000000000000E+009;1.635473817586899E-001;2.853268571197987E-002;2.465961501002312E-003;4.563261289149523E-003;
2.403166666666667E+009;1.644268631935120E-001;2.706149034202099E-002;2.730052452534437E-003;4.688575863838196E-003;
2.403333333333334E+009;1.652196347713471E-001;2.555057965219021E-002;3.050673753023148E-003;4.340110812336206E-003;
2.403500000000000E+009;1.659211814403534E-001;2.406681701540947E-002;3.081847215071321E-003;4.181012511253357E-003;
2.403666666666667E+009;1.671012490987778E-001;2.253986895084381E-002;3.310256637632847E-003;4.083963576704264E-003;
2.403833333333334E+009;1.681591123342514E-001;2.131437882781029E-002;3.316128160804510E-003;3.959907684475184E-003;
2.404000000000000E+009;1.689862012863159E-001;2.013014070689678E-002;3.611811203882098E-003;3.865323727950454E-003;
2.404166666666667E+009;1.698533892631531E-001;1.881127804517746E-002;3.658470697700977E-003;3.567928681150079E-003;
2.404333333333334E+009;1.709501892328262E-001;1.781690865755081E-002;3.864191239699721E-003;3.443452063947916E-003;
2.404500000000000E+009;1.717449724674225E-001;1.656886190176010E-002;3.992391284555197E-003;3.231031587347388E-003;
2.404666666666667E+009;1.727691441774368E-001;1.574837788939476E-002;4.206078127026558E-003;2.963474020361900E-003;
2.404833333333334E+009;1.737142503261566E-001;1.478493399918079E-002;4.377115983515978E-003;2.884327201172710E-003;
2.405000000000000E+009;1.744933575391769E-001;1.404975727200508E-002;4.425389692187309E-003;2.730369567871094E-003;
2.405166666666667E+009;1.753933131694794E-001;1.333154831081629E-002;4.498050548136234E-003;2.416826784610748E-003;
2.405333333333334E+009;1.762800961732864E-001;1.260752230882645E-002;4.401612561196089E-003;2.319476567208767E-003;
2.405500000000000E+009;1.769404113292694E-001;1.221059542149305E-002;4.536716733127832E-003;2.084150444716215E-003;
2.405666666666667E+009;1.777649074792862E-001;1.166192814707756E-002;4.552256781607866E-003;2.013739198446274E-003;
2.405833333333334E+009;1.782231330871582E-001;1.113393343985081E-002;4.725643433630467E-003;1.842513447627425E-003;
2.406000000000000E+009;1.789189428091049E-001;1.072947774082422E-002;4.894648212939501E-003;1.551461755298078E-003;
2.406166666666667E+009;1.793027967214584E-001;1.050821226090193E-002;4.775920417159796E-003;1.426108530722559E-003;
2.406333333333334E+009;1.798579543828964E-001;1.003754138946533E-002;4.891239106655121E-003;1.134633319452405E-003;
2.406500000000000E+009;1.801335811614990E-001;9.769077412784100E-003;4.840464796870947E-003;8.626841008663178E-004;
2.406666666666667E+009;1.803879886865616E-001;9.515743702650070E-003;4.951044917106628E-003;5.572902737185359E-004;
2.406833333333334E+009;1.806429773569107E-001;9.096207097172737E-003;4.981402307748795E-003;2.901221741922200E-004;
2.407000000000000E+009;1.808309406042099E-001;8.772064931690693E-003;4.918331746011972E-003;2.033869241131470E-004;
2.407166666666667E+009;1.809512078762054E-001;8.536753244698048E-003;4.851974546909332E-003;-1.168200178653933E-004;
2.407333333333334E+009;1.809289753437042E-001;7.999311201274395E-003;4.990919493138790E-003;-5.844653423991986E-005;
2.407500000000000E+009;1.807503998279572E-001;7.682751398533583E-003;4.904251545667648E-003;-4.470036656130105E-004;
2.407666666666667E+009;1.806734949350357E-001;7.356533315032721E-003;4.868444986641407E-003;-5.075126537121832E-004;
2.407833333333334E+009;1.803558468818665E-001;6.597134750336409E-003;4.829596728086472E-003;-8.111129864118993E-004;
2.408000000000000E+009;1.800357252359390E-001;5.956109147518873E-003;4.818926565349102E-003;-1.075416686944664E-003;
2.408166666666667E+009;1.796584725379944E-001;5.643959157168865E-003;4.893111996352673E-003;-1.180142862722278E-003;
2.408333333333334E+009;1.794156879186630E-001;4.898970481008291E-003;4.687846638262272E-003;-1.624919939786196E-003;
2.408500000000000E+009;1.787882447242737E-001;4.079237580299377E-003;4.462090320885181E-003;-1.690500066615641E-003;
2.408666666666667E+009;1.781972497701645E-001;3.145890310406685E-003;4.386198706924915E-003;-1.901352428831160E-003;
2.408833333333334E+009;1.775739490985870E-001;2.329230774194002E-003;4.361633677035570E-003;-2.047660760581493E-003;
2.409000000000000E+009;1.769694983959198E-001;1.256989897228777E-003;4.232356790453196E-003;-2.224541967734695E-003;
2.409166666666667E+009;1.763129979372025E-001;3.060380113311112E-004;4.161589313298464E-003;-2.457122551277280E-003;
2.409333333333334E+009;1.756127327680588E-001;-8.631634991616011E-004;3.844853024929762E-003;-2.706171013414860E-003;
2.409500000000000E+009;1.750614792108536E-001;-2.340204548090696E-003;3.722309134900570E-003;-2.760165603831410E-003;
2.409666666666667E+009;1.740982085466385E-001;-3.473460208624601E-003;3.799059661105275E-003;-3.006615908816457E-003;
2.409833333333334E+009;1.735067218542099E-001;-4.886120557785034E-003;3.431308781728149E-003;-3.112465143203735E-003;
2.410000000000000E+009;1.729400604963303E-001;-6.343765184283257E-003;3.262953832745552E-003;-3.414978273212910E-003;
2.410166666666667E+009;1.722243130207062E-001;-7.971517741680145E-003;3.181290579959750E-003;-3.312216838821769E-003;
2.410333333333334E+009;1.717159897089005E-001;-9.473401121795178E-003;2.856628037989140E-003;-3.385133575648069E-003;
2.410500000000000E+009;1.711086183786392E-001;-1.126344781368971E-002;2.728396328166127E-003;-3.530513495206833E-003;
2.410666666666667E+009;1.705961972475052E-001;-1.311268378049135E-002;2.584022702649236E-003;-3.553781192749739E-003;
2.410833333333334E+009;1.699975878000259E-001;-1.483192760497332E-002;2.401903504505754E-003;-3.697134554386139E-003;
2.411000000000000E+009;1.696358472108841E-001;-1.638498157262802E-002;2.126552397385240E-003;-3.801346523687244E-003;
2.411166666666667E+009;1.692323982715607E-001;-1.834416761994362E-002;2.065288135781884E-003;-3.767011454328895E-003;
2.411333333333334E+009;1.689396649599075E-001;-2.023688144981861E-002;1.702808425761759E-003;-3.971355967223644E-003;
2.411500000000000E+009;1.686044484376907E-001;-2.226777188479900E-002;1.608732505701482E-003;-3.949493635445833E-003;
2.411666666666667E+009;1.685676425695419E-001;-2.404343895614147E-002;1.422590459696949E-003;-3.984341863542795E-003;
2.411833333333334E+009;1.685566306114197E-001;-2.596157975494862E-002;1.206493936479092E-003;-4.040261264890432E-003;
2.412000000000000E+009;1.684057265520096E-001;-2.807427197694778E-002;8.794331224635243E-004;-3.999195061624050E-003;
2.412166666666667E+009;1.683783680200577E-001;-2.991225384175777E-002;8.000404341146350E-004;-3.965382929891348E-003;
2.412333333333334E+009;1.686049252748489E-001;-3.173470869660378E-002;3.757314989343286E-004;-4.057441838085651E-003;
2.412500000000000E+009;1.686041951179504E-001;-3.367972746491432E-002;4.275169631000608E-004;-4.094313364475966E-003;
2.412666666666667E+009;1.690070480108261E-001;-3.582498058676720E-002;3.439503489062190E-004;-3.848898690193892E-003;
2.412833333333334E+009;1.692829281091690E-001;-3.748889267444611E-002;-1.584164128871635E-004;-3.917469177395105E-003;
2.413000000000000E+009;1.694301366806030E-001;-3.932296857237816E-002;-3.002134617418051E-004;-4.038504790514708E-003;
2.413166666666667E+009;1.699470579624176E-001;-4.101926460862160E-002;-3.942114417441189E-004;-3.600402968004346E-003;
2.413333333333334E+009;1.702426224946976E-001;-4.275779798626900E-002;-6.031249067746103E-004;-3.819737583398819E-003;
2.413500000000000E+009;1.707413345575333E-001;-4.437377676367760E-002;-7.721566362306476E-004;-3.578271716833115E-003;
2.413666666666667E+009;1.712281405925751E-001;-4.608799517154694E-002;-9.435198735445738E-004;-3.537501674145460E-003;
2.413833333333334E+009;1.717817783355713E-001;-4.753705859184265E-002;-1.193047035485506E-003;-3.413702361285687E-003;
2.414000000000000E+009;1.721631884574890E-001;-4.891775920987129E-002;-1.430105417966843E-003;-3.317603608593345E-003;
2.414166666666667E+009;1.727013140916824E-001;-5.031226947903633E-002;-1.313204644247890E-003;-3.382374532520771E-003;
2.414333333333334E+009;1.731872409582138E-001;-5.161500722169876E-002;-1.498389639891684E-003;-3.268090775236487E-003;
2.414500000000000E+009;1.739855110645294E-001;-5.278250575065613E-002;-1.748051145114005E-003;-2.945556771010160E-003;
2.414666666666667E+009;1.744421422481537E-001;-5.370881035923958E-002;-1.748104696162045E-003;-2.829335629940033E-003;
2.414833333333334E+009;1.749963313341141E-001;-5.473099276423454E-002;-1.774187083356082E-003;-2.658810233697295E-003;
2.415000000000000E+009;1.751797646284103E-001;-5.571685731410980E-002;-1.957073574885726E-003;-2.590126125141978E-003;
2.415166666666667E+009;1.756405830383301E-001;-5.651329457759857E-002;-2.103645587339997E-003;-2.316840691491962E-003;
2.415333333333334E+009;1.762316972017288E-001;-5.730799213051796E-002;-2.014128956943750E-003;-2.266797004267573E-003;
2.415500000000000E+009;1.765753626823425E-001;-5.786353349685669E-002;-2.296728547662497E-003;-2.146568149328232E-003;
2.415666666666667E+009;1.768182814121246E-001;-5.851076543331146E-002;-2.312826924026012E-003;-1.960333203896880E-003;
2.415833333333334E+009;1.771490126848221E-001;-5.907053500413895E-002;-2.380116377025843E-003;-1.785622094757855E-003;
2.416000000000000E+009;1.771077364683151E-001;-5.945100262761116E-002;-2.448293613269925E-003;-1.699509099125862E-003;
2.416166666666667E+009;1.774020195007324E-001;-5.989386513829231E-002;-2.461175899952650E-003;-1.580336131155491E-003;
2.416333333333334E+009;1.773699671030045E-001;-6.017993763089180E-002;-2.468914026394486E-003;-1.449970528483391E-003;
2.416500000000000E+009;1.774001419544220E-001;-6.064515560865402E-002;-2.599444938823581E-003;-1.225863350555301E-003;
2.416666666666667E+009;1.772105991840363E-001;-6.074441969394684E-002;-2.481058705598116E-003;-9.305599378421903E-004;
2.416833333333334E+009;1.770285815000534E-001;-6.121158972382546E-002;-2.544414950534701E-003;-8.911680197343230E-004;
2.417000000000000E+009;1.766143441200256E-001;-6.137554347515106E-002;-2.451708540320396E-003;-7.864473736844957E-004;
2.417166666666667E+009;1.762693375349045E-001;-6.150149554014206E-002;-2.440773649141192E-003;-7.065470563247800E-004;
2.417333333333334E+009;1.758743673563004E-001;-6.179260089993477E-002;-2.502313815057278E-003;-4.469674895517528E-004;
2.417500000000000E+009;1.752176731824875E-001;-6.220268830657005E-002;-2.494542626664043E-003;-3.160050837323070E-004;
2.417666666666667E+009;1.746153086423874E-001;-6.216245144605637E-002;-2.332336734980345E-003;-2.927010355051607E-004;
2.417833333333334E+009;1.739042997360230E-001;-6.241207197308540E-002;-2.330850809812546E-003;-7.809374073985964E-005;
2.418000000000000E+009;1.730261594057083E-001;-6.289333105087280E-002;-2.261903369799256E-003;-2.593602584965993E-005;
2.418166666666667E+009;1.721691191196442E-001;-6.305892765522003E-002;-2.112433081492782E-003;1.318055437877774E-004;
2.418333333333334E+009;1.715446859598160E-001;-6.351299583911896E-002;-2.080297097563744E-003;1.978879299713299E-004;
2.418500000000000E+009;1.703432649374008E-001;-6.385291367769241E-002;-2.126353560015559E-003;2.188383077736944E-004;
2.418666666666667E+009;1.694872081279755E-001;-6.435008347034454E-002;-2.073989016935229E-003;3.178721817675978E-004;
2.418833333333334E+009;1.681677699089050E-001;-6.496462225914002E-002;-1.997579587623477E-003;4.198723472654820E-004;
2.419000000000000E+009;1.670082509517670E-001;-6.542414426803589E-002;-1.965219154953957E-003;4.555716877803206E-004;
2.419166666666667E+009;1.658562421798706E-001;-6.600562483072281E-002;-1.890350482426584E-003;5.524037405848503E-004;
2.419333333333334E+009;1.646371334791184E-001;-6.666023284196854E-002;-1.879305462352932E-003;6.198132759891450E-004;
2.419500000000000E+009;1.635734885931015E-001;-6.767491996288300E-002;-1.702390844002366E-003;7.569353911094368E-004;
2.419666666666667E+009;1.624556630849838E-001;-6.844408810138702E-002;-1.706266426481307E-003;9.087857906706631E-004;
2.419833333333334E+009;1.611453592777252E-001;-6.922527402639389E-002;-1.534710987471044E-003;9.891762165352702E-004;
2.420000000000000E+009;1.601998209953308E-001;-7.030688971281052E-002;-1.590866479091346E-003;1.001889933831990E-003;
2.420166666666667E+009;1.589402556419373E-001;-7.139834016561508E-002;-1.502639614045620E-003;1.001043943688273E-003;
2.420333333333334E+009;1.578604727983475E-001;-7.259060442447662E-002;-1.437002327293158E-003;1.238669618032873E-003;
2.420500000000000E+009;1.568550020456314E-001;-7.362737506628037E-002;-1.264138263650239E-003;1.306518795900047E-003;
2.420666666666667E+009;1.558516323566437E-001;-7.499575614929199E-002;-1.019317773170769E-003;1.286045764572918E-003;
2.420833333333334E+009;1.550457477569580E-001;-7.636394351720810E-002;-1.186524867080152E-003;1.329096150584519E-003;
2.421000000000000E+009;1.540436148643494E-001;-7.794147729873657E-002;-9.427430341020227E-004;1.398243475705385E-003;
2.421166666666667E+009;1.532948017120361E-001;-7.929513603448868E-002;-9.710398735478520E-004;1.440752297639847E-003;
2.421333333333334E+009;1.526094675064087E-001;-8.098151534795761E-002;-7.881714263930917E-004;1.594593399204314E-003;
2.421500000000000E+009;1.519783586263657E-001;-8.241528272628784E-002;-6.262943497858942E-004;1.631433144211769E-003;
2.421666666666667E+009;1.513303071260452E-001;-8.397687971591950E-002;-5.133243976160884E-004;1.608351944014430E-003;
2.421833333333334E+009;1.508322209119797E-001;-8.567679673433304E-002;-4.861017805524170E-004;1.616619294509292E-003;
2.422000000000000E+009;1.504888981580734E-001;-8.740493655204773E-002;-3.448713396210223E-004;1.710574142634869E-003;
2.422166666666667E+009;1.500122100114822E-001;-8.911942690610886E-002;-6.717673386447132E-005;1.655655447393656E-003;
2.422333333333334E+009;1.498728692531586E-001;-9.064273536205292E-002;-2.396299169049598E-005;1.713754725642502E-003;
2.422500000000000E+009;1.496925204992294E-001;-9.248155355453491E-002;1.300852545682574E-005;1.480909180827439E-003;
2.422666666666667E+009;1.495136171579361E-001;-9.411083906888962E-002;2.677869633771479E-004;1.770281931385398E-003;
2.422833333333334E+009;1.495742052793503E-001;-9.598754346370697E-002;2.657146833371371E-004;1.604113145731390E-003;
2.423000000000000E+009;1.497171968221664E-001;-9.746652096509934E-002;5.436099600046873E-004;1.540133613161743E-003;
2.423166666666667E+009;1.498992145061493E-001;-9.914825856685638E-002;5.482189008034766E-004;1.537097268737853E-003;
2.423333333333334E+009;1.501687765121460E-001;-1.005222424864769E-001;6.707866559736431E-004;1.328595099039376E-003;
2.423500000000000E+009;1.504221409559250E-001;-1.023538261651993E-001;8.022321853786707E-004;1.259524258784950E-003;
2.423666666666667E+009;1.506427377462387E-001;-1.039137691259384E-001;8.531432831659913E-004;1.170388190075755E-003;
2.423833333333334E+009;1.510038226842880E-001;-1.055029109120369E-001;9.383119759149849E-004;1.090726698748767E-003;
2.424000000000000E+009;1.513398587703705E-001;-1.066700816154480E-001;1.053611747920513E-003;1.063865842297673E-003;
2.424166666666667E+009;1.517339646816254E-001;-1.080545336008072E-001;1.133518875576556E-003;1.028556260280311E-003;
2.424333333333334E+009;1.522084176540375E-001;-1.091422662138939E-001;1.149683608673513E-003;8.637372520752251E-004;
2.424500000000000E+009;1.527155339717865E-001;-1.105952486395836E-001;1.273731351830065E-003;8.293614955618978E-004;
2.424666666666667E+009;1.533065140247345E-001;-1.114866212010384E-001;1.291563501581550E-003;7.416427833959460E-004;
2.424833333333334E+009;1.534639894962311E-001;-1.127037107944489E-001;1.391958328895271E-003;5.085512530058622E-004;
2.425000000000000E+009;1.540415734052658E-001;-1.135583668947220E-001;1.272326335310936E-003;5.104676238261163E-004;
2.425166666666667E+009;1.543179005384445E-001;-1.144864037632942E-001;1.516539836302400E-003;2.946389722637832E-004;
2.425333333333334E+009;1.548064351081848E-001;-1.152398139238358E-001;1.339778420515358E-003;1.607060985406861E-004;
2.425500000000000E+009;1.551657468080521E-001;-1.160172969102860E-001;1.477174926549196E-003;-3.374310472281650E-005;
2.425666666666667E+009;1.553866565227509E-001;-1.165669858455658E-001;1.397700398229063E-003;-7.940620707813650E-005;
2.425833333333334E+009;1.556729376316071E-001;-1.171408966183662E-001;1.434699166566134E-003;-1.790297683328390E-004;
2.426000000000000E+009;1.557927429676056E-001;-1.177942603826523E-001;1.479390193708241E-003;-1.548031432321295E-004;
2.426166666666667E+009;1.562278121709824E-001;-1.180729195475578E-001;1.460706465877593E-003;-1.634803047636524E-004;
2.426333333333334E+009;1.561747938394547E-001;-1.184160783886910E-001;1.398338121362031E-003;-3.811217611655593E-004;
2.426500000000000E+009;1.562548726797104E-001;-1.187035515904427E-001;1.402478199452162E-003;-4.949058056809008E-004;
2.426666666666667E+009;1.563215106725693E-001;-1.187666356563568E-001;1.386136515066028E-003;-6.592611898668110E-004;
2.426833333333334E+009;1.561027020215988E-001;-1.190223470330238E-001;1.395309693180025E-003;-6.211459985934198E-004;
2.427000000000000E+009;1.557639688253403E-001;-1.192754879593849E-001;1.208519097417593E-003;-7.736530969850719E-004;
2.427166666666667E+009;1.554806232452393E-001;-1.192065998911858E-001;1.157429767772555E-003;-8.819999056868255E-004;
2.427333333333334E+009;1.549594849348068E-001;-1.194066181778908E-001;9.648103150539100E-004;-1.080599962733686E-003;
2.427500000000000E+009;1.545200496912003E-001;-1.195053085684776E-001;1.078619388863444E-003;-9.918157011270523E-004;
2.427666666666667E+009;1.538637131452560E-001;-1.196695193648338E-001;1.084164250642061E-003;-1.123765832744539E-003;
2.427833333333334E+009;1.530781537294388E-001;-1.197772175073624E-001;7.674041553400457E-004;-1.141123473644257E-003;
