# Version 1.00
#
freq[Hz];re:Trc1_S11;im:Trc1_S11;re:Trc2_S21;im:Trc2_S21;
2.400000000000000E+009;1.557234972715378E-001;1.116408929228783E-001;2.977985423058271E-004;4.063704982399941E-003;
2.400166666666667E+009;1.552452594041824E-001;1.092914268374443E-001;3.827308246400207E-004;4.217929672449827E-003;
2.400333333333334E+009;1.550415605306625E-001;1.070510819554329E-001;6.061906460672617E-004;4.164950456470251E-003;
2.400500000000000E+009;1.547244042158127E-001;1.044392734766007E-001;6.209656712599099E-004;4.066278692334890E-003;
2.400666666666667E+009;1.543817520141602E-001;1.020499318838120E-001;6.902056047692895E-004;4.293303471058607E-003;
2.400833333333334E+009;1.541321426630020E-001;9.924668818712235E-002;8.428352302871645E-004;4.350803792476654E-003;
2.401000000000000E+009;1.541059613227844E-001;9.621242433786392E-002;9.526133653707802E-004;4.253682680428028E-003;
2.401166666666667E+009;1.540111303329468E-001;9.348275512456894E-002;1.112806145101786E-003;4.360224120318890E-003;
2.401333333333334E+009;1.541780233383179E-001;9.048625826835632E-002;1.258217729628086E-003;4.302609246224165E-003;
2.401500000000000E+009;1.542661190032959E-001;8.751796931028366E-002;1.226896536536515E-003;4.316261969506741E-003;
2.401666666666667E+009;1.545182317495346E-001;8.439459651708603E-002;1.453980104997754E-003;4.199225921183825E-003;
2.401833333333334E+009;1.547774374485016E-001;8.153531700372696E-002;1.644511357881129E-003;4.240019712597132E-003;
2.402000000000000E+009;1.555237770080566E-001;7.857027649879456E-002;1.740201609209180E-003;4.205530975013971E-003;
2.402166666666667E+009;1.562448740005493E-001;7.576812058687210E-002;1.951918937265873E-003;4.230509046465159E-003;
2.402333333333334E+009;1.571993976831436E-001;7.277166098356247E-002;2.009009709581733E-003;4.142541438341141E-003;
2.402500000000000E+009;1.580139249563217E-001;6.998763233423233E-002;2.214629668742418E-003;4.077689256519079E-003;
2.402666666666667E+009;1.592525392770767E-001;6.742357462644577E-002;2.532869111746550E-003;4.187928512692452E-003;
2.402833333333334E+009;1.602934598922730E-001;6.474038213491440E-002;2.737151924520731E-003;4.122295416891575E-003;
2.403000000000000E+009;1.616979688405991E-001;6.220901012420654E-002;2.807707525789738E-003;3.948100842535496E-003;
2.403166666666667E+009;1.634473055601120E-001;5.950954556465149E-002;2.999785356223583E-003;3.830237546935678E-003;
2.403333333333334E+009;1.649162024259567E-001;5.714349448680878E-002;3.191611496731639E-003;3.855468705296516E-003;
2.403500000000000E+009;1.665478795766830E-001;5.484959855675697E-002;3.398141125217080E-003;3.421490313485265E-003;
2.403666666666667E+009;1.684586554765701E-001;5.239922180771828E-002;3.535733791068196E-003;3.364183241501451E-003;
2.403833333333334E+009;1.702340990304947E-001;5.036669969558716E-002;3.607564140111208E-003;3.026098711416125E-003;
2.404000000000000E+009;1.718530952930450E-001;4.835384711623192E-002;3.902699332684279E-003;2.886133268475533E-003;
2.404166666666667E+009;1.738361120223999E-001;4.671859741210938E-002;3.783785039559007E-003;2.725766506046057E-003;
2.404333333333334E+009;1.755095571279526E-001;4.475326091051102E-002;3.655524458736181E-003;2.488884376361966E-003;
2.404500000000000E+009;1.773961484432221E-001;4.314763098955154E-002;3.776043420657516E-003;2.286406466737390E-003;
2.404666666666667E+009;1.792140901088715E-001;4.192698746919632E-002;3.631929168477655E-003;2.153148874640465E-003;
2.404833333333334E+009;1.810804754495621E-001;4.058124870061874E-002;3.883399534970522E-003;2.136626746505499E-003;
2.405000000000000E+009;1.826702952384949E-001;3.987424075603485E-002;3.706874791532755E-003;1.869487110525370E-003;
2.405166666666667E+009;1.843800693750382E-001;3.896750509738922E-002;3.825930412858725E-003;1.650599646382034E-003;
2.405333333333334E+009;1.859957724809647E-001;3.852812573313713E-002;4.009845200926065E-003;1.681146793998778E-003;
2.405500000000000E+009;1.875795871019363E-001;3.800257667899132E-002;4.172483924776316E-003;1.598114147782326E-003;
2.405666666666667E+009;1.891351789236069E-001;3.739961236715317E-002;4.103739280253649E-003;1.453651464544237E-003;
2.405833333333334E+009;1.906290203332901E-001;3.718397021293640E-002;4.285315517336130E-003;1.385693671181798E-003;
2.406000000000000E+009;1.918773204088211E-001;3.709655627608299E-002;4.315482452511787E-003;1.249668770469725E-003;
2.406166666666667E+009;1.931479573249817E-001;3.704350441694260E-002;4.218265879899263E-003;1.052104169502854E-003;
2.406333333333334E+009;1.943148523569107E-001;3.705574572086334E-002;4.455894231796265E-003;9.523749467916787E-004;
2.406500000000000E+009;1.953171640634537E-001;3.733363375067711E-002;4.351779352873564E-003;5.700781475752592E-004;
2.406666666666667E+009;1.960866451263428E-001;3.749420493841171E-002;4.359040874987841E-003;3.838725097011775E-004;
2.406833333333334E+009;1.969452053308487E-001;3.771036490797997E-002;4.307874012738466E-003;2.032809134107083E-004;
2.407000000000000E+009;1.975216865539551E-001;3.805207461118698E-002;4.263131879270077E-003;1.538156793685630E-004;
2.407166666666667E+009;1.980706900358200E-001;3.810075670480728E-002;4.139804746955633E-003;-5.208414950175211E-005;
2.407333333333334E+009;1.981387883424759E-001;3.841547295451164E-002;4.031516611576080E-003;-2.695063885767013E-004;
2.407500000000000E+009;1.982951313257217E-001;3.883296996355057E-002;4.038395825773478E-003;-2.989068743772805E-004;
2.407666666666667E+009;1.984147429466248E-001;3.904742002487183E-002;4.051121417433024E-003;-5.338531918823719E-004;
2.407833333333334E+009;1.981502324342728E-001;3.925674036145210E-002;4.021862987428904E-003;-5.186911439523101E-004;
2.408000000000000E+009;1.980482637882233E-001;3.943676128983498E-002;3.823401639238000E-003;-5.773546872660518E-004;
2.408166666666667E+009;1.975436061620712E-001;3.945175930857658E-002;3.837365889921784E-003;-6.804189179092646E-004;
2.408333333333334E+009;1.971288174390793E-001;3.929824382066727E-002;3.753442550078034E-003;-7.630468462593854E-004;
2.408500000000000E+009;1.964778006076813E-001;3.944925591349602E-002;3.592666704207659E-003;-9.007100015878677E-004;
2.408666666666667E+009;1.957462131977081E-001;3.917006403207779E-002;3.433440346270800E-003;-9.737612563185394E-004;
2.408833333333334E+009;1.950756758451462E-001;3.873362019658089E-002;3.379916772246361E-003;-1.151254749856889E-003;
2.409000000000000E+009;1.941855996847153E-001;3.823579102754593E-002;3.462470369413495E-003;-1.128997886553407E-003;
2.409166666666667E+009;1.930761635303497E-001;3.756262734532356E-002;3.196669509634376E-003;-1.188919181004167E-003;
2.409333333333334E+009;1.919705271720886E-001;3.688258305191994E-002;3.137554274871945E-003;-1.182550564408302E-003;
2.409500000000000E+009;1.908057928085327E-001;3.596625849604607E-002;3.117312444373965E-003;-1.247504609636962E-003;
2.409666666666667E+009;1.896794885396957E-001;3.487055748701096E-002;3.136655781418085E-003;-1.367530203424394E-003;
2.409833333333334E+009;1.883292794227600E-001;3.350339829921722E-002;2.986924489960074E-003;-1.395394909195602E-003;
2.410000000000000E+009;1.872663348913193E-001;3.215423971414566E-002;3.027874510735273E-003;-1.233314513228834E-003;
2.410166666666667E+009;1.860051602125168E-001;3.058887273073196E-002;2.879826817661524E-003;-1.412734738551080E-003;
2.410333333333334E+009;1.848631948232651E-001;2.893396653234959E-002;3.000723430886865E-003;-1.251477864570916E-003;
2.410500000000000E+009;1.836566776037216E-001;2.728255093097687E-002;2.894987352192402E-003;-1.295776688493788E-003;
2.410666666666667E+009;1.824187040328980E-001;2.493559196591377E-002;2.966055413708091E-003;-1.523684244602919E-003;
2.410833333333334E+009;1.815841048955917E-001;2.300496585667133E-002;2.847295487299562E-003;-1.295285415835679E-003;
2.411000000000000E+009;1.805989146232605E-001;2.088372409343720E-002;2.892282325774431E-003;-1.374620595015585E-003;
2.411166666666667E+009;1.797164529561997E-001;1.861989125609398E-002;2.771706087514758E-003;-1.522950362414122E-003;
2.411333333333334E+009;1.789359599351883E-001;1.622522436082363E-002;2.906135981902480E-003;-1.395945204421878E-003;
2.411500000000000E+009;1.782642155885696E-001;1.388668082654476E-002;2.887077163904905E-003;-1.489080372266471E-003;
2.411666666666667E+009;1.778864264488220E-001;1.129611860960722E-002;2.816766966134310E-003;-1.649879035539925E-003;
2.411833333333334E+009;1.772312521934509E-001;9.034359827637672E-003;2.868410432711244E-003;-1.687204232439399E-003;
2.412000000000000E+009;1.772591173648834E-001;6.318932864814997E-003;2.843889407813549E-003;-1.603705692104995E-003;
2.412166666666667E+009;1.771465241909027E-001;3.759652143344283E-003;2.826248295605183E-003;-1.691602868959308E-003;
2.412333333333334E+009;1.771648973226547E-001;1.181769417598844E-003;2.933790674433112E-003;-1.828165724873543E-003;
2.412500000000000E+009;1.775251626968384E-001;-1.472422736696899E-003;2.895738929510117E-003;-1.926597673445940E-003;
2.412666666666667E+009;1.778131127357483E-001;-4.271309822797775E-003;3.129467600956559E-003;-1.889911131002009E-003;
2.412833333333334E+009;1.783540099859238E-001;-6.813824642449617E-003;2.985351951792836E-003;-2.034989185631275E-003;
2.413000000000000E+009;1.791584491729736E-001;-9.331256151199341E-003;2.974303439259529E-003;-2.130417153239250E-003;
2.413166666666667E+009;1.799094676971436E-001;-1.187084894627333E-002;3.047619713470340E-003;-2.346714260056615E-003;
2.413333333333334E+009;1.809279173612595E-001;-1.440638396888971E-002;3.005939070135355E-003;-2.292587421834469E-003;
2.413500000000000E+009;1.816607117652893E-001;-1.701704040169716E-002;3.004287835210562E-003;-2.641163067892194E-003;
2.413666666666667E+009;1.830823570489883E-001;-1.926246844232082E-002;2.974667353555560E-003;-2.797637134790421E-003;
2.413833333333334E+009;1.841549724340439E-001;-2.157770283520222E-002;3.009643405675888E-003;-3.017022740095854E-003;
2.414000000000000E+009;1.854420751333237E-001;-2.385130338370800E-002;2.748439088463783E-003;-3.194879973307252E-003;
2.414166666666667E+009;1.868060082197189E-001;-2.585676871240139E-002;2.691125497221947E-003;-3.443433437496424E-003;
2.414333333333334E+009;1.880292892456055E-001;-2.816728688776493E-002;2.539123175665736E-003;-3.699618857353926E-003;
2.414500000000000E+009;1.893217861652374E-001;-2.985204197466373E-002;2.309437375515699E-003;-3.686327487230301E-003;
2.414666666666667E+009;1.907212138175964E-001;-3.165981173515320E-002;2.149384003132582E-003;-3.814869793131948E-003;
2.414833333333334E+009;1.921313256025314E-001;-3.305412456393242E-002;1.996055943891406E-003;-3.812735434621573E-003;
2.415000000000000E+009;1.935656517744064E-001;-3.468947485089302E-002;1.702324836514890E-003;-3.930468112230301E-003;
2.415166666666667E+009;1.948627829551697E-001;-3.589143231511116E-002;1.632210332900286E-003;-4.131850320845842E-003;
2.415333333333334E+009;1.963287293910980E-001;-3.711644187569618E-002;1.398289692588151E-003;-4.034778103232384E-003;
2.415500000000000E+009;1.978421360254288E-001;-3.794509917497635E-002;1.307772821746767E-003;-4.176942165941000E-003;
2.415666666666667E+009;1.990154236555100E-001;-3.899182751774788E-002;1.132009201683104E-003;-4.218404646962881E-003;
2.415833333333334E+009;2.000055313110352E-001;-3.975078836083412E-002;1.049232669174671E-003;-4.286836832761765E-003;
2.416000000000000E+009;2.012340426445007E-001;-4.045983776450157E-002;9.070525993593037E-004;-4.161766264587641E-003;
2.416166666666667E+009;2.021397501230240E-001;-4.100940749049187E-002;7.141482201404870E-004;-4.285271279513836E-003;
2.416333333333334E+009;2.031499296426773E-001;-4.121537879109383E-002;5.476297810673714E-004;-4.360054619610310E-003;
2.416500000000000E+009;2.038218528032303E-001;-4.170835018157959E-002;3.231375303585082E-004;-4.413797520101070E-003;
2.416666666666667E+009;2.044374793767929E-001;-4.183396324515343E-002;1.898749469546601E-004;-4.388199653476477E-003;
2.416833333333334E+009;2.048306018114090E-001;-4.187893494963646E-002;8.141680882545188E-005;-4.613200202584267E-003;
2.417000000000000E+009;2.052377313375473E-001;-4.203327000141144E-002;-7.782565808156505E-005;-4.335690755397081E-003;
2.417166666666667E+009;2.052549868822098E-001;-4.182372614741325E-002;-3.047006030101329E-004;-4.387114662677050E-003;
2.417333333333334E+009;2.053665667772293E-001;-4.147750139236450E-002;-5.194194964133203E-004;-4.422128200531006E-003;
2.417500000000000E+009;2.052741497755051E-001;-4.145320877432823E-002;-7.577212527394295E-004;-4.223867319524288E-003;
2.417666666666667E+009;2.049831598997116E-001;-4.104616865515709E-002;-1.051157014444470E-003;-4.230921156704426E-003;
2.417833333333334E+009;2.048664391040802E-001;-4.066671431064606E-002;-1.013826113194227E-003;-4.014088306576014E-003;
2.418000000000000E+009;2.043762952089310E-001;-4.025184735655785E-002;-1.139115542173386E-003;-4.098110832273960E-003;
2.418166666666667E+009;2.036177515983582E-001;-4.004550352692604E-002;-1.296337693929672E-003;-3.966167103499174E-003;
2.418333333333334E+009;2.029800862073898E-001;-3.948881477117539E-002;-1.316461595706642E-003;-3.908111713826656E-003;
2.418500000000000E+009;2.020680457353592E-001;-3.945884853601456E-002;-1.656408421695232E-003;-3.629324259236455E-003;
2.418666666666667E+009;2.012156397104263E-001;-3.915819153189659E-002;-1.732936594635248E-003;-3.616522997617722E-003;
2.418833333333334E+009;2.001134604215622E-001;-3.905725479125977E-002;-1.892970292828977E-003;-3.533474635332823E-003;
2.419000000000000E+009;1.988384872674942E-001;-3.910658881068230E-002;-1.830721972510219E-003;-3.466165624558926E-003;
2.419166666666667E+009;1.975385248661041E-001;-3.904941305518150E-002;-1.916509354487062E-003;-3.302146913483739E-003;
2.419333333333334E+009;1.961096376180649E-001;-3.937713056802750E-002;-2.043174579739571E-003;-3.180816303938627E-003;
2.419500000000000E+009;1.946178674697876E-001;-3.950168937444687E-002;-2.108172979205847E-003;-3.106361953541637E-003;
2.419666666666667E+009;1.929653733968735E-001;-4.028288275003433E-002;-2.122356789186597E-003;-3.023259108886123E-003;
2.419833333333334E+009;1.912027895450592E-001;-4.066286608576775E-002;-2.276570536196232E-003;-2.972390968352556E-003;
2.420000000000000E+009;1.895774155855179E-001;-4.133803397417069E-002;-2.145428210496903E-003;-2.785270800814033E-003;
2.420166666666667E+009;1.878502368927002E-001;-4.212072864174843E-002;-2.284681657329202E-003;-2.851442666724324E-003;
2.420333333333334E+009;1.860964149236679E-001;-4.322231933474541E-002;-2.309938194230199E-003;-2.559605287387967E-003;
2.420500000000000E+009;1.844021081924439E-001;-4.432990029454231E-002;-2.326165791600943E-003;-2.566772280260921E-003;
2.420666666666667E+009;1.824721246957779E-001;-4.554433003067970E-002;-2.180223818868399E-003;-2.469067461788654E-003;
2.420833333333334E+009;1.807482391595841E-001;-4.680043831467629E-002;-2.148790750652552E-003;-2.347778063267469E-003;
2.421000000000000E+009;1.790684312582016E-001;-4.832747578620911E-002;-2.366598462685943E-003;-2.237073844298720E-003;
2.421166666666667E+009;1.774682849645615E-001;-5.002066120505333E-002;-2.370948670431972E-003;-2.267023781314492E-003;
2.421333333333334E+009;1.755603253841400E-001;-5.164749175310135E-002;-2.315963152796030E-003;-2.215865999460220E-003;
2.421500000000000E+009;1.741419136524200E-001;-5.354225635528565E-002;-2.456851536408067E-003;-2.193907508626580E-003;
2.421666666666667E+009;1.724906116724014E-001;-5.546455085277557E-002;-2.469091676175594E-003;-2.245370531454682E-003;
2.421833333333334E+009;1.709685921669006E-001;-5.714900791645050E-002;-2.603064524009824E-003;-2.006902359426022E-003;
2.422000000000000E+009;1.697099655866623E-001;-5.935197696089745E-002;-2.540100831538439E-003;-2.186707919463515E-003;
2.422166666666667E+009;1.686534583568573E-001;-6.151872128248215E-002;-2.734269946813583E-003;-2.170528052374721E-003;
2.422333333333334E+009;1.675588935613632E-001;-6.374265998601914E-002;-2.749635139480233E-003;-2.117094816640019E-003;
2.422500000000000E+009;1.666810363531113E-001;-6.586121767759323E-002;-2.873215358704329E-003;-1.926159136928618E-003;
2.422666666666667E+009;1.655308455228806E-001;-6.805819272994995E-002;-2.776271896436811E-003;-1.974816434085369E-003;
2.422833333333334E+009;1.649173200130463E-001;-7.010630518198013E-002;-2.934746211394668E-003;-1.840264536440373E-003;
2.423000000000000E+009;1.642182022333145E-001;-7.247700542211533E-002;-3.083921736106277E-003;-1.728766714222729E-003;
2.423166666666667E+009;1.638302356004715E-001;-7.467345148324966E-002;-3.003419842571020E-003;-1.686037518084049E-003;
2.423333333333334E+009;1.635738611221314E-001;-7.678495347499847E-002;-3.106745891273022E-003;-1.598783303052187E-003;
2.423500000000000E+009;1.634076833724976E-001;-7.895620167255402E-002;-3.110305406153202E-003;-1.569837913848460E-003;
2.423666666666667E+009;1.634292155504227E-001;-8.113294839859009E-002;-3.211547154933214E-003;-1.368317636661232E-003;
2.423833333333334E+009;1.631980389356613E-001;-8.316151052713394E-002;-3.304793266579509E-003;-1.432298449799418E-003;
2.424000000000000E+009;1.633490473031998E-001;-8.500655740499497E-002;-3.336012363433838E-003;-1.181243802420795E-003;
2.424166666666667E+009;1.634251475334168E-001;-8.702331781387329E-002;-3.361778799444437E-003;-1.131175784394145E-003;
2.424333333333334E+009;1.637388765811920E-001;-8.873677253723145E-002;-3.229998750612140E-003;-1.001784577965736E-003;
2.424500000000000E+009;1.641119122505188E-001;-9.071142226457596E-002;-3.228824585676193E-003;-1.046101446263492E-003;
2.424666666666667E+009;1.645403355360031E-001;-9.217740595340729E-002;-3.289110725745559E-003;-8.042595000006259E-004;
2.424833333333334E+009;1.651595979928970E-001;-9.377685934305191E-002;-3.443142166361213E-003;-7.027966785244644E-004;
2.425000000000000E+009;1.656228601932526E-001;-9.520491957664490E-002;-3.400811925530434E-003;-8.983298903331161E-004;
2.425166666666667E+009;1.661187708377838E-001;-9.656681865453720E-002;-3.622316056862474E-003;-6.487143109552562E-004;
2.425333333333334E+009;1.666738390922546E-001;-9.768645465373993E-002;-3.459641709923744E-003;-4.851424018852413E-004;
2.425500000000000E+009;1.672477573156357E-001;-9.877486526966095E-002;-3.675349056720734E-003;-3.359267720952630E-004;
2.425666666666667E+009;1.679408699274063E-001;-9.965667128562927E-002;-3.622225951403379E-003;-1.365935459034517E-004;
2.425833333333334E+009;1.685220748186112E-001;-1.006325408816338E-001;-3.573223948478699E-003;1.313192933594110E-005;
2.426000000000000E+009;1.690667420625687E-001;-1.012411043047905E-001;-3.676578169688582E-003;5.189080911804922E-005;
2.426166666666667E+009;1.698566675186157E-001;-1.017730087041855E-001;-3.703993745148182E-003;9.907654020935297E-005;
2.426333333333334E+009;1.701058894395828E-001;-1.024364680051804E-001;-3.480114275589585E-003;2.737750473897904E-004;
2.426500000000000E+009;1.707904636859894E-001;-1.026536077260971E-001;-3.601519390940666E-003;3.043085162062198E-004;
2.426666666666667E+009;1.712370961904526E-001;-1.031192988157272E-001;-3.520962782204151E-003;3.717398503795266E-004;
2.426833333333334E+009;1.718036681413651E-001;-1.033944264054298E-001;-3.656844375655055E-003;6.984747014939785E-004;
2.427000000000000E+009;1.719888299703598E-001;-1.035977303981781E-001;-3.477436490356922E-003;5.935793742537499E-004;
2.427166666666667E+009;1.723988354206085E-001;-1.037044227123261E-001;-3.570844186469913E-003;6.175414891913533E-004;
2.427333333333334E+009;1.725300699472427E-001;-1.037972420454025E-001;-3.500571940094233E-003;9.357378003187478E-004;
2.427500000000000E+009;1.725023388862610E-001;-1.040047854185104E-001;-3.397124120965600E-003;9.565011132508516E-004;
2.427666666666667E+009;1.725064218044281E-001;-1.038063168525696E-001;-3.511490067467094E-003;9.530911920592189E-004;
