# Version 1.00
#
freq[Hz];re:Trc1_S11;im:Trc1_S11;re:Trc2_S21;im:Trc2_S21;
2.400000000000000E+009;1.558458805084229E-001;1.113143041729927E-001;3.358907997608185E-004;4.197793547064066E-003;
2.400166666666667E+009;1.553100794553757E-001;1.090221926569939E-001;2.215013955719769E-004;4.318334627896547E-003;
2.400333333333334E+009;1.551570892333984E-001;1.069029495120049E-001;4.023341753054410E-004;4.301690030843020E-003;
2.400500000000000E+009;1.547617912292481E-001;1.041273921728134E-001;4.114597686566412E-004;4.458226263523102E-003;
2.400666666666667E+009;1.546314060688019E-001;1.018068268895149E-001;4.937896737828851E-004;4.317451268434525E-003;
2.400833333333334E+009;1.543061584234238E-001;9.878785163164139E-002;8.100336417555809E-004;4.360789898782969E-003;
2.401000000000000E+009;1.543375253677368E-001;9.606836736202240E-002;1.028970698826015E-003;4.261062480509281E-003;
2.401166666666667E+009;1.538824588060379E-001;9.328911453485489E-002;1.105025294236839E-003;4.227241966873407E-003;
2.401333333333334E+009;1.541442126035690E-001;9.021700173616409E-002;1.294192508794367E-003;4.345791880041361E-003;
2.401500000000000E+009;1.543620228767395E-001;8.721129596233368E-002;1.412183162756264E-003;4.322095308452845E-003;
2.401666666666667E+009;1.545057445764542E-001;8.421961218118668E-002;1.394625985994935E-003;4.352352581918240E-003;
2.401833333333334E+009;1.547885686159134E-001;8.136942982673645E-002;1.680603134445846E-003;4.397486802190542E-003;
2.402000000000000E+009;1.555079817771912E-001;7.844964414834976E-002;1.875453977845609E-003;4.400058183819056E-003;
2.402166666666667E+009;1.562100499868393E-001;7.565171271562576E-002;1.997380284592509E-003;4.267313517630100E-003;
2.402333333333334E+009;1.567812114953995E-001;7.252646237611771E-002;2.198609057813883E-003;4.381569568067789E-003;
2.402500000000000E+009;1.579803377389908E-001;6.991645693778992E-002;2.400176133960486E-003;4.206374287605286E-003;
2.402666666666667E+009;1.590364426374435E-001;6.722536683082581E-002;2.676352625712752E-003;4.265360999852419E-003;
2.402833333333334E+009;1.603252589702606E-001;6.449555605649948E-002;2.722158329561353E-003;4.276343155652285E-003;
2.403000000000000E+009;1.616305857896805E-001;6.192763894796372E-002;2.934292424470186E-003;4.139492753893137E-003;
2.403166666666667E+009;1.633574664592743E-001;5.929535254836083E-002;3.280410077422857E-003;3.953028935939074E-003;
2.403333333333334E+009;1.647970229387283E-001;5.687727406620979E-002;3.383916569873691E-003;3.846095176413655E-003;
2.403500000000000E+009;1.665137559175491E-001;5.460626631975174E-002;3.521205857396126E-003;3.679395420476794E-003;
2.403666666666667E+009;1.682878881692886E-001;5.250068381428719E-002;3.717349143698812E-003;3.459761617705226E-003;
2.403833333333334E+009;1.701664477586746E-001;5.029849708080292E-002;3.912147134542465E-003;3.112746402621269E-003;
2.404000000000000E+009;1.716781854629517E-001;4.826989769935608E-002;3.852223511785269E-003;2.972295042127371E-003;
2.404166666666667E+009;1.736115515232086E-001;4.648863524198532E-002;3.983361646533012E-003;2.760530682280660E-003;
2.404333333333334E+009;1.753716915845871E-001;4.470287635922432E-002;3.921174909919500E-003;2.626035362482071E-003;
2.404500000000000E+009;1.772068291902542E-001;4.309543594717979E-002;4.056490957736969E-003;2.487934660166502E-003;
2.404666666666667E+009;1.789888441562653E-001;4.193416237831116E-002;4.046565387398005E-003;2.337148645892739E-003;
2.404833333333334E+009;1.809371113777161E-001;4.078202694654465E-002;4.099421668797731E-003;1.965183531865478E-003;
2.405000000000000E+009;1.824368834495544E-001;3.986466675996780E-002;4.028682596981525E-003;1.991857308894396E-003;
2.405166666666667E+009;1.840338855981827E-001;3.902216255664825E-002;4.048387985676527E-003;1.873653964139521E-003;
2.405333333333334E+009;1.858235895633698E-001;3.843171149492264E-002;4.137102048844099E-003;1.827116473577917E-003;
2.405500000000000E+009;1.874812990427017E-001;3.779385238885880E-002;4.259392619132996E-003;1.670916099101305E-003;
2.405666666666667E+009;1.889368444681168E-001;3.739501908421516E-002;4.279911983758211E-003;1.458203885704279E-003;
2.405833333333334E+009;1.905440986156464E-001;3.732281550765038E-002;4.510033410042524E-003;1.483116531744599E-003;
2.406000000000000E+009;1.916522383689880E-001;3.702147677540779E-002;4.400723148137331E-003;1.213376526720822E-003;
2.406166666666667E+009;1.930304467678070E-001;3.702790290117264E-002;4.629459697753191E-003;1.093153725378215E-003;
2.406333333333334E+009;1.941312104463577E-001;3.706168010830879E-002;4.420954268425703E-003;6.897618877701461E-004;
2.406500000000000E+009;1.951196491718292E-001;3.719879314303398E-002;4.470165353268385E-003;4.765850317198783E-004;
2.406666666666667E+009;1.961068063974381E-001;3.736074268817902E-002;4.373362753540278E-003;4.304987669456750E-004;
2.406833333333334E+009;1.968243122100830E-001;3.759777918457985E-002;4.444555845111609E-003;2.250000979984179E-004;
2.407000000000000E+009;1.973917782306671E-001;3.806217014789581E-002;4.424494225531817E-003;-7.725009345449507E-005;
2.407166666666667E+009;1.979112327098846E-001;3.803977742791176E-002;4.278378561139107E-003;1.266325853066519E-005;
2.407333333333334E+009;1.980525553226471E-001;3.838723152875900E-002;4.134257789701223E-003;-1.750642841216177E-004;
2.407500000000000E+009;1.981082558631897E-001;3.873811662197113E-002;4.261128138750792E-003;-4.474540473893285E-004;
2.407666666666667E+009;1.983422338962555E-001;3.896501287817955E-002;4.102365579456091E-003;-3.681865055114031E-004;
2.407833333333334E+009;1.979912221431732E-001;3.912129253149033E-002;3.990730736404657E-003;-6.191184511408210E-004;
2.408000000000000E+009;1.979004889726639E-001;3.936804458498955E-002;3.905492834746838E-003;-5.897848750464618E-004;
2.408166666666667E+009;1.973512321710587E-001;3.939482197165489E-002;3.894146066159010E-003;-6.188983679749072E-004;
2.408333333333334E+009;1.970045268535614E-001;3.905389457941055E-002;3.875578287988901E-003;-8.602071320638061E-004;
2.408500000000000E+009;1.962440609931946E-001;3.917198628187180E-002;3.692643484100699E-003;-9.197316248901188E-004;
2.408666666666667E+009;1.955808103084564E-001;3.909516707062721E-002;3.637709654867649E-003;-1.069680438376963E-003;
2.408833333333334E+009;1.948781162500382E-001;3.855188190937042E-002;3.558061784133315E-003;-1.008220831863582E-003;
2.409000000000000E+009;1.940013766288757E-001;3.808216378092766E-002;3.529670182615519E-003;-1.211346825584769E-003;
2.409166666666667E+009;1.929262131452560E-001;3.747260570526123E-002;3.337143920361996E-003;-1.336896093562245E-003;
2.409333333333334E+009;1.919300705194473E-001;3.689974173903465E-002;3.309493185952306E-003;-1.273585716262460E-003;
2.409500000000000E+009;1.905532926321030E-001;3.590719401836395E-002;3.351062070578337E-003;-1.293128007091582E-003;
2.409666666666667E+009;1.894553005695343E-001;3.460541740059853E-002;3.195388941094279E-003;-1.507558976300061E-003;
2.409833333333334E+009;1.881733685731888E-001;3.357407078146935E-002;3.064192598685622E-003;-1.316351699642837E-003;
2.410000000000000E+009;1.870604306459427E-001;3.203861415386200E-002;3.148579271510243E-003;-1.345496857538819E-003;
2.410166666666667E+009;1.857945024967194E-001;3.049952909350395E-002;3.012118628248572E-003;-1.465592766180635E-003;
2.410333333333334E+009;1.846499592065811E-001;2.903727628290653E-002;3.180821891874075E-003;-1.449902658350766E-003;
2.410500000000000E+009;1.834451109170914E-001;2.718839049339294E-002;3.019565716385841E-003;-1.391782308928669E-003;
2.410666666666667E+009;1.824361979961395E-001;2.518635615706444E-002;2.978134667500854E-003;-1.503452775068581E-003;
2.410833333333334E+009;1.813923567533493E-001;2.296548895537853E-002;2.989185974001885E-003;-1.422690460458398E-003;
2.411000000000000E+009;1.805061846971512E-001;2.079697884619236E-002;2.949972171336412E-003;-1.493491232395172E-003;
2.411166666666667E+009;1.796445697546005E-001;1.868612505495548E-002;2.962857717648149E-003;-1.539594493806362E-003;
2.411333333333334E+009;1.788899600505829E-001;1.635885052382946E-002;2.914392156526446E-003;-1.657120767049491E-003;
2.411500000000000E+009;1.782957166433334E-001;1.388303935527802E-002;2.869470277801156E-003;-1.497537363320589E-003;
2.411666666666667E+009;1.777063906192780E-001;1.136186253279448E-002;3.056170884519815E-003;-1.647810800932348E-003;
2.411833333333334E+009;1.772992759943008E-001;8.785941638052464E-003;2.822644775733352E-003;-1.731179538182914E-003;
2.412000000000000E+009;1.770740598440170E-001;6.235735956579447E-003;2.884224988520145E-003;-1.924145501106978E-003;
2.412166666666667E+009;1.771240681409836E-001;3.745081368833780E-003;2.870603231713176E-003;-1.905056764371693E-003;
2.412333333333334E+009;1.770707219839096E-001;1.181763829663396E-003;2.925291424617171E-003;-1.841741614043713E-003;
2.412500000000000E+009;1.773531883955002E-001;-1.440450549125671E-003;2.949807094410062E-003;-2.044441644102335E-003;
2.412666666666667E+009;1.778599172830582E-001;-4.095785319805145E-003;2.974118106067181E-003;-2.054578624665737E-003;
2.412833333333334E+009;1.784022897481918E-001;-6.726933177560568E-003;2.999887568876147E-003;-2.110203728079796E-003;
2.413000000000000E+009;1.790970563888550E-001;-9.296774864196777E-003;2.794029656797648E-003;-2.329106442630291E-003;
2.413166666666667E+009;1.797245442867279E-001;-1.184058282524347E-002;3.025491256266832E-003;-2.339786849915981E-003;
2.413333333333334E+009;1.808921396732330E-001;-1.432187017053366E-002;3.113874699920416E-003;-2.620647661387920E-003;
2.413500000000000E+009;1.816677600145340E-001;-1.676828414201737E-002;3.019643714651465E-003;-2.664917148649693E-003;
2.413666666666667E+009;1.830184012651444E-001;-1.926035992801189E-002;3.066735574975610E-003;-2.884506015107036E-003;
2.413833333333334E+009;1.842007935047150E-001;-2.153661474585533E-002;2.962399274110794E-003;-3.080895869061351E-003;
2.414000000000000E+009;1.852193176746368E-001;-2.379698678851128E-002;2.656994154676795E-003;-3.420626744627953E-003;
2.414166666666667E+009;1.866398751735687E-001;-2.578469365835190E-002;2.670415444299579E-003;-3.538208315148950E-003;
2.414333333333334E+009;1.879336833953857E-001;-2.798544988036156E-002;2.631961135193706E-003;-3.821848658844829E-003;
2.414500000000000E+009;1.892414540052414E-001;-2.970208227634430E-002;2.334256889298558E-003;-3.830421017482877E-003;
2.414666666666667E+009;1.907172799110413E-001;-3.144086897373200E-002;2.168737351894379E-003;-3.997416701167822E-003;
2.414833333333334E+009;1.919565200805664E-001;-3.303764015436173E-002;1.870109234005213E-003;-3.950841259211302E-003;
2.415000000000000E+009;1.933690607547760E-001;-3.457310423254967E-002;1.758456812240183E-003;-3.964291419833899E-003;
2.415166666666667E+009;1.948089003562927E-001;-3.594377264380455E-002;1.639388268813491E-003;-4.069571848958731E-003;
2.415333333333334E+009;1.962330490350723E-001;-3.705166280269623E-002;1.425900612957776E-003;-4.176154267042875E-003;
2.415500000000000E+009;1.974659711122513E-001;-3.774135932326317E-002;1.270250533707440E-003;-4.085513297468424E-003;
2.415666666666667E+009;1.988580524921417E-001;-3.894202783703804E-002;1.136893755756319E-003;-4.028035793453455E-003;
2.415833333333334E+009;1.999946981668472E-001;-3.949394077062607E-002;1.137656858190894E-003;-4.083653446286917E-003;
2.416000000000000E+009;2.011008262634277E-001;-4.018094763159752E-002;9.833631338551641E-004;-4.103348124772310E-003;
2.416166666666667E+009;2.020528316497803E-001;-4.088540002703667E-002;7.733341190032661E-004;-4.335872828960419E-003;
2.416333333333334E+009;2.029426991939545E-001;-4.112260788679123E-002;4.613166092894971E-004;-4.270179197192192E-003;
2.416500000000000E+009;2.036978602409363E-001;-4.138131812214851E-002;3.570387780200690E-004;-4.361677914857864E-003;
2.416666666666667E+009;2.043866962194443E-001;-4.177706688642502E-002;3.044639015570283E-004;-4.382896702736616E-003;
2.416833333333334E+009;2.048023939132690E-001;-4.178020358085632E-002;3.756300793611445E-005;-4.535969812422991E-003;
2.417000000000000E+009;2.052323520183563E-001;-4.180450364947319E-002;-3.359020920470357E-004;-4.477762151509523E-003;
2.417166666666667E+009;2.051829695701599E-001;-4.170813784003258E-002;-3.667915298137814E-004;-4.393008071929216E-003;
2.417333333333334E+009;2.053272277116776E-001;-4.137558117508888E-002;-5.950167542323470E-004;-4.232694394886494E-003;
2.417500000000000E+009;2.052517086267471E-001;-4.135607182979584E-002;-6.631470751017332E-004;-4.247645381838083E-003;
2.417666666666667E+009;2.048683762550354E-001;-4.088379442691803E-002;-1.039611990563572E-003;-4.342766012996435E-003;
2.417833333333334E+009;2.047310769557953E-001;-4.063245654106140E-002;-9.717441280372441E-004;-4.136549774557352E-003;
2.418000000000000E+009;2.043162286281586E-001;-4.011435806751251E-002;-1.343673444353044E-003;-4.154778551310301E-003;
2.418166666666667E+009;2.036207169294357E-001;-3.993323817849159E-002;-1.392258214764297E-003;-3.877992276102305E-003;
2.418333333333334E+009;2.029313892126083E-001;-3.948669508099556E-002;-1.632993225939572E-003;-3.939286805689335E-003;
2.418500000000000E+009;2.020239233970642E-001;-3.926736116409302E-002;-1.588573213666678E-003;-3.803945612162352E-003;
2.418666666666667E+009;2.011553645133972E-001;-3.905170410871506E-002;-1.661069109104574E-003;-3.713433165103197E-003;
2.418833333333334E+009;1.999631226062775E-001;-3.891230374574661E-002;-1.809130073525012E-003;-3.656084416434169E-003;
2.419000000000000E+009;1.987125575542450E-001;-3.903123736381531E-002;-1.916647073812783E-003;-3.439840860664845E-003;
2.419166666666667E+009;1.975463181734085E-001;-3.914054855704308E-002;-2.051763935014606E-003;-3.390804165974259E-003;
2.419333333333334E+009;1.960368156433106E-001;-3.930793330073357E-002;-2.001911168918014E-003;-3.240455407649279E-003;
2.419500000000000E+009;1.945085525512695E-001;-3.959230333566666E-002;-2.337864134460688E-003;-3.280212637037039E-003;
2.419666666666667E+009;1.930212974548340E-001;-4.012959450483322E-002;-2.245181007310748E-003;-3.178873565047979E-003;
2.419833333333334E+009;1.912294030189514E-001;-4.056151211261749E-002;-2.268278738483787E-003;-3.003564663231373E-003;
2.420000000000000E+009;1.896197646856308E-001;-4.130019247531891E-002;-2.399646909907460E-003;-2.875194186344743E-003;
2.420166666666667E+009;1.879295855760574E-001;-4.205688834190369E-002;-2.423868514597416E-003;-2.748896833509207E-003;
2.420333333333334E+009;1.861416101455689E-001;-4.297585412859917E-002;-2.338718622922897E-003;-2.727061510086060E-003;
2.420500000000000E+009;1.843616217374802E-001;-4.443097487092018E-002;-2.480454742908478E-003;-2.630933653563261E-003;
2.420666666666667E+009;1.826220452785492E-001;-4.519237205386162E-002;-2.332411240786314E-003;-2.548602875322104E-003;
2.420833333333334E+009;1.805803924798966E-001;-4.670989140868187E-002;-2.423137659206986E-003;-2.479073358699679E-003;
2.421000000000000E+009;1.792060434818268E-001;-4.820808768272400E-002;-2.282184781506658E-003;-2.406541723757982E-003;
2.421166666666667E+009;1.774589270353317E-001;-4.990757629275322E-002;-2.502058167010546E-003;-2.409405540674925E-003;
2.421333333333334E+009;1.756160706281662E-001;-5.157355591654778E-002;-2.450181636959314E-003;-2.389049390330911E-003;
2.421500000000000E+009;1.738852560520172E-001;-5.341456085443497E-002;-2.508302684873343E-003;-2.326445886865258E-003;
2.421666666666667E+009;1.726481020450592E-001;-5.519278720021248E-002;-2.577017527073622E-003;-2.137467730790377E-003;
2.421833333333334E+009;1.712683737277985E-001;-5.717949941754341E-002;-2.648838562890887E-003;-2.238601446151733E-003;
2.422000000000000E+009;1.698202937841415E-001;-5.916436016559601E-002;-2.546053379774094E-003;-2.116096904501319E-003;
2.422166666666667E+009;1.687298119068146E-001;-6.145196780562401E-002;-2.556263003498316E-003;-2.102514728903770E-003;
2.422333333333334E+009;1.673207879066467E-001;-6.363493949174881E-002;-2.818176755681634E-003;-2.131286310032010E-003;
2.422500000000000E+009;1.664598137140274E-001;-6.579036265611649E-002;-2.901618136093020E-003;-1.993908081203699E-003;
2.422666666666667E+009;1.656843274831772E-001;-6.782647967338562E-002;-2.949056448414922E-003;-1.986367395147681E-003;
2.422833333333334E+009;1.649947911500931E-001;-7.021036744117737E-002;-3.112947335466743E-003;-2.001016400754452E-003;
2.423000000000000E+009;1.642706543207169E-001;-7.244036346673966E-002;-3.186492947861552E-003;-1.683088368736208E-003;
2.423166666666667E+009;1.639111340045929E-001;-7.459960877895355E-002;-3.221147228032351E-003;-1.692596822977066E-003;
2.423333333333334E+009;1.635553687810898E-001;-7.678657025098801E-002;-3.062403528019786E-003;-1.586223836056888E-003;
2.423500000000000E+009;1.633428633213043E-001;-7.887843251228333E-002;-3.193666227161884E-003;-1.449364819563925E-003;
2.423666666666667E+009;1.632692217826843E-001;-8.103040605783463E-002;-3.248678520321846E-003;-1.376158907078207E-003;
2.423833333333334E+009;1.632437407970429E-001;-8.295013010501862E-002;-3.306694561615586E-003;-1.309534534811974E-003;
2.424000000000000E+009;1.633191555738449E-001;-8.497422188520432E-002;-3.390752710402012E-003;-1.139498781412840E-003;
2.424166666666667E+009;1.635257005691528E-001;-8.685874193906784E-002;-3.303501987829804E-003;-1.167874666862190E-003;
2.424333333333334E+009;1.638476252555847E-001;-8.860081434249878E-002;-3.408586839213967E-003;-1.053153653629124E-003;
2.424500000000000E+009;1.642036437988281E-001;-9.057503193616867E-002;-3.256791736930609E-003;-1.035308931022883E-003;
2.424666666666667E+009;1.645711511373520E-001;-9.232342988252640E-002;-3.465142799541354E-003;-8.592072990722954E-004;
2.424833333333334E+009;1.650753468275070E-001;-9.377456456422806E-002;-3.481657477095723E-003;-7.922066724859178E-004;
2.425000000000000E+009;1.657803803682327E-001;-9.521529823541641E-002;-3.599012037739158E-003;-6.649598362855613E-004;
2.425166666666667E+009;1.661051362752914E-001;-9.653953462839127E-002;-3.521492006257176E-003;-4.988986765965819E-004;
2.425333333333334E+009;1.666217297315598E-001;-9.768939763307571E-002;-3.661121474578977E-003;-3.686216077767313E-004;
2.425500000000000E+009;1.672619581222534E-001;-9.886491298675537E-002;-3.576245857402682E-003;-2.628194051794708E-004;
2.425666666666667E+009;1.680319309234619E-001;-9.968635439872742E-002;-3.613168606534600E-003;-1.788138906704262E-004;
2.425833333333334E+009;1.684761047363281E-001;-1.006811484694481E-001;-3.692347789183259E-003;1.277629144169623E-005;
2.426000000000000E+009;1.691388636827469E-001;-1.012646257877350E-001;-3.738570259884000E-003;1.129061347455718E-004;
2.426166666666667E+009;1.697451472282410E-001;-1.018659621477127E-001;-3.762086387723684E-003;1.351169194094837E-004;
2.426333333333334E+009;1.701509654521942E-001;-1.023816987872124E-001;-3.544482868164778E-003;2.774333115667105E-004;
2.426500000000000E+009;1.707392483949661E-001;-1.026477664709091E-001;-3.564649028703570E-003;4.931297153234482E-004;
2.426666666666667E+009;1.712793558835983E-001;-1.031654030084610E-001;-3.634070279076695E-003;4.708784399554133E-004;
2.426833333333334E+009;1.717786192893982E-001;-1.034540235996246E-001;-3.571777371689677E-003;7.123388350009918E-004;
2.427000000000000E+009;1.720704883337021E-001;-1.036099120974541E-001;-3.714688355103135E-003;6.862981244921684E-004;
2.427166666666667E+009;1.723758876323700E-001;-1.036785095930100E-001;-3.543515922501683E-003;9.744112030602992E-004;
2.427333333333334E+009;1.724553257226944E-001;-1.037390455603600E-001;-3.558280179277062E-003;1.058837515302002E-003;
2.427500000000000E+009;1.724653244018555E-001;-1.038353815674782E-001;-3.480857471004129E-003;1.056067296303809E-003;
2.427666666666667E+009;1.725446730852127E-001;-1.039011925458908E-001;-3.476636018604040E-003;1.232212176546454E-003;
