# Version 1.00
#
freq[Hz];re:Trc1_S11;im:Trc1_S11;re:Trc2_S21;im:Trc2_S21;
2.400000000000000E+009;1.560420840978622E-001;1.117347329854965E-001;3.281977551523596E-004;4.083574283868074E-003;
2.400166666666667E+009;1.554516255855560E-001;1.094699576497078E-001;3.918690490536392E-004;4.171990789473057E-003;
2.400333333333334E+009;1.552320867776871E-001;1.073175892233849E-001;3.631178406067193E-004;4.235724452883005E-003;
2.400500000000000E+009;1.548357456922531E-001;1.047005057334900E-001;4.854263097513467E-004;4.220027476549149E-003;
2.400666666666667E+009;1.546995937824249E-001;1.021528765559197E-001;6.406554603017867E-004;4.422258585691452E-003;
2.400833333333334E+009;1.543695330619812E-001;9.938782453536987E-002;8.084839209914208E-004;4.271781537681818E-003;
2.401000000000000E+009;1.545661538839340E-001;9.644156694412231E-002;7.972279563546181E-004;4.361603409051895E-003;
2.401166666666667E+009;1.541698127985001E-001;9.369825571775436E-002;9.920655284076929E-004;4.423256963491440E-003;
2.401333333333334E+009;1.545674502849579E-001;9.081436693668366E-002;1.223556930199266E-003;4.389447160065174E-003;
2.401500000000000E+009;1.546212434768677E-001;8.766898512840271E-002;1.334185595624149E-003;4.361998755484819E-003;
2.401666666666667E+009;1.547482460737228E-001;8.465997129678726E-002;1.341641647741199E-003;4.280751105397940E-003;
2.401833333333334E+009;1.551010310649872E-001;8.147732913494110E-002;1.521695987321436E-003;4.262067843228579E-003;
2.402000000000000E+009;1.557551920413971E-001;7.870905846357346E-002;1.636404660530388E-003;4.354457836598158E-003;
2.402166666666667E+009;1.564442515373230E-001;7.593300193548203E-002;1.805592328310013E-003;4.427590407431126E-003;
2.402333333333334E+009;1.570785641670227E-001;7.292695343494415E-002;2.045042812824249E-003;4.359280224889517E-003;
2.402500000000000E+009;1.581836938858032E-001;7.017596811056137E-002;2.263715723529458E-003;4.118288867175579E-003;
2.402666666666667E+009;1.591812670230866E-001;6.754092872142792E-002;2.334653399884701E-003;4.270428325980902E-003;
2.402833333333334E+009;1.606230735778809E-001;6.489533931016922E-002;2.642796142026782E-003;4.171782638877630E-003;
2.403000000000000E+009;1.619345396757126E-001;6.210355088114739E-002;2.847921103239059E-003;4.144304431974888E-003;
2.403166666666667E+009;1.634865403175354E-001;5.969721823930740E-002;3.177300794050098E-003;3.841371741145849E-003;
2.403333333333334E+009;1.649695336818695E-001;5.723149329423904E-002;3.345987061038613E-003;3.727998118847609E-003;
2.403500000000000E+009;1.667535006999970E-001;5.491521954536438E-002;3.532481379806995E-003;3.755487967282534E-003;
2.403666666666667E+009;1.685043722391129E-001;5.266606807708740E-002;3.822328057140112E-003;3.285162383690476E-003;
2.403833333333334E+009;1.703319102525711E-001;5.062559992074966E-002;3.601525211706758E-003;3.117002779617906E-003;
2.404000000000000E+009;1.720443814992905E-001;4.851645976305008E-002;3.863171674311161E-003;2.919954946264625E-003;
2.404166666666667E+009;1.739505380392075E-001;4.684377834200859E-002;3.954047337174416E-003;2.904532011598349E-003;
2.404333333333334E+009;1.756868213415146E-001;4.509153962135315E-002;4.044850356876850E-003;2.686609514057636E-003;
2.404500000000000E+009;1.774198114871979E-001;4.360303655266762E-002;4.096829332411289E-003;2.464923076331615E-003;
2.404666666666667E+009;1.792756319046021E-001;4.219472408294678E-002;3.969590645283461E-003;2.115989336743951E-003;
2.404833333333334E+009;1.812665015459061E-001;4.099671915173531E-002;4.126380197703838E-003;2.263498958200216E-003;
2.405000000000000E+009;1.829475313425064E-001;4.008533060550690E-002;4.068658221513033E-003;1.912347623147070E-003;
2.405166666666667E+009;1.844559013843536E-001;3.916398808360100E-002;3.897945163771510E-003;1.869716215878725E-003;
2.405333333333334E+009;1.861188262701035E-001;3.861471265554428E-002;4.204519558697939E-003;1.840115408413112E-003;
2.405500000000000E+009;1.878090351819992E-001;3.800844401121140E-002;4.339758306741715E-003;1.457250560633838E-003;
2.405666666666667E+009;1.893448382616043E-001;3.776491805911064E-002;4.208034835755825E-003;1.514958450570703E-003;
2.405833333333334E+009;1.908618807792664E-001;3.752965480089188E-002;4.276926163583994E-003;1.464123604819179E-003;
2.406000000000000E+009;1.921640038490295E-001;3.733536601066589E-002;4.232855513691902E-003;1.409932505339384E-003;
2.406166666666667E+009;1.933640688657761E-001;3.711715713143349E-002;4.373704083263874E-003;9.843505686149001E-004;
2.406333333333334E+009;1.944821029901505E-001;3.733332827687264E-002;4.401803947985172E-003;9.458303102292121E-004;
2.406500000000000E+009;1.956563740968704E-001;3.736234828829765E-002;4.566575400531292E-003;9.259667713195086E-004;
2.406666666666667E+009;1.964298188686371E-001;3.774093836545944E-002;3.461875487118959E-003;8.963509462773800E-004;
2.406833333333334E+009;1.970551609992981E-001;3.764446824789047E-002;4.793030209839344E-003;-1.051737490342930E-004;
2.407000000000000E+009;1.975587755441666E-001;3.820947930216789E-002;3.452197648584843E-003;-1.685426977928728E-004;
2.407166666666667E+009;1.982721686363220E-001;3.813650459051132E-002;4.168150946497917E-003;2.231186372227967E-004;
2.407333333333334E+009;1.984651982784271E-001;3.868007659912109E-002;3.755724057555199E-003;8.189502841560170E-005;
2.407500000000000E+009;1.985636204481125E-001;3.899139910936356E-002;3.867501160129905E-003;-1.281516742892563E-004;
2.407666666666667E+009;1.986675858497620E-001;3.908595815300942E-002;4.193662200123072E-003;-7.119320798665285E-004;
2.407833333333334E+009;1.984556764364243E-001;3.933667391538620E-002;3.896196139976382E-003;-8.622555469628424E-005;
2.408000000000000E+009;1.983395516872406E-001;3.943810611963272E-002;4.308084957301617E-003;-7.964078104123473E-004;
2.408166666666667E+009;1.978611052036285E-001;3.953534737229347E-002;3.789403708651662E-003;-7.740673609077931E-004;
2.408333333333334E+009;1.974669247865677E-001;3.940308466553688E-002;3.748019924387336E-003;-7.585202693007886E-004;
2.408500000000000E+009;1.968060880899429E-001;3.932061046361923E-002;3.540309146046639E-003;-9.746402502059937E-004;
2.408666666666667E+009;1.961679756641388E-001;3.928645327687264E-002;3.550207708030939E-003;-1.035458408296108E-003;
2.408833333333334E+009;1.953414976596832E-001;3.886878862977028E-002;3.339182585477829E-003;-1.057833549566567E-003;
2.409000000000000E+009;1.944269835948944E-001;3.828360140323639E-002;3.435588674619794E-003;-1.202327897772193E-003;
2.409166666666667E+009;1.933716237545013E-001;3.771537169814110E-002;3.521304344758391E-003;-1.200929749757052E-003;
2.409333333333334E+009;1.924070119857788E-001;3.692100942134857E-002;3.265291452407837E-003;-1.248355023562908E-003;
2.409500000000000E+009;1.910488605499268E-001;3.590333461761475E-002;3.196523990482092E-003;-1.300303032621741E-003;
2.409666666666667E+009;1.900042295455933E-001;3.484743833541870E-002;3.081710077822208E-003;-1.213706796988845E-003;
2.409833333333334E+009;1.887313872575760E-001;3.366450592875481E-002;3.132863668724895E-003;-1.241013756953180E-003;
2.410000000000000E+009;1.874991059303284E-001;3.209961205720902E-002;2.901429077610374E-003;-1.186662819236517E-003;
2.410166666666667E+009;1.862455159425736E-001;3.059300966560841E-002;3.066800534725189E-003;-1.443543354980648E-003;
2.410333333333334E+009;1.851629912853241E-001;2.891860902309418E-002;3.130639437586069E-003;-1.459404127672315E-003;
2.410500000000000E+009;1.839922964572907E-001;2.719491906464100E-002;3.032431006431580E-003;-1.379094435833395E-003;
2.410666666666667E+009;1.828067451715469E-001;2.509105391800404E-002;3.053086576983333E-003;-1.284433645196259E-003;
2.410833333333334E+009;1.818985491991043E-001;2.295376919209957E-002;2.869117772206664E-003;-1.412435201928020E-003;
2.411000000000000E+009;1.810728907585144E-001;2.085143886506558E-002;3.023620694875717E-003;-1.539429067634046E-003;
2.411166666666667E+009;1.800362020730972E-001;1.865760423243046E-002;2.962766680866480E-003;-1.506149303168058E-003;
2.411333333333334E+009;1.793637126684189E-001;1.607627607882023E-002;2.994455629959703E-003;-1.429952331818640E-003;
2.411500000000000E+009;1.786455661058426E-001;1.381718274205923E-002;2.872331999242306E-003;-1.486385823227465E-003;
2.411666666666667E+009;1.782985925674439E-001;1.126068364828825E-002;3.024792531505227E-003;-1.673505408689380E-003;
2.411833333333334E+009;1.777698546648026E-001;8.817383088171482E-003;3.011770546436310E-003;-1.745257992297411E-003;
2.412000000000000E+009;1.777289062738419E-001;6.101485807448626E-003;2.826027804985642E-003;-1.695502083748579E-003;
2.412166666666667E+009;1.775908619165421E-001;3.727624891325831E-003;3.054011380299926E-003;-1.934961648657918E-003;
2.412333333333334E+009;1.775497943162918E-001;1.170204952359200E-003;2.903033979237080E-003;-1.978963147848845E-003;
2.412500000000000E+009;1.779411435127258E-001;-1.701962202787399E-003;2.918344689533114E-003;-2.010628348216415E-003;
2.412666666666667E+009;1.782410889863968E-001;-4.456584807485342E-003;3.035032888874412E-003;-1.901988987810910E-003;
2.412833333333334E+009;1.788423210382462E-001;-6.948069203644991E-003;2.984159393236041E-003;-2.043201122432947E-003;
2.413000000000000E+009;1.796437799930573E-001;-9.524532593786717E-003;3.001663833856583E-003;-2.285957569256425E-003;
2.413166666666667E+009;1.801671832799912E-001;-1.189541537314653E-002;2.999000484123826E-003;-2.375717274844647E-003;
2.413333333333334E+009;1.813178360462189E-001;-1.448082458227873E-002;3.164159832522273E-003;-2.398280194029212E-003;
2.413500000000000E+009;1.822187155485153E-001;-1.707334257662296E-002;3.078624373301864E-003;-2.804667456075549E-003;
2.413666666666667E+009;1.833479851484299E-001;-1.949022337794304E-002;2.843302441760898E-003;-3.006104379892349E-003;
2.413833333333334E+009;1.845310628414154E-001;-2.172727324068546E-002;2.873233752325177E-003;-3.103685798123479E-003;
2.414000000000000E+009;1.856429278850555E-001;-2.410187385976315E-002;2.902468666434288E-003;-3.336299676448107E-003;
2.414166666666667E+009;1.869708001613617E-001;-2.603344805538654E-002;2.688845153898001E-003;-3.423470305278897E-003;
2.414333333333334E+009;1.882229298353195E-001;-2.821194007992744E-002;2.447758102789521E-003;-3.684034571051598E-003;
2.414500000000000E+009;1.896403133869171E-001;-3.015963733196259E-002;2.350630005821586E-003;-3.697177628055215E-003;
2.414666666666667E+009;1.910165697336197E-001;-3.192141652107239E-002;2.105760620906949E-003;-4.018183331936598E-003;
2.414833333333334E+009;1.924008131027222E-001;-3.324224799871445E-002;2.086979337036610E-003;-3.831800073385239E-003;
2.415000000000000E+009;1.936195790767670E-001;-3.492739796638489E-002;1.802175771445036E-003;-3.990680444985628E-003;
2.415166666666667E+009;1.951225847005844E-001;-3.627923130989075E-002;1.528187538497150E-003;-3.932697232812643E-003;
2.415333333333334E+009;1.964308321475983E-001;-3.737984970211983E-002;1.496951794251800E-003;-4.102434031665325E-003;
2.415500000000000E+009;1.977300047874451E-001;-3.812328726053238E-002;1.394434482790530E-003;-4.187552724033594E-003;
2.415666666666667E+009;1.991776376962662E-001;-3.925084322690964E-002;1.171124633401632E-003;-4.242177587002516E-003;
2.415833333333334E+009;2.001774758100510E-001;-3.988282009959221E-002;1.097729778848589E-003;-4.194582812488079E-003;
2.416000000000000E+009;2.012330591678619E-001;-4.071608558297157E-002;9.159804903902113E-004;-4.233003128319979E-003;
2.416166666666667E+009;2.022744417190552E-001;-4.132398962974548E-002;7.972910534590483E-004;-4.292217083275318E-003;
2.416333333333334E+009;2.031569182872772E-001;-4.159163311123848E-002;6.155478185974062E-004;-4.373156465590000E-003;
2.416500000000000E+009;2.039490342140198E-001;-4.178441688418388E-002;4.248622281011194E-004;-4.398557357490063E-003;
2.416666666666667E+009;2.044624388217926E-001;-4.219866544008255E-002;2.649628149811178E-004;-4.289634991437197E-003;
2.416833333333334E+009;2.049066126346588E-001;-4.224166646599770E-002;-1.065862597897649E-004;-4.442313220351934E-003;
2.417000000000000E+009;2.054678201675415E-001;-4.220425710082054E-002;-3.385850141057745E-005;-4.415473435074091E-003;
2.417166666666667E+009;2.053864151239395E-001;-4.210132360458374E-002;-5.278786411508918E-004;-4.414635710418224E-003;
2.417333333333334E+009;2.052402049303055E-001;-4.187756031751633E-002;-6.070436211302877E-004;-4.341446794569492E-003;
2.417500000000000E+009;2.052518576383591E-001;-4.171109944581986E-002;-8.684727363288403E-004;-4.347675014287233E-003;
2.417666666666667E+009;2.050760537385941E-001;-4.134514927864075E-002;-8.958177641034126E-004;-4.077439196407795E-003;
2.417833333333334E+009;2.047830820083618E-001;-4.106866195797920E-002;-1.130458898842335E-003;-4.122425336390734E-003;
2.418000000000000E+009;2.043049782514572E-001;-4.062025994062424E-002;-1.253323047421873E-003;-4.074255004525185E-003;
2.418166666666667E+009;2.036605030298233E-001;-4.031473398208618E-002;-1.318408176302910E-003;-3.950808662921190E-003;
2.418333333333334E+009;2.028677314519882E-001;-3.988362476229668E-002;-1.472952077165246E-003;-3.841917496174574E-003;
2.418500000000000E+009;2.021283656358719E-001;-3.977755457162857E-002;-1.558253774419427E-003;-3.760260296985507E-003;
2.418666666666667E+009;2.012058645486832E-001;-3.952421620488167E-002;-1.670102356001735E-003;-3.712478326633573E-003;
2.418833333333334E+009;1.999876946210861E-001;-3.948554396629334E-002;-1.834767637774348E-003;-3.587310202419758E-003;
2.419000000000000E+009;1.987034678459168E-001;-3.938130289316177E-002;-1.998320454731584E-003;-3.454995574429631E-003;
2.419166666666667E+009;1.975330412387848E-001;-3.942721709609032E-002;-1.929189777001739E-003;-3.337997011840344E-003;
2.419333333333334E+009;1.958965212106705E-001;-3.972045332193375E-002;-2.030626637861133E-003;-3.384464187547565E-003;
2.419500000000000E+009;1.945942938327789E-001;-3.982586413621903E-002;-2.194960601627827E-003;-3.338362323120236E-003;
2.419666666666667E+009;1.928971856832504E-001;-4.047413170337677E-002;-2.273109043017030E-003;-3.056401386857033E-003;
2.419833333333334E+009;1.911669820547104E-001;-4.092838615179062E-002;-2.341278828680515E-003;-3.063437063246965E-003;
2.420000000000000E+009;1.895134896039963E-001;-4.162664338946343E-002;-2.370813395828009E-003;-2.931679366156459E-003;
2.420166666666667E+009;1.879040598869324E-001;-4.233169555664063E-002;-2.304169582203031E-003;-2.695812378078699E-003;
2.420333333333334E+009;1.860029250383377E-001;-4.343009367585182E-002;-2.518134890124202E-003;-2.771772444248200E-003;
2.420500000000000E+009;1.841246783733368E-001;-4.466595500707626E-002;-2.508654259145260E-003;-2.597552258521318E-003;
2.420666666666667E+009;1.823187768459320E-001;-4.552187398076057E-002;-2.333506010472775E-003;-2.448458457365632E-003;
2.420833333333334E+009;1.805379986763001E-001;-4.692246019840241E-002;-2.413556678220630E-003;-2.475868910551071E-003;
2.421000000000000E+009;1.789974570274353E-001;-4.860420152544975E-002;-2.372855786234140E-003;-2.443854231387377E-003;
2.421166666666667E+009;1.772744059562683E-001;-5.017901957035065E-002;-2.375616226345301E-003;-2.468689344823360E-003;
2.421333333333334E+009;1.754346191883087E-001;-5.176657065749168E-002;-2.468185266479850E-003;-2.250524237751961E-003;
2.421500000000000E+009;1.738155186176300E-001;-5.377250909805298E-002;-2.383244223892689E-003;-2.169775078073144E-003;
2.421666666666667E+009;1.723895072937012E-001;-5.554144084453583E-002;-2.418790245428681E-003;-2.217847155407071E-003;
2.421833333333334E+009;1.710888296365738E-001;-5.740926787257195E-002;-2.616511192172766E-003;-2.302820794284344E-003;
2.422000000000000E+009;1.696914285421372E-001;-5.956795811653137E-002;-2.511056838557124E-003;-2.335957484319806E-003;
2.422166666666667E+009;1.686323285102844E-001;-6.173899769783020E-002;-2.779903821647167E-003;-2.114307135343552E-003;
2.422333333333334E+009;1.672215610742569E-001;-6.392595171928406E-002;-2.740839496254921E-003;-2.120632445439696E-003;
2.422500000000000E+009;1.664029210805893E-001;-6.606264412403107E-002;-2.742397366091609E-003;-2.202636795118451E-003;
2.422666666666667E+009;1.655559539794922E-001;-6.815700978040695E-002;-2.891711192205548E-003;-2.016335725784302E-003;
2.422833333333334E+009;1.649551838636398E-001;-7.041394710540772E-002;-2.877992112189531E-003;-1.895016757771373E-003;
2.423000000000000E+009;1.643038094043732E-001;-7.262418419122696E-002;-3.243567189201713E-003;-1.864357036538422E-003;
2.423166666666667E+009;1.636312603950501E-001;-7.488660514354706E-002;-2.910631243139505E-003;-1.802431885153055E-003;
2.423333333333334E+009;1.633986085653305E-001;-7.719605416059494E-002;-3.213123418390751E-003;-1.664950628764927E-003;
2.423500000000000E+009;1.631963700056076E-001;-7.905086874961853E-002;-3.001021686941385E-003;-1.621409435756505E-003;
2.423666666666667E+009;1.632918864488602E-001;-8.131170272827148E-002;-3.226246451959014E-003;-1.560651697218418E-003;
2.423833333333334E+009;1.630944609642029E-001;-8.321160823106766E-002;-3.311350010335445E-003;-1.442828448489308E-003;
2.424000000000000E+009;1.632655411958695E-001;-8.533226698637009E-002;-3.373362822458148E-003;-1.199097605422139E-003;
2.424166666666667E+009;1.633813679218292E-001;-8.707307279109955E-002;-3.400871064513922E-003;-1.235742005519569E-003;
2.424333333333334E+009;1.637628525495529E-001;-8.872136473655701E-002;-3.274489426985383E-003;-1.004621852189302E-003;
2.424500000000000E+009;1.640653163194656E-001;-9.086043387651444E-002;-3.474774071946740E-003;-1.111403340473771E-003;
2.424666666666667E+009;1.643911004066467E-001;-9.247103333473206E-002;-3.361779730767012E-003;-9.197366889566183E-004;
2.424833333333334E+009;1.650359332561493E-001;-9.401490539312363E-002;-3.494764678180218E-003;-7.895997841842473E-004;
2.425000000000000E+009;1.656623333692551E-001;-9.528387337923050E-002;-3.480100538581610E-003;-6.346530281007290E-004;
2.425166666666667E+009;1.660606414079666E-001;-9.659429639577866E-002;-3.407418029382825E-003;-5.546681932173669E-004;
2.425333333333334E+009;1.665710210800171E-001;-9.780221432447434E-002;-3.499682527035475E-003;-3.208920243196189E-004;
2.425500000000000E+009;1.671582907438278E-001;-9.899008274078369E-002;-3.532848320901394E-003;-3.422783629503101E-004;
2.425666666666667E+009;1.678953617811203E-001;-9.981272369623184E-002;-3.681469708681107E-003;-2.562561712693423E-004;
2.425833333333334E+009;1.684606671333313E-001;-1.007820665836334E-001;-3.595416434109211E-003;-1.755560078890994E-004;
2.426000000000000E+009;1.690949946641922E-001;-1.012877151370049E-001;-3.737799823284149E-003;1.435048034181818E-004;
2.426166666666667E+009;1.697268187999725E-001;-1.019143462181091E-001;-3.624201519414783E-003;3.835880779661238E-004;
2.426333333333334E+009;1.700336933135986E-001;-1.025038063526154E-001;-3.702469868585467E-003;2.426046412438154E-004;
2.426500000000000E+009;1.707165688276291E-001;-1.027978286147118E-001;-3.616948844864965E-003;3.673962492030114E-004;
2.426666666666667E+009;1.712817102670670E-001;-1.033227965235710E-001;-3.505172906443477E-003;4.365599306765944E-004;
2.426833333333334E+009;1.716874390840530E-001;-1.035007089376450E-001;-3.610554849728942E-003;7.935275207273662E-004;
2.427000000000000E+009;1.720474660396576E-001;-1.037243306636810E-001;-3.519322723150253E-003;8.449762826785445E-004;
2.427166666666667E+009;1.723501831293106E-001;-1.038234978914261E-001;-3.633442334830761E-003;9.113904088735580E-004;
2.427333333333334E+009;1.723999977111816E-001;-1.039767041802406E-001;-3.303452627733350E-003;1.003782497718930E-003;
2.427500000000000E+009;1.723881363868713E-001;-1.040383428335190E-001;-3.447348484769464E-003;1.003419049084187E-003;
2.427666666666667E+009;1.723797023296356E-001;-1.040471866726875E-001;-3.619166789576411E-003;1.253800233826041E-003;
