# Version 1.00
#
freq[Hz];re:Trc1_S11;im:Trc1_S11;re:Trc2_S21;im:Trc2_S21;
2.400000000000000E+009;1.552570760250092E-001;1.066394820809364E-001;4.072859417647123E-003;-1.286959159187973E-003;
2.400166666666667E+009;1.551337838172913E-001;1.041467636823654E-001;4.069049842655659E-003;-1.407042727805674E-003;
2.400333333333334E+009;1.552158743143082E-001;1.018911600112915E-001;4.159371368587017E-003;-1.485738321207464E-003;
2.400500000000000E+009;1.551066190004349E-001;9.924661368131638E-002;4.090924281626940E-003;-1.653549144975841E-003;
2.400666666666667E+009;1.551776379346848E-001;9.660003334283829E-002;4.165320191532373E-003;-1.709820935502648E-003;
2.400833333333334E+009;1.552591770887375E-001;9.372986853122711E-002;4.104040563106537E-003;-1.767277135513723E-003;
2.401000000000000E+009;1.554986238479614E-001;9.092666953802109E-002;4.167728591710329E-003;-1.903752563521266E-003;
2.401166666666667E+009;1.556301712989807E-001;8.833410590887070E-002;3.970341291278601E-003;-2.086105290800333E-003;
2.401333333333334E+009;1.560240238904953E-001;8.554334938526154E-002;4.105693660676479E-003;-2.201738767325878E-003;
2.401500000000000E+009;1.565409302711487E-001;8.256305009126663E-002;4.222314804792404E-003;-2.477540401741862E-003;
2.401666666666667E+009;1.569456160068512E-001;7.983293384313583E-002;4.015266429632902E-003;-2.748639788478613E-003;
2.401833333333334E+009;1.574231833219528E-001;7.716633379459381E-002;4.051922820508480E-003;-2.767810365185142E-003;
2.402000000000000E+009;1.583055704832077E-001;7.422477006912231E-002;4.016814287751913E-003;-3.050785511732101E-003;
2.402166666666667E+009;1.590110361576080E-001;7.194811105728149E-002;3.851557848975062E-003;-3.281822428107262E-003;
2.402333333333334E+009;1.600486040115356E-001;6.910849362611771E-002;3.716035047546029E-003;-3.350734477862716E-003;
2.402500000000000E+009;1.613217443227768E-001;6.671396642923355E-002;3.522804239764810E-003;-3.601637203246355E-003;
2.402666666666667E+009;1.624132990837097E-001;6.434948742389679E-002;3.483895212411881E-003;-3.822383703663945E-003;
2.402833333333334E+009;1.637526005506516E-001;6.188868731260300E-002;3.150608390569687E-003;-3.904190147295594E-003;
2.403000000000000E+009;1.653070151805878E-001;5.961668863892555E-002;2.980188699439168E-003;-3.993776626884937E-003;
2.403166666666667E+009;1.668482571840286E-001;5.737861618399620E-002;2.622241852805018E-003;-4.140455741435289E-003;
2.403333333333334E+009;1.682342886924744E-001;5.533242225646973E-002;2.361299702897668E-003;-4.272665828466415E-003;
2.403500000000000E+009;1.703083962202072E-001;5.302035436034203E-002;2.158671384677291E-003;-4.159050527960062E-003;
2.403666666666667E+009;1.718425154685974E-001;5.129590630531311E-002;1.918337773531675E-003;-4.113856703042984E-003;
2.403833333333334E+009;1.733680814504623E-001;4.938824474811554E-002;1.816620700992644E-003;-4.309924785047770E-003;
2.404000000000000E+009;1.749292016029358E-001;4.752527922391892E-002;1.562005723826587E-003;-4.076804965734482E-003;
2.404166666666667E+009;1.766529083251953E-001;4.620961844921112E-002;1.393827842548490E-003;-4.055642522871494E-003;
2.404333333333334E+009;1.782653331756592E-001;4.470854625105858E-002;1.243540900759399E-003;-3.908500541001558E-003;
2.404500000000000E+009;1.798524111509323E-001;4.320323839783669E-002;1.131663797423244E-003;-3.909427672624588E-003;
2.404666666666667E+009;1.815751940011978E-001;4.221192002296448E-002;1.072621322236955E-003;-3.727293573319912E-003;
2.404833333333334E+009;1.831347048282623E-001;4.100801050662994E-002;1.139630912803114E-003;-3.609110601246357E-003;
2.405000000000000E+009;1.844951212406158E-001;4.036751389503479E-002;1.037353882566094E-003;-3.704397240653634E-003;
2.405166666666667E+009;1.859351843595505E-001;3.957900404930115E-002;9.069157531484962E-004;-3.638809313997626E-003;
2.405333333333334E+009;1.871468424797058E-001;3.920650109648705E-002;9.546023211441934E-004;-3.741284599527717E-003;
2.405500000000000E+009;1.887463182210922E-001;3.868840262293816E-002;7.766037015244365E-004;-3.589293221011758E-003;
2.405666666666667E+009;1.898417025804520E-001;3.833896666765213E-002;8.374500321224332E-004;-3.748691640794277E-003;
2.405833333333334E+009;1.909873187541962E-001;3.817160055041313E-002;7.199994870461524E-004;-3.772842232137919E-003;
2.406000000000000E+009;1.919310390949249E-001;3.796449303627014E-002;6.407749606296420E-004;-3.798397025093436E-003;
2.406166666666667E+009;1.930000782012940E-001;3.773124516010284E-002;7.233020151033998E-004;-3.800311358645558E-003;
2.406333333333334E+009;1.937369853258133E-001;3.774455934762955E-002;5.134287057444453E-004;-3.724823240190744E-003;
2.406500000000000E+009;1.944039016962051E-001;3.762055188417435E-002;5.262026097625494E-004;-3.883990924805403E-003;
2.406666666666667E+009;1.950941979885101E-001;3.772800788283348E-002;3.180597559548914E-004;-4.015564452856779E-003;
2.406833333333334E+009;1.955974400043488E-001;3.772182017564774E-002;2.796829503495246E-004;-4.003548994660378E-003;
2.407000000000000E+009;1.958452612161636E-001;3.789586946368218E-002;3.488760557956994E-004;-3.888154635205865E-003;
2.407166666666667E+009;1.961373686790466E-001;3.768012672662735E-002;1.619644026504830E-004;-4.062915220856667E-003;
2.407333333333334E+009;1.960554867982864E-001;3.781804069876671E-002;-5.446948489407077E-005;-4.064624197781086E-003;
2.407500000000000E+009;1.959833949804306E-001;3.791578486561775E-002;9.184732334688306E-006;-4.150919616222382E-003;
2.407666666666667E+009;1.959652900695801E-001;3.768024593591690E-002;-9.553397831041366E-005;-4.222973715513945E-003;
2.407833333333334E+009;1.955445408821106E-001;3.756612911820412E-002;-3.184447996318340E-004;-4.096019081771374E-003;
2.408000000000000E+009;1.953944861888886E-001;3.730951622128487E-002;-3.553979913704097E-004;-4.173684865236282E-003;
2.408166666666667E+009;1.948583126068115E-001;3.703170642256737E-002;-4.626965674106032E-004;-4.185905680060387E-003;
2.408333333333334E+009;1.942591369152069E-001;3.647340089082718E-002;-6.821737624704838E-004;-4.221676848828793E-003;
2.408500000000000E+009;1.936151087284088E-001;3.610526025295258E-002;-7.155690109357238E-004;-4.198714159429073E-003;
2.408666666666667E+009;1.930899322032929E-001;3.556543216109276E-002;-9.169789263978601E-004;-4.460263531655073E-003;
2.408833333333334E+009;1.922670006752014E-001;3.463432192802429E-002;-8.965171873569489E-004;-4.251940175890923E-003;
2.409000000000000E+009;1.913754492998123E-001;3.364284709095955E-002;-1.109703793190420E-003;-4.168762825429440E-003;
2.409166666666667E+009;1.903911381959915E-001;3.261420875787735E-002;-1.226700260303915E-003;-4.218662157654762E-003;
2.409333333333334E+009;1.894039064645767E-001;3.177129849791527E-002;-1.469732262194157E-003;-4.171963781118393E-003;
2.409500000000000E+009;1.883113533258438E-001;3.036625310778618E-002;-1.646694494411349E-003;-4.146369639784098E-003;
2.409666666666667E+009;1.872526109218597E-001;2.898870408535004E-002;-1.938883797265589E-003;-4.132744390517473E-003;
2.409833333333334E+009;1.863284409046173E-001;2.741870842874050E-002;-1.894525950774550E-003;-3.902738913893700E-003;
2.410000000000000E+009;1.852971464395523E-001;2.576267533004284E-002;-2.069534035399556E-003;-3.792905248701572E-003;
2.410166666666667E+009;1.842158138751984E-001;2.394801191985607E-002;-2.048690803349018E-003;-3.727434901520610E-003;
2.410333333333334E+009;1.834488958120346E-001;2.232154645025730E-002;-2.265084534883499E-003;-3.678836394101381E-003;
2.410500000000000E+009;1.824346035718918E-001;2.029845304787159E-002;-2.277979161590338E-003;-3.558471100404859E-003;
2.410666666666667E+009;1.815410554409027E-001;1.802253164350987E-002;-2.180034294724464E-003;-3.492063609883189E-003;
2.410833333333334E+009;1.808852553367615E-001;1.598055660724640E-002;-2.416653558611870E-003;-3.470591502264142E-003;
2.411000000000000E+009;1.803061962127686E-001;1.375537086278200E-002;-2.377591328695417E-003;-3.434149315580726E-003;
2.411166666666667E+009;1.795069724321365E-001;1.143572200089693E-002;-2.298789797350764E-003;-3.392182290554047E-003;
2.411333333333334E+009;1.790889054536820E-001;9.165761992335320E-003;-2.534112194553018E-003;-3.419506130740047E-003;
2.411500000000000E+009;1.785149276256561E-001;6.482560187578201E-003;-2.549207536503673E-003;-3.559258067980409E-003;
2.411666666666667E+009;1.785881519317627E-001;4.246071912348270E-003;-2.740144496783614E-003;-3.309799125418067E-003;
2.411833333333334E+009;1.781443953514099E-001;1.909822924062610E-003;-2.711781300604343E-003;-3.364291740581393E-003;
2.412000000000000E+009;1.783432662487030E-001;-7.351042004302144E-004;-2.877055201679468E-003;-3.340958384796977E-003;
2.412166666666667E+009;1.783611029386520E-001;-2.916182391345501E-003;-3.079106099903584E-003;-3.239290090277791E-003;
2.412333333333334E+009;1.784771084785461E-001;-5.324747879058123E-003;-3.160417079925537E-003;-3.333509201183915E-003;
2.412500000000000E+009;1.790152788162231E-001;-7.823266088962555E-003;-3.389052115380764E-003;-3.336185356602073E-003;
2.412666666666667E+009;1.795595586299896E-001;-1.024984568357468E-002;-3.327273763716221E-003;-3.374913940206170E-003;
2.412833333333334E+009;1.802504211664200E-001;-1.262773666530848E-002;-3.488267771899700E-003;-3.069610102102161E-003;
2.413000000000000E+009;1.808518469333649E-001;-1.473151147365570E-002;-3.839663462713361E-003;-3.112744307145476E-003;
2.413166666666667E+009;1.817730963230133E-001;-1.706063374876976E-002;-3.946081269532442E-003;-2.931182272732258E-003;
2.413333333333334E+009;1.827213019132614E-001;-1.928659342229366E-002;-4.139418248087168E-003;-2.822771668434143E-003;
2.413500000000000E+009;1.835133433341980E-001;-2.163409255445004E-002;-4.336058162152767E-003;-2.689100103452802E-003;
2.413666666666667E+009;1.846021115779877E-001;-2.368601411581039E-002;-4.519462119787931E-003;-2.508293138816953E-003;
2.413833333333334E+009;1.858481764793396E-001;-2.560378611087799E-002;-4.697310738265514E-003;-2.230894519016147E-003;
2.414000000000000E+009;1.868669688701630E-001;-2.757946029305458E-002;-5.016906652599573E-003;-2.117046387866139E-003;
2.414166666666667E+009;1.881905794143677E-001;-2.931227721273899E-002;-4.901651293039322E-003;-1.860606018453836E-003;
2.414333333333334E+009;1.892617940902710E-001;-3.114340081810951E-002;-5.132676102221012E-003;-1.558723859488964E-003;
2.414500000000000E+009;1.904682815074921E-001;-3.253291919827461E-002;-5.099046975374222E-003;-1.321907271631062E-003;
2.414666666666667E+009;1.915129125118256E-001;-3.402148187160492E-002;-5.259975325316191E-003;-1.085174153558910E-003;
2.414833333333334E+009;1.925377547740936E-001;-3.537309169769287E-002;-5.172875244170427E-003;-8.674549753777683E-004;
2.415000000000000E+009;1.937395781278610E-001;-3.665190190076828E-002;-5.229149479418993E-003;-5.851236055605114E-004;
2.415166666666667E+009;1.949172466993332E-001;-3.764621913433075E-002;-5.130039993673563E-003;-4.240893176756799E-004;
2.415333333333334E+009;1.961303204298019E-001;-3.845979273319244E-002;-5.162325687706471E-003;-1.462484360672534E-004;
2.415500000000000E+009;1.971332430839539E-001;-3.929978236556053E-002;-5.132298916578293E-003;9.809379116632044E-005;
2.415666666666667E+009;1.981785744428635E-001;-4.009778052568436E-002;-5.099023226648569E-003;2.402771788183600E-004;
2.415833333333334E+009;1.989036947488785E-001;-4.062825813889504E-002;-4.949883557856083E-003;4.979009390808642E-004;
2.416000000000000E+009;1.997105479240418E-001;-4.113422334194183E-002;-4.962637089192867E-003;6.906507769599557E-004;
2.416166666666667E+009;2.003955990076065E-001;-4.164816066622734E-002;-4.911026451736689E-003;8.344256202690303E-004;
2.416333333333334E+009;2.009527683258057E-001;-4.189741238951683E-002;-4.643397405743599E-003;1.183579326607287E-003;
2.416500000000000E+009;2.015772908926010E-001;-4.209224879741669E-002;-4.742528311908245E-003;1.290153479203582E-003;
2.416666666666667E+009;2.018197327852249E-001;-4.258368536829948E-002;-4.549142438918352E-003;1.596157788299024E-003;
2.416833333333334E+009;2.017816007137299E-001;-4.244927689433098E-002;-4.443250130861998E-003;1.832295791245997E-003;
2.417000000000000E+009;2.019759416580200E-001;-4.258427396416664E-002;-4.229157697409391E-003;1.955689629539847E-003;
2.417166666666667E+009;2.017903923988342E-001;-4.256382212042809E-002;-4.249846562743187E-003;1.923791132867336E-003;
2.417333333333334E+009;2.015063017606735E-001;-4.231964051723480E-002;-4.142575431615114E-003;2.168862381950021E-003;
2.417500000000000E+009;2.012651264667511E-001;-4.231731221079826E-002;-3.976497799158096E-003;2.239643363282085E-003;
2.417666666666667E+009;2.006473988294601E-001;-4.207043349742889E-002;-3.770846175029874E-003;2.195639535784721E-003;
2.417833333333334E+009;2.002332210540772E-001;-4.197220504283905E-002;-3.587588667869568E-003;2.327416557818651E-003;
2.418000000000000E+009;1.996060758829117E-001;-4.174643382430077E-002;-3.411919111385942E-003;2.357816090807319E-003;
2.418166666666667E+009;1.988003849983215E-001;-4.164089635014534E-002;-3.222104627639055E-003;2.524396637454629E-003;
2.418333333333334E+009;1.978227347135544E-001;-4.157705605030060E-002;-3.097919514402747E-003;2.511922968551517E-003;
2.418500000000000E+009;1.968858838081360E-001;-4.159014299511910E-002;-3.157679922878742E-003;2.516098087653518E-003;
2.418666666666667E+009;1.959210634231567E-001;-4.154144972562790E-002;-2.887762850150466E-003;2.462730044499040E-003;
2.418833333333334E+009;1.946256160736084E-001;-4.168277233839035E-002;-2.778247231617570E-003;2.526554977521300E-003;
2.419000000000000E+009;1.934559643268585E-001;-4.186162725090981E-002;-2.693193033337593E-003;2.584574278444052E-003;
2.419166666666667E+009;1.921811103820801E-001;-4.226896911859512E-002;-2.549653407186270E-003;2.367903478443623E-003;
2.419333333333334E+009;1.908080428838730E-001;-4.270514473319054E-002;-2.542310627177358E-003;2.570171141996980E-003;
2.419500000000000E+009;1.893840283155441E-001;-4.305763915181160E-002;-2.382712438702583E-003;2.675083698704839E-003;
2.419666666666667E+009;1.877786070108414E-001;-4.399043321609497E-002;-2.331615425646305E-003;2.477675443515182E-003;
2.419833333333334E+009;1.862445026636124E-001;-4.469526931643486E-002;-2.412453293800354E-003;2.421984681859613E-003;
2.420000000000000E+009;1.847984343767166E-001;-4.569335281848908E-002;-2.255782019346952E-003;2.512605860829353E-003;
2.420166666666667E+009;1.831383854150772E-001;-4.652868211269379E-002;-2.290971344336867E-003;2.673642011359334E-003;
2.420333333333334E+009;1.816515177488327E-001;-4.775792732834816E-002;-2.128307707607746E-003;2.483383286744356E-003;
2.420500000000000E+009;1.799291670322418E-001;-4.906318336725235E-002;-2.174241002649069E-003;2.589963376522064E-003;
2.420666666666667E+009;1.785421818494797E-001;-5.023952946066856E-002;-2.123469486832619E-003;2.533216262236238E-003;
2.420833333333334E+009;1.767370104789734E-001;-5.179740488529205E-002;-2.094935858622193E-003;2.633382333442569E-003;
2.421000000000000E+009;1.752926409244537E-001;-5.334050953388214E-002;-2.006044844165444E-003;2.611172385513783E-003;
2.421166666666667E+009;1.740593016147614E-001;-5.500835552811623E-002;-1.876078196801245E-003;2.552270656451583E-003;
2.421333333333334E+009;1.724307090044022E-001;-5.660906061530113E-002;-1.742927241139114E-003;2.640908583998680E-003;
2.421500000000000E+009;1.711756139993668E-001;-5.843456834554672E-002;-1.801286474801600E-003;2.502306597307324E-003;
2.421666666666667E+009;1.700207144021988E-001;-6.023749336600304E-002;-1.743951346725225E-003;2.567527815699577E-003;
2.421833333333334E+009;1.687509119510651E-001;-6.217363476753235E-002;-1.594477216713131E-003;2.535118022933602E-003;
2.422000000000000E+009;1.677493304014206E-001;-6.395132839679718E-002;-1.555523718707264E-003;2.750521060079336E-003;
2.422166666666667E+009;1.670176684856415E-001;-6.623359024524689E-002;-1.489387708716095E-003;2.686470281332731E-003;
2.422333333333334E+009;1.661090403795242E-001;-6.807565689086914E-002;-1.538796932436526E-003;2.632431918755174E-003;
2.422500000000000E+009;1.652341932058334E-001;-7.003486156463623E-002;-1.633725711144507E-003;2.718352479860187E-003;
2.422666666666667E+009;1.645943522453308E-001;-7.208846509456635E-002;-1.580059295520186E-003;2.671774476766586E-003;
2.422833333333334E+009;1.643200814723969E-001;-7.393999397754669E-002;-1.379146939143539E-003;2.735429210588336E-003;
2.423000000000000E+009;1.636726856231690E-001;-7.619726657867432E-002;-1.584870158694685E-003;2.790807513520122E-003;
2.423166666666667E+009;1.632836610078812E-001;-7.787268608808518E-002;-1.419760170392692E-003;2.869976684451103E-003;
2.423333333333334E+009;1.631834506988525E-001;-7.990626990795136E-002;-1.317408285103738E-003;2.930624876171351E-003;
2.423500000000000E+009;1.629669964313507E-001;-8.168486505746841E-002;-1.355729531496763E-003;2.924091182649136E-003;
2.423666666666667E+009;1.629749983549118E-001;-8.356394618749619E-002;-1.392549485899508E-003;2.739452058449388E-003;
2.423833333333334E+009;1.628880500793457E-001;-8.526045083999634E-002;-1.323315664194524E-003;2.809775993227959E-003;
2.424000000000000E+009;1.631784439086914E-001;-8.711720257997513E-002;-1.280328258872032E-003;2.818026812747121E-003;
2.424166666666667E+009;1.632860451936722E-001;-8.860181272029877E-002;-1.214605988934636E-003;2.942785387858748E-003;
2.424333333333334E+009;1.635106056928635E-001;-9.010643512010574E-002;-1.350284321233630E-003;2.942056860774756E-003;
2.424500000000000E+009;1.637303531169891E-001;-9.182298183441162E-002;-1.332823769189417E-003;3.203950356692076E-003;
2.424666666666667E+009;1.641006767749786E-001;-9.306250512599945E-002;-1.107915071770549E-003;3.138625528663397E-003;
2.424833333333334E+009;1.647200286388397E-001;-9.437628090381622E-002;-1.219578203745186E-003;3.089009784162045E-003;
2.425000000000000E+009;1.648624986410141E-001;-9.560318291187286E-002;-1.140818581916392E-003;3.328271908685565E-003;
2.425166666666667E+009;1.653765588998795E-001;-9.654651582241058E-002;-9.942145552486181E-004;3.438278334215283E-003;
2.425333333333334E+009;1.655488014221191E-001;-9.754553437232971E-002;-9.230610448867083E-004;3.573722438886762E-003;
2.425500000000000E+009;1.661583036184311E-001;-9.851346909999847E-002;-9.540871251374483E-004;3.605929668992758E-003;
2.425666666666667E+009;1.665883213281632E-001;-9.911994636058807E-002;-8.137921686284244E-004;3.782990388572216E-003;
2.425833333333334E+009;1.667641699314117E-001;-9.993731230497360E-002;-6.231025326997042E-004;3.934061620384455E-003;
2.426000000000000E+009;1.671906411647797E-001;-1.004462763667107E-001;-5.131292273290455E-004;3.783797845244408E-003;
2.426166666666667E+009;1.674795001745224E-001;-1.008924618363380E-001;-4.118741489946842E-004;3.870295593515039E-003;
2.426333333333334E+009;1.677137464284897E-001;-1.014109626412392E-001;-2.407048887107521E-004;3.907429054379463E-003;
2.426500000000000E+009;1.679931879043579E-001;-1.016488075256348E-001;-3.769980321521871E-005;4.156317561864853E-003;
2.426666666666667E+009;1.682863235473633E-001;-1.020293533802033E-001;2.342756715734140E-006;4.076229408383369E-003;
2.426833333333334E+009;1.684005260467529E-001;-1.023428514599800E-001;7.688325422350317E-005;4.170391708612442E-003;
2.427000000000000E+009;1.684697270393372E-001;-1.026825457811356E-001;4.255500098224729E-004;4.042213317006826E-003;
2.427166666666667E+009;1.684445738792419E-001;-1.027339994907379E-001;4.945914261043072E-004;4.216650966554880E-003;
2.427333333333334E+009;1.682646572589874E-001;-1.028252616524696E-001;6.537085864692926E-004;4.013670142740011E-003;
2.427500000000000E+009;1.679144650697708E-001;-1.032169163227081E-001;8.708075038157404E-004;4.136759322136641E-003;
2.427666666666667E+009;1.677541434764862E-001;-1.031870394945145E-001;8.892524056136608E-004;4.150444641709328E-003;
