# Version 1.00
#
freq[Hz];re:Trc1_S11;im:Trc1_S11;re:Trc2_S21;im:Trc2_S21;
2.400000000000000E+009;1.562104225158691E-001;5.998954549431801E-002;4.163839330431074E-004;1.843281206674874E-003;
2.400166666666667E+009;1.562437117099762E-001;5.812158808112145E-002;5.992780206725001E-004;1.806917716749013E-003;
2.400333333333334E+009;1.564479023218155E-001;5.606374144554138E-002;5.764378583990037E-004;1.599083305336535E-003;
2.400500000000000E+009;1.564921587705612E-001;5.414651706814766E-002;5.926535231992602E-004;1.579316449351609E-003;
2.400666666666667E+009;1.567723900079727E-001;5.190719291567802E-002;6.367710884660482E-004;1.625673263333738E-003;
2.400833333333334E+009;1.572739630937576E-001;4.997643455862999E-002;6.534030544571579E-004;1.403289032168686E-003;
2.401000000000000E+009;1.575227528810501E-001;4.782146215438843E-002;8.410822483710945E-004;1.340238726697862E-003;
2.401166666666667E+009;1.579957157373428E-001;4.572325944900513E-002;8.544304291717708E-004;1.263717771507800E-003;
2.401333333333334E+009;1.584909558296204E-001;4.356666281819344E-002;8.632412063889206E-004;1.312489272095263E-003;
2.401500000000000E+009;1.590228229761124E-001;4.139729961752892E-002;7.778469589538872E-004;1.100112451240420E-003;
2.401666666666667E+009;1.595088988542557E-001;3.966180980205536E-002;9.471330558881164E-004;9.998119203373790E-004;
2.401833333333334E+009;1.601677536964417E-001;3.768691420555115E-002;8.004233241081238E-004;1.072613871656358E-003;
2.402000000000000E+009;1.608240604400635E-001;3.572466224431992E-002;7.502129301428795E-004;9.288383298553526E-004;
2.402166666666667E+009;1.616268306970596E-001;3.377785533666611E-002;8.939232793636620E-004;9.369500912725925E-004;
2.402333333333334E+009;1.621462255716324E-001;3.233037516474724E-002;9.699658839963377E-004;8.521078852936626E-004;
2.402500000000000E+009;1.633628159761429E-001;3.061183542013168E-002;7.112835301086307E-004;8.129512425512075E-004;
2.402666666666667E+009;1.640518754720688E-001;2.894281037151814E-002;6.685915868729353E-004;8.226979407481849E-004;
2.402833333333334E+009;1.649488955736160E-001;2.744774892926216E-002;8.399406215175986E-004;7.200816180557013E-004;
2.403000000000000E+009;1.659025400876999E-001;2.602682262659073E-002;6.595866288989782E-004;8.545228629373014E-004;
2.403166666666667E+009;1.668788194656372E-001;2.481161989271641E-002;7.687725010327995E-004;1.001486089080572E-003;
2.403333333333334E+009;1.678903549909592E-001;2.364169247448444E-002;7.045431993901730E-004;7.503326050937176E-004;
2.403500000000000E+009;1.687843650579453E-001;2.250601723790169E-002;8.020779932849109E-004;9.316104114986956E-004;
2.403666666666667E+009;1.697088479995728E-001;2.125263214111328E-002;7.937835180200636E-004;7.596313371323049E-004;
2.403833333333334E+009;1.707324683666229E-001;2.015617489814758E-002;9.099869057536125E-004;8.247406221926212E-004;
2.404000000000000E+009;1.716741919517517E-001;1.947404816746712E-002;7.447754614986479E-004;6.686653359793127E-004;
2.404166666666667E+009;1.725803762674332E-001;1.861638389527798E-002;9.517844882793725E-004;7.752641686238349E-004;
2.404333333333334E+009;1.734402477741242E-001;1.770107075572014E-002;8.062692941166461E-004;7.395554566755891E-004;
2.404500000000000E+009;1.741726547479630E-001;1.699914783239365E-002;8.587939664721489E-004;8.185924962162972E-004;
2.404666666666667E+009;1.750981211662293E-001;1.651471853256226E-002;9.852371877059341E-004;6.425232859328389E-004;
2.404833333333334E+009;1.757407933473587E-001;1.587880402803421E-002;8.800698560662568E-004;5.774790188297629E-004;
2.405000000000000E+009;1.766312867403030E-001;1.543191075325012E-002;8.434997289441526E-004;8.273299899883568E-004;
2.405166666666667E+009;1.773192882537842E-001;1.501091569662094E-002;7.639746181666851E-004;6.850307690910995E-004;
2.405333333333334E+009;1.779340505599976E-001;1.458055432885885E-002;8.287114324048162E-004;6.550995167344809E-004;
2.405500000000000E+009;1.783611327409744E-001;1.431534904986620E-002;8.204015903174877E-004;7.197986124083400E-004;
2.405666666666667E+009;1.787393987178803E-001;1.402221340686083E-002;9.056116105057299E-004;6.424342282116413E-004;
2.405833333333334E+009;1.788919568061829E-001;1.393492985516787E-002;9.698215289972723E-004;4.707941261585802E-004;
2.406000000000000E+009;1.793480664491653E-001;1.347536593675613E-002;9.324729908257723E-004;5.428780568763614E-004;
2.406166666666667E+009;1.794374883174896E-001;1.342927664518356E-002;1.061302027665079E-003;4.525363910943270E-004;
2.406333333333334E+009;1.797887682914734E-001;1.306599751114845E-002;1.037034206092358E-003;3.061642055399716E-004;
2.406500000000000E+009;1.796570718288422E-001;1.280701719224453E-002;1.268416293896735E-003;5.693897837772965E-004;
2.406666666666667E+009;1.795572787523270E-001;1.262648031115532E-002;9.812600910663605E-004;3.114479768555611E-004;
2.406833333333334E+009;1.795050501823425E-001;1.217798888683319E-002;1.268894411623478E-003;2.646988141350448E-004;
2.407000000000000E+009;1.792760640382767E-001;1.172775216400623E-002;1.273858477361500E-003;3.043524920940399E-004;
2.407166666666667E+009;1.792148947715759E-001;1.143509522080421E-002;1.044276286847889E-003;2.320044441148639E-004;
2.407333333333334E+009;1.788036227226257E-001;1.096529513597488E-002;1.130311051383615E-003;1.952737366082147E-004;
2.407500000000000E+009;1.783577501773834E-001;1.049665454775095E-002;1.376418280415237E-003;2.108700136886910E-004;
2.407666666666667E+009;1.779389977455139E-001;9.757225401699543E-003;1.182136475108564E-003;1.927139965118840E-004;
2.407833333333334E+009;1.772626340389252E-001;9.127528406679630E-003;1.271212124265730E-003;1.162214466603473E-004;
2.408000000000000E+009;1.768195629119873E-001;8.214592933654785E-003;1.157395425252616E-003;-6.026266783010215E-005;
2.408166666666667E+009;1.762660592794418E-001;7.578095421195030E-003;1.232113572768867E-003;-3.449311188887805E-004;
2.408333333333334E+009;1.757638156414032E-001;6.517293862998486E-003;1.155948033556342E-003;-2.181747840950266E-004;
2.408500000000000E+009;1.750295013189316E-001;5.539644975215197E-003;1.135473954491317E-003;-1.366472424706444E-004;
2.408666666666667E+009;1.744363307952881E-001;4.357772879302502E-003;1.094933017157018E-003;-3.092663828283548E-004;
2.408833333333334E+009;1.735548079013825E-001;3.122285474091768E-003;1.033453037962318E-003;-2.950115012936294E-004;
2.409000000000000E+009;1.728381961584091E-001;1.720563275739551E-003;1.101086847484112E-003;-2.842253306880593E-004;
2.409166666666667E+009;1.721720844507217E-001;4.428151587489992E-004;9.728044387884438E-004;-4.765336343552917E-004;
2.409333333333334E+009;1.715737581253052E-001;-1.006309292279184E-003;9.500415180809796E-004;-5.519910482689738E-004;
2.409500000000000E+009;1.710155308246613E-001;-2.742414595559239E-003;9.912131354212761E-004;-3.868904896080494E-004;
2.409666666666667E+009;1.701970547437668E-001;-4.182226490229368E-003;9.333902853541076E-004;-4.932616138830781E-004;
2.409833333333334E+009;1.697131842374802E-001;-5.740584805607796E-003;8.482063421979547E-004;-5.173662793822587E-004;
2.410000000000000E+009;1.691434234380722E-001;-7.495985366404057E-003;7.654901710338891E-004;-8.397055789828301E-004;
2.410166666666667E+009;1.687908917665482E-001;-9.405598044395447E-003;6.301907706074417E-004;-7.298536365851760E-004;
2.410333333333334E+009;1.684751063585281E-001;-1.125796977430582E-002;6.999004399403930E-004;-8.248522062785924E-004;
2.410500000000000E+009;1.679421365261078E-001;-1.307948771864176E-002;6.037119310349226E-004;-7.512378506362438E-004;
2.410666666666667E+009;1.677073836326599E-001;-1.516241021454334E-002;5.038210656493902E-004;-6.583774229511619E-004;
2.410833333333334E+009;1.674240976572037E-001;-1.697910204529762E-002;4.567168070934713E-004;-7.780498126521707E-004;
2.411000000000000E+009;1.672934740781784E-001;-1.890610903501511E-002;4.328936338424683E-004;-6.766636506654322E-004;
2.411166666666667E+009;1.672268956899643E-001;-2.105752751231194E-002;2.545929164625704E-004;-6.619373452849686E-004;
2.411333333333334E+009;1.671866029500961E-001;-2.293891459703445E-002;2.626624191179872E-004;-6.831537466496229E-004;
2.411500000000000E+009;1.671052575111389E-001;-2.503188885748386E-002;1.976239727810025E-004;-6.518033915199339E-004;
2.411666666666667E+009;1.674287021160126E-001;-2.685928903520107E-002;-5.845885607413948E-005;-5.806976114399731E-004;
2.411833333333334E+009;1.675588637590408E-001;-2.880319580435753E-002;5.455205246107653E-005;-5.828851135447621E-004;
2.412000000000000E+009;1.679950505495071E-001;-3.077381476759911E-002;-1.469386188546196E-004;-7.139790686778724E-004;
2.412166666666667E+009;1.681638658046722E-001;-3.260148316621780E-002;-6.153390131657943E-005;-5.555267562158406E-004;
2.412333333333334E+009;1.687707155942917E-001;-3.441163524985313E-002;-9.877463890006766E-005;-5.729008698835969E-004;
2.412500000000000E+009;1.693247556686401E-001;-3.623578324913979E-002;-1.300576986977831E-004;-3.694545885082334E-004;
2.412666666666667E+009;1.696611642837524E-001;-3.801517561078072E-002;-1.177435988211073E-004;-4.363001789897680E-004;
2.412833333333334E+009;1.703191250562668E-001;-3.978129476308823E-002;-3.896167909260839E-004;-2.765610115602613E-004;
2.413000000000000E+009;1.709809899330139E-001;-4.143179580569267E-002;-2.136062830686569E-004;-4.180445102974773E-004;
2.413166666666667E+009;1.715327799320221E-001;-4.298036545515060E-002;-2.389574219705537E-004;-3.501705941744149E-004;
2.413333333333334E+009;1.720295846462250E-001;-4.420577734708786E-002;-3.686885465867817E-004;-1.767455833032727E-004;
2.413500000000000E+009;1.728261858224869E-001;-4.589585587382317E-002;-3.243356186430901E-004;-2.708281390368938E-004;
2.413666666666667E+009;1.733778417110443E-001;-4.716529697179794E-002;-3.502437029965222E-004;-1.460632047383115E-004;
2.413833333333334E+009;1.740390509366989E-001;-4.839037358760834E-002;-1.387119409628213E-004;-8.834591426420957E-005;
2.414000000000000E+009;1.745097041130066E-001;-4.950147867202759E-002;-1.901787327369675E-004;-1.513949155196315E-005;
2.414166666666667E+009;1.753585487604141E-001;-5.052370205521584E-002;-4.602404369506985E-004;4.719238131656312E-005;
2.414333333333334E+009;1.758353561162949E-001;-5.154190957546234E-002;-4.036050813738257E-004;1.769927621353418E-004;
2.414500000000000E+009;1.766693443059921E-001;-5.244662985205650E-002;-1.861534983618185E-004;6.937360012670979E-005;
2.414666666666667E+009;1.769709736108780E-001;-5.328209698200226E-002;-2.531113568693399E-004;1.965991978067905E-004;
2.414833333333334E+009;1.775647401809692E-001;-5.414428934454918E-002;-2.746739191934466E-004;9.946443606168032E-005;
2.415000000000000E+009;1.779008060693741E-001;-5.475032329559326E-002;-3.171173157170415E-004;1.715167745715007E-004;
2.415166666666667E+009;1.783564835786820E-001;-5.536884069442749E-002;-2.392609021626413E-004;6.824928277637810E-005;
2.415333333333334E+009;1.785651147365570E-001;-5.593837052583695E-002;-1.206951637868770E-004;3.538247547112405E-004;
2.415500000000000E+009;1.788867115974426E-001;-5.626122653484345E-002;-3.401026187930256E-004;2.585037436801940E-004;
2.415666666666667E+009;1.788894385099411E-001;-5.651460960507393E-002;-3.053485997952521E-004;3.551571571733803E-004;
2.415833333333334E+009;1.790786236524582E-001;-5.699995160102844E-002;-2.014951460296288E-004;2.928673930000514E-004;
2.416000000000000E+009;1.788534075021744E-001;-5.720709264278412E-002;-2.102533326251432E-004;1.593848865013570E-004;
2.416166666666667E+009;1.789473295211792E-001;-5.753332376480103E-002;-2.020466781686992E-004;5.326927057467401E-004;
2.416333333333334E+009;1.785315871238709E-001;-5.760873109102249E-002;-2.984524471685290E-004;3.091671096626669E-004;
2.416500000000000E+009;1.781666874885559E-001;-5.801355466246605E-002;-1.448302500648424E-004;5.376365734264255E-004;
2.416666666666667E+009;1.777699887752533E-001;-5.809928104281426E-002;-2.189853257732466E-004;4.126391722820699E-004;
2.416833333333334E+009;1.773773133754730E-001;-5.847236886620522E-002;-6.148497777758166E-005;5.674614803865552E-004;
2.417000000000000E+009;1.766168177127838E-001;-5.865549296140671E-002;-2.961159043479711E-004;6.972137489356101E-004;
2.417166666666667E+009;1.759530007839203E-001;-5.873901024460793E-002;-2.465262659825385E-004;5.368372658267617E-004;
2.417333333333334E+009;1.752033680677414E-001;-5.895088985562325E-002;3.980538622272434E-006;5.538695841096342E-004;
2.417500000000000E+009;1.742909699678421E-001;-5.956858024001122E-002;2.560653229011223E-005;7.078398484736681E-004;
2.417666666666667E+009;1.734988838434219E-001;-5.958265811204910E-002;6.424104503821582E-005;8.020998793654144E-004;
2.417833333333334E+009;1.724485754966736E-001;-6.002262979745865E-002;-1.189869090012508E-005;8.684992208145559E-004;
2.418000000000000E+009;1.712752431631088E-001;-6.053532660007477E-002;2.428349216643255E-005;7.881087367422879E-004;
2.418166666666667E+009;1.702700555324554E-001;-6.082896143198013E-002;5.705217699869536E-005;7.130696321837604E-004;
2.418333333333334E+009;1.693062186241150E-001;-6.148405745625496E-002;1.730622025206685E-004;9.198944317176938E-004;
2.418500000000000E+009;1.679962128400803E-001;-6.197964400053024E-002;2.211545361205936E-004;8.467237348668277E-004;
2.418666666666667E+009;1.667153835296631E-001;-6.274926662445068E-002;2.790690632537007E-004;7.943757227621973E-004;
2.418833333333334E+009;1.653466969728470E-001;-6.349670141935349E-002;3.537774027790874E-004;9.183895308524370E-004;
2.419000000000000E+009;1.639936566352844E-001;-6.410230696201325E-002;3.547299129422754E-004;9.250944131053984E-004;
2.419166666666667E+009;1.628272086381912E-001;-6.519664078950882E-002;2.935672237072140E-004;9.665215620771051E-004;
2.419333333333334E+009;1.614176332950592E-001;-6.596305221319199E-002;4.391585243865848E-004;1.013702712953091E-003;
2.419500000000000E+009;1.601928919553757E-001;-6.720733642578125E-002;4.835847357753664E-004;8.725430816411972E-004;
2.419666666666667E+009;1.592348068952560E-001;-6.831426173448563E-002;3.806662280112505E-004;1.104885363020003E-003;
2.419833333333334E+009;1.577822864055634E-001;-6.940001994371414E-002;6.584020447917283E-004;9.252767777070403E-004;
2.420000000000000E+009;1.568893939256668E-001;-7.068451493978500E-002;5.286830710247159E-004;8.997009717859328E-004;
2.420166666666667E+009;1.556968539953232E-001;-7.208196818828583E-002;6.398609257303178E-004;1.092552556656301E-003;
2.420333333333334E+009;1.546537578105927E-001;-7.341053336858749E-002;7.618298404850066E-004;1.034263055771589E-003;
2.420500000000000E+009;1.537649780511856E-001;-7.468820363283157E-002;7.121515227481723E-004;9.956223657354713E-004;
2.420666666666667E+009;1.528836637735367E-001;-7.621065527200699E-002;8.251309627667069E-004;1.110339770093560E-003;
2.420833333333334E+009;1.522236019372940E-001;-7.785724103450775E-002;8.399758953601122E-004;1.204059808515012E-003;
2.421000000000000E+009;1.513972133398056E-001;-7.955614477396011E-002;8.362293592654169E-004;1.003196346573532E-003;
2.421166666666667E+009;1.509171426296234E-001;-8.108355104923248E-002;1.033625449053943E-003;1.219809870235622E-003;
2.421333333333334E+009;1.504260450601578E-001;-8.274570107460022E-002;1.067626872099936E-003;1.122831949032843E-003;
2.421500000000000E+009;1.498267948627472E-001;-8.431025594472885E-002;1.186669687740505E-003;1.126827555708587E-003;
2.421666666666667E+009;1.495274305343628E-001;-8.617075532674789E-002;1.314093591645360E-003;1.053483923897147E-003;
2.421833333333334E+009;1.494040191173554E-001;-8.785656839609146E-002;1.381855341605842E-003;1.011107233352959E-003;
2.422000000000000E+009;1.492026001214981E-001;-8.953007310628891E-002;1.463859225623310E-003;9.805461158975959E-004;
2.422166666666667E+009;1.492304950952530E-001;-9.126161783933640E-002;1.545242383144796E-003;8.762911893427372E-004;
2.422333333333334E+009;1.491283923387528E-001;-9.285324811935425E-002;1.760498154908419E-003;9.146663360297680E-004;
2.422500000000000E+009;1.492566019296646E-001;-9.449783712625504E-002;1.832716749049723E-003;9.835957316681743E-004;
2.422666666666667E+009;1.493361741304398E-001;-9.627582877874374E-002;2.029675059020519E-003;7.420428446494043E-004;
2.422833333333334E+009;1.497147381305695E-001;-9.784522652626038E-002;1.991660799831152E-003;7.389055099338293E-004;
2.423000000000000E+009;1.498691290616989E-001;-9.945920109748840E-002;2.233914798125625E-003;6.494598346762359E-004;
2.423166666666667E+009;1.503074169158936E-001;-1.010481715202332E-001;2.122036879882217E-003;6.128520471975207E-004;
2.423333333333334E+009;1.509122699499130E-001;-1.022569909691811E-001;2.173174172639847E-003;5.101355491206050E-004;
2.423500000000000E+009;1.513276845216751E-001;-1.036927476525307E-001;2.142407931387425E-003;3.866073384415358E-004;
2.423666666666667E+009;1.516465395689011E-001;-1.051672995090485E-001;2.365856664255261E-003;3.676754131447524E-004;
2.423833333333334E+009;1.523024290800095E-001;-1.064881905913353E-001;2.456718124449253E-003;1.113265316234902E-004;
2.424000000000000E+009;1.526802778244019E-001;-1.073557883501053E-001;2.491308609023690E-003;1.501140795880929E-004;
2.424166666666667E+009;1.532553881406784E-001;-1.086817681789398E-001;2.428791252896190E-003;-7.966734301589895E-006;
2.424333333333334E+009;1.538724005222321E-001;-1.096515133976936E-001;2.453911816701293E-003;-7.253809599205852E-005;
2.424500000000000E+009;1.542986184358597E-001;-1.106351986527443E-001;2.546189352869988E-003;-2.269253309350461E-004;
2.424666666666667E+009;1.549564898014069E-001;-1.113614439964294E-001;2.497001318261027E-003;-4.206655430607498E-004;
2.424833333333334E+009;1.553196161985397E-001;-1.122595816850662E-001;2.593158278614283E-003;-3.735790960490704E-004;
2.425000000000000E+009;1.559078991413117E-001;-1.130641028285027E-001;2.536601619794965E-003;-7.005456718616188E-004;
2.425166666666667E+009;1.560601890087128E-001;-1.135750189423561E-001;2.506631659343839E-003;-7.741110748611391E-004;
2.425333333333334E+009;1.564677357673645E-001;-1.141335144639015E-001;2.605931833386421E-003;-9.016388794407249E-004;
2.425500000000000E+009;1.568499058485031E-001;-1.147980764508247E-001;2.713230438530445E-003;-1.279302756302059E-003;
2.425666666666667E+009;1.568203419446945E-001;-1.151102557778359E-001;2.658853307366371E-003;-1.112666563130915E-003;
2.425833333333334E+009;1.571354120969772E-001;-1.154876798391342E-001;2.415839117020369E-003;-1.249612541869283E-003;
2.426000000000000E+009;1.571244150400162E-001;-1.158150285482407E-001;2.552914200350642E-003;-1.424854388460517E-003;
2.426166666666667E+009;1.573412269353867E-001;-1.160670816898346E-001;2.293961122632027E-003;-1.474338350817561E-003;
2.426333333333334E+009;1.570638269186020E-001;-1.162553280591965E-001;2.364482497796416E-003;-1.512861927039921E-003;
2.426500000000000E+009;1.569268256425858E-001;-1.163781657814980E-001;2.386641921475530E-003;-1.764748361892998E-003;
2.426666666666667E+009;1.567796766757965E-001;-1.165354102849960E-001;2.336970996111631E-003;-1.772884628735483E-003;
2.426833333333334E+009;1.563091278076172E-001;-1.165842115879059E-001;2.234492916613817E-003;-2.037498401477933E-003;
2.427000000000000E+009;1.557882428169251E-001;-1.168365180492401E-001;2.256780629977584E-003;-2.087231492623687E-003;
2.427166666666667E+009;1.552237272262573E-001;-1.166767105460167E-001;2.137843752279878E-003;-2.172779059037566E-003;
2.427333333333334E+009;1.545121967792511E-001;-1.168548613786697E-001;2.006125636398792E-003;-2.291093580424786E-003;
2.427500000000000E+009;1.539312750101090E-001;-1.170253902673721E-001;1.958393026143313E-003;-2.457618014886975E-003;
2.427666666666667E+009;1.530453413724899E-001;-1.172398328781128E-001;1.887734280899167E-003;-2.490702783688903E-003;
2.427833333333334E+009;1.519187986850739E-001;-1.173409149050713E-001;1.829515211284161E-003;-2.675944473594427E-003;
