# Version 1.00
#
freq[Hz];re:Trc1_S11;im:Trc1_S11;re:Trc2_S21;im:Trc2_S21;
2.400000000000000E+009;1.560829132795334E-001;5.989306792616844E-002;8.901556720957160E-004;1.428702147677541E-003;
2.400166666666667E+009;1.562068611383438E-001;5.808137357234955E-002;9.465711191296578E-004;1.423623645678163E-003;
2.400333333333334E+009;1.565143018960953E-001;5.604141950607300E-002;1.081439084373415E-003;1.462845481000841E-003;
2.400500000000000E+009;1.567562371492386E-001;5.397490411996841E-002;1.052503590472043E-003;1.234430936165154E-003;
2.400666666666667E+009;1.567725390195847E-001;5.187359452247620E-002;1.098583801649511E-003;1.137751154601574E-003;
2.400833333333334E+009;1.572757512331009E-001;5.003799498081207E-002;1.188191119581461E-003;1.036760397255421E-003;
2.401000000000000E+009;1.574521660804749E-001;4.777572676539421E-002;1.229584333486855E-003;1.051447354257107E-003;
2.401166666666667E+009;1.578931957483292E-001;4.570640996098518E-002;1.087389420717955E-003;1.046393415890634E-003;
2.401333333333334E+009;1.582892686128616E-001;4.358942806720734E-002;1.121565233916044E-003;9.803998982533813E-004;
2.401500000000000E+009;1.590844094753265E-001;4.156396910548210E-002;1.110900891944766E-003;8.713824208825827E-004;
2.401666666666667E+009;1.595744490623474E-001;3.963102400302887E-002;1.125751878134906E-003;6.343090208247304E-004;
2.401833333333334E+009;1.602510064840317E-001;3.768710047006607E-002;1.202155370265245E-003;6.218833732418716E-004;
2.402000000000000E+009;1.607878357172012E-001;3.597967699170113E-002;1.062234514392912E-003;6.305751740001142E-004;
2.402166666666667E+009;1.615790128707886E-001;3.386085480451584E-002;1.051234081387520E-003;4.497529007494450E-004;
2.402333333333334E+009;1.621773391962051E-001;3.213725611567497E-002;1.071936683729291E-003;5.353504675440490E-004;
2.402500000000000E+009;1.631777882575989E-001;3.065412491559982E-002;1.113999169319868E-003;4.092036979272962E-004;
2.402666666666667E+009;1.642852872610092E-001;2.909335680305958E-002;1.083760638721287E-003;4.006493836641312E-004;
2.402833333333334E+009;1.649087667465210E-001;2.759868279099464E-002;9.117620647884905E-004;2.132043300662190E-004;
2.403000000000000E+009;1.658853441476822E-001;2.621990814805031E-002;1.081975875422359E-003;2.025045396294445E-004;
2.403166666666667E+009;1.669599711894989E-001;2.474056370556355E-002;8.920909021981061E-004;3.465038607828319E-004;
2.403333333333334E+009;1.679927706718445E-001;2.375465445220470E-002;8.491770131513476E-004;2.022336266236380E-004;
2.403500000000000E+009;1.687688231468201E-001;2.247619815170765E-002;9.363624267280102E-004;2.306918031536043E-004;
2.403666666666667E+009;1.697675138711929E-001;2.126714214682579E-002;7.812257390469313E-004;1.264186284970492E-004;
2.403833333333334E+009;1.707704365253449E-001;2.029818668961525E-002;8.229243685491383E-004;2.676023868843913E-004;
2.404000000000000E+009;1.716929823160172E-001;1.955451630055904E-002;8.197764400392771E-004;1.066156110027805E-004;
2.404166666666667E+009;1.725009679794312E-001;1.854854822158814E-002;9.249895811080933E-004;1.666010502958670E-004;
2.404333333333334E+009;1.734311878681183E-001;1.797521859407425E-002;7.885869126766920E-004;8.252520638052374E-005;
2.404500000000000E+009;1.742116361856461E-001;1.710993982851505E-002;7.600842509418726E-004;1.480883947806433E-004;
2.404666666666667E+009;1.751220524311066E-001;1.650673523545265E-002;6.630731513723731E-004;3.012047091033310E-004;
2.404833333333334E+009;1.758249104022980E-001;1.605625636875629E-002;8.554789237678051E-004;3.533546114340425E-004;
2.405000000000000E+009;1.765683591365814E-001;1.557768881320953E-002;7.757811108604074E-004;2.031632611760870E-004;
2.405166666666667E+009;1.772104203701019E-001;1.517906971275806E-002;8.150718640536070E-004;1.283711317228153E-004;
2.405333333333334E+009;1.778421700000763E-001;1.465117651969194E-002;8.906816947273910E-004;2.754066954366863E-004;
2.405500000000000E+009;1.782481372356415E-001;1.443735975772142E-002;9.407637990079820E-004;1.666214084252715E-004;
2.405666666666667E+009;1.787574589252472E-001;1.421616226434708E-002;7.880565244704485E-004;1.786674838513136E-004;
2.405833333333334E+009;1.788995712995529E-001;1.385761983692646E-002;8.269012905657291E-004;1.698285050224513E-004;
2.406000000000000E+009;1.792771220207214E-001;1.364807877689600E-002;1.011020038276911E-003;1.060938593582250E-004;
2.406166666666667E+009;1.795448660850525E-001;1.343632675707340E-002;9.692258900031447E-004;1.295758265769109E-004;
2.406333333333334E+009;1.797553896903992E-001;1.315307337790728E-002;9.624868398532271E-004;-8.489673200529069E-005;
2.406500000000000E+009;1.797073036432266E-001;1.285069622099400E-002;1.025927602313459E-003;9.938321454683319E-005;
2.406666666666667E+009;1.794800758361816E-001;1.273478195071220E-002;1.058025518432260E-003;1.164769346360117E-004;
2.406833333333334E+009;1.794007718563080E-001;1.216159574687481E-002;9.685771074146032E-004;1.380232279188931E-004;
2.407000000000000E+009;1.793250739574432E-001;1.176649797707796E-002;9.085431811399758E-004;-2.040101935563143E-005;
2.407166666666667E+009;1.790937036275864E-001;1.149361394345760E-002;1.002154196612537E-003;-2.436702379782219E-005;
2.407333333333334E+009;1.788255423307419E-001;1.102446205914021E-002;9.646277758292854E-004;-1.009137195069343E-004;
2.407500000000000E+009;1.783505380153656E-001;1.041587721556425E-002;9.086455102078617E-004;-1.546869461890310E-004;
2.407666666666667E+009;1.779582649469376E-001;9.896413423120976E-003;9.238635539077222E-004;-1.916274632094428E-004;
2.407833333333334E+009;1.773331165313721E-001;9.086534380912781E-003;9.881918085739017E-004;-3.269236913183704E-005;
2.408000000000000E+009;1.767543405294418E-001;8.221761323511601E-003;9.337007650174201E-004;-2.895313664339483E-004;
2.408166666666667E+009;1.762321293354034E-001;7.588682696223259E-003;9.830805938690901E-004;-3.912931715603918E-004;
2.408333333333334E+009;1.757054775953293E-001;6.589955184608698E-003;9.151607519015670E-004;-2.998789132107049E-004;
2.408500000000000E+009;1.750257611274719E-001;5.499173421412706E-003;1.040790462866426E-003;-4.335027479100972E-004;
2.408666666666667E+009;1.743259578943253E-001;4.388324916362763E-003;9.661657968536019E-004;-5.164773901924491E-004;
2.408833333333334E+009;1.736083477735519E-001;3.155049402266741E-003;7.653785869479179E-004;-3.737209481187165E-004;
2.409000000000000E+009;1.728233098983765E-001;1.889583305455744E-003;8.465031278319657E-004;-4.608539165928960E-004;
2.409166666666667E+009;1.722842156887054E-001;4.448795807547867E-004;8.876578649505973E-004;-5.617901333607733E-004;
2.409333333333334E+009;1.717576533555985E-001;-1.232307055033743E-003;7.259578560478985E-004;-5.481526022776961E-004;
2.409500000000000E+009;1.710052937269211E-001;-2.715532202273607E-003;7.029521511867642E-004;-6.193924928084016E-004;
2.409666666666667E+009;1.703956723213196E-001;-4.253284540027380E-003;5.635535344481468E-004;-5.970927304588258E-004;
2.409833333333334E+009;1.697325557470322E-001;-5.908160470426083E-003;4.467519465833902E-004;-7.538635982200503E-004;
2.410000000000000E+009;1.691537350416184E-001;-7.572623435407877E-003;6.582745118066669E-004;-6.346739246509969E-004;
2.410166666666667E+009;1.688519269227982E-001;-9.251565672457218E-003;4.530752194114029E-004;-7.834025309421122E-004;
2.410333333333334E+009;1.683154106140137E-001;-1.129187829792500E-002;3.864893515128642E-004;-8.084244327619672E-004;
2.410500000000000E+009;1.679550409317017E-001;-1.311746891587973E-002;2.846550487447530E-004;-7.562891114503145E-004;
2.410666666666667E+009;1.675771772861481E-001;-1.519640069454908E-002;3.891788655892015E-004;-7.149713928811252E-004;
2.410833333333334E+009;1.673735678195953E-001;-1.702897809445858E-002;3.752390912268311E-004;-7.545824046246707E-004;
2.411000000000000E+009;1.673045605421066E-001;-1.893948204815388E-002;6.969505921006203E-005;-7.135264459066093E-004;
2.411166666666667E+009;1.670960932970047E-001;-2.098202519118786E-002;6.927299182279967E-006;-7.748972857370973E-004;
2.411333333333334E+009;1.670216768980026E-001;-2.291379868984222E-002;2.276893428643234E-005;-7.465077214874327E-004;
2.411500000000000E+009;1.670792847871780E-001;-2.487541735172272E-002;1.628105383133516E-005;-6.445385515689850E-004;
2.411666666666667E+009;1.676446795463562E-001;-2.684176154434681E-002;-5.008817242924124E-005;-7.554114563390613E-004;
2.411833333333334E+009;1.677295267581940E-001;-2.883147262036800E-002;-7.559653749922290E-005;-5.355612374842167E-004;
2.412000000000000E+009;1.680773049592972E-001;-3.076056391000748E-002;-1.774873671820387E-004;-5.886025028303266E-004;
2.412166666666667E+009;1.682181060314179E-001;-3.244244679808617E-002;-8.218708535423502E-005;-4.586875438690186E-004;
2.412333333333334E+009;1.689718812704086E-001;-3.422938659787178E-002;-2.254096179967746E-004;-3.842239093501121E-004;
2.412500000000000E+009;1.692255735397339E-001;-3.618096932768822E-002;-2.622723986860365E-004;-3.731258329935372E-004;
2.412666666666667E+009;1.697971224784851E-001;-3.806487098336220E-002;-3.013979294337332E-004;-3.787431633099914E-004;
2.412833333333334E+009;1.704280078411102E-001;-3.976859897375107E-002;-3.564613580238074E-004;-3.142203204333782E-004;
2.413000000000000E+009;1.709868907928467E-001;-4.129424318671227E-002;-4.555881314445287E-004;-1.581899850862101E-004;
2.413166666666667E+009;1.715708523988724E-001;-4.287932440638542E-002;-3.549917601048946E-004;-2.133305097231641E-004;
2.413333333333334E+009;1.721627861261368E-001;-4.447651654481888E-002;-3.004242898896337E-004;-1.589917519595474E-004;
2.413500000000000E+009;1.729668527841568E-001;-4.581682011485100E-002;-2.708484535105526E-004;-1.149635645560920E-004;
2.413666666666667E+009;1.736824512481690E-001;-4.725456982851028E-002;-2.398839278612286E-004;-4.859471118834335E-006;
2.413833333333334E+009;1.741643100976944E-001;-4.849658533930779E-002;-2.988411579281092E-004;4.995394920115359E-005;
2.414000000000000E+009;1.747089922428131E-001;-4.960643500089645E-002;-2.799058565869927E-004;1.547246938571334E-004;
2.414166666666667E+009;1.753446459770203E-001;-5.079435929656029E-002;-2.441985707264394E-004;5.038339804741554E-005;
2.414333333333334E+009;1.759039610624313E-001;-5.164340138435364E-002;-3.251710440963507E-004;2.602620515972376E-004;
2.414500000000000E+009;1.768383085727692E-001;-5.253144353628159E-002;-2.795579785015434E-004;3.526350337779149E-005;
2.414666666666667E+009;1.770788580179215E-001;-5.328183621168137E-002;-2.728170366026461E-004;2.062423736788333E-004;
2.414833333333334E+009;1.776047497987747E-001;-5.409310013055801E-002;-1.591302861925215E-004;2.585593028925359E-004;
2.415000000000000E+009;1.778213679790497E-001;-5.474203079938889E-002;-1.846745144575834E-004;2.406154089840129E-004;
2.415166666666667E+009;1.781994700431824E-001;-5.539924651384354E-002;-2.202719624619931E-004;4.486910765990615E-004;
2.415333333333334E+009;1.786415874958038E-001;-5.595269799232483E-002;-1.800466707209125E-004;3.142721252515912E-004;
2.415500000000000E+009;1.788368225097656E-001;-5.626783147454262E-002;-9.938604307535570E-006;2.217575529357418E-004;
2.415666666666667E+009;1.790365129709244E-001;-5.665506049990654E-002;1.276179045817116E-005;2.886911388486624E-004;
2.415833333333334E+009;1.790022104978561E-001;-5.698462203145027E-002;4.664134849008406E-006;3.180870553478599E-004;
2.416000000000000E+009;1.788378804922104E-001;-5.724927037954330E-002;-1.814377756090835E-004;2.559671993367374E-004;
2.416166666666667E+009;1.788865327835083E-001;-5.757991224527359E-002;-3.997428939328529E-005;2.634490083437413E-004;
2.416333333333334E+009;1.786299347877502E-001;-5.770133435726166E-002;2.053421121672727E-005;1.671188656473532E-004;
2.416500000000000E+009;1.782291829586029E-001;-5.799471214413643E-002;7.178208034019917E-005;3.953322884626687E-004;
2.416666666666667E+009;1.777284741401672E-001;-5.820037052035332E-002;2.724723890423775E-005;5.186073831282556E-004;
2.416833333333334E+009;1.773107051849365E-001;-5.846093222498894E-002;3.246272535761818E-005;4.783269541803747E-004;
2.417000000000000E+009;1.766180843114853E-001;-5.872175842523575E-002;1.109825316234492E-004;3.043852047994733E-004;
2.417166666666667E+009;1.759239882230759E-001;-5.885612592101097E-002;1.622803683858365E-004;3.964111092500389E-004;
2.417333333333334E+009;1.753161549568176E-001;-5.901334807276726E-002;6.059133011149243E-005;4.714736423920840E-004;
2.417500000000000E+009;1.743490546941757E-001;-5.946555361151695E-002;1.564599078847095E-004;3.770223411265761E-004;
2.417666666666667E+009;1.734012514352799E-001;-5.957712605595589E-002;2.083895815303549E-004;4.778314614668489E-004;
2.417833333333334E+009;1.724416166543961E-001;-6.001222506165505E-002;1.640501577639952E-004;6.024688482284546E-004;
2.418000000000000E+009;1.712065935134888E-001;-6.048469617962837E-002;1.429560652468354E-004;3.911798412445933E-004;
2.418166666666667E+009;1.702543050050736E-001;-6.080484017729759E-002;2.124277816619724E-004;5.332839791662991E-004;
2.418333333333334E+009;1.692471057176590E-001;-6.150002405047417E-002;2.778012712951750E-004;3.901991003658623E-004;
2.418500000000000E+009;1.679753959178925E-001;-6.199499592185020E-002;3.291381581220776E-004;3.982493071816862E-004;
2.418666666666667E+009;1.667097210884094E-001;-6.276662647724152E-002;4.297089762985706E-004;4.738493589684367E-004;
2.418833333333334E+009;1.653693765401840E-001;-6.338574737310410E-002;3.998003958258778E-004;5.144795286469162E-004;
2.419000000000000E+009;1.640795022249222E-001;-6.426437199115753E-002;4.152997862547636E-004;4.563931433949620E-004;
2.419166666666667E+009;1.629367172718048E-001;-6.517706066370010E-002;4.259413981344551E-004;4.653387877624482E-004;
2.419333333333334E+009;1.614295691251755E-001;-6.593241542577744E-002;4.416730662342161E-004;5.864880513399839E-004;
2.419500000000000E+009;1.603569835424423E-001;-6.721338629722595E-002;3.698024665936828E-004;5.668819649145007E-004;
2.419666666666667E+009;1.591773629188538E-001;-6.829798966646195E-002;4.625387082342058E-004;5.551413632929325E-004;
2.419833333333334E+009;1.578803956508637E-001;-6.937780231237412E-002;3.951855469495058E-004;6.538981688208878E-004;
2.420000000000000E+009;1.570008397102356E-001;-7.059012353420258E-002;5.092584760859609E-004;5.871669854968786E-004;
2.420166666666667E+009;1.557837128639221E-001;-7.194161415100098E-002;4.441228229552507E-004;6.118315504863858E-004;
2.420333333333334E+009;1.549117416143417E-001;-7.343512773513794E-002;6.726800347678363E-004;6.925822235643864E-004;
2.420500000000000E+009;1.539593040943146E-001;-7.466684281826019E-002;6.370664341375232E-004;8.003630791790783E-004;
2.420666666666667E+009;1.530528813600540E-001;-7.615961879491806E-002;7.171310135163367E-004;6.640619249083102E-004;
2.420833333333334E+009;1.521094590425491E-001;-7.780393958091736E-002;5.848505534231663E-004;7.486104150302708E-004;
2.421000000000000E+009;1.515488177537918E-001;-7.953221350908279E-002;8.645499474368990E-004;6.912022363394499E-004;
2.421166666666667E+009;1.508940160274506E-001;-8.105313032865524E-002;7.519150385633111E-004;6.854359526187182E-004;
2.421333333333334E+009;1.502756625413895E-001;-8.270026743412018E-002;8.623350877314806E-004;8.594854734838009E-004;
2.421500000000000E+009;1.500587761402130E-001;-8.445139974355698E-002;1.093883649446070E-003;6.776387454010546E-004;
2.421666666666667E+009;1.498156934976578E-001;-8.605295419692993E-002;1.033853390254080E-003;7.004177896305919E-004;
2.421833333333334E+009;1.494521349668503E-001;-8.776076883077622E-002;1.204584375955164E-003;7.063184748403728E-004;
2.422000000000000E+009;1.491722762584686E-001;-8.954875171184540E-002;1.325480290688574E-003;6.418381235562265E-004;
2.422166666666667E+009;1.491913944482803E-001;-9.129612147808075E-002;1.169273629784584E-003;7.548451540060341E-004;
2.422333333333334E+009;1.492334753274918E-001;-9.303300082683563E-002;1.498322351835668E-003;7.182419649325311E-004;
2.422500000000000E+009;1.493616104125977E-001;-9.447614103555679E-002;1.524237566627562E-003;5.908429739065468E-004;
2.422666666666667E+009;1.492962390184403E-001;-9.617850184440613E-002;1.473292591981590E-003;5.084971198812127E-004;
2.422833333333334E+009;1.496741771697998E-001;-9.787140041589737E-002;1.685155904851854E-003;4.768191138282418E-004;
2.423000000000000E+009;1.499510109424591E-001;-9.930275380611420E-002;1.632644911296666E-003;5.409066798165441E-004;
2.423166666666667E+009;1.504214853048325E-001;-1.008736193180084E-001;1.786208362318575E-003;4.647321475204080E-004;
2.423333333333334E+009;1.508309841156006E-001;-1.021664813160896E-001;1.792287337593734E-003;2.105061576003209E-004;
2.423500000000000E+009;1.512725353240967E-001;-1.037542298436165E-001;1.827610540203750E-003;1.866211969172582E-004;
2.423666666666667E+009;1.515717357397080E-001;-1.051274389028549E-001;1.872473862022162E-003;1.435245358152315E-004;
2.423833333333334E+009;1.523809283971787E-001;-1.063159108161926E-001;1.942172995768488E-003;6.311149627435952E-005;
2.424000000000000E+009;1.525088846683502E-001;-1.074229329824448E-001;1.949600176885724E-003;-5.928936661803164E-005;
2.424166666666667E+009;1.531627774238586E-001;-1.087294071912766E-001;2.183555392548442E-003;-2.098354307236150E-004;
2.424333333333334E+009;1.539428681135178E-001;-1.095866337418556E-001;2.091014292091131E-003;-2.415771159576252E-004;
2.424500000000000E+009;1.543643027544022E-001;-1.106190532445908E-001;2.150139072909951E-003;-4.387191438581795E-004;
2.424666666666667E+009;1.549675315618515E-001;-1.114752963185310E-001;2.297574654221535E-003;-4.995993804186583E-004;
2.424833333333334E+009;1.553903371095657E-001;-1.122325509786606E-001;2.183378906920552E-003;-4.684632294811308E-004;
2.425000000000000E+009;1.558682620525360E-001;-1.129601076245308E-001;2.218149602413178E-003;-7.586514111608267E-004;
2.425166666666667E+009;1.559308916330338E-001;-1.134802252054215E-001;2.299701329320669E-003;-5.878291558474302E-004;
2.425333333333334E+009;1.564238667488098E-001;-1.140840724110603E-001;2.236436353996396E-003;-8.666685316711664E-004;
2.425500000000000E+009;1.567654609680176E-001;-1.147512644529343E-001;2.187714213505387E-003;-1.022599753923714E-003;
2.425666666666667E+009;1.568805128335953E-001;-1.149715557694435E-001;2.172144595533609E-003;-9.682672098278999E-004;
2.425833333333334E+009;1.571791619062424E-001;-1.154351085424423E-001;2.030691597610712E-003;-1.097946311347187E-003;
2.426000000000000E+009;1.570966690778732E-001;-1.158777996897697E-001;1.952971797436476E-003;-1.222478109411895E-003;
2.426166666666667E+009;1.572639346122742E-001;-1.161344274878502E-001;2.144591184332967E-003;-1.386723481118679E-003;
2.426333333333334E+009;1.570143848657608E-001;-1.162512376904488E-001;2.149888779968023E-003;-1.435843179933727E-003;
2.426500000000000E+009;1.569788157939911E-001;-1.162995472550392E-001;2.103561302646995E-003;-1.611799816600978E-003;
2.426666666666667E+009;1.567385345697403E-001;-1.164292022585869E-001;1.903905882500112E-003;-1.775029581040144E-003;
2.426833333333334E+009;1.563171446323395E-001;-1.166438013315201E-001;1.833685790188611E-003;-1.890093204565346E-003;
2.427000000000000E+009;1.558406352996826E-001;-1.167333722114563E-001;1.922404509969056E-003;-1.779572688974440E-003;
2.427166666666667E+009;1.551973968744278E-001;-1.166562512516975E-001;1.826449763029814E-003;-1.968627795577049E-003;
2.427333333333334E+009;1.545224934816361E-001;-1.168227791786194E-001;1.874495297670364E-003;-2.087559085339308E-003;
2.427500000000000E+009;1.539386957883835E-001;-1.169876083731651E-001;1.600446412339807E-003;-2.235239837318659E-003;
2.427666666666667E+009;1.530793011188507E-001;-1.171424388885498E-001;1.647099852561951E-003;-2.377776894718409E-003;
2.427833333333334E+009;1.519990563392639E-001;-1.172535642981529E-001;1.586916740052402E-003;-2.377844881266356E-003;
