# Version 1.00
#
freq[Hz];re:Trc1_S11;im:Trc1_S11;re:Trc2_S21;im:Trc2_S21;
2.400000000000000E+009;1.561004668474197E-001;5.982583761215210E-002;7.182561676017940E-004;1.530403038486838E-003;
2.400166666666667E+009;1.563490629196167E-001;5.803152173757553E-002;6.981485639698803E-004;1.548366271890700E-003;
2.400333333333334E+009;1.563999652862549E-001;5.604217201471329E-002;7.660213159397245E-004;1.432397286407650E-003;
2.400500000000000E+009;1.566223800182343E-001;5.392036959528923E-002;9.267245768569410E-004;1.441749744117260E-003;
2.400666666666667E+009;1.568672955036163E-001;5.187623202800751E-002;8.821657393127680E-004;1.226000487804413E-003;
2.400833333333334E+009;1.572971493005753E-001;4.983367770910263E-002;9.022356825880706E-004;1.225267304107547E-003;
2.401000000000000E+009;1.575214713811874E-001;4.764030873775482E-002;8.827916462905705E-004;1.210186630487442E-003;
2.401166666666667E+009;1.580623090267181E-001;4.564388468861580E-002;8.886959985829890E-004;1.065067481249571E-003;
2.401333333333334E+009;1.582424640655518E-001;4.353770241141319E-002;1.078589935787022E-003;9.331186884082854E-004;
2.401500000000000E+009;1.591024696826935E-001;4.152210429310799E-002;1.003309967927635E-003;1.087482902221382E-003;
2.401666666666667E+009;1.594826430082321E-001;3.958693891763687E-002;9.297663928009570E-004;8.365762769244611E-004;
2.401833333333334E+009;1.602222323417664E-001;3.755607828497887E-002;1.222402672283351E-003;8.124187006615102E-004;
2.402000000000000E+009;1.608460396528244E-001;3.558610007166863E-002;1.000730902887881E-003;8.774519665166736E-004;
2.402166666666667E+009;1.615093946456909E-001;3.370731696486473E-002;1.058514695614576E-003;7.108886493369937E-004;
2.402333333333334E+009;1.622482538223267E-001;3.201038390398026E-002;1.029212842695415E-003;5.312043940648437E-004;
2.402500000000000E+009;1.633914113044739E-001;3.060125373303890E-002;1.050367834977806E-003;5.843684193678200E-004;
2.402666666666667E+009;1.639824956655502E-001;2.892698161303997E-002;1.018412294797599E-003;5.460613174363971E-004;
2.402833333333334E+009;1.649293750524521E-001;2.743523381650448E-002;8.067344897426665E-004;5.181907326914370E-004;
2.403000000000000E+009;1.659148633480072E-001;2.608192153275013E-002;9.143002680502832E-004;6.732850451953709E-004;
2.403166666666667E+009;1.669585406780243E-001;2.469899691641331E-002;8.351850556209683E-004;5.859148222953081E-004;
2.403333333333334E+009;1.679721027612686E-001;2.364538423717022E-002;9.692610474303365E-004;5.368075799196959E-004;
2.403500000000000E+009;1.687204539775848E-001;2.247055992484093E-002;8.251849794760346E-004;5.495430086739361E-004;
2.403666666666667E+009;1.696993410587311E-001;2.109911106526852E-002;7.183706620708108E-004;3.870788495987654E-004;
2.403833333333334E+009;1.707077622413635E-001;2.025423943996429E-002;8.652823162265122E-004;4.816641157958657E-004;
2.404000000000000E+009;1.717098206281662E-001;1.926724240183830E-002;1.007869374006987E-003;4.288237250875682E-004;
2.404166666666667E+009;1.725137531757355E-001;1.856825128197670E-002;7.773878169246018E-004;4.888080875389278E-004;
2.404333333333334E+009;1.734919100999832E-001;1.788335479795933E-002;8.337076869793236E-004;4.876178863923997E-004;
2.404500000000000E+009;1.742174476385117E-001;1.716279052197933E-002;7.770728552713990E-004;4.555173800326884E-004;
2.404666666666667E+009;1.750143617391586E-001;1.651963777840138E-002;8.143856539390981E-004;4.977327771484852E-004;
2.404833333333334E+009;1.758330315351486E-001;1.592894457280636E-002;7.838638848625124E-004;4.077279591001570E-004;
2.405000000000000E+009;1.766041517257690E-001;1.550688408315182E-002;8.376080659218133E-004;3.835095558315516E-004;
2.405166666666667E+009;1.771707087755203E-001;1.510162465274334E-002;5.756090395152569E-004;3.312211483716965E-004;
2.405333333333334E+009;1.780194342136383E-001;1.455733273178339E-002;9.394069784320891E-004;4.141936951782554E-004;
2.405500000000000E+009;1.784151941537857E-001;1.433907449245453E-002;8.874592604115605E-004;3.088822122663260E-004;
2.405666666666667E+009;1.787882447242737E-001;1.414191909134388E-002;9.645281243138015E-004;3.853966773021966E-004;
2.405833333333334E+009;1.790177971124649E-001;1.391165982931852E-002;1.001248368993402E-003;4.874951264355332E-004;
2.406000000000000E+009;1.794472336769104E-001;1.349238213151693E-002;9.774831123650074E-004;2.814305189531297E-004;
2.406166666666667E+009;1.796715855598450E-001;1.335488352924585E-002;8.490403415635228E-004;1.902307994896546E-004;
2.406333333333334E+009;1.797804534435272E-001;1.319409348070622E-002;9.509830852039158E-004;1.622059644432738E-004;
2.406500000000000E+009;1.797341555356979E-001;1.280684676021338E-002;9.414063533768058E-004;2.119018899975345E-004;
2.406666666666667E+009;1.794511377811432E-001;1.259513292461634E-002;1.047079800628126E-003;3.189781273249537E-004;
2.406833333333334E+009;1.794979721307755E-001;1.214213762432337E-002;1.038884045556188E-003;1.884172816062346E-004;
2.407000000000000E+009;1.793676018714905E-001;1.192932855337858E-002;9.749900200404227E-004;3.911277235602029E-005;
2.407166666666667E+009;1.792592108249664E-001;1.148244086652994E-002;1.149124233052135E-003;1.408787647960708E-004;
2.407333333333334E+009;1.787328869104385E-001;1.084634754806757E-002;1.117765204980969E-003;3.889936488121748E-005;
2.407500000000000E+009;1.783679425716400E-001;1.024829316884279E-002;1.233907998539507E-003;1.246090105269104E-004;
2.407666666666667E+009;1.779692918062210E-001;9.867446497082710E-003;1.141594722867012E-003;-1.015324814943597E-004;
2.407833333333334E+009;1.772807836532593E-001;9.010283276438713E-003;1.073521096259356E-003;-1.392885897075757E-004;
2.408000000000000E+009;1.767491698265076E-001;8.183201774954796E-003;1.062209601514041E-003;-1.463872031308711E-004;
2.408166666666667E+009;1.761232018470764E-001;7.479905616492033E-003;1.053818268701434E-003;-2.110170171363279E-004;
2.408333333333334E+009;1.757654845714569E-001;6.532324943691492E-003;9.922158205881715E-004;-2.568839699961245E-004;
2.408500000000000E+009;1.750715076923370E-001;5.457961931824684E-003;8.975513046607375E-004;-3.202109364792705E-004;
2.408666666666667E+009;1.744260936975479E-001;4.327583126723766E-003;9.218841441906989E-004;-2.685791114345193E-004;
2.408833333333334E+009;1.736995279788971E-001;3.091686405241489E-003;8.492687484249473E-004;-3.324127756059170E-004;
2.409000000000000E+009;1.728730499744415E-001;1.868695486336947E-003;8.392443996854127E-004;-3.689653822220862E-004;
2.409166666666667E+009;1.722898930311203E-001;4.664721200242639E-004;8.218874572776258E-004;-4.686424799729139E-004;
2.409333333333334E+009;1.716499030590057E-001;-9.610165143385530E-004;7.504011737182736E-004;-6.595333106815815E-004;
2.409500000000000E+009;1.709620952606201E-001;-2.841483568772674E-003;7.208763854578137E-004;-6.387894973158836E-004;
2.409666666666667E+009;1.703353375196457E-001;-4.202389158308506E-003;7.649949402548373E-004;-6.723332335241139E-004;
2.409833333333334E+009;1.696416884660721E-001;-5.673997569829226E-003;6.190002313815057E-004;-7.261714199557900E-004;
2.410000000000000E+009;1.693067252635956E-001;-7.617988158017397E-003;5.809373687952757E-004;-5.949697806499898E-004;
2.410166666666667E+009;1.688121259212494E-001;-9.392719715833664E-003;5.331998108886182E-004;-6.706505082547665E-004;
2.410333333333334E+009;1.682809442281723E-001;-1.105199474841356E-002;4.586906288750470E-004;-8.499241666868329E-004;
2.410500000000000E+009;1.680240333080292E-001;-1.316795125603676E-002;3.182443033438176E-004;-8.175769471563399E-004;
2.410666666666667E+009;1.676718294620514E-001;-1.525291055440903E-002;4.043507797177881E-004;-6.962370243854821E-004;
2.410833333333334E+009;1.674367934465408E-001;-1.681580953299999E-002;3.701708919834346E-004;-7.572973845526576E-004;
2.411000000000000E+009;1.674147695302963E-001;-1.881577633321285E-002;1.059462811099365E-004;-6.083671469241381E-004;
2.411166666666667E+009;1.671362072229385E-001;-2.096471935510635E-002;2.220830210717395E-004;-6.991487462073565E-004;
2.411333333333334E+009;1.671283990144730E-001;-2.286064065992832E-002;1.752580865286291E-004;-6.567293312400580E-004;
2.411500000000000E+009;1.672406494617462E-001;-2.491119690239430E-002;-1.348186106042704E-005;-5.930698243901134E-004;
2.411666666666667E+009;1.674813777208328E-001;-2.669182233512402E-002;-6.060220039216802E-005;-7.797036087140441E-004;
2.411833333333334E+009;1.676608324050903E-001;-2.872999757528305E-002;-8.086711204668973E-006;-5.705347284674645E-004;
2.412000000000000E+009;1.680777817964554E-001;-3.057370334863663E-002;-1.626111334189773E-004;-5.969311459921300E-004;
2.412166666666667E+009;1.681333184242249E-001;-3.261321783065796E-002;-1.541244564577937E-004;-5.430761957541108E-004;
2.412333333333334E+009;1.688511669635773E-001;-3.447686880826950E-002;-1.943405804922804E-004;-3.856234834529460E-004;
2.412500000000000E+009;1.691089570522308E-001;-3.608218207955360E-002;-3.936904540751129E-004;-4.012895224150270E-004;
2.412666666666667E+009;1.698528677225113E-001;-3.811420872807503E-002;-2.379043871769682E-004;-4.488131962716579E-004;
2.412833333333334E+009;1.704488098621368E-001;-3.961491957306862E-002;-3.179640334565193E-004;-3.152808058075607E-004;
2.413000000000000E+009;1.707869023084641E-001;-4.142795875668526E-002;-4.425699880812317E-004;-4.006923118140549E-004;
2.413166666666667E+009;1.713743656873703E-001;-4.284645617008209E-002;-3.466663183644414E-004;-2.785432152450085E-004;
2.413333333333334E+009;1.721112430095673E-001;-4.428138211369515E-002;-3.139624895993620E-004;-1.561514800414443E-004;
2.413500000000000E+009;1.728125512599945E-001;-4.585418850183487E-002;-4.251039354130626E-004;-2.103319857269526E-004;
2.413666666666667E+009;1.735277622938156E-001;-4.729938879609108E-002;-2.154886751668528E-004;-6.427176413126290E-005;
2.413833333333334E+009;1.741869002580643E-001;-4.852563887834549E-002;-2.225811767857522E-004;-1.135913335019723E-004;
2.414000000000000E+009;1.746827363967896E-001;-4.963278770446777E-002;-4.310588119551539E-004;6.925388152012602E-005;
2.414166666666667E+009;1.753461211919785E-001;-5.067038536071777E-002;-2.585367474239320E-004;3.079918542425730E-006;
2.414333333333334E+009;1.759556382894516E-001;-5.181562155485153E-002;-3.592002321965993E-004;-3.872196612064727E-005;
2.414500000000000E+009;1.767366081476212E-001;-5.254661664366722E-002;-2.592084056232125E-004;3.303274934296496E-005;
2.414666666666667E+009;1.770907640457153E-001;-5.342200770974159E-002;-1.831059926189482E-004;1.041787254507653E-004;
2.414833333333334E+009;1.775674819946289E-001;-5.410387367010117E-002;-2.300274936715141E-004;1.258200645679608E-004;
2.415000000000000E+009;1.778986006975174E-001;-5.482833832502365E-002;-3.098230226896703E-004;1.538464130135253E-004;
2.415166666666667E+009;1.782695949077606E-001;-5.535265430808067E-002;-2.267036761622876E-004;1.871920103440061E-004;
2.415333333333334E+009;1.787343472242355E-001;-5.594546347856522E-002;-2.044741122517735E-004;1.936658372869715E-004;
2.415500000000000E+009;1.788168549537659E-001;-5.623615160584450E-002;-2.406924904789776E-004;2.808092976920307E-004;
2.415666666666667E+009;1.788955777883530E-001;-5.662840977311134E-002;-3.444422618485987E-004;2.801555092446506E-004;
2.415833333333334E+009;1.790388822555542E-001;-5.700512975454330E-002;-1.245961175300181E-004;3.309459716547281E-004;
2.416000000000000E+009;1.788475364446640E-001;-5.729525536298752E-002;-2.837028587237001E-004;2.316828467883170E-004;
2.416166666666667E+009;1.788632422685623E-001;-5.763453617691994E-002;-1.699645072221756E-004;3.705719427671284E-004;
2.416333333333334E+009;1.786205470561981E-001;-5.776326358318329E-002;-1.729829236865044E-004;2.489530306775123E-004;
2.416500000000000E+009;1.783508658409119E-001;-5.810558423399925E-002;-1.072294253390282E-004;2.384109830018133E-004;
2.416666666666667E+009;1.777392327785492E-001;-5.829155072569847E-002;-1.869954430731013E-004;3.571783308871090E-004;
2.416833333333334E+009;1.774541735649109E-001;-5.850716680288315E-002;-2.255354775115848E-005;5.562304868362844E-004;
2.417000000000000E+009;1.767146885395050E-001;-5.873181670904160E-002;-1.742333843139932E-004;4.267649783287197E-004;
2.417166666666667E+009;1.759651452302933E-001;-5.881303921341896E-002;-7.021548663033173E-005;5.516863311640918E-004;
2.417333333333334E+009;1.752059161663055E-001;-5.906680226325989E-002;-3.028902210644446E-005;4.869349359069020E-004;
2.417500000000000E+009;1.743125766515732E-001;-5.957368388772011E-002;-8.669227827340365E-005;6.406297325156629E-004;
2.417666666666667E+009;1.734648495912552E-001;-5.968714132905006E-002;2.393831664448953E-006;6.089904927648604E-004;
2.417833333333334E+009;1.724843829870224E-001;-6.013417243957520E-002;8.037510997382924E-005;6.367901223711669E-004;
2.418000000000000E+009;1.711213588714600E-001;-6.062340736389160E-002;9.118798334384337E-005;7.479420746676624E-004;
2.418166666666667E+009;1.702045351266861E-001;-6.088143214583397E-002;1.181490370072424E-004;7.500337087549269E-004;
2.418333333333334E+009;1.691645383834839E-001;-6.145345419645309E-002;1.583934645168483E-004;8.466411381959915E-004;
2.418500000000000E+009;1.679305136203766E-001;-6.205606833100319E-002;1.908006088342518E-004;6.525708013214171E-004;
2.418666666666667E+009;1.667316406965256E-001;-6.275738775730133E-002;2.717136521823704E-004;6.602069479413331E-004;
2.418833333333334E+009;1.653598397970200E-001;-6.347302347421646E-002;2.018885134020820E-004;8.686353685334325E-004;
2.419000000000000E+009;1.639149188995361E-001;-6.428761780261993E-002;3.737818042282015E-004;6.688897847197950E-004;
2.419166666666667E+009;1.627948135137558E-001;-6.522499024868012E-002;2.916030061896890E-004;7.576872012577951E-004;
2.419333333333334E+009;1.614246070384979E-001;-6.591328978538513E-002;4.955567419528961E-004;7.711946964263916E-004;
2.419500000000000E+009;1.601872295141220E-001;-6.711316853761673E-002;5.033315974287689E-004;8.399995276704431E-004;
2.419666666666667E+009;1.591331809759140E-001;-6.831182539463043E-002;5.897742812521756E-004;7.451234268955886E-004;
2.419833333333334E+009;1.578812301158905E-001;-6.933965533971787E-002;5.994957755319774E-004;7.371843094006181E-004;
2.420000000000000E+009;1.568096876144409E-001;-7.063182443380356E-002;4.691111680585891E-004;8.417065255343914E-004;
2.420166666666667E+009;1.557051092386246E-001;-7.195158302783966E-002;6.756400689482689E-004;7.669230690225959E-004;
2.420333333333334E+009;1.548156440258026E-001;-7.340888679027557E-002;5.779561470262706E-004;7.435036241076887E-004;
2.420500000000000E+009;1.538519412279129E-001;-7.476518303155899E-002;5.898097297176719E-004;8.932073833420873E-004;
2.420666666666667E+009;1.530677676200867E-001;-7.626101374626160E-002;6.999654578976333E-004;7.998087094165385E-004;
2.420833333333334E+009;1.522426903247833E-001;-7.770349085330963E-002;8.359267958439887E-004;9.143516654148698E-004;
2.421000000000000E+009;1.514333933591843E-001;-7.946618646383286E-002;7.460305350832641E-004;8.498610695824027E-004;
2.421166666666667E+009;1.510823667049408E-001;-8.110442012548447E-002;8.438763907179236E-004;8.806564146652818E-004;
2.421333333333334E+009;1.505377590656281E-001;-8.276915550231934E-002;1.023930846713483E-003;9.012653026729822E-004;
2.421500000000000E+009;1.500667780637741E-001;-8.431451022624970E-002;1.015324844047427E-003;8.495368529111147E-004;
2.421666666666667E+009;1.497073918581009E-001;-8.608390390872955E-002;1.016485271975398E-003;8.124897722154856E-004;
2.421833333333334E+009;1.494276970624924E-001;-8.797462284564972E-002;1.197831588797271E-003;8.676322759129107E-004;
2.422000000000000E+009;1.492709517478943E-001;-8.952599018812180E-002;1.270735519938171E-003;8.536712266504765E-004;
2.422166666666667E+009;1.490155011415482E-001;-9.141729027032852E-002;1.457736478187144E-003;7.849315297789872E-004;
2.422333333333334E+009;1.494193226099014E-001;-9.290560334920883E-002;1.446482725441456E-003;6.922736647538841E-004;
2.422500000000000E+009;1.492824554443359E-001;-9.463681280612946E-002;1.658266526646912E-003;6.401006830856204E-004;
2.422666666666667E+009;1.494088768959045E-001;-9.629683941602707E-002;1.606595586054027E-003;7.080763461999595E-004;
2.422833333333334E+009;1.496195793151856E-001;-9.793436527252197E-002;1.705022412352264E-003;6.063261535018683E-004;
2.423000000000000E+009;1.499784290790558E-001;-9.937776625156403E-002;1.820838311687112E-003;6.362376734614372E-004;
2.423166666666667E+009;1.505439430475235E-001;-1.009934172034264E-001;1.877119997516275E-003;6.332345074042678E-004;
2.423333333333334E+009;1.508834511041641E-001;-1.023281216621399E-001;1.939212786965072E-003;4.914625314995647E-004;
2.423500000000000E+009;1.512732207775116E-001;-1.036833897233009E-001;1.916441251523793E-003;4.891115240752697E-004;
2.423666666666667E+009;1.516409516334534E-001;-1.052067801356316E-001;2.170660998672247E-003;3.433624806348234E-004;
2.423833333333334E+009;1.523194760084152E-001;-1.065600216388702E-001;2.059426857158542E-003;1.854491711128503E-005;
2.424000000000000E+009;1.529041230678558E-001;-1.075834706425667E-001;2.151283668354154E-003;4.079674454260385E-006;
2.424166666666667E+009;1.531977355480194E-001;-1.087012514472008E-001;2.180295297876000E-003;8.444432751275599E-005;
2.424333333333334E+009;1.539685875177383E-001;-1.096589341759682E-001;2.395709510892630E-003;-1.644633448449895E-004;
2.424500000000000E+009;1.543224900960922E-001;-1.106386333703995E-001;2.338185207918286E-003;-3.591954591684043E-004;
2.424666666666667E+009;1.550513952970505E-001;-1.113934963941574E-001;2.369623398408294E-003;-2.440024254610762E-004;
2.424833333333334E+009;1.555021405220032E-001;-1.122114807367325E-001;2.495496068149805E-003;-4.573295882437378E-004;
2.425000000000000E+009;1.558264344930649E-001;-1.129826009273529E-001;2.432605950161815E-003;-7.088818238116801E-004;
2.425166666666667E+009;1.560729444026947E-001;-1.135266944766045E-001;2.386028179898858E-003;-7.977866334840655E-004;
2.425333333333334E+009;1.565241068601608E-001;-1.140890493988991E-001;2.324257744476199E-003;-9.694606997072697E-004;
2.425500000000000E+009;1.569052338600159E-001;-1.146600022912026E-001;2.362702973186970E-003;-8.063673740252852E-004;
2.425666666666667E+009;1.569146513938904E-001;-1.151502504944801E-001;2.450079191476107E-003;-1.189155620522797E-003;
2.425833333333334E+009;1.571027636528015E-001;-1.154699698090553E-001;2.275021746754646E-003;-1.248472719453275E-003;
2.426000000000000E+009;1.570457667112351E-001;-1.158636361360550E-001;2.280479064211249E-003;-1.421057851985097E-003;
2.426166666666667E+009;1.572338044643402E-001;-1.161283478140831E-001;2.382888691499829E-003;-1.509820343926549E-003;
2.426333333333334E+009;1.571613550186157E-001;-1.162471249699593E-001;2.336269943043590E-003;-1.547332387417555E-003;
2.426500000000000E+009;1.568665653467178E-001;-1.164416521787643E-001;2.301666885614395E-003;-1.759651699103415E-003;
2.426666666666667E+009;1.566963344812393E-001;-1.164490282535553E-001;2.239752560853958E-003;-1.804846804589033E-003;
2.426833333333334E+009;1.563139110803604E-001;-1.165670007467270E-001;2.203369745984674E-003;-1.926115131936967E-003;
2.427000000000000E+009;1.558955907821655E-001;-1.168462261557579E-001;2.203464973717928E-003;-2.015559235587716E-003;
2.427166666666667E+009;1.552915424108505E-001;-1.166599243879318E-001;1.995356287807226E-003;-2.158138202503324E-003;
2.427333333333334E+009;1.545000970363617E-001;-1.169158369302750E-001;2.007154515013099E-003;-2.182455267757177E-003;
2.427500000000000E+009;1.538678556680679E-001;-1.169857159256935E-001;1.927701057866216E-003;-2.254666527733207E-003;
2.427666666666667E+009;1.529552042484283E-001;-1.171706095337868E-001;1.828493434004486E-003;-2.415041206404567E-003;
2.427833333333334E+009;1.518975496292114E-001;-1.173210889101028E-001;1.633404637686908E-003;-2.563584828749299E-003;
