# Version 1.00
#
freq[Hz];re:Trc1_S11;im:Trc1_S11;re:Trc2_S21;im:Trc2_S21;
2.400000000000000E+009;1.551321744918823E-001;1.059093102812767E-001;-2.658947603777051E-003;1.553406240418553E-003;
2.400166666666667E+009;1.548490077257156E-001;1.037589907646179E-001;-2.595979254692793E-003;1.496279961429536E-003;
2.400333333333334E+009;1.549556851387024E-001;1.012955829501152E-001;-2.713248133659363E-003;1.511207898147404E-003;
2.400500000000000E+009;1.548531949520111E-001;9.846657514572144E-002;-2.894374541938305E-003;1.655265456065536E-003;
2.400666666666667E+009;1.547871828079224E-001;9.598769992589951E-002;-2.939661964774132E-003;1.805576845072210E-003;
2.400833333333334E+009;1.548662185668945E-001;9.300222247838974E-002;-2.784139709547162E-003;2.018065424636006E-003;
2.401000000000000E+009;1.549387425184250E-001;9.032364934682846E-002;-2.814310835674405E-003;1.988328061997891E-003;
2.401166666666667E+009;1.550372689962387E-001;8.741586655378342E-002;-2.745803678408265E-003;2.172375097870827E-003;
2.401333333333334E+009;1.554828435182571E-001;8.474871516227722E-002;-2.819865010678768E-003;2.317301463335753E-003;
2.401500000000000E+009;1.556450575590134E-001;8.159227669239044E-002;-2.774950815364718E-003;2.497821347787976E-003;
2.401666666666667E+009;1.562239676713944E-001;7.899452000856400E-002;-2.768920967355371E-003;2.569375559687614E-003;
2.401833333333334E+009;1.566547602415085E-001;7.616624236106873E-002;-2.729880856350064E-003;2.644727472215891E-003;
2.402000000000000E+009;1.573714464902878E-001;7.348668575286865E-002;-2.577530452981591E-003;2.835134044289589E-003;
2.402166666666667E+009;1.582085043191910E-001;7.087850570678711E-002;-2.556300722062588E-003;2.982192439958453E-003;
2.402333333333334E+009;1.589941978454590E-001;6.821249425411224E-002;-2.414783695712686E-003;3.010840388014913E-003;
2.402500000000000E+009;1.601656228303909E-001;6.563680619001389E-002;-2.341444371268153E-003;3.256672061979771E-003;
2.402666666666667E+009;1.613005250692368E-001;6.328250467777252E-002;-2.196335466578603E-003;3.385537303984165E-003;
2.402833333333334E+009;1.625939458608627E-001;6.092757359147072E-002;-2.216569148004055E-003;3.556431969627738E-003;
2.403000000000000E+009;1.640967577695847E-001;5.861865729093552E-002;-2.089584246277809E-003;3.765214001759887E-003;
2.403166666666667E+009;1.658571809530258E-001;5.621675401926041E-002;-1.883786171674728E-003;3.689439967274666E-003;
2.403333333333334E+009;1.671273261308670E-001;5.424236506223679E-002;-1.787376473657787E-003;3.876635106280446E-003;
2.403500000000000E+009;1.688527911901474E-001;5.212498828768730E-002;-1.582236029207707E-003;3.873986424878240E-003;
2.403666666666667E+009;1.705741584300995E-001;5.023725703358650E-002;-1.168327056802809E-003;3.968657925724983E-003;
2.403833333333334E+009;1.722325384616852E-001;4.829176142811775E-002;-1.044866396114230E-003;4.045137669891119E-003;
2.404000000000000E+009;1.736206710338593E-001;4.668385162949562E-002;-8.259092574007809E-004;4.080243874341250E-003;
2.404166666666667E+009;1.755847930908203E-001;4.505613446235657E-002;-6.394652882590890E-004;3.993274178355932E-003;
2.404333333333334E+009;1.771779954433441E-001;4.368996992707253E-002;-3.699013614095748E-004;4.146498162299395E-003;
2.404500000000000E+009;1.787613779306412E-001;4.232614487409592E-002;-2.163662720704451E-004;4.223699215799570E-003;
2.404666666666667E+009;1.803008466959000E-001;4.125206917524338E-002;9.681012306828052E-005;3.841313300654292E-003;
2.404833333333334E+009;1.820745766162872E-001;4.029710590839386E-002;2.499487891327590E-004;3.670686855912209E-003;
2.405000000000000E+009;1.833148896694183E-001;3.944720700383186E-002;3.067801590077579E-004;3.716574283316732E-003;
2.405166666666667E+009;1.849320083856583E-001;3.880965709686279E-002;3.944762866012752E-004;3.560058306902647E-003;
2.405333333333334E+009;1.863023340702057E-001;3.846698626875877E-002;7.444024085998535E-004;3.439195454120636E-003;
2.405500000000000E+009;1.876498311758041E-001;3.788375109434128E-002;5.963340518064797E-004;3.362573450431228E-003;
2.405666666666667E+009;1.888632476329804E-001;3.765318915247917E-002;8.330623968504369E-004;3.238335717469454E-003;
2.405833333333334E+009;1.901060491800308E-001;3.744709864258766E-002;7.977801142260432E-004;3.302962752059102E-003;
2.406000000000000E+009;1.910879909992218E-001;3.733887523412705E-002;8.698566234670579E-004;3.128630574792624E-003;
2.406166666666667E+009;1.921386569738388E-001;3.713256865739822E-002;8.978124824352562E-004;3.086027223616839E-003;
2.406333333333334E+009;1.931379139423370E-001;3.715783357620239E-002;8.720938931219280E-004;2.994131995365024E-003;
2.406500000000000E+009;1.938748210668564E-001;3.733508288860321E-002;1.102011301554740E-003;2.908884780481458E-003;
2.406666666666667E+009;1.943575590848923E-001;3.736748173832893E-002;1.146741327829659E-003;3.003451041877270E-003;
2.406833333333334E+009;1.950951963663101E-001;3.742345049977303E-002;1.139900297857821E-003;2.870412776246667E-003;
2.407000000000000E+009;1.952181458473206E-001;3.771182149648666E-002;1.081438385881484E-003;2.697574673220515E-003;
2.407166666666667E+009;1.956745833158493E-001;3.747355937957764E-002;1.334593631327152E-003;2.644955180585384E-003;
2.407333333333334E+009;1.955804228782654E-001;3.761889040470123E-002;1.387693337164819E-003;2.511561149731278E-003;
2.407500000000000E+009;1.954787969589233E-001;3.788624703884125E-002;1.438759732991457E-003;2.660979051142931E-003;
2.407666666666667E+009;1.956067830324173E-001;3.781704232096672E-002;1.281332573853433E-003;2.355406759306788E-003;
2.407833333333334E+009;1.950964480638504E-001;3.777682408690453E-002;1.370696700178087E-003;2.123127691447735E-003;
2.408000000000000E+009;1.949389129877091E-001;3.750384971499443E-002;1.521701226010919E-003;2.151640597730875E-003;
2.408166666666667E+009;1.943514794111252E-001;3.738417476415634E-002;1.427002949640155E-003;2.128391060978174E-003;
2.408333333333334E+009;1.939576566219330E-001;3.679920732975006E-002;1.460527535527945E-003;1.949614030309022E-003;
2.408500000000000E+009;1.933180391788483E-001;3.650519996881485E-002;1.479433500207961E-003;1.886675367131829E-003;
2.408666666666667E+009;1.925378441810608E-001;3.605030477046967E-002;1.334177562966943E-003;1.816944219172001E-003;
2.408833333333334E+009;1.918403506278992E-001;3.533123061060906E-002;1.477653975598514E-003;1.624436932615936E-003;
2.409000000000000E+009;1.909925192594528E-001;3.446906432509422E-002;1.251134905032814E-003;1.557195326313376E-003;
2.409166666666667E+009;1.897938102483749E-001;3.346387669444084E-002;1.252993359230459E-003;1.613462809473276E-003;
2.409333333333334E+009;1.891793608665466E-001;3.250084817409515E-002;1.268306281417608E-003;1.506731729023159E-003;
2.409500000000000E+009;1.879098564386368E-001;3.111995197832584E-002;1.241002813912928E-003;1.673217862844467E-003;
2.409666666666667E+009;1.869459599256516E-001;2.978657931089401E-002;1.081602298654616E-003;1.451049232855439E-003;
2.409833333333334E+009;1.860303580760956E-001;2.830032445490360E-002;1.120231696404517E-003;1.578378374688327E-003;
2.410000000000000E+009;1.849607080221176E-001;2.667071484029293E-002;1.042385702021420E-003;1.322644413448870E-003;
2.410166666666667E+009;1.838918626308441E-001;2.494742162525654E-002;1.039411174133420E-003;1.482431776821613E-003;
2.410333333333334E+009;1.829334050416946E-001;2.310306206345558E-002;1.113653182983398E-003;1.666399068199098E-003;
2.410500000000000E+009;1.818707883358002E-001;2.113890461623669E-002;9.840345010161400E-004;1.641298760659993E-003;
2.410666666666667E+009;1.809260249137878E-001;1.895798183977604E-002;1.117310835979879E-003;1.751294825226069E-003;
2.410833333333334E+009;1.803880184888840E-001;1.676978357136250E-002;1.013917964883149E-003;1.632609753869474E-003;
2.411000000000000E+009;1.796107441186905E-001;1.451816502958536E-002;1.064294483512640E-003;1.743614906445146E-003;
2.411166666666667E+009;1.789371222257614E-001;1.237523648887873E-002;1.021043863147497E-003;1.548930769786239E-003;
2.411333333333334E+009;1.786246299743652E-001;9.854556992650032E-003;1.102103269658983E-003;1.570739317685366E-003;
2.411500000000000E+009;1.778987497091293E-001;7.452745456248522E-003;1.019815099425614E-003;1.570006716065109E-003;
2.411666666666667E+009;1.779815852642059E-001;5.029285792261362E-003;1.131291966885328E-003;1.553547685034573E-003;
2.411833333333334E+009;1.776262968778610E-001;2.826114185154438E-003;1.091396901756525E-003;1.671317382715643E-003;
2.412000000000000E+009;1.777630895376205E-001;7.934161112643778E-005;1.203769585117698E-003;1.492270734161139E-003;
2.412166666666667E+009;1.778555214405060E-001;-2.121912082657218E-003;1.047333935275674E-003;1.456407248042524E-003;
2.412333333333334E+009;1.779895573854446E-001;-4.703154787421227E-003;8.903752896003425E-004;1.410547643899918E-003;
2.412500000000000E+009;1.784452199935913E-001;-6.975312717258930E-003;8.659556624479592E-004;1.490333117544651E-003;
2.412666666666667E+009;1.790067851543427E-001;-9.562797844409943E-003;9.328181622549892E-004;1.666387659497559E-003;
2.412833333333334E+009;1.796997636556625E-001;-1.185906305909157E-002;9.248002897948027E-004;1.616862369701266E-003;
2.413000000000000E+009;1.804453730583191E-001;-1.433422043919563E-002;1.003493205644190E-003;1.631079125218093E-003;
2.413166666666667E+009;1.812309771776199E-001;-1.651420630514622E-002;8.968380279839039E-004;1.671997015364468E-003;
2.413333333333334E+009;1.824668794870377E-001;-1.888396590948105E-002;1.012762193568051E-003;1.866784645244479E-003;
2.413500000000000E+009;1.833309978246689E-001;-2.107219770550728E-002;1.028959173709154E-003;1.968035241588950E-003;
2.413666666666667E+009;1.845355629920960E-001;-2.331288345158100E-002;1.161642372608185E-003;2.102632774040103E-003;
2.413833333333334E+009;1.856254935264587E-001;-2.522671595215797E-002;1.250146538950503E-003;2.178208436816931E-003;
2.414000000000000E+009;1.866441965103149E-001;-2.718189731240273E-002;1.259587006643415E-003;2.213062718510628E-003;
2.414166666666667E+009;1.881286054849625E-001;-2.901380136609078E-002;1.480104285292327E-003;2.212227554991841E-003;
2.414333333333334E+009;1.892181485891342E-001;-3.099374659359455E-002;1.536647323518992E-003;2.221048576757312E-003;
2.414500000000000E+009;1.904014348983765E-001;-3.247417137026787E-002;1.660044072195888E-003;2.263919916003943E-003;
2.414666666666667E+009;1.915809661149979E-001;-3.392339870333672E-002;1.659652218222618E-003;2.202617703005672E-003;
2.414833333333334E+009;1.928129643201828E-001;-3.527187928557396E-002;1.871108543127775E-003;2.049565082415938E-003;
2.415000000000000E+009;1.938654035329819E-001;-3.642614930868149E-002;1.968296244740486E-003;2.088390989229083E-003;
2.415166666666667E+009;1.952015012502670E-001;-3.758307918906212E-002;2.015361329540610E-003;2.135201357305050E-003;
2.415333333333334E+009;1.962709277868271E-001;-3.857197239995003E-002;2.145433099940419E-003;2.149991923943162E-003;
2.415500000000000E+009;1.974046230316162E-001;-3.924627602100372E-002;2.348114969208837E-003;2.148655708879232E-003;
2.415666666666667E+009;1.985491365194321E-001;-4.015029966831207E-002;2.296696417033672E-003;2.101808786392212E-003;
2.415833333333334E+009;1.992669850587845E-001;-4.064459353685379E-002;2.456388203427196E-003;2.224383642897010E-003;
2.416000000000000E+009;2.001980692148209E-001;-4.112253338098526E-002;2.538747852668166E-003;2.078429330140352E-003;
2.416166666666667E+009;2.008647769689560E-001;-4.175172746181488E-002;2.674314426258206E-003;1.927629695273936E-003;
2.416333333333334E+009;2.015581279993057E-001;-4.195313528180122E-002;2.787384204566479E-003;1.986309187486768E-003;
2.416500000000000E+009;2.019969075918198E-001;-4.213491454720497E-002;2.819773741066456E-003;1.891052816063166E-003;
2.416666666666667E+009;2.023497670888901E-001;-4.253480583429337E-002;3.071748185902834E-003;1.991674536839128E-003;
2.416833333333334E+009;2.024915963411331E-001;-4.246224835515022E-002;3.328832564875484E-003;1.920497394166887E-003;
2.417000000000000E+009;2.026612758636475E-001;-4.253441840410233E-002;3.366353223100305E-003;1.639586989767849E-003;
2.417166666666667E+009;2.023391872644424E-001;-4.234391078352928E-002;3.440965665504336E-003;1.616877969354391E-003;
2.417333333333334E+009;2.021148502826691E-001;-4.216185957193375E-002;3.603148972615600E-003;1.484931213781238E-003;
2.417500000000000E+009;2.018647044897080E-001;-4.219180718064308E-002;3.756448160856962E-003;1.399294473230839E-003;
2.417666666666667E+009;2.014660239219666E-001;-4.190674051642418E-002;3.797609126195312E-003;1.202051877044141E-003;
2.417833333333334E+009;2.010366469621658E-001;-4.169471561908722E-002;3.955490421503782E-003;9.799904655665159E-004;
2.418000000000000E+009;2.003692835569382E-001;-4.130499437451363E-002;4.051826894283295E-003;7.944685057736933E-004;
2.418166666666667E+009;1.996116638183594E-001;-4.124931991100311E-002;3.955959342420101E-003;6.786754820495844E-004;
2.418333333333334E+009;1.986877918243408E-001;-4.106076434254646E-002;4.072534386068583E-003;4.497196932788938E-004;
2.418500000000000E+009;1.977523118257523E-001;-4.104095697402954E-002;4.014696925878525E-003;3.432577359490097E-004;
2.418666666666667E+009;1.967137753963471E-001;-4.103505611419678E-002;4.063217435032129E-003;1.774412230588496E-004;
2.418833333333334E+009;1.955319046974182E-001;-4.131316766142845E-002;4.201749339699745E-003;-5.373785825213417E-005;
2.419000000000000E+009;1.942904442548752E-001;-4.143328592181206E-002;4.096091724932194E-003;-6.968867819523439E-005;
2.419166666666667E+009;1.930318027734757E-001;-4.176199063658714E-002;4.126054234802723E-003;-3.817550605162978E-004;
2.419333333333334E+009;1.917155683040619E-001;-4.208091273903847E-002;4.081310704350472E-003;-3.927461802959442E-004;
2.419500000000000E+009;1.901556551456451E-001;-4.265663027763367E-002;4.010155797004700E-003;-4.952026647515595E-004;
2.419666666666667E+009;1.886409521102905E-001;-4.358546435832977E-002;4.011214710772038E-003;-6.040110019966960E-004;
2.419833333333334E+009;1.869580447673798E-001;-4.405849799513817E-002;3.923873417079449E-003;-7.086267578415573E-004;
2.420000000000000E+009;1.854233592748642E-001;-4.513318091630936E-002;3.860598197206855E-003;-9.616940515115857E-004;
2.420166666666667E+009;1.838948130607605E-001;-4.615282639861107E-002;3.882094519212842E-003;-8.566181058995426E-004;
2.420333333333334E+009;1.821901053190231E-001;-4.719234630465508E-002;3.866256214678288E-003;-1.159161678515375E-003;
2.420500000000000E+009;1.805273592472076E-001;-4.865507408976555E-002;3.772315802052617E-003;-1.166307600215077E-003;
2.420666666666667E+009;1.789783388376236E-001;-4.970308020710945E-002;3.866447834298015E-003;-1.269548549316824E-003;
2.420833333333334E+009;1.773637384176254E-001;-5.144648253917694E-002;3.713375190272927E-003;-1.151647418737412E-003;
2.421000000000000E+009;1.758019924163818E-001;-5.304754897952080E-002;3.691009944304824E-003;-1.384760485962033E-003;
2.421166666666667E+009;1.744607090950012E-001;-5.474840477108955E-002;3.766451496630907E-003;-1.487301080487669E-003;
2.421333333333334E+009;1.728721410036087E-001;-5.628913640975952E-002;3.742547240108252E-003;-1.676288666203618E-003;
2.421500000000000E+009;1.715500205755234E-001;-5.831862986087799E-002;3.795791650190949E-003;-1.827006461098790E-003;
2.421666666666667E+009;1.704139709472656E-001;-6.014882028102875E-002;3.591060638427734E-003;-2.037389902397990E-003;
2.421833333333334E+009;1.691988110542297E-001;-6.203493848443031E-002;3.548715496435762E-003;-1.996774692088366E-003;
2.422000000000000E+009;1.681300550699234E-001;-6.400103121995926E-002;3.633550135418773E-003;-2.216423163190484E-003;
2.422166666666667E+009;1.672537624835968E-001;-6.616126745939255E-002;3.506799228489399E-003;-2.316548489034176E-003;
2.422333333333334E+009;1.663926988840103E-001;-6.824921071529388E-002;3.378050634637475E-003;-2.487134421244264E-003;
2.422500000000000E+009;1.655574440956116E-001;-7.008534669876099E-002;3.160657361149788E-003;-2.714538248255849E-003;
2.422666666666667E+009;1.649443507194519E-001;-7.234010845422745E-002;2.943459432572126E-003;-2.697228919714689E-003;
2.422833333333334E+009;1.644519567489624E-001;-7.462814450263977E-002;2.990042092278600E-003;-2.998304786160588E-003;
2.423000000000000E+009;1.639927327632904E-001;-7.648067176342011E-002;2.854418940842152E-003;-3.125804243609309E-003;
2.423166666666667E+009;1.635991036891937E-001;-7.869020104408264E-002;2.669248729944229E-003;-3.036110429093242E-003;
2.423333333333334E+009;1.633412092924118E-001;-8.059222251176834E-002;2.613279735669494E-003;-3.066827543079853E-003;
2.423500000000000E+009;1.633044779300690E-001;-8.246876299381256E-002;2.394393552094698E-003;-3.222859930247068E-003;
2.423666666666667E+009;1.633604168891907E-001;-8.463186025619507E-002;2.202818403020501E-003;-3.173075383529067E-003;
2.423833333333334E+009;1.633072197437286E-001;-8.625913411378861E-002;1.977964071556926E-003;-3.256921656429768E-003;
2.424000000000000E+009;1.634155213832855E-001;-8.816134929656982E-002;1.973167294636369E-003;-3.244022373110056E-003;
2.424166666666667E+009;1.634071916341782E-001;-8.965642750263214E-002;1.981526380404830E-003;-3.064417745918036E-003;
2.424333333333334E+009;1.638339757919312E-001;-9.130293875932694E-002;1.604793826118112E-003;-3.014938673004508E-003;
2.424500000000000E+009;1.640004813671112E-001;-9.309020638465881E-002;1.749875023961067E-003;-3.149921540170908E-003;
2.424666666666667E+009;1.643122434616089E-001;-9.441237896680832E-002;1.611960469745100E-003;-3.118886845186353E-003;
2.424833333333334E+009;1.648577004671097E-001;-9.580182284116745E-002;1.524916500784457E-003;-3.102334449067712E-003;
2.425000000000000E+009;1.651635617017746E-001;-9.691467881202698E-002;1.444641384296119E-003;-3.106874413788319E-003;
2.425166666666667E+009;1.654409617185593E-001;-9.802653640508652E-002;1.514647272415459E-003;-3.042245283722878E-003;
2.425333333333334E+009;1.658642292022705E-001;-9.901550412178040E-002;1.208013622090221E-003;-3.059325506910682E-003;
2.425500000000000E+009;1.661508977413178E-001;-1.000384166836739E-001;1.222201855853200E-003;-3.028961131349206E-003;
2.425666666666667E+009;1.666927039623261E-001;-1.005842536687851E-001;1.207921188324690E-003;-2.995389048010111E-003;
2.425833333333334E+009;1.668791919946671E-001;-1.014483347535133E-001;1.077501685358584E-003;-2.943668980151415E-003;
2.426000000000000E+009;1.672965288162231E-001;-1.019260734319687E-001;1.210067537613213E-003;-3.052446758374572E-003;
2.426166666666667E+009;1.677140891551971E-001;-1.024120897054672E-001;1.272592344321311E-003;-3.066324861720204E-003;
2.426333333333334E+009;1.678367406129837E-001;-1.030426546931267E-001;1.073517138138413E-003;-3.233968513086438E-003;
2.426500000000000E+009;1.682689338922501E-001;-1.031307503581047E-001;1.180625054985285E-003;-3.119698725640774E-003;
2.426666666666667E+009;1.684935837984085E-001;-1.035613194108009E-001;8.896903600543737E-004;-3.097892971709371E-003;
2.426833333333334E+009;1.686945259571075E-001;-1.037372946739197E-001;9.985680226236582E-004;-3.193932585418224E-003;
2.427000000000000E+009;1.687326729297638E-001;-1.039215102791786E-001;1.023714547045529E-003;-3.234800416976214E-003;
2.427166666666667E+009;1.687332987785339E-001;-1.039521098136902E-001;9.136237786151469E-004;-3.177517559379339E-003;
2.427333333333334E+009;1.684944480657578E-001;-1.042812019586563E-001;7.274158415384591E-004;-3.294229507446289E-003;
2.427500000000000E+009;1.682188659906387E-001;-1.043152660131455E-001;7.581731770187616E-004;-3.418412758037448E-003;
2.427666666666667E+009;1.679062694311142E-001;-1.043601036071777E-001;6.557431770488620E-004;-3.500649705529213E-003;
2.427833333333334E+009;1.676395088434219E-001;-1.044631600379944E-001;7.229209295473993E-004;-3.553105285391212E-003;
