# Version 1.00
#
freq[Hz];re:Trc1_S11;im:Trc1_S11;re:Trc2_S21;im:Trc2_S21;
2.400000000000000E+009;1.552209258079529E-001;1.061294004321098E-001;-2.629157854244113E-003;1.303856144659221E-003;
2.400166666666667E+009;1.549479365348816E-001;1.038214638829231E-001;-2.736163325607777E-003;1.441039494238794E-003;
2.400333333333334E+009;1.548788547515869E-001;1.013766899704933E-001;-2.717035822570324E-003;1.621584524400532E-003;
2.400500000000000E+009;1.547986567020416E-001;9.868719428777695E-002;-2.894661156460643E-003;1.515934360213578E-003;
2.400666666666667E+009;1.548356562852860E-001;9.613525122404099E-002;-2.734707668423653E-003;1.959895482286811E-003;
2.400833333333334E+009;1.548645645380020E-001;9.332241863012314E-002;-2.916923724114895E-003;1.733714016154409E-003;
2.401000000000000E+009;1.550868600606918E-001;9.057864546775818E-002;-2.840697765350342E-003;1.960889436304569E-003;
2.401166666666667E+009;1.550847440958023E-001;8.762933313846588E-002;-2.883341629058123E-003;2.158704446628690E-003;
2.401333333333334E+009;1.555123329162598E-001;8.485393971204758E-002;-2.852286677807570E-003;2.336204284802079E-003;
2.401500000000000E+009;1.557429432868958E-001;8.194917440414429E-002;-2.841743174940348E-003;2.369187073782086E-003;
2.401666666666667E+009;1.561938971281052E-001;7.911600917577744E-002;-2.725392812862992E-003;2.642756095156074E-003;
2.401833333333334E+009;1.565704494714737E-001;7.635767012834549E-002;-2.759580733254552E-003;2.762957243248820E-003;
2.402000000000000E+009;1.574050635099411E-001;7.371313869953156E-002;-2.639960730448365E-003;2.799641340970993E-003;
2.402166666666667E+009;1.582600325345993E-001;7.123830914497376E-002;-2.515416359528899E-003;2.822151174768806E-003;
2.402333333333334E+009;1.593079119920731E-001;6.819407641887665E-002;-2.567902207374573E-003;2.994530834257603E-003;
2.402500000000000E+009;1.603808552026749E-001;6.586552411317825E-002;-2.364821964874864E-003;3.263268619775772E-003;
2.402666666666667E+009;1.614559739828110E-001;6.353957206010819E-002;-2.356106648221612E-003;3.158886451274157E-003;
2.402833333333334E+009;1.629190593957901E-001;6.101125106215477E-002;-2.257874701172113E-003;3.371512051671743E-003;
2.403000000000000E+009;1.641631275415421E-001;5.844908580183983E-002;-2.040283055976033E-003;3.580958815291524E-003;
2.403166666666667E+009;1.659144610166550E-001;5.631614848971367E-002;-1.919982954859734E-003;3.805695101618767E-003;
2.403333333333334E+009;1.674020439386368E-001;5.442450195550919E-002;-1.785237691365182E-003;3.957376815378666E-003;
2.403500000000000E+009;1.688916385173798E-001;5.222680419683456E-002;-1.571551081724465E-003;3.838584991171956E-003;
2.403666666666667E+009;1.708971112966538E-001;5.030271783471108E-002;-1.370265032164753E-003;3.989705815911293E-003;
2.403833333333334E+009;1.723969727754593E-001;4.835365340113640E-002;-1.208780333399773E-003;3.980397246778011E-003;
2.404000000000000E+009;1.739001870155335E-001;4.666312411427498E-002;-8.343440131284297E-004;4.052693955600262E-003;
2.404166666666667E+009;1.757925748825073E-001;4.519782215356827E-002;-7.613508496433497E-004;3.981730900704861E-003;
2.404333333333334E+009;1.771820187568665E-001;4.370713979005814E-002;-4.065297835040838E-004;4.181610886007547E-003;
2.404500000000000E+009;1.788908839225769E-001;4.232381284236908E-002;-1.486023829784244E-004;4.027586430311203E-003;
2.404666666666667E+009;1.806482225656509E-001;4.128356277942658E-002;5.155253529665060E-005;3.792939940467477E-003;
2.404833333333334E+009;1.822874993085861E-001;4.025651887059212E-002;1.364349445793778E-004;3.772416617721319E-003;
2.405000000000000E+009;1.835261881351471E-001;3.962503001093864E-002;3.834810922853649E-004;3.609356004744768E-003;
2.405166666666667E+009;1.850823760032654E-001;3.893855586647987E-002;4.547280550468713E-004;3.497165860608220E-003;
2.405333333333334E+009;1.864170581102371E-001;3.842337802052498E-002;6.531300605274737E-004;3.597109811380506E-003;
2.405500000000000E+009;1.878153085708618E-001;3.796854987740517E-002;6.325190770439804E-004;3.365988377481699E-003;
2.405666666666667E+009;1.891359090805054E-001;3.764850646257401E-002;6.528278463520110E-004;3.266419051215053E-003;
2.405833333333334E+009;1.903457045555115E-001;3.750608488917351E-002;6.423874292522669E-004;3.120663575828075E-003;
2.406000000000000E+009;1.912510991096497E-001;3.740365430712700E-002;6.685169646516442E-004;2.951505128294230E-003;
2.406166666666667E+009;1.923613399267197E-001;3.714953362941742E-002;8.915556245483458E-004;3.020763164386153E-003;
2.406333333333334E+009;1.932770758867264E-001;3.722004592418671E-002;8.336470928043127E-004;3.069508820772171E-003;
2.406500000000000E+009;1.940908879041672E-001;3.724744170904160E-002;9.479044238105416E-004;3.048676298931241E-003;
2.406666666666667E+009;1.944839656352997E-001;3.729042038321495E-002;1.113366684876382E-003;2.769511193037033E-003;
2.406833333333334E+009;1.951329112052918E-001;3.722027689218521E-002;9.244194952771068E-004;2.839010907337070E-003;
2.407000000000000E+009;1.952757537364960E-001;3.762017190456390E-002;1.210727496072650E-003;2.802507020533085E-003;
2.407166666666667E+009;1.958145499229431E-001;3.757931292057037E-002;1.209712354466319E-003;2.761637559160590E-003;
2.407333333333334E+009;1.957064867019653E-001;3.763068467378616E-002;1.428907038643956E-003;2.634987235069275E-003;
2.407500000000000E+009;1.956841498613358E-001;3.780566900968552E-002;1.311818254180253E-003;2.519350498914719E-003;
2.407666666666667E+009;1.957043856382370E-001;3.774971887469292E-002;1.335379667580128E-003;2.281725406646729E-003;
2.407833333333334E+009;1.951463818550110E-001;3.766787052154541E-002;1.488649519160390E-003;2.193854888901115E-003;
2.408000000000000E+009;1.951060444116592E-001;3.759028017520905E-002;1.397210522554815E-003;2.128022955730557E-003;
2.408166666666667E+009;1.944548338651657E-001;3.721076622605324E-002;1.421631895937026E-003;2.196221146732569E-003;
2.408333333333334E+009;1.939668804407120E-001;3.680525720119476E-002;1.400967128574848E-003;2.048041438683868E-003;
2.408500000000000E+009;1.933166086673737E-001;3.657339140772820E-002;1.566110178828239E-003;1.883273012936115E-003;
2.408666666666667E+009;1.925818771123886E-001;3.601028770208359E-002;1.321591204032302E-003;1.886598183773458E-003;
2.408833333333334E+009;1.918909400701523E-001;3.523945435881615E-002;1.346343196928501E-003;1.733409590087831E-003;
2.409000000000000E+009;1.910082250833511E-001;3.446163982152939E-002;1.408079755492508E-003;1.720272586680949E-003;
2.409166666666667E+009;1.900174915790558E-001;3.348688408732414E-002;1.273913541808724E-003;1.593986875377595E-003;
2.409333333333334E+009;1.891583800315857E-001;3.242609277367592E-002;1.221913378685713E-003;1.567193539813161E-003;
2.409500000000000E+009;1.880522221326828E-001;3.120005875825882E-002;1.101569738239050E-003;1.686623203568161E-003;
2.409666666666667E+009;1.870709955692291E-001;2.980989776551724E-002;1.172766787931323E-003;1.595537760294974E-003;
2.409833333333334E+009;1.860070675611496E-001;2.835298888385296E-002;1.042188843712211E-003;1.608351711183786E-003;
2.410000000000000E+009;1.849723458290100E-001;2.673761546611786E-002;1.073417020961642E-003;1.514372997917235E-003;
2.410166666666667E+009;1.839661896228790E-001;2.486031688749790E-002;1.082510105334222E-003;1.767845009453595E-003;
2.410333333333334E+009;1.831060796976090E-001;2.297221496701241E-002;1.092337770387530E-003;1.695857965387404E-003;
2.410500000000000E+009;1.820547133684158E-001;2.100121229887009E-002;1.071895007044077E-003;1.610707375220954E-003;
2.410666666666667E+009;1.812862604856491E-001;1.871963590383530E-002;1.189159927889705E-003;1.693419530056417E-003;
2.410833333333334E+009;1.804189831018448E-001;1.658743992447853E-002;1.092752674594522E-003;1.525818137452006E-003;
2.411000000000000E+009;1.795283108949661E-001;1.446423027664423E-002;1.230655238032341E-003;1.651576021686196E-003;
2.411166666666667E+009;1.790686100721359E-001;1.234136335551739E-002;1.276978990063071E-003;1.560817938297987E-003;
2.411333333333334E+009;1.784785091876984E-001;9.793303906917572E-003;1.343970187008381E-003;1.758020953275263E-003;
2.411500000000000E+009;1.780124157667160E-001;7.361014373600483E-003;1.186373527161777E-003;1.645869226194918E-003;
2.411666666666667E+009;1.777088791131973E-001;5.002557765692473E-003;1.239340635947883E-003;1.629993785172701E-003;
2.411833333333334E+009;1.774606406688690E-001;2.653902862221003E-003;1.232708222232759E-003;1.455607009120286E-003;
2.412000000000000E+009;1.776865273714066E-001;4.770155283040367E-005;1.167522743344307E-003;1.569986459799111E-003;
2.412166666666667E+009;1.778091043233872E-001;-2.256811829283834E-003;1.118553802371025E-003;1.408464973792434E-003;
2.412333333333334E+009;1.781041175127029E-001;-4.689120687544346E-003;1.162398140877485E-003;1.417962601408362E-003;
2.412500000000000E+009;1.784993857145309E-001;-7.171218749135733E-003;1.068449928425252E-003;1.395052531734109E-003;
2.412666666666667E+009;1.789129078388214E-001;-9.687320329248905E-003;1.078932080417872E-003;1.513949478976429E-003;
2.412833333333334E+009;1.797123849391937E-001;-1.215306762605906E-002;9.553559939377010E-004;1.579056493937969E-003;
2.413000000000000E+009;1.806107908487320E-001;-1.430482510477305E-002;8.534818189218640E-004;1.654515159316361E-003;
2.413166666666667E+009;1.813009977340698E-001;-1.667087525129318E-002;9.138787863776088E-004;1.856695627793670E-003;
2.413333333333334E+009;1.822691857814789E-001;-1.902691647410393E-002;1.013597822748125E-003;1.781726954504848E-003;
2.413500000000000E+009;1.832758784294128E-001;-2.112275362014771E-002;9.127247612923384E-004;1.892945729196072E-003;
2.413666666666667E+009;1.844555437564850E-001;-2.339787222445011E-002;1.023269142024219E-003;2.004922600463033E-003;
2.413833333333334E+009;1.856954544782639E-001;-2.528299763798714E-002;1.050360035151243E-003;2.086254535242915E-003;
2.414000000000000E+009;1.866542845964432E-001;-2.746745757758617E-002;1.299352617934346E-003;2.258442807942629E-003;
2.414166666666667E+009;1.878749728202820E-001;-2.921438962221146E-002;1.628084923140705E-003;2.045628847554326E-003;
2.414333333333334E+009;1.889986693859100E-001;-3.113424777984619E-002;1.556294388137758E-003;2.065654844045639E-003;
2.414500000000000E+009;1.903911828994751E-001;-3.243786469101906E-002;1.615697285160422E-003;2.131005283445120E-003;
2.414666666666667E+009;1.916014552116394E-001;-3.389705345034599E-002;1.806077314540744E-003;2.202138071879745E-003;
2.414833333333334E+009;1.928260624408722E-001;-3.535356000065804E-002;1.858094474300742E-003;2.069822046905756E-003;
2.415000000000000E+009;1.937954276800156E-001;-3.658481314778328E-002;1.976158702746034E-003;2.014355966821313E-003;
2.415166666666667E+009;1.951718777418137E-001;-3.762807697057724E-002;2.097656484693289E-003;2.039909828454256E-003;
2.415333333333334E+009;1.963244527578354E-001;-3.862293437123299E-002;2.075760392472148E-003;2.091678790748119E-003;
2.415500000000000E+009;1.974133849143982E-001;-3.937406092882156E-002;2.187734236940742E-003;1.972260419279337E-003;
2.415666666666667E+009;1.983325630426407E-001;-4.016733914613724E-002;2.319978550076485E-003;2.018864499405026E-003;
2.415833333333334E+009;1.993223279714584E-001;-4.065079614520073E-002;2.431359142065048E-003;2.064361236989498E-003;
2.416000000000000E+009;2.001045495271683E-001;-4.128562286496162E-002;2.492844359949231E-003;2.083804691210389E-003;
2.416166666666667E+009;2.008986920118332E-001;-4.177374765276909E-002;2.426643157377839E-003;1.994588645175099E-003;
2.416333333333334E+009;2.013653367757797E-001;-4.201987013220787E-002;2.699110889807344E-003;1.830430002883077E-003;
2.416500000000000E+009;2.019354104995728E-001;-4.206860810518265E-002;2.886017551645637E-003;1.923432340845466E-003;
2.416666666666667E+009;2.023206800222397E-001;-4.238029941916466E-002;3.029779065400362E-003;1.901163253933191E-003;
2.416833333333334E+009;2.023997157812119E-001;-4.243487119674683E-002;3.192081116139889E-003;1.692996709607542E-003;
2.417000000000000E+009;2.025617361068726E-001;-4.256724193692207E-002;3.174002515152097E-003;1.709781819954515E-003;
2.417166666666667E+009;2.023150622844696E-001;-4.235069081187248E-002;3.404445247724652E-003;1.581814372912049E-003;
2.417333333333334E+009;2.021735161542893E-001;-4.218017309904099E-002;3.537870710715652E-003;1.429244177415967E-003;
2.417500000000000E+009;2.018619626760483E-001;-4.217310249805450E-002;3.683243645355105E-003;1.312799402512610E-003;
2.417666666666667E+009;2.013820111751556E-001;-4.191134870052338E-002;3.699566470459104E-003;1.093445462174714E-003;
2.417833333333334E+009;2.009874135255814E-001;-4.164520278573036E-002;3.853083122521639E-003;9.323411504738033E-004;
2.418000000000000E+009;2.003071308135986E-001;-4.131263867020607E-002;3.960863221436739E-003;7.624041172675788E-004;
2.418166666666667E+009;1.995609402656555E-001;-4.124814644455910E-002;4.038083367049694E-003;5.781460204161704E-004;
2.418333333333334E+009;1.985434144735336E-001;-4.107896983623505E-002;4.006553441286087E-003;4.704215971287340E-004;
2.418500000000000E+009;1.976730674505234E-001;-4.113977029919624E-002;4.066568799316883E-003;3.484588814899325E-004;
2.418666666666667E+009;1.967993974685669E-001;-4.102300852537155E-002;4.133926704525948E-003;7.866271334933117E-005;
2.418833333333334E+009;1.955417990684509E-001;-4.112228006124497E-002;4.061405546963215E-003;1.694532984402031E-004;
2.419000000000000E+009;1.942299753427506E-001;-4.134703427553177E-002;4.060147795826197E-003;-2.703632635530084E-004;
2.419166666666667E+009;1.931188106536865E-001;-4.180197045207024E-002;4.003084730356932E-003;-2.359089558012784E-004;
2.419333333333334E+009;1.915959864854813E-001;-4.221693426370621E-002;3.937224857509136E-003;-4.603504785336554E-004;
2.419500000000000E+009;1.901579946279526E-001;-4.267726838588715E-002;4.006024450063705E-003;-7.188582676462829E-004;
2.419666666666667E+009;1.885422915220261E-001;-4.355372115969658E-002;4.002017900347710E-003;-6.499089067801833E-004;
2.419833333333334E+009;1.870327144861221E-001;-4.421406239271164E-002;3.933203406631947E-003;-7.013524882495403E-004;
2.420000000000000E+009;1.854293644428253E-001;-4.517649486660957E-002;3.760059829801321E-003;-8.342118817381561E-004;
2.420166666666667E+009;1.838425546884537E-001;-4.602063447237015E-002;3.843786893412471E-003;-9.870260255411267E-004;
2.420333333333334E+009;1.821551322937012E-001;-4.726902768015862E-002;3.712446196004748E-003;-9.981099283322692E-004;
2.420500000000000E+009;1.806074380874634E-001;-4.860990121960640E-002;3.729757620021701E-003;-1.156802289187908E-003;
2.420666666666667E+009;1.789805442094803E-001;-4.971553385257721E-002;3.751474665477872E-003;-1.250632922165096E-003;
2.420833333333334E+009;1.773854196071625E-001;-5.142627656459808E-002;3.689726116135716E-003;-1.384553150273860E-003;
2.421000000000000E+009;1.758931130170822E-001;-5.296023562550545E-002;3.754629287868738E-003;-1.487083849497140E-003;
2.421166666666667E+009;1.744563281536102E-001;-5.476198717951775E-002;3.666273783892393E-003;-1.560502452775836E-003;
2.421333333333334E+009;1.728299558162689E-001;-5.627098679542542E-002;3.625288838520646E-003;-1.666086493059993E-003;
2.421500000000000E+009;1.716514676809311E-001;-5.827363207936287E-002;3.577120602130890E-003;-1.815220573917031E-003;
2.421666666666667E+009;1.704454720020294E-001;-6.006113439798355E-002;3.751497948542237E-003;-2.088446402922273E-003;
2.421833333333334E+009;1.693180352449417E-001;-6.194112449884415E-002;3.548702225089073E-003;-2.119063166901469E-003;
2.422000000000000E+009;1.681211441755295E-001;-6.388266384601593E-002;3.421616274863482E-003;-2.261054469272494E-003;
2.422166666666667E+009;1.673987209796906E-001;-6.616906076669693E-002;3.334663575515151E-003;-2.451730426400900E-003;
2.422333333333334E+009;1.662949770689011E-001;-6.814257055521011E-002;3.287070896476507E-003;-2.544618211686611E-003;
2.422500000000000E+009;1.655786335468292E-001;-7.024387270212174E-002;3.167902585119009E-003;-2.673682756721973E-003;
2.422666666666667E+009;1.647677421569824E-001;-7.226657867431641E-002;3.086200216785073E-003;-2.799807814881206E-003;
2.422833333333334E+009;1.645936667919159E-001;-7.442130893468857E-002;2.878172788769007E-003;-2.848058007657528E-003;
2.423000000000000E+009;1.639201939105988E-001;-7.641264796257019E-002;2.779361093416810E-003;-2.889713505282998E-003;
2.423166666666667E+009;1.637853831052780E-001;-7.848849147558212E-002;2.711329143494368E-003;-2.942326478660107E-003;
2.423333333333334E+009;1.635292172431946E-001;-8.046223968267441E-002;2.437808318063617E-003;-2.957647666335106E-003;
2.423500000000000E+009;1.634685397148132E-001;-8.245429396629334E-002;2.270108787342906E-003;-3.074631793424487E-003;
2.423666666666667E+009;1.634594500064850E-001;-8.449438959360123E-002;2.181758638471365E-003;-3.111042780801654E-003;
2.423833333333334E+009;1.634081602096558E-001;-8.622076362371445E-002;1.990446588024497E-003;-3.078194567933679E-003;
2.424000000000000E+009;1.635881960391998E-001;-8.810099959373474E-002;1.807108405046165E-003;-3.042123978957534E-003;
2.424166666666667E+009;1.634879857301712E-001;-8.972010016441345E-002;1.798471552319825E-003;-2.836814150214195E-003;
2.424333333333334E+009;1.638985425233841E-001;-9.132499992847443E-002;1.650991267524660E-003;-3.067521378397942E-003;
2.424500000000000E+009;1.642103046178818E-001;-9.311360120773315E-002;1.668694894760847E-003;-3.189597046002746E-003;
2.424666666666667E+009;1.644700616598129E-001;-9.460619837045670E-002;1.568998210132122E-003;-3.034635446965694E-003;
2.424833333333334E+009;1.649209856987000E-001;-9.577856212854385E-002;1.460078638046980E-003;-2.907060319557786E-003;
2.425000000000000E+009;1.652370095252991E-001;-9.696412831544876E-002;1.410869299434125E-003;-3.019872820004821E-003;
2.425166666666667E+009;1.655082255601883E-001;-9.804577380418778E-002;1.502441824413836E-003;-3.107511904090643E-003;
2.425333333333334E+009;1.659352481365204E-001;-9.908144921064377E-002;1.305692479945719E-003;-3.087304765358567E-003;
2.425500000000000E+009;1.663706898689270E-001;-9.999095648527145E-002;1.314833178184927E-003;-2.914585638791323E-003;
2.425666666666667E+009;1.668134182691574E-001;-1.006674990057945E-001;1.176047255285084E-003;-3.059906652197242E-003;
2.425833333333334E+009;1.670522540807724E-001;-1.014595255255699E-001;1.239617471583188E-003;-3.023308934643865E-003;
2.426000000000000E+009;1.674260050058365E-001;-1.018553003668785E-001;1.026257523335517E-003;-2.985620172694325E-003;
2.426166666666667E+009;1.678269505500794E-001;-1.024198308587074E-001;9.938005823642016E-004;-3.093830542638898E-003;
2.426333333333334E+009;1.679590940475464E-001;-1.029328331351280E-001;1.175050972960889E-003;-3.003656864166260E-003;
2.426500000000000E+009;1.683611720800400E-001;-1.033211275935173E-001;1.024536555632949E-003;-3.164314199239016E-003;
2.426666666666667E+009;1.685177832841873E-001;-1.034785434603691E-001;1.000924617983401E-003;-3.104503266513348E-003;
2.426833333333334E+009;1.687232553958893E-001;-1.038282513618469E-001;9.454398532398045E-004;-3.072303254157305E-003;
2.427000000000000E+009;1.687418669462204E-001;-1.039501950144768E-001;9.190813871100545E-004;-3.103279974311590E-003;
2.427166666666667E+009;1.687484532594681E-001;-1.039739474654198E-001;6.636198959313333E-004;-3.227247158065438E-003;
2.427333333333334E+009;1.684813648462296E-001;-1.042915806174278E-001;8.379617938771844E-004;-3.277184441685677E-003;
2.427500000000000E+009;1.683166772127152E-001;-1.044276654720306E-001;8.111916831694543E-004;-3.151045413687825E-003;
2.427666666666667E+009;1.680100113153458E-001;-1.043740063905716E-001;6.798130925744772E-004;-3.408860880881548E-003;
2.427833333333334E+009;1.676028817892075E-001;-1.045325547456741E-001;6.615848396904767E-004;-3.316775429993868E-003;
