# Version 1.00
#
freq[Hz];re:Trc1_S11;im:Trc1_S11;re:Trc2_S21;im:Trc2_S21;
2.400000000000000E+009;1.555021256208420E-001;1.069908961653709E-001;-1.821460784412921E-003;5.344875389710069E-004;
2.400166666666667E+009;1.552638709545136E-001;1.044619530439377E-001;-2.001934219151735E-003;1.572025590576232E-003;
2.400333333333334E+009;1.554162353277206E-001;1.020683348178864E-001;-3.493662690743804E-003;1.044478267431259E-003;
2.400500000000000E+009;1.554097682237625E-001;9.935911744832993E-002;-3.138819243758917E-003;1.715399092063308E-003;
2.400666666666667E+009;1.554147601127625E-001;9.664701670408249E-002;-2.786623779684305E-003;1.694012084044516E-003;
2.400833333333334E+009;1.554348915815353E-001;9.394583106040955E-002;-2.928441390395165E-003;1.727210241369903E-003;
2.401000000000000E+009;1.553553938865662E-001;9.092256426811218E-002;-2.887167036533356E-003;2.008425537496805E-003;
2.401166666666667E+009;1.556560099124908E-001;8.817304670810700E-002;-2.941065002232790E-003;2.033212454989553E-003;
2.401333333333334E+009;1.560067832469940E-001;8.527652919292450E-002;-2.976820105686784E-003;2.336760982871056E-003;
2.401500000000000E+009;1.562676578760147E-001;8.247957378625870E-002;-2.771251369267702E-003;2.250541467219591E-003;
2.401666666666667E+009;1.565407812595367E-001;7.950561493635178E-002;-2.812678460031748E-003;2.365236636251211E-003;
2.401833333333334E+009;1.572304069995880E-001;7.660862803459168E-002;-2.676801290363073E-003;2.587112830951810E-003;
2.402000000000000E+009;1.579099297523499E-001;7.381280511617661E-002;-2.600269159302115E-003;2.627378329634666E-003;
2.402166666666667E+009;1.588111668825150E-001;7.131751626729965E-002;-2.586336806416512E-003;2.736097201704979E-003;
2.402333333333334E+009;1.595664173364639E-001;6.857567280530930E-002;-2.301108557730913E-003;2.902951324358583E-003;
2.402500000000000E+009;1.608913987874985E-001;6.592912971973419E-002;-2.374547999352217E-003;2.998278476297855E-003;
2.402666666666667E+009;1.620787233114243E-001;6.370058655738831E-002;-2.373792463913560E-003;3.205993678420782E-003;
2.402833333333334E+009;1.631577163934708E-001;6.115010753273964E-002;-2.181286225095391E-003;3.227957757189870E-003;
2.403000000000000E+009;1.646248400211334E-001;5.885671451687813E-002;-2.034836681559682E-003;3.168897703289986E-003;
2.403166666666667E+009;1.664637625217438E-001;5.657187849283218E-002;-1.980946864932776E-003;3.449237672612071E-003;
2.403333333333334E+009;1.676952540874481E-001;5.432314798235893E-002;-1.640352886170149E-003;3.631637664511800E-003;
2.403500000000000E+009;1.694618463516235E-001;5.225073546171188E-002;-1.738567603752017E-003;3.663127776235342E-003;
2.403666666666667E+009;1.713061630725861E-001;5.043994635343552E-002;-1.476454315707088E-003;3.839165205135942E-003;
2.403833333333334E+009;1.728799790143967E-001;4.847546294331551E-002;-1.283684396184981E-003;3.966250456869602E-003;
2.404000000000000E+009;1.741939485073090E-001;4.675803333520889E-002;-9.650348220020533E-004;3.766587469726801E-003;
2.404166666666667E+009;1.762376278638840E-001;4.530089348554611E-002;-7.195400539785624E-004;3.794518532231450E-003;
2.404333333333334E+009;1.778337061405182E-001;4.370995238423348E-002;-4.744535835925490E-004;3.860989818349481E-003;
2.404500000000000E+009;1.794765740633011E-001;4.230357334017754E-002;-4.363108600955457E-004;3.825692925602198E-003;
2.404666666666667E+009;1.809452623128891E-001;4.124293103814125E-002;-3.560267505235970E-004;3.687774064019322E-003;
2.404833333333334E+009;1.827435493469238E-001;4.013859108090401E-002;-1.305908081121743E-004;3.824662184342742E-003;
2.405000000000000E+009;1.840645074844360E-001;3.938907757401466E-002;1.640427763049956E-005;3.648538142442703E-003;
2.405166666666667E+009;1.855338215827942E-001;3.875863179564476E-002;1.219206387759186E-004;3.417590633034706E-003;
2.405333333333334E+009;1.869897693395615E-001;3.831925615668297E-002;1.568284351378679E-004;3.497686469927430E-003;
2.405500000000000E+009;1.883069872856140E-001;3.782745078206062E-002;2.454155765008181E-004;3.332948777824640E-003;
2.405666666666667E+009;1.894463002681732E-001;3.738715499639511E-002;3.820206038653851E-004;3.133398480713368E-003;
2.405833333333334E+009;1.908311396837235E-001;3.713963180780411E-002;4.638933460228145E-004;3.218077355995774E-003;
2.406000000000000E+009;1.918067038059235E-001;3.702520579099655E-002;5.423416732810438E-004;3.227410605177283E-003;
2.406166666666667E+009;1.926773935556412E-001;3.680436313152313E-002;5.146464682184160E-004;3.118678927421570E-003;
2.406333333333334E+009;1.936206519603729E-001;3.690834715962410E-002;6.817093817517161E-004;3.198097459971905E-003;
2.406500000000000E+009;1.944098621606827E-001;3.683065250515938E-002;6.299723172560334E-004;3.117889631539583E-003;
2.406666666666667E+009;1.949204802513123E-001;3.704519942402840E-002;8.230383973568678E-004;2.965848892927170E-003;
2.406833333333334E+009;1.954991817474365E-001;3.706567361950874E-002;8.301940397359431E-004;2.967925509437919E-003;
2.407000000000000E+009;1.956801861524582E-001;3.722213953733444E-002;8.109159534797072E-004;2.888835966587067E-003;
2.407166666666667E+009;1.960727274417877E-001;3.712471947073937E-002;1.124299946241081E-003;2.901983447372913E-003;
2.407333333333334E+009;1.959877610206604E-001;3.728264942765236E-002;1.252864138223231E-003;2.829526783898473E-003;
2.407500000000000E+009;1.958872228860855E-001;3.741639479994774E-002;1.255427137948573E-003;2.717790193855763E-003;
2.407666666666667E+009;1.959008127450943E-001;3.743135556578636E-002;1.126513467170298E-003;2.551382174715400E-003;
2.407833333333334E+009;1.954019218683243E-001;3.731636330485344E-002;1.298359013162553E-003;2.534361323341727E-003;
2.408000000000000E+009;1.952034980058670E-001;3.723492473363876E-002;1.198331359773874E-003;2.565683797001839E-003;
2.408166666666667E+009;1.945987939834595E-001;3.703721612691879E-002;1.330284867435694E-003;2.355066826567054E-003;
2.408333333333334E+009;1.942429095506668E-001;3.647938370704651E-002;1.304865465499461E-003;2.386201173067093E-003;
2.408500000000000E+009;1.935805529356003E-001;3.627102077007294E-002;1.259540789760649E-003;2.293509896844626E-003;
2.408666666666667E+009;1.929221302270889E-001;3.588244318962097E-002;1.242827624082565E-003;2.131249522790313E-003;
2.408833333333334E+009;1.922464072704315E-001;3.501340374350548E-002;1.234818133525550E-003;2.188810845836997E-003;
2.409000000000000E+009;1.914305090904236E-001;3.418566286563873E-002;1.263234298676252E-003;1.969720469787717E-003;
2.409166666666667E+009;1.902879923582077E-001;3.316565975546837E-002;1.179390237666667E-003;1.872139633633196E-003;
2.409333333333334E+009;1.893711537122726E-001;3.228830546140671E-002;1.263105194084346E-003;2.056758385151625E-003;
2.409500000000000E+009;1.883032470941544E-001;3.099464252591133E-002;1.049481332302094E-003;2.088544657453895E-003;
2.409666666666667E+009;1.873935014009476E-001;2.946890704333782E-002;1.010941574349999E-003;1.842185272835195E-003;
2.409833333333334E+009;1.863191723823547E-001;2.812237665057182E-002;1.098211156204343E-003;2.012964803725481E-003;
2.410000000000000E+009;1.853680908679962E-001;2.651614136993885E-002;1.038931659422815E-003;1.897356123663485E-003;
2.410166666666667E+009;1.842732280492783E-001;2.470179460942745E-002;1.076869084499776E-003;2.074602991342545E-003;
2.410333333333334E+009;1.831987351179123E-001;2.279585786163807E-002;1.104286406189203E-003;2.086789114400744E-003;
2.410500000000000E+009;1.823255866765976E-001;2.081098407506943E-002;1.010790234431624E-003;2.118614269420505E-003;
2.410666666666667E+009;1.813477873802185E-001;1.865346729755402E-002;1.144787995144725E-003;2.031167503446341E-003;
2.410833333333334E+009;1.808227151632309E-001;1.647740043699741E-002;1.271349960006774E-003;2.288129879161716E-003;
2.411000000000000E+009;1.800033301115036E-001;1.407056022435427E-002;1.283945981413126E-003;1.961203757673502E-003;
2.411166666666667E+009;1.792364865541458E-001;1.196734141558409E-002;1.223448081873357E-003;1.977405743673444E-003;
2.411333333333334E+009;1.786697655916214E-001;9.390029124915600E-003;1.366959651932120E-003;2.127285581082106E-003;
2.411500000000000E+009;1.783304214477539E-001;7.177500519901514E-003;1.336772693321109E-003;1.903214724734426E-003;
2.411666666666667E+009;1.781069040298462E-001;4.689984489232302E-003;1.409649034030736E-003;1.953058992512524E-003;
2.411833333333334E+009;1.777772456407547E-001;2.368786605075002E-003;1.475994824431837E-003;1.863488578237593E-003;
2.412000000000000E+009;1.779772192239761E-001;-3.050392551813275E-004;1.412666868418455E-003;1.775591983459890E-003;
2.412166666666667E+009;1.779288947582245E-001;-2.608371665701270E-003;1.331249368377030E-003;2.076835604384542E-003;
2.412333333333334E+009;1.781344115734100E-001;-5.050608888268471E-003;1.375684514641762E-003;1.980803441256285E-003;
2.412500000000000E+009;1.785997599363327E-001;-7.493987213820219E-003;1.280074007809162E-003;1.875467714853585E-003;
2.412666666666667E+009;1.790775805711746E-001;-1.002804748713970E-002;1.347273006103933E-003;1.744210137985647E-003;
2.412833333333334E+009;1.799512356519699E-001;-1.244088821113110E-002;1.290470710955560E-003;1.943736453540623E-003;
2.413000000000000E+009;1.805886775255203E-001;-1.469543110579252E-002;1.366490148939192E-003;2.045155037194490E-003;
2.413166666666667E+009;1.814042031764984E-001;-1.707299053668976E-002;1.441101427190006E-003;2.189431339502335E-003;
2.413333333333334E+009;1.824938505887985E-001;-1.949739642441273E-002;1.497505232691765E-003;2.203803276643157E-003;
2.413500000000000E+009;1.832228600978851E-001;-2.152131497859955E-002;1.613924396224320E-003;2.129159867763519E-003;
2.413666666666667E+009;1.844901889562607E-001;-2.380625344812870E-002;1.671646838076413E-003;2.238351618871093E-003;
2.413833333333334E+009;1.856780499219894E-001;-2.586389146745205E-002;1.783443032763898E-003;2.284268382936716E-003;
2.414000000000000E+009;1.866073906421661E-001;-2.770808152854443E-002;1.870538806542754E-003;2.236637054011226E-003;
2.414166666666667E+009;1.879149079322815E-001;-2.948576025664806E-002;2.086118794977665E-003;2.305634785443544E-003;
2.414333333333334E+009;1.890951097011566E-001;-3.156873211264610E-002;2.089007990434766E-003;2.268196316435933E-003;
2.414500000000000E+009;1.903601437807083E-001;-3.304620832204819E-002;2.278874861076474E-003;2.164098666980863E-003;
2.414666666666667E+009;1.916377097368240E-001;-3.444337099790573E-002;2.428466221317649E-003;2.175844041630626E-003;
2.414833333333334E+009;1.927074790000916E-001;-3.585121780633926E-002;2.444803249090910E-003;2.051263814792037E-003;
2.415000000000000E+009;1.939232796430588E-001;-3.718650341033936E-002;2.506131073459983E-003;1.961553236469626E-003;
2.415166666666667E+009;1.950907111167908E-001;-3.818254545331001E-002;2.560884691774845E-003;1.939052715897560E-003;
2.415333333333334E+009;1.961725056171417E-001;-3.911677747964859E-002;2.658602548763156E-003;1.877810456790030E-003;
2.415500000000000E+009;1.972237229347229E-001;-3.992519155144692E-002;2.741888631135225E-003;1.759790000505745E-003;
2.415666666666667E+009;1.983621120452881E-001;-4.075751826167107E-002;2.856486709788442E-003;1.661377842538059E-003;
2.415833333333334E+009;1.991312801837921E-001;-4.125129804015160E-002;2.909496426582336E-003;1.606075209565461E-003;
2.416000000000000E+009;1.999781727790833E-001;-4.182170331478119E-002;2.873708726838231E-003;1.633592532016337E-003;
2.416166666666667E+009;2.006086558103561E-001;-4.242905601859093E-002;3.037746762856841E-003;1.553209149278700E-003;
2.416333333333334E+009;2.011885344982147E-001;-4.269354417920113E-002;3.141192020848393E-003;1.520933117717505E-003;
2.416500000000000E+009;2.017588317394257E-001;-4.291247949004173E-002;3.284701611846685E-003;1.460662111639977E-003;
2.416666666666667E+009;2.019173204898834E-001;-4.324641451239586E-002;3.376551438122988E-003;1.487863948568702E-003;
2.416833333333334E+009;2.020731717348099E-001;-4.315003380179405E-002;3.393486374989152E-003;1.558143878355622E-003;
2.417000000000000E+009;2.022216916084290E-001;-4.331196099519730E-002;3.679187735542655E-003;1.234310097061098E-003;
2.417166666666667E+009;2.018747627735138E-001;-4.294671490788460E-002;3.863766556605697E-003;1.143659115768969E-003;
2.417333333333334E+009;2.015022486448288E-001;-4.278792440891266E-002;3.692897502332926E-003;9.781443513929844E-004;
2.417500000000000E+009;2.012710720300674E-001;-4.280912131071091E-002;3.904587123543024E-003;8.135358802974224E-004;
2.417666666666667E+009;2.007739096879959E-001;-4.247212037444115E-002;3.932112827897072E-003;7.064905948936939E-004;
2.417833333333334E+009;2.003794610500336E-001;-4.236062616109848E-002;3.935478162020445E-003;6.029386422596872E-004;
2.418000000000000E+009;1.997719407081604E-001;-4.202000424265862E-002;4.011104349046946E-003;3.005401813425124E-004;
2.418166666666667E+009;1.988325566053391E-001;-4.196020588278770E-002;3.936855122447014E-003;2.790286380331963E-004;
2.418333333333334E+009;1.979702562093735E-001;-4.166501015424728E-002;4.079891834408045E-003;-1.969870572793298E-005;
2.418500000000000E+009;1.968662887811661E-001;-4.160486534237862E-002;3.903198521584272E-003;-6.612916331505403E-005;
2.418666666666667E+009;1.959628015756607E-001;-4.151864722371101E-002;3.828205866739154E-003;-1.898045738926157E-004;
2.418833333333334E+009;1.946943104267120E-001;-4.161790758371353E-002;4.021504893898964E-003;-2.722228819038719E-004;
2.419000000000000E+009;1.933955550193787E-001;-4.185840860009193E-002;3.934058826416731E-003;-4.670986381825060E-004;
2.419166666666667E+009;1.921337395906448E-001;-4.210596159100533E-002;3.778968006372452E-003;-6.115304422564805E-004;
2.419333333333334E+009;1.907377392053604E-001;-4.256881400942802E-002;3.712385427206755E-003;-7.048830157145858E-004;
2.419500000000000E+009;1.893430352210999E-001;-4.293547198176384E-002;3.620362607762218E-003;-9.602928766980767E-004;
2.419666666666667E+009;1.876089572906494E-001;-4.385221004486084E-002;3.721378510817885E-003;-9.986680233851075E-004;
2.419833333333334E+009;1.860425621271133E-001;-4.438212886452675E-002;3.617437789216638E-003;-1.036380301229656E-003;
2.420000000000000E+009;1.844683736562729E-001;-4.524317383766174E-002;3.628268605098128E-003;-1.093366998247802E-003;
2.420166666666667E+009;1.827948093414307E-001;-4.622273147106171E-002;3.595598973333836E-003;-1.179137034341693E-003;
2.420333333333334E+009;1.811991035938263E-001;-4.732573777437210E-002;3.613161854445934E-003;-1.279094023630023E-003;
2.420500000000000E+009;1.794142723083496E-001;-4.871225729584694E-002;3.509510541334748E-003;-1.373892067931593E-003;
2.420666666666667E+009;1.778645068407059E-001;-4.970812425017357E-002;3.571430919691920E-003;-1.505164662376046E-003;
2.420833333333334E+009;1.761915236711502E-001;-5.130564421415329E-002;3.308197250589728E-003;-1.636134693399072E-003;
2.421000000000000E+009;1.748911440372467E-001;-5.295089259743691E-002;3.454618621617556E-003;-1.586222671903670E-003;
2.421166666666667E+009;1.734476238489151E-001;-5.434658378362656E-002;3.359026741236448E-003;-1.663173898123205E-003;
2.421333333333334E+009;1.718129813671112E-001;-5.614114180207253E-002;3.385629970580339E-003;-1.895157503895462E-003;
2.421500000000000E+009;1.705511212348938E-001;-5.800687521696091E-002;3.404586808755994E-003;-2.048816066235304E-003;
2.421666666666667E+009;1.693269759416580E-001;-5.974468961358070E-002;3.332560416311026E-003;-2.105779247358441E-003;
2.421833333333334E+009;1.681031435728073E-001;-6.174260005354881E-002;3.188702045008540E-003;-2.162450226023793E-003;
2.422000000000000E+009;1.671190708875656E-001;-6.350510567426682E-002;3.010710002854466E-003;-2.346433000639081E-003;
2.422166666666667E+009;1.662705838680267E-001;-6.570310890674591E-002;3.133036894723773E-003;-2.322793006896973E-003;
2.422333333333334E+009;1.653721630573273E-001;-6.760343909263611E-002;3.021274227648974E-003;-2.611666219308972E-003;
2.422500000000000E+009;1.645652055740356E-001;-6.956586986780167E-002;2.847636817023158E-003;-2.711830427870154E-003;
2.422666666666667E+009;1.638986617326737E-001;-7.170528173446655E-002;2.730478066951037E-003;-2.707564504817128E-003;
2.422833333333334E+009;1.636079102754593E-001;-7.364946603775024E-002;2.496429253369570E-003;-2.889492083340883E-003;
2.423000000000000E+009;1.629975289106369E-001;-7.583582401275635E-002;2.422440331429243E-003;-2.925019012764096E-003;
2.423166666666667E+009;1.627789586782455E-001;-7.776338607072830E-002;2.352361567318440E-003;-2.934522926807404E-003;
2.423333333333334E+009;1.626396477222443E-001;-7.975055277347565E-002;2.285699360072613E-003;-2.934446325525641E-003;
2.423500000000000E+009;1.626693904399872E-001;-8.162996917963028E-002;2.107365755364299E-003;-2.827068092301488E-003;
2.423666666666667E+009;1.626598238945007E-001;-8.361562341451645E-002;1.935402513481677E-003;-2.871124306693673E-003;
2.423833333333334E+009;1.626248955726624E-001;-8.538044989109039E-002;1.762761385180056E-003;-2.785851946100593E-003;
2.424000000000000E+009;1.628734171390533E-001;-8.705797791481018E-002;1.698401290923357E-003;-2.866302849724889E-003;
2.424166666666667E+009;1.628724336624146E-001;-8.862513303756714E-002;1.553446170873940E-003;-2.933231182396412E-003;
2.424333333333334E+009;1.632513999938965E-001;-9.026464819908142E-002;1.643832656554878E-003;-2.892012009397149E-003;
2.424500000000000E+009;1.636478453874588E-001;-9.211492538452148E-002;1.513265538960695E-003;-2.875295234844089E-003;
2.424666666666667E+009;1.639671325683594E-001;-9.355146437883377E-002;1.507745706476271E-003;-2.795958658680320E-003;
2.424833333333334E+009;1.646088957786560E-001;-9.469275176525116E-002;1.360398833639920E-003;-2.923157997429371E-003;
2.425000000000000E+009;1.650297939777374E-001;-9.598077833652496E-002;1.375032006762922E-003;-2.939370926469564E-003;
2.425166666666667E+009;1.653387397527695E-001;-9.705068916082382E-002;1.223474857397378E-003;-2.958302618935704E-003;
2.425333333333334E+009;1.657813191413879E-001;-9.782270342111588E-002;1.260285964235663E-003;-2.739721443504095E-003;
2.425500000000000E+009;1.662545204162598E-001;-9.887631982564926E-002;1.106235431507230E-003;-2.831490477547050E-003;
2.425666666666667E+009;1.667228788137436E-001;-9.964171051979065E-002;1.244280370883644E-003;-2.879913896322250E-003;
2.425833333333334E+009;1.670714914798737E-001;-1.004113703966141E-001;1.098974724300206E-003;-2.696668496355414E-003;
2.426000000000000E+009;1.675239652395248E-001;-1.009290590882301E-001;1.289323903620243E-003;-2.840201603248715E-003;
2.426166666666667E+009;1.679311841726303E-001;-1.015384569764137E-001;1.143330824561417E-003;-2.794782165437937E-003;
2.426333333333334E+009;1.679942756891251E-001;-1.020262539386749E-001;1.074806204997003E-003;-2.805019263178110E-003;
2.426500000000000E+009;1.684510111808777E-001;-1.022420451045036E-001;1.085094641894102E-003;-2.928280970081687E-003;
2.426666666666667E+009;1.687346696853638E-001;-1.025272905826569E-001;9.219797211699188E-004;-2.943959552794695E-003;
2.426833333333334E+009;1.690707057714462E-001;-1.028346866369247E-001;1.089120865799487E-003;-2.996735274791718E-003;
2.427000000000000E+009;1.690779328346252E-001;-1.030151695013046E-001;1.097664819099009E-003;-3.014876507222652E-003;
2.427166666666667E+009;1.690750122070313E-001;-1.031772866845131E-001;9.031248628161848E-004;-3.006498329341412E-003;
2.427333333333334E+009;1.689839661121368E-001;-1.033560782670975E-001;8.712309063412249E-004;-3.233310766518116E-003;
2.427500000000000E+009;1.687448173761368E-001;-1.035552546381950E-001;9.171298588626087E-004;-3.251063171774149E-003;
2.427666666666667E+009;1.684687584638596E-001;-1.036378517746925E-001;8.094185614027083E-004;-3.213060554116964E-003;
2.427833333333334E+009;1.681171506643295E-001;-1.036913618445396E-001;6.966550135985017E-004;-3.287222934886813E-003;
