# Version 1.00
#
freq[Hz];re:Trc1_S11;im:Trc1_S11;re:Trc2_S21;im:Trc2_S21;
2.400000000000000E+009;1.548053473234177E-001;6.156610697507858E-002;-2.698013326153159E-003;-2.258036751300097E-003;
2.400166666666667E+009;1.548818647861481E-001;5.972145497798920E-002;-2.847707597538829E-003;-2.264023059979081E-003;
2.400333333333334E+009;1.548206061124802E-001;5.743609368801117E-002;-2.808684716001153E-003;-2.146684564650059E-003;
2.400500000000000E+009;1.550148278474808E-001;5.537769198417664E-002;-2.955571049824357E-003;-2.143230522051454E-003;
2.400666666666667E+009;1.550017148256302E-001;5.318047106266022E-002;-2.981188707053661E-003;-1.997724175453186E-003;
2.400833333333334E+009;1.555314809083939E-001;5.100638791918755E-002;-3.135469043627381E-003;-2.009248128160834E-003;
2.401000000000000E+009;1.558141261339188E-001;4.867798462510109E-002;-3.246407024562359E-003;-1.820548786781728E-003;
2.401166666666667E+009;1.560916304588318E-001;4.649178683757782E-002;-3.238924778997898E-003;-1.805391162633896E-003;
2.401333333333334E+009;1.565324068069458E-001;4.419128969311714E-002;-3.279610071331263E-003;-1.638982445001602E-003;
2.401500000000000E+009;1.571241915225983E-001;4.224572330713272E-002;-3.316020593047142E-003;-1.757803489454091E-003;
2.401666666666667E+009;1.576710194349289E-001;4.013753309845924E-002;-3.468793584033847E-003;-1.586560974828899E-003;
2.401833333333334E+009;1.582548916339874E-001;3.790635988116264E-002;-3.434731392189860E-003;-1.300808857195079E-003;
2.402000000000000E+009;1.589741259813309E-001;3.572553396224976E-002;-3.518754616379738E-003;-1.334462547674775E-003;
2.402166666666667E+009;1.598237007856369E-001;3.367053344845772E-002;-3.744343994185329E-003;-1.376894419081509E-003;
2.402333333333334E+009;1.606165170669556E-001;3.193630650639534E-002;-3.873560111969709E-003;-1.305401325225830E-003;
2.402500000000000E+009;1.617469787597656E-001;3.024120070040226E-002;-3.820704529061914E-003;-1.069566002115607E-003;
2.402666666666667E+009;1.628215759992600E-001;2.842680178582668E-002;-3.844065126031637E-003;-9.576490847393870E-004;
2.402833333333334E+009;1.636422872543335E-001;2.688760496675968E-002;-3.979747183620930E-003;-7.713391096331179E-004;
2.403000000000000E+009;1.645953059196472E-001;2.523622103035450E-002;-3.920010756701231E-003;-7.989239529706538E-004;
2.403166666666667E+009;1.659526228904724E-001;2.375091239809990E-002;-4.039216786623001E-003;-4.017691826447845E-004;
2.403333333333334E+009;1.670800000429153E-001;2.259520255029202E-002;-4.199428949505091E-003;-3.979289031121880E-004;
2.403500000000000E+009;1.680830121040344E-001;2.139579132199287E-002;-4.103164654225111E-003;-3.707638534251601E-004;
2.403666666666667E+009;1.692381054162979E-001;2.003141306340694E-002;-4.005353897809982E-003;-2.296163584105671E-004;
2.403833333333334E+009;1.704731285572052E-001;1.902627758681774E-002;-4.315121099352837E-003;-7.681775605306029E-005;
2.404000000000000E+009;1.715246886014938E-001;1.820966973900795E-002;-4.392671398818493E-003;6.638644845224917E-005;
2.404166666666667E+009;1.727019995450974E-001;1.720874570310116E-002;-4.209006205201149E-003;4.732213274110109E-004;
2.404333333333334E+009;1.735527664422989E-001;1.648139208555222E-002;-4.332559648901224E-003;4.477924667298794E-004;
2.404500000000000E+009;1.743969470262528E-001;1.567534357309341E-002;-4.327177070081234E-003;6.267837597988546E-004;
2.404666666666667E+009;1.753920167684555E-001;1.519425027072430E-002;-4.449528176337481E-003;6.855725659988821E-004;
2.404833333333334E+009;1.764388829469681E-001;1.462580170482397E-002;-4.346230998635292E-003;8.568373741582036E-004;
2.405000000000000E+009;1.774300485849381E-001;1.412760838866234E-002;-4.453641828149557E-003;1.206781831569970E-003;
2.405166666666667E+009;1.782844215631485E-001;1.389069110155106E-002;-4.251557867974043E-003;1.243228442035615E-003;
2.405333333333334E+009;1.788798123598099E-001;1.336800493299961E-002;-4.194108303636313E-003;1.502619008533657E-003;
2.405500000000000E+009;1.795898526906967E-001;1.335701718926430E-002;-4.234447609633207E-003;1.738775055855513E-003;
2.405666666666667E+009;1.800248920917511E-001;1.331193745136261E-002;-4.176447167992592E-003;1.854940666817129E-003;
2.405833333333334E+009;1.804602742195129E-001;1.291721593588591E-002;-4.079687409102917E-003;2.210111822932959E-003;
2.406000000000000E+009;1.808955818414688E-001;1.274106930941343E-002;-4.036109894514084E-003;2.240822184830904E-003;
2.406166666666667E+009;1.810079067945480E-001;1.274085976183415E-002;-3.891355590894818E-003;2.316120779141784E-003;
2.406333333333334E+009;1.814856529235840E-001;1.265609450638294E-002;-3.830338129773736E-003;2.486102981492877E-003;
2.406500000000000E+009;1.813852787017822E-001;1.248218677937985E-002;-3.716666484251618E-003;2.786163473501802E-003;
2.406666666666667E+009;1.812871843576431E-001;1.227357145398855E-002;-3.508858382701874E-003;2.928392030298710E-003;
2.406833333333334E+009;1.812247037887573E-001;1.210394687950611E-002;-3.532924689352512E-003;2.946488792076707E-003;
2.407000000000000E+009;1.810958236455917E-001;1.183601375669241E-002;-3.329664003103972E-003;3.043528646230698E-003;
2.407166666666667E+009;1.809163838624954E-001;1.170841790735722E-002;-3.270877990871668E-003;3.373528597876430E-003;
2.407333333333334E+009;1.804508566856384E-001;1.129417307674885E-002;-2.952799666672945E-003;3.300943877547979E-003;
2.407500000000000E+009;1.800700724124908E-001;1.078466791659594E-002;-3.079964313656092E-003;3.361789975315332E-003;
2.407666666666667E+009;1.795829236507416E-001;1.037074439227581E-002;-2.773379674181342E-003;3.325496101751924E-003;
2.407833333333334E+009;1.786956042051315E-001;9.750223718583584E-003;-2.632160903885961E-003;3.493146505206823E-003;
2.408000000000000E+009;1.782068610191345E-001;9.037540294229984E-003;-2.330511342734098E-003;3.544908482581377E-003;
2.408166666666667E+009;1.775154918432236E-001;8.424093015491962E-003;-2.275811741128564E-003;3.734325058758259E-003;
2.408333333333334E+009;1.770056188106537E-001;7.643104065209627E-003;-2.273494610562921E-003;3.839662065729499E-003;
2.408500000000000E+009;1.760256290435791E-001;6.660601124167442E-003;-2.005141926929355E-003;3.692213911563158E-003;
2.408666666666667E+009;1.752658635377884E-001;5.499007180333138E-003;-1.879403484053910E-003;3.741397056728602E-003;
2.408833333333334E+009;1.745511442422867E-001;4.477902781218290E-003;-1.843504491262138E-003;3.814157797023654E-003;
2.409000000000000E+009;1.735549122095108E-001;3.079926595091820E-003;-1.631587394513190E-003;3.945796284824610E-003;
2.409166666666667E+009;1.726926118135452E-001;1.816143514588475E-003;-1.281482167541981E-003;3.740621730685234E-003;
2.409333333333334E+009;1.719361990690231E-001;2.169422514270991E-004;-1.322687603533268E-003;3.838431322947145E-003;
2.409500000000000E+009;1.710122525691986E-001;-1.340371323749423E-003;-1.060522510670126E-003;3.721148241311312E-003;
2.409666666666667E+009;1.702502816915512E-001;-2.883750945329666E-003;-9.782481938600540E-004;4.072750452905893E-003;
2.409833333333334E+009;1.695411354303360E-001;-4.572785925120115E-003;-8.738758624531329E-004;3.878063987940550E-003;
2.410000000000000E+009;1.688522696495056E-001;-6.267920602113009E-003;-6.644690874963999E-004;3.989152144640684E-003;
2.410166666666667E+009;1.683037728071213E-001;-8.143116720020771E-003;-6.433592643588781E-004;3.826627740636468E-003;
2.410333333333334E+009;1.676232665777206E-001;-9.993874467909336E-003;-3.577010356821120E-004;3.853082191199064E-003;
2.410500000000000E+009;1.670461893081665E-001;-1.195950154215097E-002;-3.227287961635739E-004;3.795026568695903E-003;
2.410666666666667E+009;1.666156202554703E-001;-1.407541427761316E-002;-1.639352849451825E-004;3.817094722762704E-003;
2.410833333333334E+009;1.663919985294342E-001;-1.624845527112484E-002;1.597245613993437E-006;3.751260694116354E-003;
2.411000000000000E+009;1.659147888422012E-001;-1.818928495049477E-002;1.689884229563177E-004;3.692512866109610E-003;
2.411166666666667E+009;1.658105254173279E-001;-2.024022862315178E-002;2.846913994289935E-004;3.575179725885391E-003;
2.411333333333334E+009;1.658517867326737E-001;-2.236697822809219E-002;5.237726145423949E-004;3.375884843990207E-003;
2.411500000000000E+009;1.656326502561569E-001;-2.457226440310478E-002;6.694531766697764E-004;3.362660761922598E-003;
2.411666666666667E+009;1.658813804388046E-001;-2.642730996012688E-002;6.673855241388083E-004;3.464595880359411E-003;
2.411833333333334E+009;1.661696135997772E-001;-2.853486686944962E-002;8.520568371750414E-004;3.368504345417023E-003;
2.412000000000000E+009;1.664025485515595E-001;-3.071829490363598E-002;9.355120128020644E-004;3.292992245405912E-003;
2.412166666666667E+009;1.667348891496658E-001;-3.269126266241074E-002;8.299418841488659E-004;3.172907279804349E-003;
2.412333333333334E+009;1.672478914260864E-001;-3.469707444310188E-002;9.314859053120017E-004;3.075629705563188E-003;
2.412500000000000E+009;1.676969528198242E-001;-3.654138371348381E-002;1.117525505833328E-003;3.017083741724491E-003;
2.412666666666667E+009;1.682718694210053E-001;-3.866524621844292E-002;1.119662425480783E-003;2.900350140407682E-003;
2.412833333333334E+009;1.688820719718933E-001;-4.038624837994576E-002;1.137687359005213E-003;2.941691083833575E-003;
2.413000000000000E+009;1.695703119039536E-001;-4.226093366742134E-002;1.031327294185758E-003;2.718680771067739E-003;
2.413166666666667E+009;1.702514439821243E-001;-4.375886917114258E-002;1.141803921200335E-003;2.726332284510136E-003;
2.413333333333334E+009;1.708424836397171E-001;-4.549100250005722E-002;1.234712195582688E-003;2.680038101971149E-003;
2.413500000000000E+009;1.716118007898331E-001;-4.706783965229988E-002;1.236021867953241E-003;2.560428809374571E-003;
2.413666666666667E+009;1.724646985530853E-001;-4.851470142602921E-002;1.298518618568778E-003;2.553099067881703E-003;
2.413833333333334E+009;1.730738580226898E-001;-4.981712251901627E-002;1.156161073595285E-003;2.377100521698594E-003;
2.414000000000000E+009;1.738831847906113E-001;-5.118636041879654E-002;1.387912896461785E-003;2.412398811429739E-003;
2.414166666666667E+009;1.746742278337479E-001;-5.202378332614899E-002;1.455420511774719E-003;2.387903397902846E-003;
2.414333333333334E+009;1.752825975418091E-001;-5.329492315649986E-002;1.276552211493254E-003;2.175326226279140E-003;
2.414500000000000E+009;1.761424094438553E-001;-5.409336090087891E-002;1.409242744557560E-003;2.195772714912891E-003;
2.414666666666667E+009;1.767142266035080E-001;-5.489857122302055E-002;1.389738521538675E-003;2.090881811454892E-003;
2.414833333333334E+009;1.773252338171005E-001;-5.576811358332634E-002;1.258008531294763E-003;2.182536059990525E-003;
2.415000000000000E+009;1.777326464653015E-001;-5.632863566279411E-002;1.410154509358108E-003;1.931808423250914E-003;
2.415166666666667E+009;1.781969815492630E-001;-5.692656710743904E-002;1.521929283626378E-003;2.201796742156148E-003;
2.415333333333334E+009;1.788266599178314E-001;-5.733853578567505E-002;1.481540850363672E-003;1.946182688698173E-003;
2.415500000000000E+009;1.791279166936874E-001;-5.772482231259346E-002;1.596706337295473E-003;1.954834442585707E-003;
2.415666666666667E+009;1.793495118618012E-001;-5.790577456355095E-002;1.459807623177767E-003;2.037604106590152E-003;
2.415833333333334E+009;1.795183122158051E-001;-5.832986161112785E-002;1.672942773438990E-003;1.949734985828400E-003;
2.416000000000000E+009;1.793527901172638E-001;-5.842677876353264E-002;1.536569674499333E-003;1.944168354384601E-003;
2.416166666666667E+009;1.795666217803955E-001;-5.861547216773033E-002;1.419363776221871E-003;2.006412018090487E-003;
2.416333333333334E+009;1.793321669101715E-001;-5.862814560532570E-002;1.546593615785241E-003;1.963221235200763E-003;
2.416500000000000E+009;1.790569424629211E-001;-5.870793014764786E-002;1.740778912790120E-003;1.953302882611752E-003;
2.416666666666667E+009;1.785519421100617E-001;-5.862597376108170E-002;1.696653431281447E-003;1.899974071420729E-003;
2.416833333333334E+009;1.783752292394638E-001;-5.892748385667801E-002;1.567885163240135E-003;1.872554421424866E-003;
2.417000000000000E+009;1.776429414749146E-001;-5.906023085117340E-002;1.812169444747269E-003;1.840957207605243E-003;
2.417166666666667E+009;1.770641207695007E-001;-5.893609300255776E-002;1.772618386894465E-003;1.715136459097266E-003;
2.417333333333334E+009;1.762318015098572E-001;-5.898347496986389E-002;2.000761684030294E-003;1.658156514167786E-003;
2.417500000000000E+009;1.752135455608368E-001;-5.915643274784088E-002;1.799329649657011E-003;1.595395966432989E-003;
2.417666666666667E+009;1.745655834674835E-001;-5.925372615456581E-002;1.925303367897868E-003;1.388208707794547E-003;
2.417833333333334E+009;1.734072118997574E-001;-5.947274714708328E-002;1.927791279740632E-003;1.482734340243042E-003;
2.418000000000000E+009;1.721889376640320E-001;-5.991065129637718E-002;1.949791330844164E-003;1.524097286164761E-003;
2.418166666666667E+009;1.710463315248489E-001;-6.010083854198456E-002;2.049891278147697E-003;1.441367552615702E-003;
2.418333333333334E+009;1.700042635202408E-001;-6.052187830209732E-002;1.951777259819210E-003;1.497195917181671E-003;
2.418500000000000E+009;1.688119024038315E-001;-6.089339777827263E-002;2.036807592958212E-003;1.213426119647920E-003;
2.418666666666667E+009;1.674489825963974E-001;-6.149833276867867E-002;2.078081713989377E-003;1.256373478099704E-003;
2.418833333333334E+009;1.661304533481598E-001;-6.212795153260231E-002;2.093745395541191E-003;1.348166610114276E-003;
2.419000000000000E+009;1.645761877298355E-001;-6.281836330890656E-002;2.125685568898916E-003;1.310192630626261E-003;
2.419166666666667E+009;1.631447970867157E-001;-6.371457874774933E-002;2.096214098855853E-003;1.152751152403653E-003;
2.419333333333334E+009;1.617485731840134E-001;-6.431490927934647E-002;2.130931941792369E-003;1.150373369455338E-003;
2.419500000000000E+009;1.604946851730347E-001;-6.559880077838898E-002;2.096787095069885E-003;1.038473332300782E-003;
2.419666666666667E+009;1.592228114604950E-001;-6.665032356977463E-002;2.130290959030390E-003;1.035925117321312E-003;
2.419833333333334E+009;1.578429341316223E-001;-6.766636669635773E-002;2.206942066550255E-003;8.918153471313417E-004;
2.420000000000000E+009;1.568393111228943E-001;-6.897594034671783E-002;2.156701404601336E-003;1.094263396225870E-003;
2.420166666666667E+009;1.554455161094666E-001;-7.043314725160599E-002;2.179916249588132E-003;8.713876013644040E-004;
2.420333333333334E+009;1.544124633073807E-001;-7.182572036981583E-002;2.156351692974567E-003;8.948948234319687E-004;
2.420500000000000E+009;1.534522473812103E-001;-7.311252504587174E-002;2.175509231165052E-003;8.617928833700717E-004;
2.420666666666667E+009;1.522875130176544E-001;-7.477281987667084E-002;2.114034956321120E-003;6.736631039530039E-004;
2.420833333333334E+009;1.514976769685745E-001;-7.632357627153397E-002;2.170484047383070E-003;8.145837346091867E-004;
2.421000000000000E+009;1.506780534982681E-001;-7.813012599945068E-002;2.225761068984866E-003;7.396727451123297E-004;
2.421166666666667E+009;1.501463651657105E-001;-7.973425835371018E-002;2.143656369298697E-003;6.450132932513952E-004;
2.421333333333334E+009;1.494711786508560E-001;-8.160149306058884E-002;2.117902506142855E-003;5.211021634750068E-004;
2.421500000000000E+009;1.488980203866959E-001;-8.330228924751282E-002;2.175875008106232E-003;5.186344496905804E-004;
2.421666666666667E+009;1.484756022691727E-001;-8.524367958307266E-002;2.166587393730879E-003;4.735859984066337E-004;
2.421833333333334E+009;1.483572274446487E-001;-8.714552223682404E-002;2.187909325584769E-003;3.021742159035057E-004;
2.422000000000000E+009;1.479931920766830E-001;-8.894882351160049E-002;2.124106977134943E-003;3.199577040504664E-004;
2.422166666666667E+009;1.479069888591766E-001;-9.088454395532608E-002;2.127107931300998E-003;3.094934218097478E-004;
2.422333333333334E+009;1.479662358760834E-001;-9.255662560462952E-002;2.074700780212879E-003;2.483231946825981E-004;
2.422500000000000E+009;1.480391472578049E-001;-9.423355013132095E-002;2.195979701355100E-003;1.312818640144542E-004;
2.422666666666667E+009;1.482510566711426E-001;-9.606585651636124E-002;2.126443199813366E-003;7.712161459494382E-005;
2.422833333333334E+009;1.484741568565369E-001;-9.792788326740265E-002;2.086064778268337E-003;1.236770331161097E-004;
2.423000000000000E+009;1.487319171428680E-001;-9.951235353946686E-002;1.960488501936197E-003;-7.253813964780420E-005;
2.423166666666667E+009;1.493546515703201E-001;-1.013759672641754E-001;1.839701784774661E-003;-4.667634857469238E-005;
2.423333333333334E+009;1.499125808477402E-001;-1.026476025581360E-001;1.868378138169646E-003;-1.432660646969453E-004;
2.423500000000000E+009;1.503640413284302E-001;-1.042286306619644E-001;1.770245376974344E-003;-9.540280734654516E-005;
2.423666666666667E+009;1.507480293512344E-001;-1.056836768984795E-001;1.786809763871133E-003;-5.210714880377054E-005;
2.423833333333334E+009;1.515592187643051E-001;-1.071968451142311E-001;1.688965596258640E-003;4.288430864107795E-005;
2.424000000000000E+009;1.519939601421356E-001;-1.084836497902870E-001;1.669572666287422E-003;-2.090856141876429E-004;
2.424166666666667E+009;1.524591296911240E-001;-1.095358878374100E-001;1.883639954030514E-003;-1.668849872658029E-004;
2.424333333333334E+009;1.532061845064163E-001;-1.106928512454033E-001;1.654887688346207E-003;2.294114165124483E-005;
2.424500000000000E+009;1.539681404829025E-001;-1.116540506482124E-001;1.521571422927082E-003;-1.175263532786630E-004;
2.424666666666667E+009;1.545541137456894E-001;-1.124352887272835E-001;1.739639672450721E-003;5.348199920263141E-005;
2.424833333333334E+009;1.551909148693085E-001;-1.134489327669144E-001;1.586910453625023E-003;5.929035978624597E-005;
2.425000000000000E+009;1.556460708379746E-001;-1.140777990221977E-001;1.690224395133555E-003;-6.349965406116098E-005;
2.425166666666667E+009;1.561647653579712E-001;-1.147530674934387E-001;1.817983575165272E-003;1.297548151342198E-004;
2.425333333333334E+009;1.567652076482773E-001;-1.153128072619438E-001;1.750934869050980E-003;1.917239569593221E-004;
2.425500000000000E+009;1.572358757257462E-001;-1.158247813582420E-001;1.596154877915978E-003;1.248059415956959E-004;
2.425666666666667E+009;1.573108136653900E-001;-1.163634136319161E-001;1.727248658426106E-003;8.630256343167275E-005;
2.425833333333334E+009;1.576802432537079E-001;-1.166979074478149E-001;1.647010445594788E-003;1.352763792965561E-004;
2.426000000000000E+009;1.577892899513245E-001;-1.168749704957008E-001;1.734459539875388E-003;1.051250801538117E-004;
2.426166666666667E+009;1.580961942672730E-001;-1.171253472566605E-001;1.892529777251184E-003;3.161449567414820E-004;
2.426333333333334E+009;1.579017937183380E-001;-1.172476112842560E-001;1.858243136666715E-003;1.474770688218996E-004;
2.426500000000000E+009;1.579088717699051E-001;-1.173268780112267E-001;1.756035257130861E-003;2.978755801450461E-004;
2.426666666666667E+009;1.577175408601761E-001;-1.173230782151222E-001;1.869919244199991E-003;3.033448883797973E-004;
2.426833333333334E+009;1.573036611080170E-001;-1.173035576939583E-001;2.145007252693176E-003;1.451233838452026E-004;
2.427000000000000E+009;1.568813472986221E-001;-1.174058094620705E-001;2.058741403743625E-003;1.651673228479922E-004;
2.427166666666667E+009;1.563399434089661E-001;-1.171758174896240E-001;2.107078675180674E-003;2.204144402639940E-004;
2.427333333333334E+009;1.558139920234680E-001;-1.172806695103645E-001;2.251504221931100E-003;2.408212458249182E-004;
2.427500000000000E+009;1.551568359136581E-001;-1.172186657786369E-001;2.333189826458693E-003;8.978384721558541E-005;
2.427666666666667E+009;1.542433202266693E-001;-1.173208802938461E-001;2.363081322982907E-003;9.200502972817048E-005;
2.427833333333334E+009;1.532011628150940E-001;-1.172990053892136E-001;2.376728458330035E-003;1.502492668805644E-004;
