# Version 1.00
#
freq[Hz];re:Trc1_S11;im:Trc1_S11;re:Trc2_S21;im:Trc2_S21;
2.400000000000000E+009;1.547287404537201E-001;6.137630715966225E-002;-2.751647727563977E-003;-2.593271201476455E-003;
2.400166666666667E+009;1.548221856355667E-001;5.954831838607788E-002;-2.754735527560115E-003;-2.293009310960770E-003;
2.400333333333334E+009;1.547311395406723E-001;5.729480087757111E-002;-2.821551170200110E-003;-2.215058775618672E-003;
2.400500000000000E+009;1.549440622329712E-001;5.524503439664841E-002;-3.031996078789234E-003;-2.213932573795319E-003;
2.400666666666667E+009;1.550209820270538E-001;5.294349417090416E-002;-2.980650868266821E-003;-2.277797088027000E-003;
2.400833333333334E+009;1.553664505481720E-001;5.094130709767342E-002;-3.053305670619011E-003;-2.207274315878749E-003;
2.401000000000000E+009;1.557375639677048E-001;4.859871044754982E-002;-3.159841988235712E-003;-1.983696827664971E-003;
2.401166666666667E+009;1.560869961977005E-001;4.639939591288567E-002;-3.313045483082533E-003;-1.876812893897295E-003;
2.401333333333334E+009;1.565071046352387E-001;4.421417787671089E-002;-3.338112030178309E-003;-1.661808462813497E-003;
2.401500000000000E+009;1.571183353662491E-001;4.192699119448662E-002;-3.368510631844401E-003;-1.848077750764787E-003;
2.401666666666667E+009;1.576662808656693E-001;3.995323181152344E-002;-3.414590144529939E-003;-1.684212009422481E-003;
2.401833333333334E+009;1.583493798971176E-001;3.781754523515701E-002;-3.481668885797262E-003;-1.686240429989994E-003;
2.402000000000000E+009;1.588416099548340E-001;3.575566038489342E-002;-3.743364708498120E-003;-1.539212418720126E-003;
2.402166666666667E+009;1.597912162542343E-001;3.369880840182304E-002;-3.661130554974079E-003;-1.363456714898348E-003;
2.402333333333334E+009;1.605193912982941E-001;3.192163631320000E-002;-3.786840941756964E-003;-1.231069210916758E-003;
2.402500000000000E+009;1.617417633533478E-001;3.007148206233978E-002;-3.831713460385799E-003;-1.239938428625464E-003;
2.402666666666667E+009;1.624958217144013E-001;2.842301502823830E-002;-3.976655192673206E-003;-1.127614756114781E-003;
2.402833333333334E+009;1.634550243616104E-001;2.678710781037808E-002;-4.017089027911425E-003;-9.182821377180517E-004;
2.403000000000000E+009;1.646767109632492E-001;2.511939033865929E-002;-4.094189032912254E-003;-7.110949954949319E-004;
2.403166666666667E+009;1.657677590847015E-001;2.373551577329636E-002;-4.108968190848827E-003;-8.442531689070165E-004;
2.403333333333334E+009;1.669346690177918E-001;2.255911007523537E-002;-4.039148800075054E-003;-5.210119998082519E-004;
2.403500000000000E+009;1.678896993398666E-001;2.130291424691677E-002;-4.251393955200911E-003;-5.107049364596605E-004;
2.403666666666667E+009;1.691629439592362E-001;1.999575458467007E-002;-4.288675729185343E-003;-3.218890924472362E-004;
2.403833333333334E+009;1.703416407108307E-001;1.892638206481934E-002;-4.434491507709026E-003;-2.190974482800812E-004;
2.404000000000000E+009;1.714570522308350E-001;1.813877187669277E-002;-4.420921672135592E-003;8.717406308278441E-005;
2.404166666666667E+009;1.723965853452683E-001;1.698476076126099E-002;-4.480014089494944E-003;1.217061435454525E-004;
2.404333333333334E+009;1.735712885856628E-001;1.651697233319283E-002;-4.434225149452686E-003;2.709429536480457E-004;
2.404500000000000E+009;1.743323206901550E-001;1.568809524178505E-002;-4.512653220444918E-003;4.172105109319091E-004;
2.404666666666667E+009;1.753978431224823E-001;1.526709180325270E-002;-4.569015931338072E-003;8.177502313628793E-004;
2.404833333333334E+009;1.763471513986588E-001;1.460179593414068E-002;-4.650231450796127E-003;9.972522966563702E-004;
2.405000000000000E+009;1.772362142801285E-001;1.419726945459843E-002;-4.397782962769270E-003;1.123732887208462E-003;
2.405166666666667E+009;1.780023127794266E-001;1.384048070758581E-002;-4.432411864399910E-003;1.224651467055082E-003;
2.405333333333334E+009;1.788324117660523E-001;1.342197880148888E-002;-4.382853861898184E-003;1.485602115280926E-003;
2.405500000000000E+009;1.795639693737030E-001;1.326201204210520E-002;-4.408837761729956E-003;1.598904374986887E-003;
2.405666666666667E+009;1.799881905317307E-001;1.319451909512281E-002;-4.226678982377052E-003;1.778472447767854E-003;
2.405833333333334E+009;1.801886260509491E-001;1.310151629149914E-002;-4.083042964339256E-003;2.020367654040456E-003;
2.406000000000000E+009;1.808840334415436E-001;1.269934978336096E-002;-4.053529351949692E-003;2.221276285126805E-003;
2.406166666666667E+009;1.809693276882172E-001;1.285829860717058E-002;-3.946591168642044E-003;2.350024646148086E-003;
2.406333333333334E+009;1.813569664955139E-001;1.265561394393444E-002;-3.924836870282888E-003;2.556827384978533E-003;
2.406500000000000E+009;1.813523322343826E-001;1.246191188693047E-002;-3.821711521595717E-003;2.561703789979219E-003;
2.406666666666667E+009;1.811816394329071E-001;1.231725793331862E-002;-3.764828201383352E-003;2.849321113899350E-003;
2.406833333333334E+009;1.812090724706650E-001;1.205632742494345E-002;-3.470286494120956E-003;3.063958371058106E-003;
2.407000000000000E+009;1.810215711593628E-001;1.191328931599855E-002;-3.372448496520519E-003;3.157695056870580E-003;
2.407166666666667E+009;1.808505058288574E-001;1.186168286949396E-002;-3.353416686877608E-003;3.156609600409865E-003;
2.407333333333334E+009;1.803877055644989E-001;1.122270338237286E-002;-3.139695618301630E-003;3.240094054490328E-003;
2.407500000000000E+009;1.800461858510971E-001;1.089735608547926E-002;-3.098455956205726E-003;3.410603385418654E-003;
2.407666666666667E+009;1.793933212757111E-001;1.054573990404606E-002;-2.842230722308159E-003;3.579145995900035E-003;
2.407833333333334E+009;1.787028312683106E-001;9.758911095559597E-003;-2.744061173871160E-003;3.478677710518241E-003;
2.408000000000000E+009;1.782689988613129E-001;9.092933498322964E-003;-2.469892846420407E-003;3.644319484010339E-003;
2.408166666666667E+009;1.774561703205109E-001;8.554012514650822E-003;-2.444888697937131E-003;3.670030506327748E-003;
2.408333333333334E+009;1.770862042903900E-001;7.642674259841442E-003;-2.317800186574459E-003;3.713433863595128E-003;
2.408500000000000E+009;1.760650128126144E-001;6.740346550941467E-003;-2.177938120439649E-003;3.843832062557340E-003;
2.408666666666667E+009;1.752312481403351E-001;5.467376206070185E-003;-1.945805852301419E-003;3.932230640202761E-003;
2.408833333333334E+009;1.743046939373016E-001;4.344070795923472E-003;-1.905532786622644E-003;3.887414932250977E-003;
2.409000000000000E+009;1.735140532255173E-001;3.188449656590819E-003;-1.601974479854107E-003;3.954858053475618E-003;
2.409166666666667E+009;1.726987212896347E-001;1.819981727749109E-003;-1.526465290226042E-003;3.955128137022257E-003;
2.409333333333334E+009;1.719651967287064E-001;3.684698895085603E-004;-1.429679803550243E-003;3.874805523082614E-003;
2.409500000000000E+009;1.710185408592224E-001;-1.376231200993061E-003;-1.144494162872434E-003;3.940356429666281E-003;
2.409666666666667E+009;1.701425164937973E-001;-2.910234266892076E-003;-9.367790771648288E-004;3.885451937094331E-003;
2.409833333333334E+009;1.693960428237915E-001;-4.404152743518353E-003;-8.686963701620698E-004;4.008182324469090E-003;
2.410000000000000E+009;1.688046157360077E-001;-6.070974282920361E-003;-6.125983782112598E-004;4.109511617571116E-003;
2.410166666666667E+009;1.682478189468384E-001;-8.137947879731655E-003;-5.832594470120966E-004;3.754845121875405E-003;
2.410333333333334E+009;1.675339192152023E-001;-9.881634265184403E-003;-5.279068718664348E-004;3.953760489821434E-003;
2.410500000000000E+009;1.671230047941208E-001;-1.199140772223473E-002;-3.468270588200539E-004;3.951678052544594E-003;
2.410666666666667E+009;1.667035371065140E-001;-1.404404919594526E-002;-1.671977806836367E-004;3.742885775864124E-003;
2.410833333333334E+009;1.663239598274231E-001;-1.587389968335629E-002;-1.350238453596830E-004;3.801969345659018E-003;
2.411000000000000E+009;1.660962104797363E-001;-1.797634921967983E-002;1.521518279332668E-004;3.742017783224583E-003;
2.411166666666667E+009;1.656913459300995E-001;-2.017358876764774E-002;1.707948104012758E-004;3.756958525627852E-003;
2.411333333333334E+009;1.657789647579193E-001;-2.196626737713814E-002;3.517442964948714E-004;3.672818653285503E-003;
2.411500000000000E+009;1.658487766981125E-001;-2.448706142604351E-002;5.247003864496946E-004;3.550786757841706E-003;
2.411666666666667E+009;1.660424172878265E-001;-2.644791081547737E-002;5.587232881225646E-004;3.541759913787246E-003;
2.411833333333334E+009;1.661935001611710E-001;-2.845005318522453E-002;6.360655534081161E-004;3.455133177340031E-003;
2.412000000000000E+009;1.664971709251404E-001;-3.067123144865036E-002;6.882792804390192E-004;3.330130595713854E-003;
2.412166666666667E+009;1.668166071176529E-001;-3.260517865419388E-002;8.762507350184023E-004;3.318911418318749E-003;
2.412333333333334E+009;1.673764586448669E-001;-3.464790806174278E-002;7.523029344156385E-004;3.241566242650151E-003;
2.412500000000000E+009;1.676263958215714E-001;-3.651900589466095E-002;8.993433439172804E-004;3.207020461559296E-003;
2.412666666666667E+009;1.682443618774414E-001;-3.863002732396126E-002;9.549874230287969E-004;3.040791954845190E-003;
2.412833333333334E+009;1.688942164182663E-001;-4.037067294120789E-002;1.098037813790143E-003;3.078921698033810E-003;
2.413000000000000E+009;1.696916520595551E-001;-4.209002852439880E-002;1.105237519368529E-003;2.745676552876830E-003;
2.413166666666667E+009;1.702514141798019E-001;-4.383824393153191E-002;1.256844494491816E-003;2.735805930569768E-003;
2.413333333333334E+009;1.708700805902481E-001;-4.543014615774155E-002;1.210983959026635E-003;2.673267619684339E-003;
2.413500000000000E+009;1.716601848602295E-001;-4.699305817484856E-002;1.194172305986285E-003;2.601034939289093E-003;
2.413666666666667E+009;1.725702583789825E-001;-4.856617003679276E-002;1.297403010539711E-003;2.484728116542101E-003;
2.413833333333334E+009;1.733234971761704E-001;-4.982149973511696E-002;1.158288912847638E-003;2.596531994640827E-003;
2.414000000000000E+009;1.738322973251343E-001;-5.120599269866943E-002;1.314553897827864E-003;2.445323159918189E-003;
2.414166666666667E+009;1.747118532657623E-001;-5.216554924845696E-002;1.293618464842439E-003;2.390417736023665E-003;
2.414333333333334E+009;1.753996014595032E-001;-5.320753157138825E-002;1.402093330398202E-003;2.240499714389443E-003;
2.414500000000000E+009;1.762373745441437E-001;-5.408117547631264E-002;1.376576488837600E-003;2.414769260212779E-003;
2.414666666666667E+009;1.768641322851181E-001;-5.483043566346169E-002;1.411327044479549E-003;2.259130589663982E-003;
2.414833333333334E+009;1.773570775985718E-001;-5.562921240925789E-002;1.149166957475245E-003;2.244141651317477E-003;
2.415000000000000E+009;1.778281033039093E-001;-5.632669851183891E-002;1.416158978827298E-003;2.263211412355304E-003;
2.415166666666667E+009;1.782203316688538E-001;-5.677578970789909E-002;1.273482106626034E-003;2.113600960001349E-003;
2.415333333333334E+009;1.787098348140717E-001;-5.738743767142296E-002;1.436592778190970E-003;2.172616310417652E-003;
2.415500000000000E+009;1.791443228721619E-001;-5.765195935964584E-002;1.451957854442298E-003;2.146554645150900E-003;
2.415666666666667E+009;1.793955266475678E-001;-5.790587142109871E-002;1.513433875516057E-003;2.142972312867641E-003;
2.415833333333334E+009;1.795786321163178E-001;-5.817385390400887E-002;1.496842480264604E-003;2.145005622878671E-003;
2.416000000000000E+009;1.793625503778458E-001;-5.841016396880150E-002;1.702472916804254E-003;1.884322147816420E-003;
2.416166666666667E+009;1.795024722814560E-001;-5.852681398391724E-002;1.582024735398591E-003;1.940327929332852E-003;
2.416333333333334E+009;1.793281286954880E-001;-5.861204490065575E-002;1.620767870917916E-003;2.010281663388014E-003;
2.416500000000000E+009;1.792380064725876E-001;-5.882460623979569E-002;1.708141178824008E-003;1.905121840536594E-003;
2.416666666666667E+009;1.787063926458359E-001;-5.879871919751167E-002;1.694878796115518E-003;2.027840819209814E-003;
2.416833333333334E+009;1.782885193824768E-001;-5.892155319452286E-002;1.714947982691228E-003;1.900528906844556E-003;
2.417000000000000E+009;1.776062399148941E-001;-5.892725288867950E-002;1.768205664120615E-003;1.929552527144551E-003;
2.417166666666667E+009;1.769865900278091E-001;-5.887230858206749E-002;1.760396291501820E-003;1.967330928891897E-003;
2.417333333333334E+009;1.763058602809906E-001;-5.890521779656410E-002;1.791541115380824E-003;1.764785149134696E-003;
2.417500000000000E+009;1.753656864166260E-001;-5.933068692684174E-002;1.910811988636851E-003;1.675780629739165E-003;
2.417666666666667E+009;1.745126396417618E-001;-5.922202020883560E-002;1.844004029408097E-003;1.636210130527616E-003;
2.417833333333334E+009;1.734881550073624E-001;-5.944523587822914E-002;1.923944102600217E-003;1.577997929416597E-003;
2.418000000000000E+009;1.723485440015793E-001;-5.981542170047760E-002;2.003830159083009E-003;1.568436040543020E-003;
2.418166666666667E+009;1.710758060216904E-001;-6.007900089025497E-002;1.947335316799581E-003;1.615038956515491E-003;
2.418333333333334E+009;1.701631844043732E-001;-6.054084375500679E-002;2.078881952911615E-003;1.606784528121352E-003;
2.418500000000000E+009;1.687365025281906E-001;-6.080535054206848E-002;1.992516452446580E-003;1.224611070938408E-003;
2.418666666666667E+009;1.675236225128174E-001;-6.157494336366653E-002;2.133101457729936E-003;1.333327614702284E-003;
2.418833333333334E+009;1.658750027418137E-001;-6.212351843714714E-002;2.068361500278115E-003;1.304475241340697E-003;
2.419000000000000E+009;1.646205186843872E-001;-6.282395124435425E-002;2.167079830542207E-003;1.171269454061985E-003;
2.419166666666667E+009;1.632887274026871E-001;-6.369148194789887E-002;2.170791616663337E-003;1.213239971548319E-003;
2.419333333333334E+009;1.617724150419235E-001;-6.436006724834442E-002;2.195789711549878E-003;1.293790293857455E-003;
2.419500000000000E+009;1.604943573474884E-001;-6.552799791097641E-002;2.094564959406853E-003;1.165665453299880E-003;
2.419666666666667E+009;1.592249423265457E-001;-6.667827069759369E-002;2.206556266173720E-003;1.202222891151905E-003;
2.419833333333334E+009;1.578702777624130E-001;-6.760577857494354E-002;2.153111388906837E-003;1.027712947688997E-003;
2.420000000000000E+009;1.568141579627991E-001;-6.888314336538315E-002;2.054520184174180E-003;1.056223758496344E-003;
2.420166666666667E+009;1.555206924676895E-001;-7.028810679912567E-002;2.226905198767781E-003;9.798213141039014E-004;
2.420333333333334E+009;1.543693393468857E-001;-7.191326469182968E-002;2.111713169142604E-003;7.945697288960218E-004;
2.420500000000000E+009;1.535244882106781E-001;-7.319582253694534E-002;2.351347822695971E-003;8.569493074901402E-004;
2.420666666666667E+009;1.525648981332779E-001;-7.468714565038681E-002;2.208393532782793E-003;8.424131083302200E-004;
2.420833333333334E+009;1.515883803367615E-001;-7.640241086483002E-002;2.173450542613864E-003;8.062349515967071E-004;
2.421000000000000E+009;1.505772173404694E-001;-7.810825109481812E-002;2.272368641570211E-003;7.094591856002808E-004;
2.421166666666667E+009;1.499533355236054E-001;-7.975693047046661E-002;2.220570808276534E-003;5.619109142571688E-004;
2.421333333333334E+009;1.496878266334534E-001;-8.149404823780060E-002;2.118249656632543E-003;5.991719663143158E-004;
2.421500000000000E+009;1.490162909030914E-001;-8.330022543668747E-002;2.204777905717492E-003;6.597441388294101E-004;
2.421666666666667E+009;1.485250294208527E-001;-8.507726341485977E-002;2.217826200649142E-003;4.339838342275471E-004;
2.421833333333334E+009;1.483089923858643E-001;-8.693499863147736E-002;2.279431791976094E-003;3.371086495462805E-004;
2.422000000000000E+009;1.480580717325211E-001;-8.885443955659866E-002;2.177694113925099E-003;2.541809517424554E-004;
2.422166666666667E+009;1.480206400156021E-001;-9.063430130481720E-002;2.185658551752567E-003;2.972389920614660E-004;
2.422333333333334E+009;1.481605023145676E-001;-9.251438081264496E-002;2.087987260892987E-003;2.001688699238002E-004;
2.422500000000000E+009;1.480719745159149E-001;-9.420472383499146E-002;2.186511410400271E-003;1.919153291964904E-004;
2.422666666666667E+009;1.482051759958267E-001;-9.597623348236084E-002;2.162245102226734E-003;1.770432136254385E-004;
2.422833333333334E+009;1.485894322395325E-001;-9.786204248666763E-002;1.970942597836256E-003;1.060291615431197E-004;
2.423000000000000E+009;1.488888114690781E-001;-9.949849545955658E-002;1.910586259327829E-003;1.254352973774076E-004;
2.423166666666667E+009;1.494669169187546E-001;-1.012453660368919E-001;1.916220062412322E-003;-1.160641932074213E-005;
2.423333333333334E+009;1.498801261186600E-001;-1.026344075798988E-001;1.879690331406891E-003;-1.464093948015943E-004;
2.423500000000000E+009;1.504272222518921E-001;-1.042975038290024E-001;1.742675201967359E-003;7.539360376540572E-005;
2.423666666666667E+009;1.508121639490128E-001;-1.058151647448540E-001;1.727734226733446E-003;1.776491808413994E-005;
2.423833333333334E+009;1.516536325216293E-001;-1.071624755859375E-001;1.823281869292259E-003;-1.187103862321237E-005;
2.424000000000000E+009;1.520212441682816E-001;-1.083224713802338E-001;1.652481150813401E-003;2.910797775257379E-005;
2.424166666666667E+009;1.526152044534683E-001;-1.096850708127022E-001;1.593517488799989E-003;-1.707245828583837E-004;
2.424333333333334E+009;1.534435302019119E-001;-1.106986701488495E-001;1.542989164590836E-003;-4.743312274513301E-006;
2.424500000000000E+009;1.540133953094482E-001;-1.117248684167862E-001;1.700660912320018E-003;4.885443922830746E-005;
2.424666666666667E+009;1.548427194356918E-001;-1.125559136271477E-001;1.718990504741669E-003;7.012529385974631E-005;
2.424833333333334E+009;1.551444530487061E-001;-1.134234070777893E-001;1.743589993566275E-003;1.606207370059565E-004;
2.425000000000000E+009;1.558000147342682E-001;-1.142128482460976E-001;1.746979425661266E-003;1.904277160065249E-004;
2.425166666666667E+009;1.561013162136078E-001;-1.148470789194107E-001;1.633794745430350E-003;1.069773497874849E-004;
2.425333333333334E+009;1.566695421934128E-001;-1.153659522533417E-001;1.793076749891043E-003;2.823617542162538E-004;
2.425500000000000E+009;1.572295874357224E-001;-1.159081533551216E-001;1.761918072588742E-003;1.777057623257861E-004;
2.425666666666667E+009;1.571705341339111E-001;-1.162188872694969E-001;1.721909735351801E-003;4.334646800998598E-004;
2.425833333333334E+009;1.575974076986313E-001;-1.165885552763939E-001;1.770444680005312E-003;2.956246316898614E-004;
2.426000000000000E+009;1.576624363660812E-001;-1.170137450098991E-001;1.853614579886198E-003;2.293209399795160E-004;
2.426166666666667E+009;1.580303311347961E-001;-1.171366274356842E-001;1.731356489472091E-003;2.679630415514112E-004;
2.426333333333334E+009;1.579493135213852E-001;-1.172266528010368E-001;1.820139819756150E-003;2.432872279314324E-004;
2.426500000000000E+009;1.578951478004456E-001;-1.173647865653038E-001;1.973494887351990E-003;1.674658415140584E-004;
2.426666666666667E+009;1.577254682779312E-001;-1.172414347529411E-001;1.994731137529016E-003;2.846875868272036E-004;
2.426833333333334E+009;1.574130356311798E-001;-1.172136887907982E-001;2.061539562419057E-003;2.763013180810958E-004;
2.427000000000000E+009;1.569977849721909E-001;-1.174408793449402E-001;2.080172300338745E-003;1.443071087123826E-004;
2.427166666666667E+009;1.565797030925751E-001;-1.172534152865410E-001;2.211149083450437E-003;2.416021598037332E-004;
2.427333333333334E+009;1.557728052139282E-001;-1.172528713941574E-001;2.233742037788034E-003;2.181078452849761E-004;
2.427500000000000E+009;1.552562862634659E-001;-1.172142773866653E-001;2.125327009707689E-003;9.707829303806648E-005;
2.427666666666667E+009;1.542886346578598E-001;-1.173725202679634E-001;2.151172142475843E-003;7.427755190292373E-005;
2.427833333333334E+009;1.532728970050812E-001;-1.172260418534279E-001;2.457368420436978E-003;1.061602961272001E-004;
