# Version 1.00
#
freq[Hz];re:Trc1_S11;im:Trc1_S11;re:Trc2_S21;im:Trc2_S21;
2.400000000000000E+009;1.548212915658951E-001;6.140263006091118E-002;-2.654643496498466E-003;-2.518796827644110E-003;
2.400166666666667E+009;1.548813730478287E-001;5.967023223638535E-002;-2.770768245682120E-003;-2.485510660335422E-003;
2.400333333333334E+009;1.547745466232300E-001;5.740550532937050E-002;-2.777386689558625E-003;-2.277106977999210E-003;
2.400500000000000E+009;1.550147682428360E-001;5.537328869104385E-002;-2.939506433904171E-003;-2.382749225944281E-003;
2.400666666666667E+009;1.550148576498032E-001;5.309421941637993E-002;-3.013007109984756E-003;-2.267165808007121E-003;
2.400833333333334E+009;1.553625613451004E-001;5.100422725081444E-002;-3.015470923855901E-003;-2.163143828511238E-003;
2.401000000000000E+009;1.557111442089081E-001;4.856238886713982E-002;-3.250427776947618E-003;-2.130074426531792E-003;
2.401166666666667E+009;1.561554223299027E-001;4.647845029830933E-002;-3.315886715427041E-003;-2.109014196321368E-003;
2.401333333333334E+009;1.564260423183441E-001;4.426093399524689E-002;-3.225738182663918E-003;-1.852935296483338E-003;
2.401500000000000E+009;1.570572257041931E-001;4.203867539763451E-002;-3.425837261602283E-003;-1.819270779378712E-003;
2.401666666666667E+009;1.576433628797531E-001;4.004714637994766E-002;-3.450205083936453E-003;-1.888444297946990E-003;
2.401833333333334E+009;1.583218723535538E-001;3.775209933519363E-002;-3.575353417545557E-003;-1.718868617899716E-003;
2.402000000000000E+009;1.589488387107849E-001;3.580886498093605E-002;-3.678635694086552E-003;-1.497259945608676E-003;
2.402166666666667E+009;1.598005741834641E-001;3.378745168447495E-002;-3.811673494055867E-003;-1.462032436393201E-003;
2.402333333333334E+009;1.605168431997299E-001;3.184629976749420E-002;-3.936709836125374E-003;-1.269251224584878E-003;
2.402500000000000E+009;1.617772281169891E-001;3.017302416265011E-002;-3.847525920718908E-003;-1.155248377472162E-003;
2.402666666666667E+009;1.625950187444687E-001;2.844619005918503E-002;-3.947016317397356E-003;-1.118970452807844E-003;
2.402833333333334E+009;1.637556999921799E-001;2.684178762137890E-002;-4.004810936748982E-003;-1.043683965690434E-003;
2.403000000000000E+009;1.646424084901810E-001;2.529926039278507E-002;-4.184859804809094E-003;-8.785079699009657E-004;
2.403166666666667E+009;1.659411489963532E-001;2.376171760261059E-002;-4.236530512571335E-003;-5.859691300429404E-004;
2.403333333333334E+009;1.670270562171936E-001;2.269750833511353E-002;-4.267614800482988E-003;-5.747594987042248E-004;
2.403500000000000E+009;1.680302321910858E-001;2.141008339822292E-002;-4.307657480239868E-003;-3.541370388120413E-004;
2.403666666666667E+009;1.693499684333801E-001;1.998037658631802E-002;-4.348107147961855E-003;-4.662107676267624E-004;
2.403833333333334E+009;1.705083101987839E-001;1.918855495750904E-002;-4.386046435683966E-003;-3.132490674033761E-004;
2.404000000000000E+009;1.716610044240952E-001;1.826729066669941E-002;-4.428402055054903E-003;-1.968135911738500E-004;
2.404166666666667E+009;1.727334260940552E-001;1.730904541909695E-002;-4.451336339116097E-003;-1.696823746897280E-004;
2.404333333333334E+009;1.737525761127472E-001;1.663316786289215E-002;-4.484483972191811E-003;3.776596277020872E-004;
2.404500000000000E+009;1.747229099273682E-001;1.565717719495297E-002;-4.496423527598381E-003;3.412744263187051E-004;
2.404666666666667E+009;1.756527870893478E-001;1.520001702010632E-002;-4.614735487848520E-003;7.520457147620618E-004;
2.404833333333334E+009;1.766319125890732E-001;1.462249923497438E-002;-4.759024828672409E-003;7.669294718652964E-004;
2.405000000000000E+009;1.774289160966873E-001;1.424830593168736E-002;-4.645520821213722E-003;1.237316522747278E-003;
2.405166666666667E+009;1.780025213956833E-001;1.367635373026133E-002;-4.485554993152618E-003;1.390324323438108E-003;
2.405333333333334E+009;1.790212690830231E-001;1.335378549993038E-002;-4.340232349932194E-003;1.426071044988930E-003;
2.405500000000000E+009;1.795895099639893E-001;1.316891331225634E-002;-4.364735446870327E-003;1.741476124152541E-003;
2.405666666666667E+009;1.800795942544937E-001;1.308614481240511E-002;-4.557223990559578E-003;2.058445708826184E-003;
2.405833333333334E+009;1.804193109273911E-001;1.301367022097111E-002;-4.330637864768505E-003;2.109932014718652E-003;
2.406000000000000E+009;1.809064745903015E-001;1.275953743606806E-002;-4.235312808305025E-003;2.288193907588720E-003;
2.406166666666667E+009;1.810821145772934E-001;1.280483137816191E-002;-4.172215238213539E-003;2.464798744767904E-003;
2.406333333333334E+009;1.813337802886963E-001;1.256917789578438E-002;-3.968702629208565E-003;2.552102087065578E-003;
2.406500000000000E+009;1.814644485712051E-001;1.234808191657066E-002;-3.908786457031965E-003;2.621160820126534E-003;
2.406666666666667E+009;1.812898069620132E-001;1.232018135488033E-002;-3.938894718885422E-003;2.896484220400453E-003;
2.406833333333334E+009;1.812776327133179E-001;1.205494441092014E-002;-3.674764418974519E-003;2.859132131561637E-003;
2.407000000000000E+009;1.811216026544571E-001;1.174987573176622E-002;-3.618437796831131E-003;3.092941828072071E-003;
2.407166666666667E+009;1.809108555316925E-001;1.170377060770989E-002;-3.305186284705997E-003;3.231852781027556E-003;
2.407333333333334E+009;1.803880631923676E-001;1.123559009283781E-002;-3.298427211120725E-003;3.352470695972443E-003;
2.407500000000000E+009;1.800587475299835E-001;1.079122908413410E-002;-3.050019964575768E-003;3.407079260796309E-003;
2.407666666666667E+009;1.794774383306503E-001;1.045589614659548E-002;-2.897566650062800E-003;3.444235539063811E-003;
2.407833333333334E+009;1.787654459476471E-001;9.741853922605515E-003;-2.783412812277675E-003;3.711919067427516E-003;
2.408000000000000E+009;1.780844628810883E-001;9.090439416468144E-003;-2.627484733238816E-003;3.602668410167098E-003;
2.408166666666667E+009;1.775819957256317E-001;8.454264141619206E-003;-2.338813152164221E-003;3.734481055289507E-003;
2.408333333333334E+009;1.769326180219650E-001;7.559014949947596E-003;-2.196195069700480E-003;3.795771859586239E-003;
2.408500000000000E+009;1.759853065013886E-001;6.536260712891817E-003;-2.006089314818382E-003;3.834159811958671E-003;
2.408666666666667E+009;1.752166897058487E-001;5.522246006876230E-003;-2.051478251814842E-003;3.868429688736796E-003;
2.408833333333334E+009;1.742473244667053E-001;4.292587283998728E-003;-1.848174841143191E-003;4.003267735242844E-003;
2.409000000000000E+009;1.733763366937637E-001;3.154656151309609E-003;-1.706668059341610E-003;3.917936235666275E-003;
2.409166666666667E+009;1.725393831729889E-001;1.891535473987460E-003;-1.661082496866584E-003;3.943765070289373E-003;
2.409333333333334E+009;1.719322949647903E-001;3.286853607278317E-004;-1.465045264922082E-003;3.803607774898410E-003;
2.409500000000000E+009;1.709257364273071E-001;-1.279137795791030E-003;-1.145338523201644E-003;3.904801560565829E-003;
2.409666666666667E+009;1.701503843069077E-001;-2.708662766963244E-003;-1.078697503544390E-003;3.876375732943416E-003;
2.409833333333334E+009;1.693464815616608E-001;-4.401083569973707E-003;-9.569334215484560E-004;4.046965390443802E-003;
2.410000000000000E+009;1.686909794807434E-001;-6.197619251906872E-003;-7.672368665225804E-004;3.994227387011051E-003;
2.410166666666667E+009;1.682976037263870E-001;-8.071665652096272E-003;-7.156678475439549E-004;3.896692302078009E-003;
2.410333333333334E+009;1.675041019916534E-001;-9.958536364138126E-003;-4.879894258920103E-004;3.934068605303764E-003;
2.410500000000000E+009;1.671418696641922E-001;-1.186925452202559E-002;-4.098500066902489E-004;3.807789413258433E-003;
2.410666666666667E+009;1.666032671928406E-001;-1.409778092056513E-002;-2.348304842598736E-004;3.855305956676602E-003;
2.410833333333334E+009;1.663767248392105E-001;-1.592022925615311E-002;-1.962740207090974E-004;3.873013658449054E-003;
2.411000000000000E+009;1.660173833370209E-001;-1.805142499506474E-002;-1.558302319608629E-004;3.814813680946827E-003;
2.411166666666667E+009;1.658263653516769E-001;-2.009935490787029E-002;1.273563830181956E-004;3.676816355437040E-003;
2.411333333333334E+009;1.657662391662598E-001;-2.221276797354221E-002;1.307609636569396E-004;3.691844874992967E-003;
2.411500000000000E+009;1.656630784273148E-001;-2.433903887867928E-002;2.845444541890174E-004;3.602089593186975E-003;
2.411666666666667E+009;1.659535765647888E-001;-2.645484916865826E-002;4.260956193320453E-004;3.294111695140600E-003;
2.411833333333334E+009;1.661780178546906E-001;-2.847572974860668E-002;6.178583134897053E-004;3.328587859869003E-003;
2.412000000000000E+009;1.664844751358032E-001;-3.063046187162399E-002;5.840151570737362E-004;3.424684051424265E-003;
2.412166666666667E+009;1.667163521051407E-001;-3.277993574738503E-002;5.427693831734359E-004;3.208020003512502E-003;
2.412333333333334E+009;1.673330664634705E-001;-3.464531525969505E-002;6.838385597802699E-004;3.279426135122776E-003;
2.412500000000000E+009;1.676790714263916E-001;-3.648126125335693E-002;9.108433732762933E-004;3.167847637087107E-003;
2.412666666666667E+009;1.683122217655182E-001;-3.855466097593308E-002;9.713360923342407E-004;3.090378129854798E-003;
2.412833333333334E+009;1.688497364521027E-001;-4.029001668095589E-002;8.769880514591932E-004;3.121014451608062E-003;
2.413000000000000E+009;1.694897562265396E-001;-4.207761213183403E-002;9.952603140845895E-004;2.788525540381670E-003;
2.413166666666667E+009;1.702616065740585E-001;-4.374762251973152E-002;1.167997834272683E-003;2.732771914452314E-003;
2.413333333333334E+009;1.710417419672012E-001;-4.530644416809082E-002;1.056583365425468E-003;2.879947423934937E-003;
2.413500000000000E+009;1.716599762439728E-001;-4.685183987021446E-002;1.073315506801009E-003;2.795418025925756E-003;
2.413666666666667E+009;1.723593920469284E-001;-4.839556664228439E-002;1.251466688700020E-003;2.553669502958655E-003;
2.413833333333334E+009;1.731936186552048E-001;-4.950309917330742E-002;1.130940043367446E-003;2.605777932330966E-003;
2.414000000000000E+009;1.739067882299423E-001;-5.091939494013786E-002;1.049519982188940E-003;2.542579546570778E-003;
2.414166666666667E+009;1.747008860111237E-001;-5.199006944894791E-002;1.211563008837402E-003;2.586213639006019E-003;
2.414333333333334E+009;1.753924787044525E-001;-5.311817303299904E-002;1.218616380356252E-003;2.503187395632267E-003;
2.414500000000000E+009;1.762929260730743E-001;-5.393726378679276E-002;1.254271366633475E-003;2.361988415941596E-003;
2.414666666666667E+009;1.768888086080551E-001;-5.478986725211144E-002;1.107139396481216E-003;2.340346341952682E-003;
2.414833333333334E+009;1.773714274168015E-001;-5.555627495050430E-002;1.362972892820835E-003;2.332277595996857E-003;
2.415000000000000E+009;1.778087466955185E-001;-5.618091300129890E-002;1.246568281203508E-003;2.223131945356727E-003;
2.415166666666667E+009;1.781697571277618E-001;-5.674559250473976E-002;1.442606211639941E-003;2.328139962628484E-003;
2.415333333333334E+009;1.787926703691483E-001;-5.728709697723389E-002;1.498002326115966E-003;2.416898962110281E-003;
2.415500000000000E+009;1.791652441024780E-001;-5.762126296758652E-002;1.520518562756479E-003;2.234703162685037E-003;
2.415666666666667E+009;1.793295592069626E-001;-5.777111649513245E-002;1.566795050166547E-003;2.210420556366444E-003;
2.415833333333334E+009;1.794769465923309E-001;-5.813245847821236E-002;1.499182893894613E-003;2.062902320176363E-003;
2.416000000000000E+009;1.794074475765228E-001;-5.830407142639160E-002;1.626763958483934E-003;2.262089634314179E-003;
2.416166666666667E+009;1.796166896820068E-001;-5.845396593213081E-002;1.693361555226147E-003;2.068663947284222E-003;
2.416333333333334E+009;1.794164031744003E-001;-5.849679559469223E-002;1.634246553294361E-003;2.063029445707798E-003;
2.416500000000000E+009;1.792734414339066E-001;-5.871604382991791E-002;1.619546557776630E-003;2.066861605271697E-003;
2.416666666666667E+009;1.786822527647018E-001;-5.866965651512146E-002;1.797918113879859E-003;2.138780662789941E-003;
2.416833333333334E+009;1.784251034259796E-001;-5.878226831555367E-002;1.858624280430377E-003;2.014439320191741E-003;
2.417000000000000E+009;1.777519732713699E-001;-5.891683697700501E-002;1.932732062414289E-003;1.865562284365296E-003;
2.417166666666667E+009;1.770714372396469E-001;-5.883636325597763E-002;1.996524166315794E-003;1.903470605611801E-003;
2.417333333333334E+009;1.763600707054138E-001;-5.888388305902481E-002;1.809611450880766E-003;1.951056299731135E-003;
2.417500000000000E+009;1.754142343997955E-001;-5.919026583433151E-002;1.898726332001388E-003;1.786599284969270E-003;
2.417666666666667E+009;1.745212525129318E-001;-5.922596901655197E-002;2.027529524639249E-003;1.605344121344388E-003;
2.417833333333334E+009;1.735722571611404E-001;-5.945187062025070E-002;1.966076204553247E-003;1.542773796245456E-003;
2.418000000000000E+009;1.724362671375275E-001;-5.973526835441589E-002;2.033178461715579E-003;1.491173286922276E-003;
2.418166666666667E+009;1.711822897195816E-001;-5.993458256125450E-002;2.140952972695231E-003;1.421431428752840E-003;
2.418333333333334E+009;1.701597422361374E-001;-6.050539389252663E-002;2.083047060295939E-003;1.419178675860167E-003;
2.418500000000000E+009;1.688117980957031E-001;-6.089287996292114E-002;2.064654370769858E-003;1.464433385990560E-003;
2.418666666666667E+009;1.675968468189240E-001;-6.153778731822968E-002;2.132411813363433E-003;1.513636787422001E-003;
2.418833333333334E+009;1.660450547933579E-001;-6.200881302356720E-002;2.067034831270576E-003;1.350311096757650E-003;
2.419000000000000E+009;1.646367460489273E-001;-6.280464679002762E-002;2.108933171257377E-003;1.385618583299220E-003;
2.419166666666667E+009;1.634147316217423E-001;-6.353618204593658E-002;2.162080723792315E-003;1.271376502700150E-003;
2.419333333333334E+009;1.618772447109222E-001;-6.438815593719482E-002;2.082229126244783E-003;1.249690307304263E-003;
2.419500000000000E+009;1.606439948081970E-001;-6.557547301054001E-002;2.055564429610968E-003;1.208252855576575E-003;
2.419666666666667E+009;1.593642532825470E-001;-6.662672758102417E-002;2.237224485725164E-003;1.120019936934114E-003;
2.419833333333334E+009;1.580593883991242E-001;-6.763977557420731E-002;2.178997732698917E-003;9.602574864402413E-004;
2.420000000000000E+009;1.569003760814667E-001;-6.903980672359467E-002;2.251908648759127E-003;1.094987266696990E-003;
2.420166666666667E+009;1.556977331638336E-001;-7.038783282041550E-002;2.122987294569612E-003;9.866212494671345E-004;
2.420333333333334E+009;1.544836312532425E-001;-7.194895297288895E-002;2.306893933564425E-003;9.332679328508675E-004;
2.420500000000000E+009;1.536110639572144E-001;-7.312483340501785E-002;2.250446006655693E-003;8.713097777217627E-004;
2.420666666666667E+009;1.524808555841446E-001;-7.468706369400024E-002;2.235247986391187E-003;7.871169364079833E-004;
2.420833333333334E+009;1.514968723058701E-001;-7.639046758413315E-002;2.189859515056014E-003;5.916398949921131E-004;
2.421000000000000E+009;1.507515758275986E-001;-7.814261317253113E-002;2.167388098314405E-003;6.516318535432220E-004;
2.421166666666667E+009;1.499996781349182E-001;-7.982032746076584E-002;2.461588941514492E-003;6.119403406046331E-004;
2.421333333333334E+009;1.496041119098663E-001;-8.157371729612351E-002;2.189594320952892E-003;5.252808332443237E-004;
2.421500000000000E+009;1.489765048027039E-001;-8.335088193416596E-002;2.281002467498183E-003;4.407322558108717E-004;
2.421666666666667E+009;1.486208587884903E-001;-8.507853746414185E-002;2.284739166498184E-003;4.104231193196029E-004;
2.421833333333334E+009;1.484407782554627E-001;-8.701118081808090E-002;2.196289598941803E-003;2.853024343494326E-004;
2.422000000000000E+009;1.480552852153778E-001;-8.894018083810806E-002;2.162978518754244E-003;2.982091100420803E-004;
2.422166666666667E+009;1.479545384645462E-001;-9.081984311342239E-002;2.118904376402497E-003;2.121967263519764E-004;
2.422333333333334E+009;1.479682624340057E-001;-9.271842241287231E-002;2.253387123346329E-003;1.533400209154934E-004;
2.422500000000000E+009;1.480574905872345E-001;-9.430307149887085E-002;2.241191687062383E-003;1.984122645808384E-004;
2.422666666666667E+009;1.482102721929550E-001;-9.622263163328171E-002;2.140502445399761E-003;4.556082785711624E-005;
2.422833333333334E+009;1.485332548618317E-001;-9.800256788730621E-002;2.056455938145518E-003;4.429753244039603E-005;
2.423000000000000E+009;1.486046910285950E-001;-9.961065649986267E-002;2.055081771686673E-003;2.639901867951267E-005;
2.423166666666667E+009;1.493038386106491E-001;-1.012810841202736E-001;1.951405196450651E-003;-2.360128382861149E-005;
2.423333333333334E+009;1.498464792966843E-001;-1.025014519691467E-001;1.950249541550875E-003;5.748685362050310E-005;
2.423500000000000E+009;1.502432525157929E-001;-1.042128205299377E-001;1.835938193835318E-003;-2.739935007411987E-005;
2.423666666666667E+009;1.506298631429672E-001;-1.056793555617333E-001;1.978820655494928E-003;-1.145002097473480E-004;
2.423833333333334E+009;1.514912545681000E-001;-1.070882529020309E-001;1.803385093808174E-003;-1.418291067238897E-004;
2.424000000000000E+009;1.520249694585800E-001;-1.082778796553612E-001;1.767228357493877E-003;-3.861295772367157E-005;
2.424166666666667E+009;1.525196433067322E-001;-1.095670685172081E-001;1.894716056995094E-003;-1.424591609975323E-004;
2.424333333333334E+009;1.532374173402786E-001;-1.104974672198296E-001;1.717901905067265E-003;-1.029474369715899E-004;
2.424500000000000E+009;1.538387387990952E-001;-1.116108819842339E-001;1.843932317569852E-003;-4.820046160602942E-005;
2.424666666666667E+009;1.547329872846603E-001;-1.124502420425415E-001;1.804596977308393E-003;-1.581983960932121E-004;
2.424833333333334E+009;1.550572365522385E-001;-1.132706627249718E-001;1.817705458961427E-003;-1.916241672006436E-005;
2.425000000000000E+009;1.557099670171738E-001;-1.139991134405136E-001;1.690090168267489E-003;-1.659034460317344E-004;
2.425166666666667E+009;1.561817377805710E-001;-1.147255599498749E-001;1.662502298131585E-003;-7.690781058045104E-005;
2.425333333333334E+009;1.566964983940125E-001;-1.153002306818962E-001;1.759804901666939E-003;-2.214075720985420E-005;
2.425500000000000E+009;1.572276949882507E-001;-1.157203465700150E-001;1.767465844750404E-003;4.793495827470906E-005;
2.425666666666667E+009;1.572983413934708E-001;-1.162385642528534E-001;1.806028420105577E-003;2.553830563556403E-005;
2.425833333333334E+009;1.576393842697144E-001;-1.164165735244751E-001;1.842849771492183E-003;1.724446519801859E-005;
2.426000000000000E+009;1.578079611063004E-001;-1.167834922671318E-001;1.698187901638448E-003;-2.032462543866132E-005;
2.426166666666667E+009;1.581124961376190E-001;-1.168686822056770E-001;1.794520532712340E-003;-9.276191849494353E-005;
2.426333333333334E+009;1.579413115978241E-001;-1.171335801482201E-001;1.813203212805092E-003;-5.653477637679316E-005;
2.426500000000000E+009;1.578892171382904E-001;-1.171457991003990E-001;1.799493911676109E-003;-3.183510125381872E-005;
2.426666666666667E+009;1.578976660966873E-001;-1.170892491936684E-001;2.041993662714958E-003;4.560632805805653E-005;
2.426833333333334E+009;1.574160605669022E-001;-1.171178966760635E-001;2.032944001257420E-003;-1.339617156190798E-004;
2.427000000000000E+009;1.570432484149933E-001;-1.172831878066063E-001;2.105230465531349E-003;-1.447838621970732E-005;
2.427166666666667E+009;1.565694063901901E-001;-1.171710714697838E-001;2.147870371118188E-003;1.091920348699205E-004;
2.427333333333334E+009;1.558851599693298E-001;-1.171228289604187E-001;2.165447454899550E-003;6.190639851411106E-006;
2.427500000000000E+009;1.552018225193024E-001;-1.170596629381180E-001;2.187493955716491E-003;-2.307542017661035E-004;
2.427666666666667E+009;1.543108820915222E-001;-1.172146499156952E-001;2.165439771488309E-003;-1.353127881884575E-004;
2.427833333333334E+009;1.533180922269821E-001;-1.172765195369721E-001;2.314684679731727E-003;-2.044016000581905E-004;
