# Version 1.00
#
freq[Hz];re:Trc1_S11;im:Trc1_S11;re:Trc2_S21;im:Trc2_S21;
2.400000000000000E+009;1.547761410474777E-001;6.161509826779366E-002;-2.728902501985431E-003;-2.354165073484182E-003;
2.400166666666667E+009;1.547730714082718E-001;5.968599766492844E-002;-2.651433460414410E-003;-2.143987920135260E-003;
2.400333333333334E+009;1.547769755125046E-001;5.764029547572136E-002;-2.960853744298220E-003;-2.209963509812951E-003;
2.400500000000000E+009;1.550490111112595E-001;5.526802688837051E-002;-2.892037155106664E-003;-2.064034808427095E-003;
2.400666666666667E+009;1.551955491304398E-001;5.309762433171272E-002;-3.079242771491408E-003;-2.051348332315683E-003;
2.400833333333334E+009;1.553906351327896E-001;5.109388381242752E-002;-3.152225632220507E-003;-2.021624473854899E-003;
2.401000000000000E+009;1.556223928928375E-001;4.874389991164208E-002;-3.187716938555241E-003;-1.895875553600490E-003;
2.401166666666667E+009;1.560821235179901E-001;4.649223387241364E-002;-3.226833650842309E-003;-1.832433394156396E-003;
2.401333333333334E+009;1.564951688051224E-001;4.418202489614487E-002;-3.384129842743278E-003;-1.725394395180047E-003;
2.401500000000000E+009;1.571983695030212E-001;4.208191856741905E-002;-3.471875097602606E-003;-1.603126642294228E-003;
2.401666666666667E+009;1.578146815299988E-001;4.015202447772026E-002;-3.528581932187080E-003;-1.598691218532622E-003;
2.401833333333334E+009;1.583112329244614E-001;3.799812495708466E-002;-3.635990200564265E-003;-1.499728299677372E-003;
2.402000000000000E+009;1.588775813579559E-001;3.588869050145149E-002;-3.748638788238168E-003;-1.338067348115146E-003;
2.402166666666667E+009;1.599152833223343E-001;3.391192108392716E-002;-3.661168972030282E-003;-1.305469311773777E-003;
2.402333333333334E+009;1.606565862894058E-001;3.197526931762695E-002;-3.693319391459227E-003;-1.367170712910593E-003;
2.402500000000000E+009;1.617949604988098E-001;3.016539849340916E-002;-3.884383477270603E-003;-1.085354597307742E-003;
2.402666666666667E+009;1.627844721078873E-001;2.856347151100636E-002;-3.974507097154856E-003;-1.066072611138225E-003;
2.402833333333334E+009;1.637317836284638E-001;2.694448456168175E-002;-3.928116522729397E-003;-9.466604096814990E-004;
2.403000000000000E+009;1.648014038801193E-001;2.542119845747948E-002;-4.133794456720352E-003;-5.162637098692358E-004;
2.403166666666667E+009;1.658748686313629E-001;2.405824884772301E-002;-4.074079450219870E-003;-6.072253454476595E-004;
2.403333333333334E+009;1.670882403850555E-001;2.272227033972740E-002;-4.193285945802927E-003;-5.040313699282706E-004;
2.403500000000000E+009;1.682376563549042E-001;2.137127704918385E-002;-4.303812049329281E-003;-2.826839918270707E-004;
2.403666666666667E+009;1.690785586833954E-001;2.029056847095490E-002;-4.321488551795483E-003;-9.884945029625669E-005;
2.403833333333334E+009;1.704347729682922E-001;1.911535114049912E-002;-4.325431305915117E-003;2.833304097293876E-005;
2.404000000000000E+009;1.715989559888840E-001;1.827996224164963E-002;-4.331368952989578E-003;2.112433285219595E-004;
2.404166666666667E+009;1.725107878446579E-001;1.720337569713593E-002;-4.424640443176031E-003;3.989417455159128E-004;
2.404333333333334E+009;1.736135780811310E-001;1.667193323373795E-002;-4.530150443315506E-003;5.726448143832386E-004;
2.404500000000000E+009;1.747054308652878E-001;1.568412035703659E-002;-4.454001318663359E-003;5.342762451618910E-004;
2.404666666666667E+009;1.756568849086762E-001;1.510232221335173E-002;-4.524098243564367E-003;8.255330030806363E-004;
2.404833333333334E+009;1.764884144067764E-001;1.458694692701101E-002;-4.373340867459774E-003;9.437940316274762E-004;
2.405000000000000E+009;1.774062812328339E-001;1.433754712343216E-002;-4.300565458834171E-003;1.274849870242178E-003;
2.405166666666667E+009;1.782259047031403E-001;1.384288817644119E-002;-4.424213897436857E-003;1.341336057521403E-003;
2.405333333333334E+009;1.790098249912262E-001;1.337190624326468E-002;-4.321648739278317E-003;1.523208688013256E-003;
2.405500000000000E+009;1.795722544193268E-001;1.330585964024067E-002;-4.275159910321236E-003;1.792141236364842E-003;
2.405666666666667E+009;1.801802366971970E-001;1.314890850335360E-002;-4.186041187494993E-003;1.945114345289767E-003;
2.405833333333334E+009;1.805084049701691E-001;1.307829283177853E-002;-4.257153719663620E-003;2.164505654945970E-003;
2.406000000000000E+009;1.808773130178452E-001;1.266829948872328E-002;-4.063866566866636E-003;2.178868046030402E-003;
2.406166666666667E+009;1.810340732336044E-001;1.273348554968834E-002;-4.016144201159477E-003;2.408234868198633E-003;
2.406333333333334E+009;1.814352571964264E-001;1.251995842903853E-002;-3.929750062525272E-003;2.769134007394314E-003;
2.406500000000000E+009;1.814302206039429E-001;1.241094805300236E-002;-3.824350424110889E-003;2.664494328200817E-003;
2.406666666666667E+009;1.812438964843750E-001;1.223656255751848E-002;-3.612048225477338E-003;2.905897563323379E-003;
2.406833333333334E+009;1.811287701129913E-001;1.207405328750610E-002;-3.493363969027996E-003;3.072498831897974E-003;
2.407000000000000E+009;1.811985671520233E-001;1.177090127021074E-002;-3.318335860967636E-003;2.988630905747414E-003;
2.407166666666667E+009;1.810270100831986E-001;1.159432623535395E-002;-3.199808532372117E-003;3.138962201774120E-003;
2.407333333333334E+009;1.805788129568100E-001;1.121994573622942E-002;-3.091673599556088E-003;3.286690451204777E-003;
2.407500000000000E+009;1.799510717391968E-001;1.080835424363613E-002;-2.829615492373705E-003;3.477422753348947E-003;
2.407666666666667E+009;1.796035766601563E-001;1.038705278187990E-002;-2.760463161394000E-003;3.439575433731079E-003;
2.407833333333334E+009;1.788788139820099E-001;9.750706143677235E-003;-2.609078306704760E-003;3.595981514081359E-003;
2.408000000000000E+009;1.783845424652100E-001;9.138018824160099E-003;-2.526018302887678E-003;3.714302554726601E-003;
2.408166666666667E+009;1.776008158922195E-001;8.527366444468498E-003;-2.319595776498318E-003;3.601257456466556E-003;
2.408333333333334E+009;1.769763976335526E-001;7.593631278723478E-003;-2.084610285237432E-003;3.744151443243027E-003;
2.408500000000000E+009;1.760974079370499E-001;6.643292028456926E-003;-1.929130754433572E-003;3.785915672779083E-003;
2.408666666666667E+009;1.752760112285614E-001;5.516727920621634E-003;-1.914148917421699E-003;3.807334695011377E-003;
2.408833333333334E+009;1.743718385696411E-001;4.491687752306461E-003;-1.703709946013987E-003;3.823382547125220E-003;
2.409000000000000E+009;1.735547780990601E-001;3.254909301176667E-003;-1.536703901365399E-003;3.837274853140116E-003;
2.409166666666667E+009;1.728169471025467E-001;1.854138448834419E-003;-1.413898193277419E-003;3.914296161383390E-003;
2.409333333333334E+009;1.719602942466736E-001;3.857882111333311E-004;-1.331032719463110E-003;3.842320526018739E-003;
2.409500000000000E+009;1.710290461778641E-001;-1.288149971514940E-003;-1.249239663593471E-003;4.000469110906124E-003;
2.409666666666667E+009;1.701248735189438E-001;-2.752587432041764E-003;-9.785665897652507E-004;3.929124213755131E-003;
2.409833333333334E+009;1.694992333650589E-001;-4.451805260032415E-003;-7.693116203881800E-004;3.944597207009792E-003;
2.410000000000000E+009;1.689056456089020E-001;-6.250877864658833E-003;-7.499538478441536E-004;3.807962872087956E-003;
2.410166666666667E+009;1.683219522237778E-001;-8.004701696336269E-003;-5.406185518950224E-004;4.047490190714598E-003;
2.410333333333334E+009;1.675607711076737E-001;-9.984849020838738E-003;-4.747764323838055E-004;3.824846120551229E-003;
2.410500000000000E+009;1.673068702220917E-001;-1.195803284645081E-002;-3.396303218323737E-004;3.713256213814020E-003;
2.410666666666667E+009;1.666997224092484E-001;-1.411191467195749E-002;-1.531330781290308E-004;3.790130373090506E-003;
2.410833333333334E+009;1.663688868284226E-001;-1.613024063408375E-002;-1.612371270311996E-004;3.836366115137935E-003;
2.411000000000000E+009;1.662231832742691E-001;-1.819615438580513E-002;1.609019964234904E-004;3.775704884901643E-003;
2.411166666666667E+009;1.659589409828186E-001;-2.028230763971806E-002;1.615300716366619E-004;3.699437249451876E-003;
2.411333333333334E+009;1.660410612821579E-001;-2.224641479551792E-002;2.640409220475704E-004;3.694321494549513E-003;
2.411500000000000E+009;1.658654361963272E-001;-2.447641827166081E-002;3.717017243616283E-004;3.403781447559595E-003;
2.411666666666667E+009;1.659221202135086E-001;-2.654361538589001E-002;4.796056309714913E-004;3.489669412374497E-003;
2.411833333333334E+009;1.662330925464630E-001;-2.850775048136711E-002;5.132930818945169E-004;3.463251981884241E-003;
2.412000000000000E+009;1.665149927139282E-001;-3.063987940549851E-002;7.095279288478196E-004;3.331419080495834E-003;
2.412166666666667E+009;1.667667776346207E-001;-3.281445428729057E-002;7.753145182505250E-004;3.242070088163018E-003;
2.412333333333334E+009;1.674340665340424E-001;-3.472834080457687E-002;7.791177486069500E-004;3.221731632947922E-003;
2.412500000000000E+009;1.677496135234833E-001;-3.658448159694672E-002;9.350341279059649E-004;3.137196879833937E-003;
2.412666666666667E+009;1.681754738092423E-001;-3.855913877487183E-002;9.732486796565354E-004;2.880740910768509E-003;
2.412833333333334E+009;1.691265404224396E-001;-4.059806093573570E-002;9.602163336239755E-004;2.964413957670331E-003;
2.413000000000000E+009;1.696932315826416E-001;-4.212336987257004E-002;1.128225936554372E-003;2.900413936004043E-003;
2.413166666666667E+009;1.702924221754074E-001;-4.397180676460266E-002;1.194358221255243E-003;2.670114627107978E-003;
2.413333333333334E+009;1.708661764860153E-001;-4.544612020254135E-002;1.302288379520178E-003;2.769110724329948E-003;
2.413500000000000E+009;1.716969609260559E-001;-4.704690724611282E-002;1.295851776376367E-003;2.668801462277770E-003;
2.413666666666667E+009;1.725037693977356E-001;-4.854739084839821E-002;1.209929934702814E-003;2.599790692329407E-003;
2.413833333333334E+009;1.731901168823242E-001;-4.984932392835617E-002;1.269842265173793E-003;2.470376668497920E-003;
2.414000000000000E+009;1.739131957292557E-001;-5.107316747307777E-002;1.343192998319864E-003;2.485664095729590E-003;
2.414166666666667E+009;1.746417135000229E-001;-5.214042961597443E-002;1.298944349400699E-003;2.378898672759533E-003;
2.414333333333334E+009;1.754279285669327E-001;-5.336731672286987E-002;1.419783802703023E-003;2.387069165706635E-003;
2.414500000000000E+009;1.762110143899918E-001;-5.412322655320168E-002;1.303385361097753E-003;2.062958898022771E-003;
2.414666666666667E+009;1.767583787441254E-001;-5.490050464868546E-002;1.389609300531447E-003;2.299246145412326E-003;
2.414833333333334E+009;1.772985160350800E-001;-5.582289770245552E-002;1.387003809213638E-003;2.173011191189289E-003;
2.415000000000000E+009;1.778606325387955E-001;-5.640195682644844E-002;1.454102573916316E-003;2.244089497253299E-003;
2.415166666666667E+009;1.782448142766953E-001;-5.691048502922058E-002;1.417966093868017E-003;2.247364493086934E-003;
2.415333333333334E+009;1.788238734006882E-001;-5.736505240201950E-002;1.417701249010861E-003;2.118595177307725E-003;
2.415500000000000E+009;1.789800375699997E-001;-5.760826170444489E-002;1.471132505685091E-003;2.039700746536255E-003;
2.415666666666667E+009;1.791509389877319E-001;-5.803187564015389E-002;1.463818829506636E-003;2.092828508466482E-003;
2.415833333333334E+009;1.794456690549851E-001;-5.821106210350990E-002;1.499339588917792E-003;2.054289449006319E-003;
2.416000000000000E+009;1.793676763772965E-001;-5.840169265866280E-002;1.445210538804531E-003;1.960347639396787E-003;
2.416166666666667E+009;1.795167177915573E-001;-5.848045647144318E-002;1.641515875235200E-003;1.936423941515386E-003;
2.416333333333334E+009;1.793265938758850E-001;-5.857381224632263E-002;1.711441669613123E-003;1.909166341647506E-003;
2.416500000000000E+009;1.789768338203430E-001;-5.871048197150230E-002;1.486222841776907E-003;1.889700652100146E-003;
2.416666666666667E+009;1.785230338573456E-001;-5.866918340325356E-002;1.757089048624039E-003;1.775182550773025E-003;
2.416833333333334E+009;1.783332079648972E-001;-5.879043415188789E-002;1.673041377216578E-003;1.698683481663466E-003;
2.417000000000000E+009;1.775305718183518E-001;-5.901753902435303E-002;1.817894284613431E-003;1.748944167047739E-003;
2.417166666666667E+009;1.769901961088181E-001;-5.882203951478005E-002;1.706156763248146E-003;1.735395286232233E-003;
2.417333333333334E+009;1.763153523206711E-001;-5.878554657101631E-002;1.831374131143093E-003;1.435008714906871E-003;
2.417500000000000E+009;1.753391176462174E-001;-5.929225683212280E-002;1.769804512150586E-003;1.516416552476585E-003;
2.417666666666667E+009;1.745335161685944E-001;-5.920523405075073E-002;1.734867226332426E-003;1.404541078954935E-003;
2.417833333333334E+009;1.734016090631485E-001;-5.937868356704712E-002;1.774781849235296E-003;1.571073313243687E-003;
2.418000000000000E+009;1.723066121339798E-001;-5.978362634778023E-002;1.787177636288106E-003;1.429074443876743E-003;
2.418166666666667E+009;1.711364686489105E-001;-5.993068963289261E-002;1.958877081051469E-003;1.531817601062357E-003;
2.418333333333334E+009;1.701012402772903E-001;-6.036721542477608E-002;1.952119055204094E-003;1.257962081581354E-003;
2.418500000000000E+009;1.685395240783691E-001;-6.080122664570808E-002;1.929299556650221E-003;1.249712426215410E-003;
2.418666666666667E+009;1.674924045801163E-001;-6.152560189366341E-002;1.986567629501224E-003;1.269327825866640E-003;
2.418833333333334E+009;1.659539490938187E-001;-6.206592917442322E-002;1.983279595151544E-003;1.309647108428180E-003;
2.419000000000000E+009;1.646541208028793E-001;-6.276004016399384E-002;1.994162565097213E-003;1.218626857735217E-003;
2.419166666666667E+009;1.632387191057205E-001;-6.353507190942764E-002;2.093899529427290E-003;1.057842280715704E-003;
2.419333333333334E+009;1.618220955133438E-001;-6.427834182977676E-002;2.185440156608820E-003;1.016682246699929E-003;
2.419500000000000E+009;1.606494933366776E-001;-6.548110395669937E-002;1.975643681362271E-003;1.096730236895382E-003;
2.419666666666667E+009;1.593122631311417E-001;-6.654142588376999E-002;2.123735612258315E-003;1.023046323098242E-003;
2.419833333333334E+009;1.579014956951141E-001;-6.778666377067566E-002;2.172369044274092E-003;9.007047046907246E-004;
2.420000000000000E+009;1.566925793886185E-001;-6.903581321239471E-002;2.066550077870488E-003;1.076399465091527E-003;
2.420166666666667E+009;1.556220352649689E-001;-7.028359919786453E-002;2.188336802646518E-003;9.063691250048578E-004;
2.420333333333334E+009;1.544554680585861E-001;-7.166232913732529E-002;2.133626025170088E-003;7.124667754396796E-004;
2.420500000000000E+009;1.534786522388458E-001;-7.310202717781067E-002;2.198234898969531E-003;8.138343691825867E-004;
2.420666666666667E+009;1.524343043565750E-001;-7.453247904777527E-002;2.113968832418323E-003;6.253871833905578E-004;
2.420833333333334E+009;1.516486704349518E-001;-7.630343735218048E-002;2.225685166195035E-003;7.449254044331610E-004;
2.421000000000000E+009;1.508906632661820E-001;-7.811632752418518E-002;2.198590664193034E-003;7.821018225513399E-004;
2.421166666666667E+009;1.500499248504639E-001;-7.986181974411011E-002;2.235256601125002E-003;6.288815638981760E-004;
2.421333333333334E+009;1.494850218296051E-001;-8.162469416856766E-002;2.297340426594019E-003;4.908081609755755E-004;
2.421500000000000E+009;1.489627957344055E-001;-8.338075131177902E-002;2.155372174456716E-003;6.194513407535851E-004;
2.421666666666667E+009;1.485254913568497E-001;-8.512637019157410E-002;2.188422484323382E-003;3.011311055161059E-004;
2.421833333333334E+009;1.482422202825546E-001;-8.691647648811340E-002;2.244281349703670E-003;4.572783946059644E-004;
2.422000000000000E+009;1.480896174907684E-001;-8.890164643526077E-002;2.095689531415701E-003;1.887726102722809E-004;
2.422166666666667E+009;1.480550915002823E-001;-9.089995920658112E-002;1.973338890820742E-003;3.038502181880176E-004;
2.422333333333334E+009;1.478881388902664E-001;-9.260458499193192E-002;2.064275788143277E-003;1.419763575540856E-004;
2.422500000000000E+009;1.480435132980347E-001;-9.419991075992584E-002;2.065715147182345E-003;1.451933640055358E-004;
2.422666666666667E+009;1.480415612459183E-001;-9.616862982511520E-002;2.065850421786308E-003;1.561651442898437E-004;
2.422833333333334E+009;1.486019641160965E-001;-9.804572910070419E-002;2.005371497943997E-003;9.408519690623507E-005;
2.423000000000000E+009;1.489069461822510E-001;-9.957862645387650E-002;1.868238439783454E-003;9.091936954064295E-005;
2.423166666666667E+009;1.492056101560593E-001;-1.013336852192879E-001;1.922207069583237E-003;1.985112066904549E-005;
2.423333333333334E+009;1.497565209865570E-001;-1.026315093040466E-001;1.945957192219794E-003;2.717926327022724E-005;
2.423500000000000E+009;1.502193808555603E-001;-1.043032109737396E-001;1.956238411366940E-003;-1.371218531858176E-004;
2.423666666666667E+009;1.507164984941483E-001;-1.058692410588265E-001;1.846197177655995E-003;-3.533632479957305E-005;
2.423833333333334E+009;1.514074653387070E-001;-1.072096526622772E-001;1.734915655106306E-003;-6.361637497320771E-005;
2.424000000000000E+009;1.518525183200836E-001;-1.082755550742149E-001;1.831075176596642E-003;3.070279854000546E-005;
2.424166666666667E+009;1.525213867425919E-001;-1.095094755291939E-001;1.763459062203765E-003;-1.189993236039300E-005;
2.424333333333334E+009;1.531501263380051E-001;-1.105379760265350E-001;1.744217122904956E-003;-6.223066884558648E-005;
2.424500000000000E+009;1.538994461297989E-001;-1.116563752293587E-001;1.769409864209592E-003;-2.374991745455191E-004;
2.424666666666667E+009;1.546366959810257E-001;-1.125028356909752E-001;1.685740775428712E-003;-1.002870430966141E-005;
2.424833333333334E+009;1.550697088241577E-001;-1.132805198431015E-001;1.779992831870914E-003;-1.178107486339286E-004;
2.425000000000000E+009;1.556292623281479E-001;-1.141368299722672E-001;1.753863645717502E-003;-9.282393875764683E-005;
2.425166666666667E+009;1.561116874217987E-001;-1.148092448711395E-001;1.629196223802865E-003;4.693812297773548E-005;
2.425333333333334E+009;1.566556394100189E-001;-1.153357103466988E-001;1.491311937570572E-003;-9.053922985913232E-005;
2.425500000000000E+009;1.571113318204880E-001;-1.158202290534973E-001;1.750054419972003E-003;1.027859107125551E-004;
2.425666666666667E+009;1.572599261999130E-001;-1.162390336394310E-001;1.713275210931897E-003;-1.310089719481766E-004;
2.425833333333334E+009;1.576829105615616E-001;-1.164875775575638E-001;1.751038711518049E-003;1.170263567473739E-004;
2.426000000000000E+009;1.577450037002564E-001;-1.168266460299492E-001;1.767906360328198E-003;1.353233237750828E-004;
2.426166666666667E+009;1.580269336700440E-001;-1.170812249183655E-001;1.692907884716988E-003;1.453895965823904E-004;
2.426333333333334E+009;1.579162031412125E-001;-1.172694414854050E-001;1.769231515936554E-003;5.863711339770816E-005;
2.426500000000000E+009;1.579141765832901E-001;-1.171788722276688E-001;1.928430749103427E-003;6.388861947925761E-005;
2.426666666666667E+009;1.577710658311844E-001;-1.171519383788109E-001;1.894533634185791E-003;-4.561790410662070E-005;
2.426833333333334E+009;1.574485898017883E-001;-1.172078028321266E-001;1.960223773494363E-003;9.543192572891712E-005;
2.427000000000000E+009;1.570148319005966E-001;-1.173812225461006E-001;1.950069097802043E-003;6.278409273363650E-005;
2.427166666666667E+009;1.564446091651917E-001;-1.171525493264198E-001;2.131658606231213E-003;9.847638284554705E-005;
2.427333333333334E+009;1.558196097612381E-001;-1.172108799219132E-001;2.213091822341085E-003;8.803103992249817E-005;
2.427500000000000E+009;1.551443040370941E-001;-1.172512248158455E-001;2.120740944519639E-003;-1.813928247429431E-005;
2.427666666666667E+009;1.542269289493561E-001;-1.172398850321770E-001;2.264029113575816E-003;8.610528311692178E-005;
2.427833333333334E+009;1.531725078821182E-001;-1.171924620866776E-001;2.197634661570191E-003;-7.033839210635051E-005;
