# Version 1.00
#
freq[Hz];re:Trc1_S11;im:Trc1_S11;re:Trc2_S21;im:Trc2_S21;
2.400000000000000E+009;1.564012020826340E-001;1.054863184690476E-001;2.489149803295732E-003;-2.745445817708969E-003;
2.400166666666667E+009;1.562668383121491E-001;1.032605692744255E-001;2.296071033924818E-003;-2.753701061010361E-003;
2.400333333333334E+009;1.565698683261871E-001;1.009451076388359E-001;2.445704070851207E-003;-2.718562493100762E-003;
2.400500000000000E+009;1.567151248455048E-001;9.844476729631424E-002;2.351238857954741E-003;-2.705604536458850E-003;
2.400666666666667E+009;1.569646000862122E-001;9.606600552797318E-002;2.193037653341889E-003;-2.565915463492274E-003;
2.400833333333334E+009;1.571779251098633E-001;9.341605007648468E-002;2.416276838630438E-003;-2.681037876754999E-003;
2.401000000000000E+009;1.575052440166473E-001;9.063015878200531E-002;2.360966987907887E-003;-2.672027563676238E-003;
2.401166666666667E+009;1.576569974422455E-001;8.813001960515976E-002;2.301613334566355E-003;-2.709874650463462E-003;
2.401333333333334E+009;1.583064943552017E-001;8.546240627765656E-002;2.233332721516490E-003;-2.841720357537270E-003;
2.401500000000000E+009;1.587496548891068E-001;8.266609907150269E-002;2.331654774025083E-003;-2.931215800344944E-003;
2.401666666666667E+009;1.592524051666260E-001;8.008779585361481E-002;2.167472615838051E-003;-3.015447175130248E-003;
2.401833333333334E+009;1.597285568714142E-001;7.762949168682098E-002;2.057789824903011E-003;-3.062223084270954E-003;
2.402000000000000E+009;1.605593711137772E-001;7.496165484189987E-002;1.981278881430626E-003;-3.189390059560537E-003;
2.402166666666667E+009;1.614223420619965E-001;7.241526246070862E-002;1.951436861418188E-003;-3.268949454650283E-003;
2.402333333333334E+009;1.623350679874420E-001;7.004874944686890E-002;1.911935280077159E-003;-3.350043902173638E-003;
2.402500000000000E+009;1.633094549179077E-001;6.764575093984604E-002;1.637875218875706E-003;-3.501663915812969E-003;
2.402666666666667E+009;1.645378917455673E-001;6.566871702671051E-002;1.457324717193842E-003;-3.627112833783031E-003;
2.402833333333334E+009;1.657525300979614E-001;6.337340176105499E-002;1.375028979964554E-003;-3.476308891549707E-003;
2.403000000000000E+009;1.669116467237473E-001;6.109686940908432E-002;1.239810837432742E-003;-3.546569729223847E-003;
2.403166666666667E+009;1.686419844627380E-001;5.923520401120186E-002;1.055150991305709E-003;-3.615603782236576E-003;
2.403333333333334E+009;1.698401421308518E-001;5.708390474319458E-002;7.456709863618016E-004;-3.496889490634203E-003;
2.403500000000000E+009;1.714226305484772E-001;5.511254444718361E-002;6.546145305037499E-004;-3.391483332961798E-003;
2.403666666666667E+009;1.729624420404434E-001;5.318752676248550E-002;6.757652154192329E-004;-3.337792120873928E-003;
2.403833333333334E+009;1.743965893983841E-001;5.150901898741722E-002;5.776784382760525E-004;-3.284094389528036E-003;
2.404000000000000E+009;1.756887286901474E-001;4.993923753499985E-002;4.294017853680998E-004;-3.193673444911838E-003;
2.404166666666667E+009;1.773551404476166E-001;4.845283925533295E-002;5.382664385251701E-004;-3.021763637661934E-003;
2.404333333333334E+009;1.786961704492569E-001;4.715508595108986E-002;5.610692314803600E-004;-2.929258858785033E-003;
2.404500000000000E+009;1.802119463682175E-001;4.586722329258919E-002;5.930957267992199E-004;-3.044787095859647E-003;
2.404666666666667E+009;1.816583871841431E-001;4.479177296161652E-002;6.092051626183093E-004;-2.829118398949504E-003;
2.404833333333334E+009;1.832235306501389E-001;4.365929588675499E-002;7.837835000827909E-004;-3.045520512387157E-003;
2.405000000000000E+009;1.843035817146301E-001;4.296916350722313E-002;5.547854816541076E-004;-3.174397628754377E-003;
2.405166666666667E+009;1.856076866388321E-001;4.215186461806297E-002;6.853263475932181E-004;-3.074234584346414E-003;
2.405333333333334E+009;1.868705302476883E-001;4.161801189184189E-002;5.561478319577873E-004;-3.240367397665978E-003;
2.405500000000000E+009;1.879311352968216E-001;4.122559353709221E-002;5.798749043606222E-004;-3.284817328676581E-003;
2.405666666666667E+009;1.890518218278885E-001;4.066636413335800E-002;3.837007388938218E-004;-3.436231752857566E-003;
2.405833333333334E+009;1.902231872081757E-001;4.038929566740990E-002;1.741266896715388E-004;-3.595763584598899E-003;
2.406000000000000E+009;1.910291314125061E-001;4.000566527247429E-002;2.719059411901981E-004;-3.405048511922360E-003;
2.406166666666667E+009;1.918820440769196E-001;3.985208272933960E-002;6.290366582106799E-005;-3.520648460835218E-003;
2.406333333333334E+009;1.927645802497864E-001;3.966883569955826E-002;-1.973522885236889E-004;-3.628070699051023E-003;
2.406500000000000E+009;1.933645904064179E-001;3.954585641622543E-002;-2.782110241241753E-004;-3.388065146282315E-003;
2.406666666666667E+009;1.939483582973480E-001;3.935204818844795E-002;-2.999184071086347E-004;-3.360708011314273E-003;
2.406833333333334E+009;1.943549811840057E-001;3.930482640862465E-002;-3.440937143750489E-004;-3.263752209022641E-003;
2.407000000000000E+009;1.946611404418945E-001;3.944662585854530E-002;-4.898627521470189E-004;-3.129426855593920E-003;
2.407166666666667E+009;1.950723975896835E-001;3.889835998415947E-002;-5.495733930729330E-004;-3.213856834918261E-003;
2.407333333333334E+009;1.949835866689682E-001;3.901504725217819E-002;-4.749422369059175E-004;-3.176510799676180E-003;
2.407500000000000E+009;1.949680000543594E-001;3.873311355710030E-002;-3.603262593969703E-004;-3.077971749007702E-003;
2.407666666666667E+009;1.949343830347061E-001;3.862057626247406E-002;-4.115034535061568E-004;-3.095865948125720E-003;
2.407833333333334E+009;1.945447325706482E-001;3.829549998044968E-002;-4.103588580619544E-004;-3.141226014122367E-003;
2.408000000000000E+009;1.944369673728943E-001;3.797342628240585E-002;-4.150759777985513E-004;-3.234278177842498E-003;
2.408166666666667E+009;1.940557807683945E-001;3.756158053874970E-002;-4.190789477434009E-004;-3.211339004337788E-003;
2.408333333333334E+009;1.937953978776932E-001;3.700592741370201E-002;-3.231377340853214E-004;-3.303918056190014E-003;
2.408500000000000E+009;1.930252015590668E-001;3.642399236559868E-002;-4.372201801743358E-004;-3.335632150992751E-003;
2.408666666666667E+009;1.926489621400833E-001;3.584727272391319E-002;-4.736082046292722E-004;-3.579460084438324E-003;
2.408833333333334E+009;1.921350061893463E-001;3.485186770558357E-002;-4.162831173744053E-004;-3.594574518501759E-003;
2.409000000000000E+009;1.913977861404419E-001;3.366156294941902E-002;-5.817143828608096E-004;-3.762789536267519E-003;
2.409166666666667E+009;1.905999183654785E-001;3.276480734348297E-002;-5.894400528632104E-004;-3.774850629270077E-003;
2.409333333333334E+009;1.898708939552307E-001;3.180669248104096E-002;-8.241867180913687E-004;-3.828514600172639E-003;
2.409500000000000E+009;1.889006346464157E-001;3.033214993774891E-002;-1.105108647607267E-003;-4.019651096314192E-003;
2.409666666666667E+009;1.881644874811173E-001;2.905265241861343E-002;-1.234754454344511E-003;-4.100962541997433E-003;
2.409833333333334E+009;1.871879547834396E-001;2.750293910503388E-002;-1.492767711170018E-003;-3.895745612680912E-003;
2.410000000000000E+009;1.864259541034699E-001;2.587417326867580E-002;-1.577456248924136E-003;-4.158206284046173E-003;
2.410166666666667E+009;1.856433153152466E-001;2.411160618066788E-002;-1.758393482305110E-003;-4.026256967335939E-003;
2.410333333333334E+009;1.849444210529327E-001;2.209792844951153E-002;-1.956639345735312E-003;-4.092186689376831E-003;
2.410500000000000E+009;1.842288523912430E-001;2.049398794770241E-002;-2.160078613087535E-003;-3.866233630105853E-003;
2.410666666666667E+009;1.835457086563110E-001;1.830617152154446E-002;-2.503468655049801E-003;-3.910681232810020E-003;
2.410833333333334E+009;1.828711479902268E-001;1.639084890484810E-002;-2.399101154878736E-003;-3.922850359231234E-003;
2.411000000000000E+009;1.824673563241959E-001;1.412645820528269E-002;-2.596391597762704E-003;-3.931089770048857E-003;
2.411166666666667E+009;1.816992163658142E-001;1.219962723553181E-002;-2.886482281610370E-003;-3.873474197462201E-003;
2.411333333333334E+009;1.815220862627029E-001;9.722472168505192E-003;-2.933442592620850E-003;-3.630843013525009E-003;
2.411500000000000E+009;1.811966747045517E-001;7.519194390624762E-003;-3.162156790494919E-003;-3.550353460013866E-003;
2.411666666666667E+009;1.811259239912033E-001;5.405128002166748E-003;-3.265447681769729E-003;-3.638831432908773E-003;
2.411833333333334E+009;1.809522211551666E-001;3.195046214386821E-003;-3.461488289758563E-003;-3.623951226472855E-003;
2.412000000000000E+009;1.812496632337570E-001;6.807261379435659E-004;-3.533626208081842E-003;-3.211185568943620E-003;
2.412166666666667E+009;1.813211590051651E-001;-1.332595827989280E-003;-3.743860870599747E-003;-3.380824811756611E-003;
2.412333333333334E+009;1.815873086452484E-001;-3.713523736223579E-003;-3.927676007151604E-003;-3.075908171012998E-003;
2.412500000000000E+009;1.821430772542954E-001;-5.904014222323895E-003;-3.921179100871086E-003;-3.008674830198288E-003;
2.412666666666667E+009;1.825389117002487E-001;-8.112980984151363E-003;-4.335053730756044E-003;-2.938122721388936E-003;
2.412833333333334E+009;1.832991689443588E-001;-1.035850495100021E-002;-4.512161016464233E-003;-2.899671439081430E-003;
2.413000000000000E+009;1.840551495552063E-001;-1.269926875829697E-002;-4.665042273700237E-003;-2.522589173167944E-003;
2.413166666666667E+009;1.846968680620194E-001;-1.462278515100479E-002;-5.003434605896473E-003;-2.525581512600184E-003;
2.413333333333334E+009;1.856892853975296E-001;-1.674861460924149E-002;-5.196817684918642E-003;-2.098124008625746E-003;
2.413500000000000E+009;1.865079700946808E-001;-1.890780217945576E-002;-5.254048854112625E-003;-1.948584453202784E-003;
2.413666666666667E+009;1.875831633806229E-001;-2.094664424657822E-002;-5.407408811151981E-003;-1.491363043896854E-003;
2.413833333333334E+009;1.886224299669266E-001;-2.279347926378250E-002;-5.586415994912386E-003;-1.084429328329861E-003;
2.414000000000000E+009;1.895157396793366E-001;-2.470695599913597E-002;-5.409803241491318E-003;-7.854387513361871E-004;
2.414166666666667E+009;1.906988173723221E-001;-2.626370079815388E-002;-5.629241932183504E-003;-5.490689072757959E-004;
2.414333333333334E+009;1.916914731264114E-001;-2.818979509174824E-002;-5.496183410286903E-003;-2.635808486957103E-004;
2.414500000000000E+009;1.928234845399857E-001;-2.954980731010437E-002;-5.376562476158142E-003;1.180953258881345E-004;
2.414666666666667E+009;1.937788873910904E-001;-3.097311593592167E-002;-5.414106417447329E-003;4.832410486415029E-004;
2.414833333333334E+009;1.949192434549332E-001;-3.226951509714127E-002;-5.135756451636553E-003;6.969075766392052E-004;
2.415000000000000E+009;1.958971172571182E-001;-3.356895223259926E-002;-4.982616752386093E-003;7.984293042682111E-004;
2.415166666666667E+009;1.969111412763596E-001;-3.480847179889679E-002;-4.679688252508640E-003;1.008759136311710E-003;
2.415333333333334E+009;1.979106813669205E-001;-3.580139577388763E-002;-4.739537369459868E-003;1.162642496638000E-003;
2.415500000000000E+009;1.988354772329330E-001;-3.640037029981613E-002;-4.596231970936060E-003;1.372549682855606E-003;
2.415666666666667E+009;1.996349245309830E-001;-3.743220865726471E-002;-4.347871523350477E-003;1.549184788018465E-003;
2.415833333333334E+009;2.002897262573242E-001;-3.797572478652000E-002;-4.394093994051218E-003;1.614919863641262E-003;
2.416000000000000E+009;2.009560167789459E-001;-3.875891491770744E-002;-4.088716581463814E-003;1.883202116005123E-003;
2.416166666666667E+009;2.016870528459549E-001;-3.926958143711090E-002;-3.834515111520886E-003;2.074641641229391E-003;
2.416333333333334E+009;2.019903659820557E-001;-3.972285985946655E-002;-3.823435399681330E-003;2.308307681232691E-003;
2.416500000000000E+009;2.024364769458771E-001;-4.011977091431618E-002;-3.614895511418581E-003;2.264792332425714E-003;
2.416666666666667E+009;2.026339471340179E-001;-4.074149951338768E-002;-3.382051130756736E-003;2.400513971224427E-003;
2.416833333333334E+009;2.025535702705383E-001;-4.071804881095886E-002;-3.205859800800681E-003;2.480522263795137E-003;
2.417000000000000E+009;2.026975899934769E-001;-4.093039780855179E-002;-2.768605481833220E-003;2.464498393237591E-003;
2.417166666666667E+009;2.023325115442276E-001;-4.113414511084557E-002;-2.590117510408163E-003;2.420633565634489E-003;
2.417333333333334E+009;2.020154446363449E-001;-4.112363234162331E-002;-2.394926967099309E-003;2.468729391694069E-003;
2.417500000000000E+009;2.016308903694153E-001;-4.132831469178200E-002;-2.222635783255100E-003;2.361671766266227E-003;
2.417666666666667E+009;2.011301070451737E-001;-4.133022949099541E-002;-2.110007917508483E-003;2.301910892128944E-003;
2.417833333333334E+009;2.006625235080719E-001;-4.123799130320549E-002;-2.026118570938706E-003;2.154649468138814E-003;
2.418000000000000E+009;1.999256163835526E-001;-4.128520563244820E-002;-1.690329750999808E-003;2.251132624223828E-003;
2.418166666666667E+009;1.991314589977264E-001;-4.133202880620956E-002;-1.518842531368136E-003;1.986958319321275E-003;
2.418333333333334E+009;1.982252001762390E-001;-4.134849086403847E-002;-1.510078902356327E-003;1.898785238154233E-003;
2.418500000000000E+009;1.972735226154327E-001;-4.162637144327164E-002;-1.495886011980474E-003;1.821480575017631E-003;
2.418666666666667E+009;1.964549720287323E-001;-4.166318476200104E-002;-1.525216619484127E-003;1.745003042742610E-003;
2.418833333333334E+009;1.952649205923080E-001;-4.203894734382629E-002;-1.568952808156610E-003;1.376165077090263E-003;
2.419000000000000E+009;1.939707845449448E-001;-4.234279319643974E-002;-1.565495040267706E-003;1.326864352449775E-003;
2.419166666666667E+009;1.928504705429077E-001;-4.283552244305611E-002;-1.571520580910146E-003;1.338983303867281E-003;
2.419333333333334E+009;1.915954202413559E-001;-4.350735992193222E-002;-1.638001645915210E-003;1.232565962709487E-003;
2.419500000000000E+009;1.902109682559967E-001;-4.394662007689476E-002;-1.648503239266574E-003;1.226839260198176E-003;
2.419666666666667E+009;1.887192279100418E-001;-4.488261789083481E-002;-1.775072189047933E-003;1.107811345718801E-003;
2.419833333333334E+009;1.873438358306885E-001;-4.558343440294266E-002;-1.800488098524511E-003;1.077152206562460E-003;
2.420000000000000E+009;1.860073655843735E-001;-4.661783203482628E-002;-2.074947347864509E-003;9.998489404097199E-004;
2.420166666666667E+009;1.844876557588577E-001;-4.758484289050102E-002;-2.009189920499921E-003;1.203150721266866E-003;
2.420333333333334E+009;1.830170899629593E-001;-4.891084507107735E-002;-2.178168157115579E-003;1.029579667374492E-003;
2.420500000000000E+009;1.814590394496918E-001;-5.006295815110207E-002;-2.204241463914514E-003;1.237546093761921E-003;
2.420666666666667E+009;1.799881011247635E-001;-5.128100514411926E-002;-2.193136606365442E-003;1.332670450210571E-003;
2.420833333333334E+009;1.785487830638886E-001;-5.280891060829163E-002;-2.382081001996994E-003;1.256388379260898E-003;
2.421000000000000E+009;1.773841977119446E-001;-5.431343987584114E-002;-2.570969518274069E-003;1.398529508151114E-003;
2.421166666666667E+009;1.761564314365387E-001;-5.602227896451950E-002;-2.671027323231101E-003;1.470178249292076E-003;
2.421333333333334E+009;1.745439320802689E-001;-5.724111944437027E-002;-2.708349842578173E-003;1.611078623682261E-003;
2.421500000000000E+009;1.734182685613632E-001;-5.934834107756615E-002;-2.679618075489998E-003;1.757302088662982E-003;
2.421666666666667E+009;1.723761260509491E-001;-6.104161590337753E-002;-2.632322255522013E-003;1.812783884815872E-003;
2.421833333333334E+009;1.711848527193070E-001;-6.279502063989639E-002;-2.760905306786299E-003;1.896815607324243E-003;
2.422000000000000E+009;1.702466905117035E-001;-6.461535394191742E-002;-2.647140296176076E-003;2.154411282390356E-003;
2.422166666666667E+009;1.693187505006790E-001;-6.664577871561050E-002;-2.618416445329785E-003;2.141516655683518E-003;
2.422333333333334E+009;1.684697419404984E-001;-6.842152774333954E-002;-2.657361095771194E-003;2.407982712611556E-003;
2.422500000000000E+009;1.677936166524887E-001;-7.030337303876877E-002;-2.571762073785067E-003;2.681260928511620E-003;
2.422666666666667E+009;1.671088933944702E-001;-7.222180813550949E-002;-2.522063674405217E-003;2.626629313454032E-003;
2.422833333333334E+009;1.667008996009827E-001;-7.407021522521973E-002;-2.548014046624303E-003;2.724089426919818E-003;
2.423000000000000E+009;1.661471724510193E-001;-7.603570073843002E-002;-2.511115046218038E-003;2.948969835415483E-003;
2.423166666666667E+009;1.658261269330978E-001;-7.779554277658463E-002;-2.353008836507797E-003;2.986009232699871E-003;
2.423333333333334E+009;1.654934883117676E-001;-7.978475838899612E-002;-2.360206563025713E-003;2.970816567540169E-003;
2.423500000000000E+009;1.654391735792160E-001;-8.140134811401367E-002;-2.258373424410820E-003;3.116989042609930E-003;
2.423666666666667E+009;1.654296368360519E-001;-8.324779570102692E-002;-2.214344916865230E-003;3.170398529618979E-003;
2.423833333333334E+009;1.652529835700989E-001;-8.478420227766037E-002;-2.250365214422345E-003;3.355924505740404E-003;
2.424000000000000E+009;1.652985066175461E-001;-8.647105842828751E-002;-2.252939157187939E-003;3.460672451183200E-003;
2.424166666666667E+009;1.653262525796890E-001;-8.788833022117615E-002;-1.976376865059137E-003;3.759016515687108E-003;
2.424333333333334E+009;1.655270755290985E-001;-8.933661878108978E-002;-1.855625654570758E-003;3.833784954622388E-003;
2.424500000000000E+009;1.658105701208115E-001;-9.100076556205750E-002;-1.955861225724220E-003;3.831215668469667E-003;
2.424666666666667E+009;1.659885197877884E-001;-9.236484020948410E-002;-1.785616856068373E-003;4.113105125725269E-003;
2.424833333333334E+009;1.664645224809647E-001;-9.364832192659378E-002;-1.456729718483985E-003;4.363883286714554E-003;
2.425000000000000E+009;1.666689068078995E-001;-9.470440447330475E-002;-1.324543380178511E-003;4.296167753636837E-003;
2.425166666666667E+009;1.669271886348724E-001;-9.581018239259720E-002;-1.305917510762811E-003;4.685843829065561E-003;
2.425333333333334E+009;1.671334356069565E-001;-9.679632633924484E-002;-8.176853880286217E-004;4.641342442482710E-003;
2.425500000000000E+009;1.674970537424088E-001;-9.771510958671570E-002;-5.857335054315627E-004;4.861188121140003E-003;
2.425666666666667E+009;1.677323132753372E-001;-9.843271225690842E-002;-3.526865621097386E-004;4.771862179040909E-003;
2.425833333333334E+009;1.678982675075531E-001;-9.933391213417053E-002;-1.544472615933046E-004;4.877979401499033E-003;
2.426000000000000E+009;1.682181507349014E-001;-9.978509694337845E-002;1.249547058250755E-004;4.846833180636168E-003;
2.426166666666667E+009;1.685198098421097E-001;-1.003962606191635E-001;3.348842728883028E-004;4.639887716621161E-003;
2.426333333333334E+009;1.687556952238083E-001;-1.010496541857719E-001;6.596336024813354E-004;4.687252454459667E-003;
2.426500000000000E+009;1.689064353704453E-001;-1.013268306851387E-001;7.702559814788401E-004;4.569922108203173E-003;
2.426666666666667E+009;1.690319925546646E-001;-1.017797142267227E-001;1.044285949319601E-003;4.549379460513592E-003;
2.426833333333334E+009;1.692846566438675E-001;-1.022087857127190E-001;1.129442476667464E-003;4.328688606619835E-003;
2.427000000000000E+009;1.691771447658539E-001;-1.024392917752266E-001;1.236626063473523E-003;4.302226472645998E-003;
2.427166666666667E+009;1.692221462726593E-001;-1.026728376746178E-001;1.446655602194369E-003;4.143528640270233E-003;
2.427333333333334E+009;1.690402477979660E-001;-1.031181067228317E-001;1.590351341292262E-003;3.998544532805681E-003;
2.427500000000000E+009;1.687700599431992E-001;-1.032970994710922E-001;1.531141344457865E-003;3.896090900525451E-003;
2.427666666666667E+009;1.685072779655457E-001;-1.035246178507805E-001;1.627903897315264E-003;3.840980818495154E-003;
