# Version 1.00
#
freq[Hz];re:Trc1_S11;im:Trc1_S11;re:Trc2_S21;im:Trc2_S21;
2.400000000000000E+009;1.564726084470749E-001;1.055699884891510E-001;2.456964459270239E-003;-2.770193619653583E-003;
2.400166666666667E+009;1.564842760562897E-001;1.031820550560951E-001;2.317871432751417E-003;-2.671092282980681E-003;
2.400333333333334E+009;1.566921025514603E-001;1.010747328400612E-001;2.400354482233524E-003;-2.693066140636802E-003;
2.400500000000000E+009;1.567743271589279E-001;9.841314703226090E-002;2.256721723824740E-003;-2.760072238743305E-003;
2.400666666666667E+009;1.570115983486176E-001;9.616627544164658E-002;2.378103556111455E-003;-2.746806712821126E-003;
2.400833333333334E+009;1.571587622165680E-001;9.339051693677902E-002;2.215452259406447E-003;-2.665192354470491E-003;
2.401000000000000E+009;1.575528234243393E-001;9.065264463424683E-002;2.308365888893604E-003;-2.757629379630089E-003;
2.401166666666667E+009;1.574977934360504E-001;8.807725459337235E-002;2.266989555209875E-003;-2.836235100403428E-003;
2.401333333333334E+009;1.580740213394165E-001;8.546081930398941E-002;2.127913758158684E-003;-2.881608437746763E-003;
2.401500000000000E+009;1.586654037237167E-001;8.267031610012054E-002;2.142676617950201E-003;-2.987702144309878E-003;
2.401666666666667E+009;1.589709520339966E-001;8.009195327758789E-002;2.065007342025638E-003;-2.952250186353922E-003;
2.401833333333334E+009;1.597414910793304E-001;7.751166075468063E-002;2.049876144155860E-003;-3.060566261410713E-003;
2.402000000000000E+009;1.604802906513214E-001;7.499156892299652E-002;2.079932251945138E-003;-3.162828739732504E-003;
2.402166666666667E+009;1.612965166568756E-001;7.274422794580460E-002;2.011335687711835E-003;-3.414191771298647E-003;
2.402333333333334E+009;1.622149348258972E-001;6.999429315328598E-002;1.881119678728283E-003;-3.242546692490578E-003;
2.402500000000000E+009;1.632259786128998E-001;6.768793612718582E-002;1.737594720907509E-003;-3.438600106164813E-003;
2.402666666666667E+009;1.643531620502472E-001;6.562424451112747E-002;1.653531682677567E-003;-3.462186316028237E-003;
2.402833333333334E+009;1.656730026006699E-001;6.320645660161972E-002;1.399434637278318E-003;-3.725784597918391E-003;
2.403000000000000E+009;1.670000255107880E-001;6.108674034476280E-002;1.302541350014508E-003;-3.624885808676481E-003;
2.403166666666667E+009;1.684287488460541E-001;5.914859846234322E-002;9.440561407245696E-004;-3.531032940372825E-003;
2.403333333333334E+009;1.697434484958649E-001;5.715671926736832E-002;9.043281897902489E-004;-3.640467766672373E-003;
2.403500000000000E+009;1.712452471256256E-001;5.517830327153206E-002;7.999908993951976E-004;-3.355624852702022E-003;
2.403666666666667E+009;1.730557978153229E-001;5.341013148427010E-002;6.330853211693466E-004;-3.304612822830677E-003;
2.403833333333334E+009;1.744846701622009E-001;5.160329118371010E-002;7.041534408926964E-004;-3.199198283255100E-003;
2.404000000000000E+009;1.756987124681473E-001;4.996570572257042E-002;4.610776668414474E-004;-3.177011152729392E-003;
2.404166666666667E+009;1.774029433727264E-001;4.866427183151245E-002;3.629601560533047E-004;-2.983862999826670E-003;
2.404333333333334E+009;1.788883507251740E-001;4.717407375574112E-002;6.648970884270966E-004;-2.889418974518776E-003;
2.404500000000000E+009;1.802063137292862E-001;4.570391401648521E-002;7.160318782553077E-004;-2.954167779535055E-003;
2.404666666666667E+009;1.816870570182800E-001;4.467974230647087E-002;7.373253465630114E-004;-3.052433021366596E-003;
2.404833333333334E+009;1.831955909729004E-001;4.365729540586472E-002;8.803959935903549E-004;-2.970378613099456E-003;
2.405000000000000E+009;1.841948181390762E-001;4.293669387698174E-002;7.490815478377044E-004;-3.004299011081457E-003;
2.405166666666667E+009;1.856256127357483E-001;4.230125620961189E-002;7.123397663235664E-004;-3.211853094398975E-003;
2.405333333333334E+009;1.867209672927856E-001;4.168823361396790E-002;7.853479473851621E-004;-3.344408702105284E-003;
2.405500000000000E+009;1.880202889442444E-001;4.110911861062050E-002;4.578434163704515E-004;-3.236623946577311E-003;
2.405666666666667E+009;1.891266107559204E-001;4.073223471641541E-002;6.069804076105356E-004;-3.486674046143889E-003;
2.405833333333334E+009;1.902233362197876E-001;4.033092036843300E-002;3.711940080393106E-004;-3.558331634849310E-003;
2.406000000000000E+009;1.911889314651489E-001;4.002385586500168E-002;1.561607932671905E-004;-3.294047666713595E-003;
2.406166666666667E+009;1.919456422328949E-001;3.975406661629677E-002;1.951659214682877E-004;-3.531064139679074E-003;
2.406333333333334E+009;1.928083151578903E-001;3.968833386898041E-002;-1.125434937421233E-004;-3.537043929100037E-003;
2.406500000000000E+009;1.934193968772888E-001;3.935541585087776E-002;-8.098111720755696E-005;-3.593510715290904E-003;
2.406666666666667E+009;1.939658671617508E-001;3.930037096142769E-002;-3.015813999809325E-004;-3.334982320666313E-003;
2.406833333333334E+009;1.943631470203400E-001;3.924102708697319E-002;-5.121245048940182E-004;-3.269645851105452E-003;
2.407000000000000E+009;1.948128044605255E-001;3.927408903837204E-002;-3.855970498989336E-005;-2.939970698207617E-003;
2.407166666666667E+009;1.949440836906433E-001;3.879230096936226E-002;-5.287830717861652E-004;-3.391483332961798E-003;
2.407333333333334E+009;1.948109865188599E-001;3.884908556938171E-002;-4.435146984178573E-004;-3.335354151204228E-003;
2.407500000000000E+009;1.949426084756851E-001;3.882814198732376E-002;-1.796470169210807E-004;-2.977000083774328E-003;
2.407666666666667E+009;1.949400305747986E-001;3.857018426060677E-002;-4.288533236831427E-004;-3.012583358213306E-003;
2.407833333333334E+009;1.946013569831848E-001;3.823272138834000E-002;-3.976671723648906E-004;-3.120745532214642E-003;
2.408000000000000E+009;1.945122331380844E-001;3.795973956584930E-002;-6.202575750648975E-004;-2.883780747652054E-003;
2.408166666666667E+009;1.941296905279160E-001;3.757747635245323E-002;-3.737071237992495E-004;-2.955417381599546E-003;
2.408333333333334E+009;1.936890184879303E-001;3.684217855334282E-002;-5.571094225160778E-004;-3.276699688285589E-003;
2.408500000000000E+009;1.931835412979126E-001;3.627967461943626E-002;-3.525666834320873E-004;-3.184066386893392E-003;
2.408666666666667E+009;1.926340758800507E-001;3.578696772456169E-002;-4.380627942737192E-004;-3.471923526376486E-003;
2.408833333333334E+009;1.921237707138062E-001;3.494570776820183E-002;-5.324982339516282E-004;-3.609518520534039E-003;
2.409000000000000E+009;1.913830637931824E-001;3.388741984963417E-002;-5.411188467405736E-004;-3.663923358544707E-003;
2.409166666666667E+009;1.905875504016876E-001;3.287152945995331E-002;-8.836394408717752E-004;-3.864953061565757E-003;
2.409333333333334E+009;1.898428350687027E-001;3.168245032429695E-002;-8.368329727090895E-004;-4.026108887046576E-003;
2.409500000000000E+009;1.889850199222565E-001;3.050427511334419E-002;-1.023053657263517E-003;-4.064001142978668E-003;
2.409666666666667E+009;1.882021427154541E-001;2.891957201063633E-002;-1.233045943081379E-003;-4.129654727876186E-003;
2.409833333333334E+009;1.873665004968643E-001;2.748238854110241E-002;-1.402733963914216E-003;-4.092951770871878E-003;
2.410000000000000E+009;1.864998191595078E-001;2.581942453980446E-002;-1.638787682168186E-003;-4.191507585346699E-003;
2.410166666666667E+009;1.856507062911987E-001;2.406878583133221E-002;-1.697491505183280E-003;-4.152945242822170E-003;
2.410333333333334E+009;1.850335747003555E-001;2.245187014341354E-002;-2.018001629039645E-003;-3.993989899754524E-003;
2.410500000000000E+009;1.842858195304871E-001;2.055126801133156E-002;-2.214161911979318E-003;-4.028788302093744E-003;
2.410666666666667E+009;1.835968494415283E-001;1.844730600714684E-002;-2.410012995824218E-003;-4.130522254854441E-003;
2.410833333333334E+009;1.829640567302704E-001;1.639260165393353E-002;-2.433927264064550E-003;-3.939107991755009E-003;
2.411000000000000E+009;1.824531257152557E-001;1.426738966256380E-002;-2.611177507787943E-003;-3.824911313131452E-003;
2.411166666666667E+009;1.818948686122894E-001;1.213871780782938E-002;-2.780751558020711E-003;-3.886607009917498E-003;
2.411333333333334E+009;1.815421730279923E-001;9.778200648725033E-003;-3.010167507454753E-003;-3.668949007987976E-003;
2.411500000000000E+009;1.812862306833267E-001;7.448665332049131E-003;-3.087850054726005E-003;-3.547026310116053E-003;
2.411666666666667E+009;1.812084317207336E-001;5.523169413208962E-003;-3.302484285086393E-003;-3.491942072287202E-003;
2.411833333333334E+009;1.810107380151749E-001;3.215070813894272E-003;-3.484741318970919E-003;-3.570482134819031E-003;
2.412000000000000E+009;1.812836378812790E-001;7.047416875138879E-004;-3.494831267744303E-003;-3.453765064477921E-003;
2.412166666666667E+009;1.814021021127701E-001;-1.344198593869805E-003;-3.724055597558618E-003;-3.181710373610258E-003;
2.412333333333334E+009;1.816297620534897E-001;-3.743806853890419E-003;-3.989559598267078E-003;-3.270784392952919E-003;
2.412500000000000E+009;1.821288317441940E-001;-6.010162644088268E-003;-4.100173711776733E-003;-3.085698001086712E-003;
2.412666666666667E+009;1.826826184988022E-001;-8.269383572041988E-003;-4.270233213901520E-003;-2.949509536847472E-003;
2.412833333333334E+009;1.833530068397522E-001;-1.046179700642824E-002;-4.591974895447493E-003;-2.797444816678762E-003;
2.413000000000000E+009;1.839909851551056E-001;-1.268797740340233E-002;-4.629186354577541E-003;-2.524831565096974E-003;
2.413166666666667E+009;1.847150623798370E-001;-1.463539060205221E-002;-4.916111472994089E-003;-2.568097552284598E-003;
2.413333333333334E+009;1.857158839702606E-001;-1.686257310211659E-002;-5.125544499605894E-003;-2.199097303673625E-003;
2.413500000000000E+009;1.864762157201767E-001;-1.892458647489548E-002;-5.158557090908289E-003;-1.718891551718116E-003;
2.413666666666667E+009;1.876653581857681E-001;-2.094040997326374E-002;-5.359351634979248E-003;-1.661702524870634E-003;
2.413833333333334E+009;1.886120289564133E-001;-2.277837693691254E-002;-5.450884811580181E-003;-1.229778747074306E-003;
2.414000000000000E+009;1.895240098237991E-001;-2.464956045150757E-002;-5.363379139453173E-003;-7.965989061631262E-004;
2.414166666666667E+009;1.905806064605713E-001;-2.639385126531124E-002;-5.459401290863752E-003;-5.490772309713066E-004;
2.414333333333334E+009;1.915580034255981E-001;-2.826998382806778E-002;-5.461825989186764E-003;-2.233940467704088E-004;
2.414500000000000E+009;1.926137655973434E-001;-2.960581146180630E-002;-5.338761489838362E-003;1.491764942329610E-005;
2.414666666666667E+009;1.937811076641083E-001;-3.110821172595024E-002;-5.086578894406557E-003;2.502916031517088E-004;
2.414833333333334E+009;1.948292553424835E-001;-3.240894898772240E-002;-5.050267558544874E-003;4.096584452781826E-004;
2.415000000000000E+009;1.957547664642334E-001;-3.368266299366951E-002;-4.826703108847141E-003;8.456612122245133E-004;
2.415166666666667E+009;1.968462169170380E-001;-3.476818650960922E-002;-4.754673689603806E-003;9.639378404244781E-004;
2.415333333333334E+009;1.978588998317719E-001;-3.578076511621475E-002;-4.785263445228338E-003;1.101309782825410E-003;
2.415500000000000E+009;1.986884921789169E-001;-3.645099326968193E-002;-4.519565496593714E-003;1.260866993106902E-003;
2.415666666666667E+009;1.996126174926758E-001;-3.730785101652145E-002;-4.465143196284771E-003;1.552867935970426E-003;
2.415833333333334E+009;2.002971917390823E-001;-3.803584724664688E-002;-4.484273493289948E-003;1.664935029111803E-003;
2.416000000000000E+009;2.010341137647629E-001;-3.878738358616829E-002;-4.183021839708090E-003;1.971241785213351E-003;
2.416166666666667E+009;2.016379237174988E-001;-3.938921913504601E-002;-3.906292840838432E-003;2.015634207054973E-003;
2.416333333333334E+009;2.020776122808456E-001;-3.980736806988716E-002;-3.712345147505403E-003;2.051139250397682E-003;
2.416500000000000E+009;2.024404555559158E-001;-4.014592617750168E-002;-3.487522015348077E-003;2.234531566500664E-003;
2.416666666666667E+009;2.024777680635452E-001;-4.064562916755676E-002;-3.361956682056189E-003;2.518863417208195E-003;
2.416833333333334E+009;2.025508135557175E-001;-4.082731157541275E-002;-3.250822657719255E-003;2.391577465459704E-003;
2.417000000000000E+009;2.028277069330216E-001;-4.108325764536858E-002;-2.977083902806044E-003;2.340955426916480E-003;
2.417166666666667E+009;2.022231370210648E-001;-4.123455286026001E-002;-2.570628188550472E-003;2.495691878721118E-003;
2.417333333333334E+009;2.019075006246567E-001;-4.114063829183579E-002;-2.331534167751670E-003;2.619497478008270E-003;
2.417500000000000E+009;2.016095221042633E-001;-4.139178246259689E-002;-2.293173922225833E-003;2.479112474247813E-003;
2.417666666666667E+009;2.010595500469208E-001;-4.145571216940880E-002;-1.936317188665271E-003;2.329387702047825E-003;
2.417833333333334E+009;2.006188184022903E-001;-4.130914062261581E-002;-1.863126992247999E-003;2.206180244684219E-003;
2.418000000000000E+009;1.999441981315613E-001;-4.130255430936813E-002;-1.655156840570271E-003;2.092854818329215E-003;
2.418166666666667E+009;1.990699619054794E-001;-4.136942699551582E-002;-1.694109640084207E-003;2.063547028228641E-003;
2.418333333333334E+009;1.981716454029083E-001;-4.133102297782898E-002;-1.543451682664454E-003;1.892586820758879E-003;
2.418500000000000E+009;1.972856819629669E-001;-4.166737943887711E-002;-1.503572799265385E-003;1.714505255222321E-003;
2.418666666666667E+009;1.964850425720215E-001;-4.174777120351791E-002;-1.501558464951813E-003;1.727710361592472E-003;
2.418833333333334E+009;1.951844692230225E-001;-4.213171079754829E-002;-1.488855690695345E-003;1.530601643025875E-003;
2.419000000000000E+009;1.941009610891342E-001;-4.244272783398628E-002;-1.555240247398615E-003;1.388630713336170E-003;
2.419166666666667E+009;1.927741467952728E-001;-4.278377071022987E-002;-1.565213548019528E-003;1.353999832645059E-003;
2.419333333333334E+009;1.914784461259842E-001;-4.342623054981232E-002;-1.574314082972705E-003;1.273117144592106E-003;
2.419500000000000E+009;1.902245283126831E-001;-4.392936080694199E-002;-1.623785821720958E-003;1.121890149079263E-003;
2.419666666666667E+009;1.888649463653565E-001;-4.487373679876328E-002;-1.885348116047680E-003;1.085648196749389E-003;
2.419833333333334E+009;1.873023062944412E-001;-4.556970298290253E-002;-1.797498902305961E-003;1.165470574051142E-003;
2.420000000000000E+009;1.859024018049240E-001;-4.652871564030647E-002;-1.893538399599493E-003;1.027575577609241E-003;
2.420166666666667E+009;1.844183802604675E-001;-4.760823398828507E-002;-1.926253549754620E-003;1.015097252093256E-003;
2.420333333333334E+009;1.830931305885315E-001;-4.867362603545189E-002;-2.094558207318187E-003;9.648842387832701E-004;
2.420500000000000E+009;1.815439611673355E-001;-5.001007393002510E-002;-2.267870120704174E-003;1.140782958827913E-003;
2.420666666666667E+009;1.802184134721756E-001;-5.119153484702110E-002;-2.331271767616272E-003;1.215546973980963E-003;
2.420833333333334E+009;1.786051392555237E-001;-5.258390307426453E-002;-2.517037326470017E-003;1.252767629921436E-003;
2.421000000000000E+009;1.773308962583542E-001;-5.427876114845276E-002;-2.538653789088130E-003;1.425462891347706E-003;
2.421166666666667E+009;1.761378496885300E-001;-5.583376437425613E-002;-2.680203178897500E-003;1.531532499939203E-003;
2.421333333333334E+009;1.745725274085999E-001;-5.726961046457291E-002;-2.532857470214367E-003;1.658427296206355E-003;
2.421500000000000E+009;1.733452379703522E-001;-5.934309586882591E-002;-2.646453678607941E-003;1.747217494994402E-003;
2.421666666666667E+009;1.723334342241287E-001;-6.099219620227814E-002;-2.775818109512329E-003;1.821889076381922E-003;
2.421833333333334E+009;1.712890118360519E-001;-6.276648491621018E-002;-2.729317173361778E-003;1.999988686293364E-003;
2.422000000000000E+009;1.702087968587875E-001;-6.466060131788254E-002;-2.803062554448843E-003;1.916870009154081E-003;
2.422166666666667E+009;1.695698648691177E-001;-6.657120585441589E-002;-2.748483559116721E-003;2.191318431869149E-003;
2.422333333333334E+009;1.684372574090958E-001;-6.845661252737045E-002;-2.774938708171248E-003;2.320924773812294E-003;
2.422500000000000E+009;1.677574068307877E-001;-7.032454758882523E-002;-2.775138709694147E-003;2.379396930336952E-003;
2.422666666666667E+009;1.671142131090164E-001;-7.224873453378677E-002;-2.620600163936615E-003;2.627514302730560E-003;
2.422833333333334E+009;1.666148751974106E-001;-7.423225790262222E-002;-2.385923173278570E-003;2.730612643063068E-003;
2.423000000000000E+009;1.660735011100769E-001;-7.604567706584930E-002;-2.484885044395924E-003;2.864614129066467E-003;
2.423166666666667E+009;1.655759215354919E-001;-7.773938775062561E-002;-2.320911968126893E-003;2.997715491801500E-003;
2.423333333333334E+009;1.655158996582031E-001;-7.968312501907349E-002;-2.320832340046763E-003;3.102263202890754E-003;
2.423500000000000E+009;1.654394418001175E-001;-8.133535832166672E-002;-2.437248593196273E-003;3.329947357997298E-003;
2.423666666666667E+009;1.653554439544678E-001;-8.322483301162720E-002;-2.197490539401770E-003;3.153935307636857E-003;
2.423833333333334E+009;1.651714891195297E-001;-8.485139161348343E-002;-2.188660670071840E-003;3.504610620439053E-003;
2.424000000000000E+009;1.653024405241013E-001;-8.653983473777771E-002;-2.087808446958661E-003;3.399053122848272E-003;
2.424166666666667E+009;1.654314100742340E-001;-8.808838576078415E-002;-2.034629927948117E-003;3.575366223230958E-003;
2.424333333333334E+009;1.654745936393738E-001;-8.950655162334442E-002;-2.049816073849797E-003;3.834029659628868E-003;
2.424500000000000E+009;1.658122241497040E-001;-9.107772260904312E-002;-1.789946341887116E-003;4.025884438306093E-003;
2.424666666666667E+009;1.659598499536514E-001;-9.237267822027206E-002;-1.665417919866741E-003;4.288875497877598E-003;
2.424833333333334E+009;1.665066331624985E-001;-9.348072111606598E-002;-1.469939248636365E-003;4.354808945208788E-003;
2.425000000000000E+009;1.667158454656601E-001;-9.460329264402390E-002;-1.382297952659428E-003;4.454677924513817E-003;
2.425166666666667E+009;1.669060736894608E-001;-9.577057510614395E-002;-9.912474779412150E-004;4.609693307429552E-003;
2.425333333333334E+009;1.671194881200790E-001;-9.674885869026184E-002;-8.415474439971149E-004;4.621897358447313E-003;
2.425500000000000E+009;1.675058454275131E-001;-9.774591773748398E-002;-5.649664672091603E-004;4.709905013442040E-003;
2.425666666666667E+009;1.678211987018585E-001;-9.837079048156738E-002;-4.737995623145253E-004;4.833915270864964E-003;
2.425833333333334E+009;1.679767817258835E-001;-9.933133423328400E-002;-2.393416361883283E-004;4.831765778362751E-003;
2.426000000000000E+009;1.682807952165604E-001;-9.977330267429352E-002;1.035212044371292E-004;4.834392573684454E-003;
2.426166666666667E+009;1.685385107994080E-001;-1.004099696874619E-001;2.684050414245576E-004;4.853198304772377E-003;
2.426333333333334E+009;1.686305254697800E-001;-1.010418459773064E-001;7.477831095457077E-004;4.656369332224131E-003;
2.426500000000000E+009;1.689150929450989E-001;-1.013100519776344E-001;7.672690553590655E-004;4.569614306092262E-003;
2.426666666666667E+009;1.691324710845947E-001;-1.017092540860176E-001;9.639040799811482E-004;4.469299688935280E-003;
2.426833333333334E+009;1.692353487014771E-001;-1.021363884210587E-001;1.120096305385232E-003;4.413289949297905E-003;
2.427000000000000E+009;1.691718399524689E-001;-1.024119108915329E-001;1.169612631201744E-003;4.231996368616819E-003;
2.427166666666667E+009;1.690920293331146E-001;-1.027149036526680E-001;1.451629213988781E-003;4.219952039420605E-003;
2.427333333333334E+009;1.690232157707214E-001;-1.031236723065376E-001;1.566875143907964E-003;4.113350529223681E-003;
2.427500000000000E+009;1.688374280929565E-001;-1.033783107995987E-001;1.445529866032302E-003;4.027405753731728E-003;
2.427666666666667E+009;1.684954762458801E-001;-1.035789772868156E-001;1.482904306612909E-003;3.860546508803964E-003;
