# Version 1.00
#
freq[Hz];re:Trc1_S11;im:Trc1_S11;re:Trc2_S21;im:Trc2_S21;
2.400000000000000E+009;1.563906222581863E-001;1.055094599723816E-001;2.419391414150596E-003;-2.779315691441298E-003;
2.400166666666667E+009;1.563363075256348E-001;1.031606420874596E-001;2.277311170473695E-003;-2.720462623983622E-003;
2.400333333333334E+009;1.564635485410690E-001;1.010500118136406E-001;2.178963040933013E-003;-2.815648447722197E-003;
2.400500000000000E+009;1.565023958683014E-001;9.832280129194260E-002;2.108709421008825E-003;-2.796862041577697E-003;
2.400666666666667E+009;1.568949371576309E-001;9.613362699747086E-002;2.274115337058902E-003;-2.864088164642453E-003;
2.400833333333334E+009;1.568744629621506E-001;9.320860356092453E-002;2.058614045381546E-003;-2.959355246275663E-003;
2.401000000000000E+009;1.574221849441528E-001;9.067399799823761E-002;2.257574116811156E-003;-2.913805656135082E-003;
2.401166666666667E+009;1.575765311717987E-001;8.814644068479538E-002;2.157209673896432E-003;-2.861728891730309E-003;
2.401333333333334E+009;1.579322814941406E-001;8.543003350496292E-002;2.111336914822459E-003;-3.051369916647673E-003;
2.401500000000000E+009;1.584111899137497E-001;8.267449587583542E-002;2.105320338159800E-003;-3.128547454252839E-003;
2.401666666666667E+009;1.589512526988983E-001;8.011641353368759E-002;2.098845783621073E-003;-3.101931186392903E-003;
2.401833333333334E+009;1.595717221498489E-001;7.765555381774902E-002;2.005667192861438E-003;-3.208079608157277E-003;
2.402000000000000E+009;1.604675948619843E-001;7.478715479373932E-002;1.950765377841890E-003;-3.305807244032621E-003;
2.402166666666667E+009;1.611897498369217E-001;7.256502658128738E-002;1.975165912881494E-003;-3.442427143454552E-003;
2.402333333333334E+009;1.620350331068039E-001;7.007800042629242E-002;1.570112071931362E-003;-3.503188956528902E-003;
2.402500000000000E+009;1.631936579942703E-001;6.782277673482895E-002;1.541103934869170E-003;-3.585225669667125E-003;
2.402666666666667E+009;1.643176525831223E-001;6.562388688325882E-002;1.357035362161696E-003;-3.643947653472424E-003;
2.402833333333334E+009;1.654450148344040E-001;6.324190646409988E-002;1.181929605081677E-003;-3.598198061808944E-003;
2.403000000000000E+009;1.668333262205124E-001;6.118462607264519E-002;1.103840419091284E-003;-3.744802204892039E-003;
2.403166666666667E+009;1.682875454425812E-001;5.905251950025559E-002;9.234447497874498E-004;-3.717944491654635E-003;
2.403333333333334E+009;1.695910692214966E-001;5.706369131803513E-002;6.732621113769710E-004;-3.650110913440585E-003;
2.403500000000000E+009;1.711969971656799E-001;5.521653592586517E-002;4.969427245669067E-004;-3.531379625201225E-003;
2.403666666666667E+009;1.728334426879883E-001;5.342959240078926E-002;5.290716653689742E-004;-3.466528840363026E-003;
2.403833333333334E+009;1.742731779813767E-001;5.167980864644051E-002;4.347855283413082E-004;-3.468116512522101E-003;
2.404000000000000E+009;1.757169365882874E-001;5.014677345752716E-002;2.114456146955490E-004;-3.280432196334004E-003;
2.404166666666667E+009;1.773530840873718E-001;4.854391142725945E-002;3.083969641011208E-004;-3.182870801538229E-003;
2.404333333333334E+009;1.786070913076401E-001;4.716157540678978E-002;3.538501623552293E-004;-3.160510677844286E-003;
2.404500000000000E+009;1.801254451274872E-001;4.575567692518234E-002;4.450399719644338E-004;-2.990450710058212E-003;
2.404666666666667E+009;1.816651076078415E-001;4.486073181033135E-002;3.776079392991960E-004;-2.972679678350687E-003;
2.404833333333334E+009;1.831376105546951E-001;4.370583221316338E-002;4.616291262209415E-004;-2.963752020150423E-003;
2.405000000000000E+009;1.843146830797195E-001;4.288536682724953E-002;4.263576993253082E-004;-3.109023207798600E-003;
2.405166666666667E+009;1.854575574398041E-001;4.232431203126907E-002;5.376871558837593E-004;-3.010314889252186E-003;
2.405333333333334E+009;1.867546439170837E-001;4.162627086043358E-002;1.863360957941040E-004;-3.083879360929132E-003;
2.405500000000000E+009;1.879739612340927E-001;4.118068516254425E-002;3.239178913645446E-004;-3.284647362306714E-003;
2.405666666666667E+009;1.889966130256653E-001;4.062507301568985E-002;1.398193708155304E-004;-3.463596105575562E-003;
2.405833333333334E+009;1.900752633810043E-001;4.037658870220184E-002;-8.942280692281202E-005;-3.311783540993929E-003;
2.406000000000000E+009;1.910799443721771E-001;4.016134142875671E-002;-1.768714864738286E-004;-3.495879704132676E-003;
2.406166666666667E+009;1.918504834175110E-001;3.966785967350006E-002;-1.665487216087058E-004;-3.289662301540375E-003;
2.406333333333334E+009;1.927232295274735E-001;3.972436487674713E-002;-3.738224913831800E-004;-3.221181221306324E-003;
2.406500000000000E+009;1.932470649480820E-001;3.945466503500938E-002;-3.389397461432964E-004;-3.193705808371306E-003;
2.406666666666667E+009;1.937889307737351E-001;3.943297639489174E-002;-5.266629159450531E-004;-3.242117585614324E-003;
2.406833333333334E+009;1.943435221910477E-001;3.912690281867981E-002;-5.730504635721445E-004;-3.040813840925694E-003;
2.407000000000000E+009;1.944802850484848E-001;3.923041373491287E-002;-5.008692387491465E-004;-2.991257933899760E-003;
2.407166666666667E+009;1.948684453964233E-001;3.891317546367645E-002;-6.386215100064874E-004;-2.932635601609945E-003;
2.407333333333334E+009;1.948622167110443E-001;3.885237872600555E-002;-6.336295627988875E-004;-2.921504434198141E-003;
2.407500000000000E+009;1.947309076786041E-001;3.886068612337112E-002;-6.401900318451226E-004;-2.886873204261065E-003;
2.407666666666667E+009;1.947721093893051E-001;3.855994716286659E-002;-6.096310680732131E-004;-2.827124902978540E-003;
2.407833333333334E+009;1.944400072097778E-001;3.822073712944984E-002;-5.239719757810235E-004;-2.871214877814055E-003;
2.408000000000000E+009;1.944653689861298E-001;3.797822073101997E-002;-4.621914704330266E-004;-2.935192082077265E-003;
2.408166666666667E+009;1.938522905111313E-001;3.755465149879456E-002;-3.137952298857272E-004;-2.923567313700914E-003;
2.408333333333334E+009;1.935868412256241E-001;3.688746690750122E-002;-2.994315873365849E-004;-2.997637260705233E-003;
2.408500000000000E+009;1.929944455623627E-001;3.651404008269310E-002;-5.903993151150644E-004;-3.121119225397706E-003;
2.408666666666667E+009;1.925335675477982E-001;3.577967360615730E-002;-5.009506130591035E-004;-3.167911665514112E-003;
2.408833333333334E+009;1.920332014560700E-001;3.494312986731529E-002;-4.558400833047926E-004;-3.402674570679665E-003;
2.409000000000000E+009;1.912294477224350E-001;3.404309973120689E-002;-6.251725135371089E-004;-3.386111697182059E-003;
2.409166666666667E+009;1.903537213802338E-001;3.292347490787506E-002;-8.024566923268139E-004;-3.557811025530100E-003;
2.409333333333334E+009;1.898847669363022E-001;3.189372643828392E-002;-9.668109705671668E-004;-3.728807205334306E-003;
2.409500000000000E+009;1.889399439096451E-001;3.054833598434925E-002;-1.084637828171253E-003;-3.805056679993868E-003;
2.409666666666667E+009;1.881225258111954E-001;2.899506688117981E-002;-1.264696009457111E-003;-3.798312740400434E-003;
2.409833333333334E+009;1.871866583824158E-001;2.762130834162235E-002;-1.413998892530799E-003;-3.730407450348139E-003;
2.410000000000000E+009;1.864229142665863E-001;2.605330012738705E-002;-1.418692059814930E-003;-3.839266020804644E-003;
2.410166666666667E+009;1.857841014862061E-001;2.427006326615810E-002;-1.894137472845614E-003;-3.817462828010321E-003;
2.410333333333334E+009;1.849472224712372E-001;2.250778116285801E-002;-1.981757814064622E-003;-3.830174915492535E-003;
2.410500000000000E+009;1.841561645269394E-001;2.051514573395252E-002;-2.017018618062139E-003;-3.876746632158756E-003;
2.410666666666667E+009;1.834415644407272E-001;1.848285831511021E-002;-2.284983405843377E-003;-3.680160967633128E-003;
2.410833333333334E+009;1.829141974449158E-001;1.652158983051777E-002;-2.550224307924509E-003;-3.564014099538326E-003;
2.411000000000000E+009;1.823035627603531E-001;1.439453102648258E-002;-2.600269624963403E-003;-3.622689982876182E-003;
2.411166666666667E+009;1.818647384643555E-001;1.218944787979126E-002;-2.593405777588487E-003;-3.610149025917053E-003;
2.411333333333334E+009;1.814978718757629E-001;9.890619665384293E-003;-3.032634267583489E-003;-3.391336183995009E-003;
2.411500000000000E+009;1.812843829393387E-001;7.696486078202725E-003;-3.023902652785182E-003;-3.397840773686767E-003;
2.411666666666667E+009;1.812134534120560E-001;5.504754371941090E-003;-3.173971315845847E-003;-3.303958801552653E-003;
2.411833333333334E+009;1.808230429887772E-001;3.241307800635696E-003;-3.482704982161522E-003;-3.173560835421085E-003;
2.412000000000000E+009;1.811441183090210E-001;8.668527007102966E-004;-3.488026093691587E-003;-3.309198189526796E-003;
2.412166666666667E+009;1.815597116947174E-001;-1.167692244052887E-003;-3.751215990632772E-003;-3.138956381008029E-003;
2.412333333333334E+009;1.815533638000488E-001;-3.571739187464118E-003;-3.849341766908765E-003;-2.896310295909643E-003;
2.412500000000000E+009;1.820654273033142E-001;-5.971577484160662E-003;-3.966290969401598E-003;-2.973548602312803E-003;
2.412666666666667E+009;1.825499981641769E-001;-8.155886083841324E-003;-4.151751752942801E-003;-2.823702991008759E-003;
2.412833333333334E+009;1.831574738025665E-001;-1.051826495677233E-002;-4.328426439315081E-003;-2.600337145850062E-003;
2.413000000000000E+009;1.839554458856583E-001;-1.237707771360874E-002;-4.634694661945105E-003;-2.443015575408936E-003;
2.413166666666667E+009;1.845987290143967E-001;-1.454263087362051E-002;-4.745818674564362E-003;-2.316897734999657E-003;
2.413333333333334E+009;1.856429725885391E-001;-1.679118536412716E-002;-4.923258442431688E-003;-1.959253801032901E-003;
2.413500000000000E+009;1.864688992500305E-001;-1.899349316954613E-002;-4.909817129373550E-003;-1.861328375525773E-003;
2.413666666666667E+009;1.876194775104523E-001;-2.076877467334271E-002;-5.196898709982634E-003;-1.463399501517415E-003;
2.413833333333334E+009;1.884999871253967E-001;-2.275621145963669E-002;-5.269465968012810E-003;-1.149960909970105E-003;
2.414000000000000E+009;1.896176338195801E-001;-2.452114038169384E-002;-5.273075774312019E-003;-6.442083977162838E-004;
2.414166666666667E+009;1.906265616416931E-001;-2.603585086762905E-002;-5.256935488432646E-003;-4.998835502192378E-004;
2.414333333333334E+009;1.915940344333649E-001;-2.801510319113731E-002;-5.168539937585592E-003;-1.159905004897155E-004;
2.414500000000000E+009;1.927301883697510E-001;-2.949045784771442E-002;-5.106427241116762E-003;1.769375812727958E-004;
2.414666666666667E+009;1.938728988170624E-001;-3.085221722722054E-002;-5.121271125972271E-003;3.185632522217929E-004;
2.414833333333334E+009;1.948720365762711E-001;-3.224952146410942E-002;-4.805832635611296E-003;5.700825131498277E-004;
2.415000000000000E+009;1.958833336830139E-001;-3.349613025784493E-002;-4.796295892447233E-003;9.007894550450146E-004;
2.415166666666667E+009;1.969231069087982E-001;-3.459750488400459E-002;-4.629796836525202E-003;1.166736939921975E-003;
2.415333333333334E+009;1.978740245103836E-001;-3.567079082131386E-002;-4.423609934747219E-003;1.322718337178230E-003;
2.415500000000000E+009;1.987779736518860E-001;-3.628838062286377E-002;-4.464980214834213E-003;1.372080179862678E-003;
2.415666666666667E+009;1.997977495193481E-001;-3.706561401486397E-002;-4.210427869111300E-003;1.584266778081656E-003;
2.415833333333334E+009;2.003805339336395E-001;-3.792195767164230E-002;-4.157920833677054E-003;1.690993667580187E-003;
2.416000000000000E+009;2.008954435586929E-001;-3.868651762604713E-002;-3.819321515038610E-003;2.001177752390504E-003;
2.416166666666667E+009;2.015534341335297E-001;-3.925466910004616E-002;-3.859291784465313E-003;2.103084698319435E-003;
2.416333333333334E+009;2.022211700677872E-001;-3.957974538207054E-002;-3.689742181450129E-003;2.226364333182573E-003;
2.416500000000000E+009;2.024904787540436E-001;-4.003235697746277E-002;-3.368428908288479E-003;2.312875818461180E-003;
2.416666666666667E+009;2.026617228984833E-001;-4.043882712721825E-002;-3.201584331691265E-003;2.448307350277901E-003;
2.416833333333334E+009;2.026694416999817E-001;-4.071179032325745E-002;-2.838210202753544E-003;2.424877835437655E-003;
2.417000000000000E+009;2.027100622653961E-001;-4.096800461411476E-002;-2.539761364459992E-003;2.475253306329250E-003;
2.417166666666667E+009;2.024291306734085E-001;-4.106978327035904E-002;-2.334459684789181E-003;2.503575757145882E-003;
2.417333333333334E+009;2.020594030618668E-001;-4.098767787218094E-002;-2.253443468362093E-003;2.591738943010569E-003;
2.417500000000000E+009;2.017236799001694E-001;-4.128649830818176E-002;-2.033544704318047E-003;2.509330166503787E-003;
2.417666666666667E+009;2.012982219457626E-001;-4.118626192212105E-002;-1.984824659302831E-003;2.429916756227613E-003;
2.417833333333334E+009;2.007222920656204E-001;-4.123831167817116E-002;-1.703557209111750E-003;2.308995230123401E-003;
2.418000000000000E+009;2.001180201768875E-001;-4.119409993290901E-002;-1.627409481443465E-003;2.004561247304082E-003;
2.418166666666667E+009;1.993367820978165E-001;-4.128483682870865E-002;-1.447952236048877E-003;2.023282693699002E-003;
2.418333333333334E+009;1.983687281608582E-001;-4.142983257770538E-002;-1.369833014905453E-003;1.861689612269402E-003;
2.418500000000000E+009;1.974083632230759E-001;-4.156088456511498E-002;-1.343261566944420E-003;1.715717487968504E-003;
2.418666666666667E+009;1.965550035238266E-001;-4.164238274097443E-002;-1.359531772322953E-003;1.609608996659517E-003;
2.418833333333334E+009;1.953222751617432E-001;-4.187014326453209E-002;-1.411090721376240E-003;1.458526472561061E-003;
2.419000000000000E+009;1.940929591655731E-001;-4.236015304923058E-002;-1.316751935519278E-003;1.310975058004260E-003;
2.419166666666667E+009;1.930358260869980E-001;-4.272534325718880E-002;-1.419740845449269E-003;1.282162731513381E-003;
2.419333333333334E+009;1.918248832225800E-001;-4.338623583316803E-002;-1.343636540696025E-003;1.121441484428942E-003;
2.419500000000000E+009;1.903219223022461E-001;-4.389233142137528E-002;-1.508778077550232E-003;1.087298034690321E-003;
2.419666666666667E+009;1.888939738273621E-001;-4.479445517063141E-002;-1.586535479873419E-003;1.047611352987588E-003;
2.419833333333334E+009;1.875244230031967E-001;-4.548911377787590E-002;-1.708494150079787E-003;9.979857131838799E-004;
2.420000000000000E+009;1.860660016536713E-001;-4.657669365406036E-002;-1.793812960386276E-003;8.937850943766534E-004;
2.420166666666667E+009;1.846285462379456E-001;-4.744963347911835E-002;-1.905286218971014E-003;9.678297210484743E-004;
2.420333333333334E+009;1.831935793161392E-001;-4.879273474216461E-002;-1.976465107873082E-003;8.790655410848558E-004;
2.420500000000000E+009;1.816723942756653E-001;-5.019541829824448E-002;-2.131412038579583E-003;1.007886836305261E-003;
2.420666666666667E+009;1.802185624837875E-001;-5.128932371735573E-002;-2.158799674361944E-003;9.275198099203408E-004;
2.420833333333334E+009;1.788244396448135E-001;-5.270104110240936E-002;-2.289091236889362E-003;1.196370925754309E-003;
2.421000000000000E+009;1.774646788835526E-001;-5.431724339723587E-002;-2.365143038332462E-003;1.289002830162644E-003;
2.421166666666667E+009;1.762946844100952E-001;-5.594378709793091E-002;-2.479174174368382E-003;1.248000888153911E-003;
2.421333333333334E+009;1.747666448354721E-001;-5.743758380413055E-002;-2.369306981563568E-003;1.390012213960290E-003;
2.421500000000000E+009;1.735334843397141E-001;-5.937403067946434E-002;-2.574424259364605E-003;1.594937872141600E-003;
2.421666666666667E+009;1.724604815244675E-001;-6.102252006530762E-002;-2.546555828303099E-003;1.753382850438356E-003;
2.421833333333334E+009;1.715075969696045E-001;-6.283916532993317E-002;-2.541898051276803E-003;1.706909271888435E-003;
2.422000000000000E+009;1.702206581830978E-001;-6.462305039167404E-002;-2.634298522025347E-003;1.922063180245459E-003;
2.422166666666667E+009;1.696364730596542E-001;-6.665787845849991E-002;-2.640378428623080E-003;1.922638737596571E-003;
2.422333333333334E+009;1.685341000556946E-001;-6.865823268890381E-002;-2.568159718066454E-003;2.155647147446871E-003;
2.422500000000000E+009;1.678283512592316E-001;-7.033246755599976E-002;-2.496579429134727E-003;2.366111846640706E-003;
2.422666666666667E+009;1.671445071697235E-001;-7.218883931636810E-002;-2.413134090602398E-003;2.372293733060360E-003;
2.422833333333334E+009;1.667897105216980E-001;-7.417805492877960E-002;-2.386467065662146E-003;2.402124460786581E-003;
2.423000000000000E+009;1.661128699779511E-001;-7.613475620746613E-002;-2.275766804814339E-003;2.693229587748647E-003;
2.423166666666667E+009;1.659116148948669E-001;-7.788688689470291E-002;-2.211831742897630E-003;2.688063075765967E-003;
2.423333333333334E+009;1.655429601669312E-001;-7.973927259445190E-002;-2.185991499572992E-003;2.750951331108809E-003;
2.423500000000000E+009;1.654310971498489E-001;-8.151182532310486E-002;-2.351796720176935E-003;2.945044077932835E-003;
2.423666666666667E+009;1.655025482177734E-001;-8.324802666902542E-002;-2.356890123337507E-003;2.932280534878373E-003;
2.423833333333334E+009;1.652989983558655E-001;-8.486943691968918E-002;-2.113474067300558E-003;3.031014930456877E-003;
2.424000000000000E+009;1.655027866363525E-001;-8.655800670385361E-002;-2.279578242450953E-003;3.249594941735268E-003;
2.424166666666667E+009;1.654943525791168E-001;-8.807841688394547E-002;-2.130999229848385E-003;3.420161781832576E-003;
2.424333333333334E+009;1.655629128217697E-001;-8.953405171632767E-002;-2.006677212193608E-003;3.571616485714912E-003;
2.424500000000000E+009;1.658321321010590E-001;-9.118597209453583E-002;-1.948565710335970E-003;3.795785829424858E-003;
2.424666666666667E+009;1.659380197525024E-001;-9.241896122694016E-002;-1.735904836095870E-003;3.929406404495239E-003;
2.424833333333334E+009;1.664445996284485E-001;-9.361165761947632E-002;-1.619461807422340E-003;4.162589553743601E-003;
2.425000000000000E+009;1.667784005403519E-001;-9.481188654899597E-002;-1.421571942046285E-003;4.213217180222273E-003;
2.425166666666667E+009;1.670198738574982E-001;-9.584234654903412E-002;-1.221350161358714E-003;4.404032602906227E-003;
2.425333333333334E+009;1.671362370252609E-001;-9.688992053270340E-002;-9.719059453345835E-004;4.308521281927824E-003;
2.425500000000000E+009;1.675327420234680E-001;-9.794477373361588E-002;-6.163036450743675E-004;4.554109647870064E-003;
2.425666666666667E+009;1.677425056695938E-001;-9.855542331933975E-002;-4.502007213886827E-004;4.562121815979481E-003;
2.425833333333334E+009;1.679803729057312E-001;-9.940887987613678E-002;-3.689655277412385E-004;4.738631192594767E-003;
2.426000000000000E+009;1.683436781167984E-001;-9.994869679212570E-002;5.455400241771713E-005;4.559449385851622E-003;
2.426166666666667E+009;1.686578243970871E-001;-1.005201637744904E-001;2.709325926844031E-004;4.591323435306549E-003;
2.426333333333334E+009;1.686043739318848E-001;-1.010864898562431E-001;4.216112720314413E-004;4.349973052740097E-003;
2.426500000000000E+009;1.689608097076416E-001;-1.014431640505791E-001;6.466728518716991E-004;4.375452641397715E-003;
2.426666666666667E+009;1.691266000270844E-001;-1.018154621124268E-001;9.146662196144462E-004;4.366553388535976E-003;
2.426833333333334E+009;1.692762374877930E-001;-1.021480709314346E-001;9.520382736809552E-004;4.189079161733389E-003;
2.427000000000000E+009;1.691731214523315E-001;-1.025319322943687E-001;1.139239990152419E-003;4.091666545718908E-003;
2.427166666666667E+009;1.692182719707489E-001;-1.027994006872177E-001;1.324666081927717E-003;4.098418168723583E-003;
2.427333333333334E+009;1.690591722726822E-001;-1.032037809491158E-001;1.214582356624305E-003;3.984991926699877E-003;
2.427500000000000E+009;1.687007099390030E-001;-1.034854725003243E-001;1.360683003440499E-003;3.793676849454641E-003;
2.427666666666667E+009;1.684257388114929E-001;-1.035828292369843E-001;1.625546021386981E-003;3.567747538909316E-003;
