# Version 1.00
#
freq[Hz];re:Trc1_S11;im:Trc1_S11;re:Trc2_S21;im:Trc2_S21;
2.400000000000000E+009;1.564106494188309E-001;1.056353300809860E-001;2.471874468028545E-003;-2.726071048527956E-003;
2.400166666666667E+009;1.563590764999390E-001;1.032058522105217E-001;2.405330771580339E-003;-2.566143637523055E-003;
2.400333333333334E+009;1.567382812500000E-001;1.010283082723618E-001;2.259796252474189E-003;-2.687386469915509E-003;
2.400500000000000E+009;1.567763388156891E-001;9.851095825433731E-002;2.337071811780334E-003;-2.616024110466242E-003;
2.400666666666667E+009;1.570796668529511E-001;9.617592394351959E-002;2.310250885784626E-003;-2.762597054243088E-003;
2.400833333333334E+009;1.572281420230866E-001;9.334511309862137E-002;2.256397856399417E-003;-2.637474564835429E-003;
2.401000000000000E+009;1.575402319431305E-001;9.075932949781418E-002;2.288197167217732E-003;-2.741473494097590E-003;
2.401166666666667E+009;1.578984260559082E-001;8.817547559738159E-002;2.198436064645648E-003;-2.744497265666723E-003;
2.401333333333334E+009;1.583730727434158E-001;8.543401956558228E-002;2.212626626715064E-003;-2.780703827738762E-003;
2.401500000000000E+009;1.587386578321457E-001;8.283773064613342E-002;2.177278744056821E-003;-2.867669565603137E-003;
2.401666666666667E+009;1.592032313346863E-001;8.005987852811813E-002;2.186911413446069E-003;-2.964962041005492E-003;
2.401833333333334E+009;1.597974449396133E-001;7.748448848724365E-002;2.173030516132712E-003;-3.048829734325409E-003;
2.402000000000000E+009;1.605341583490372E-001;7.504664361476898E-002;2.080083824694157E-003;-3.230636939406395E-003;
2.402166666666667E+009;1.612682342529297E-001;7.278060913085938E-002;2.145885955542326E-003;-3.189035924151540E-003;
2.402333333333334E+009;1.622091978788376E-001;7.017460465431213E-002;1.983838388696313E-003;-3.419819753617048E-003;
2.402500000000000E+009;1.633629649877548E-001;6.769881397485733E-002;1.637471606954932E-003;-3.425356233492494E-003;
2.402666666666667E+009;1.644289642572403E-001;6.555530428886414E-002;1.622778014279902E-003;-3.473297692835331E-003;
2.402833333333334E+009;1.655627489089966E-001;6.330333650112152E-002;1.370741985738277E-003;-3.549224697053433E-003;
2.403000000000000E+009;1.668714284896851E-001;6.118498742580414E-002;1.356887165457010E-003;-3.505371510982513E-003;
2.403166666666667E+009;1.684831678867340E-001;5.913952365517616E-002;1.223191618919373E-003;-3.584817051887512E-003;
2.403333333333334E+009;1.697312593460083E-001;5.722088366746903E-002;9.785947622731328E-004;-3.526233602315188E-003;
2.403500000000000E+009;1.713569611310959E-001;5.519200116395950E-002;9.259904618375003E-004;-3.455824451521039E-003;
2.403666666666667E+009;1.730189770460129E-001;5.359312891960144E-002;6.374322692863643E-004;-3.342892741784453E-003;
2.403833333333334E+009;1.743481308221817E-001;5.163497105240822E-002;5.165475304238498E-004;-3.323314478620887E-003;
2.404000000000000E+009;1.757095158100128E-001;5.014526471495628E-002;5.379604990594089E-004;-3.125222167000175E-003;
2.404166666666667E+009;1.774190515279770E-001;4.861576482653618E-002;5.013160407543182E-004;-3.164348658174276E-003;
2.404333333333334E+009;1.790239363908768E-001;4.713925346732140E-002;6.407125620171428E-004;-2.772003645077348E-003;
2.404500000000000E+009;1.801559627056122E-001;4.580908268690109E-002;6.580619374290109E-004;-2.993572270497680E-003;
2.404666666666667E+009;1.816477924585342E-001;4.477649554610252E-002;7.545091793872416E-004;-2.873872639611363E-003;
2.404833333333334E+009;1.830829679965973E-001;4.361546039581299E-002;8.593788952566683E-004;-3.016687696799636E-003;
2.405000000000000E+009;1.843206286430359E-001;4.298342019319534E-002;7.887817919254303E-004;-3.065149532631040E-003;
2.405166666666667E+009;1.856998801231384E-001;4.228440672159195E-002;7.166295545175672E-004;-3.056153887882829E-003;
2.405333333333334E+009;1.870535612106323E-001;4.167268797755241E-002;6.101842154748738E-004;-3.274459391832352E-003;
2.405500000000000E+009;1.881597191095352E-001;4.109341278672218E-002;5.325897946022451E-004;-3.382913069799542E-003;
2.405666666666667E+009;1.890771239995956E-001;4.082047566771507E-002;4.950136062689126E-004;-3.477173857390881E-003;
2.405833333333334E+009;1.902821511030197E-001;4.040066897869110E-002;4.252663638908416E-004;-3.615945577621460E-003;
2.406000000000000E+009;1.911281496286392E-001;4.003539681434631E-002;3.478247381281108E-004;-3.550139488652349E-003;
2.406166666666667E+009;1.920670121908188E-001;3.985031321644783E-002;7.815908611519262E-005;-3.658179659396410E-003;
2.406333333333334E+009;1.928205639123917E-001;3.973657637834549E-002;-4.005612026958261E-006;-3.575616981834173E-003;
2.406500000000000E+009;1.933983266353607E-001;3.958468511700630E-002;-1.435339218005538E-004;-3.504194552078843E-003;
2.406666666666667E+009;1.939916759729385E-001;3.941537812352181E-002;-2.473300846759230E-004;-3.449564566835761E-003;
2.406833333333334E+009;1.943954229354858E-001;3.917341679334641E-002;-4.089475551154465E-004;-3.502347040921450E-003;
2.407000000000000E+009;1.947186142206192E-001;3.930911421775818E-002;-2.955847012344748E-004;-3.330415813252330E-003;
2.407166666666667E+009;1.950736194849014E-001;3.895660489797592E-002;-3.187539696227759E-004;-3.214421914890409E-003;
2.407333333333334E+009;1.949543058872223E-001;3.886249288916588E-002;-3.670283185783774E-004;-3.139988286420703E-003;
2.407500000000000E+009;1.949209421873093E-001;3.884113579988480E-002;-3.868976200465113E-004;-3.120592096820474E-003;
2.407666666666667E+009;1.950723230838776E-001;3.862094506621361E-002;-4.032829892821610E-004;-3.166029928252101E-003;
2.407833333333334E+009;1.946575194597244E-001;3.823902085423470E-002;-4.297314735595137E-004;-3.191910916939378E-003;
2.408000000000000E+009;1.947397291660309E-001;3.784261643886566E-002;-3.445756155997515E-004;-3.179367631673813E-003;
2.408166666666667E+009;1.940705478191376E-001;3.734374791383743E-002;-3.889827057719231E-004;-3.174212295562029E-003;
2.408333333333334E+009;1.936409026384354E-001;3.686383366584778E-002;-3.945442731492221E-004;-3.285329556092620E-003;
2.408500000000000E+009;1.931221485137940E-001;3.630548715591431E-002;-3.380196285434067E-004;-3.403724636882544E-003;
2.408666666666667E+009;1.925739645957947E-001;3.562633693218231E-002;-3.502922190818936E-004;-3.492361400276423E-003;
2.408833333333334E+009;1.920613050460815E-001;3.475284576416016E-002;-5.031314212828875E-004;-3.648667363449931E-003;
2.409000000000000E+009;1.913414746522903E-001;3.373387083411217E-002;-5.879470263607800E-004;-3.788057481870055E-003;
2.409166666666667E+009;1.905068457126617E-001;3.259604051709175E-002;-6.609460106119514E-004;-3.783510299399495E-003;
2.409333333333334E+009;1.898760050535202E-001;3.174272924661636E-002;-8.522254647687078E-004;-4.098223987966776E-003;
2.409500000000000E+009;1.889316588640213E-001;3.039713390171528E-002;-1.067582401446998E-003;-4.011956974864006E-003;
2.409666666666667E+009;1.881778687238693E-001;2.888960391283035E-002;-1.177056343294680E-003;-4.022150300443173E-003;
2.409833333333334E+009;1.873833686113358E-001;2.740568481385708E-002;-1.284458208829165E-003;-4.197878297418356E-003;
2.410000000000000E+009;1.865417659282684E-001;2.581050433218479E-002;-1.633887994103134E-003;-4.150268621742725E-003;
2.410166666666667E+009;1.857506036758423E-001;2.380043454468250E-002;-1.777500263415277E-003;-4.070227034389973E-003;
2.410333333333334E+009;1.849981248378754E-001;2.238406613469124E-002;-2.017694525420666E-003;-4.127246327698231E-003;
2.410500000000000E+009;1.841676980257034E-001;2.036578394472599E-002;-2.059158170595765E-003;-4.107869695872068E-003;
2.410666666666667E+009;1.834983974695206E-001;1.834893040359020E-002;-2.243690658360720E-003;-3.880578326061368E-003;
2.410833333333334E+009;1.831615567207336E-001;1.622767746448517E-002;-2.450164873152971E-003;-3.803554223850370E-003;
2.411000000000000E+009;1.822227686643601E-001;1.430452242493630E-002;-2.723031910136342E-003;-3.953054081648588E-003;
2.411166666666667E+009;1.820832490921021E-001;1.215870585292578E-002;-2.725505735725164E-003;-3.837174270302057E-003;
2.411333333333334E+009;1.814789623022080E-001;9.739674627780914E-003;-2.942588413134217E-003;-3.837769385427237E-003;
2.411500000000000E+009;1.813695132732391E-001;7.542587816715241E-003;-3.076535649597645E-003;-3.627556376159191E-003;
2.411666666666667E+009;1.811757981777191E-001;5.332520697265863E-003;-3.195924917235971E-003;-3.542260965332389E-003;
2.411833333333334E+009;1.810431480407715E-001;3.038949100300670E-003;-3.431024495512247E-003;-3.500470425933600E-003;
2.412000000000000E+009;1.812594234943390E-001;6.677111960016191E-004;-3.565306309610605E-003;-3.308339975774288E-003;
2.412166666666667E+009;1.813788115978241E-001;-1.337518682703376E-003;-3.723076777532697E-003;-3.375051775947213E-003;
2.412333333333334E+009;1.816603541374207E-001;-3.695826278999448E-003;-3.917837515473366E-003;-3.234886331483722E-003;
2.412500000000000E+009;1.821465641260147E-001;-5.943018011748791E-003;-4.135889932513237E-003;-3.207025118172169E-003;
2.412666666666667E+009;1.827346682548523E-001;-8.378741331398487E-003;-4.272441379725933E-003;-2.943342318758369E-003;
2.412833333333334E+009;1.833800524473190E-001;-1.054822187870741E-002;-4.397110082209110E-003;-2.781546441838145E-003;
2.413000000000000E+009;1.841097772121429E-001;-1.264426857233048E-002;-4.695148207247257E-003;-2.614161698147655E-003;
2.413166666666667E+009;1.847535222768784E-001;-1.467402279376984E-002;-4.903950262814760E-003;-2.494652289897203E-003;
2.413333333333334E+009;1.857897937297821E-001;-1.687948964536190E-002;-5.030582193285227E-003;-2.127982676029205E-003;
2.413500000000000E+009;1.864221692085266E-001;-1.889640279114246E-002;-5.245334003120661E-003;-1.790070207789540E-003;
2.413666666666667E+009;1.876895278692246E-001;-2.105073817074299E-002;-5.418463610112667E-003;-1.570808817632496E-003;
2.413833333333334E+009;1.885737776756287E-001;-2.297189831733704E-002;-5.348416045308113E-003;-1.165994326584041E-003;
2.414000000000000E+009;1.896407902240753E-001;-2.475260011851788E-002;-5.538820754736662E-003;-9.319682139903307E-004;
2.414166666666667E+009;1.908240467309952E-001;-2.645231969654560E-002;-5.391953047364950E-003;-4.596010548993945E-004;
2.414333333333334E+009;1.916302293539047E-001;-2.819743938744068E-002;-5.396141670644283E-003;-2.238665183540434E-004;
2.414500000000000E+009;1.927417516708374E-001;-2.967960014939308E-002;-5.464305635541678E-003;3.227051138310344E-006;
2.414666666666667E+009;1.939286738634110E-001;-3.091433644294739E-002;-5.182106513530016E-003;3.196278412360698E-004;
2.414833333333334E+009;1.948238164186478E-001;-3.236398100852966E-002;-5.125118885189295E-003;6.437947740778327E-004;
2.415000000000000E+009;1.958002001047134E-001;-3.370347619056702E-002;-4.937609657645226E-003;8.086042362265289E-004;
2.415166666666667E+009;1.969206333160400E-001;-3.496415168046951E-002;-4.776312503963709E-003;9.921982418745756E-004;
2.415333333333334E+009;1.978403776884079E-001;-3.579333052039146E-002;-4.678990226238966E-003;1.113367732614279E-003;
2.415500000000000E+009;1.988554894924164E-001;-3.660181909799576E-002;-4.579488188028336E-003;1.395985484123230E-003;
2.415666666666667E+009;1.997182369232178E-001;-3.742006793618202E-002;-4.436479881405830E-003;1.492168987169862E-003;
2.415833333333334E+009;2.003993242979050E-001;-3.796630725264549E-002;-4.346222616732121E-003;1.691194833256304E-003;
2.416000000000000E+009;2.009152024984360E-001;-3.873896226286888E-002;-4.277796018868685E-003;1.900258590467274E-003;
2.416166666666667E+009;2.015781253576279E-001;-3.939362615346909E-002;-3.915923647582531E-003;1.917943009175360E-003;
2.416333333333334E+009;2.019801139831543E-001;-3.980368375778198E-002;-3.858994692564011E-003;2.182503929361701E-003;
2.416500000000000E+009;2.024233490228653E-001;-4.007673636078835E-002;-3.484415821731091E-003;2.210338134318590E-003;
2.416666666666667E+009;2.025979012250900E-001;-4.063168913125992E-002;-3.509081201627851E-003;2.436057664453983E-003;
2.416833333333334E+009;2.026848793029785E-001;-4.083627462387085E-002;-3.147084265947342E-003;2.428994514048100E-003;
2.417000000000000E+009;2.026156783103943E-001;-4.118258878588677E-002;-2.811730606481433E-003;2.442675409838557E-003;
2.417166666666667E+009;2.022696584463120E-001;-4.119646921753883E-002;-2.578729996457696E-003;2.384572522714734E-003;
2.417333333333334E+009;2.020364850759506E-001;-4.117579385638237E-002;-2.424540231004357E-003;2.387757413089275E-003;
2.417500000000000E+009;2.016232311725617E-001;-4.142198339104652E-002;-2.188620856031776E-003;2.446469850838184E-003;
2.417666666666667E+009;2.011249512434006E-001;-4.138173535466194E-002;-2.062240149825811E-003;2.305150032043457E-003;
2.417833333333334E+009;2.006716132164002E-001;-4.141654819250107E-002;-1.866064034402371E-003;2.173168351873756E-003;
2.418000000000000E+009;1.999440640211105E-001;-4.129697382450104E-002;-1.700811437331140E-003;1.971039921045303E-003;
2.418166666666667E+009;1.991325169801712E-001;-4.150354489684105E-002;-1.701832981780171E-003;2.057919278740883E-003;
2.418333333333334E+009;1.982462108135223E-001;-4.131868854165077E-002;-1.610581763088703E-003;1.860287622548640E-003;
2.418500000000000E+009;1.971888542175293E-001;-4.152888059616089E-002;-1.497863209806383E-003;1.724812551401556E-003;
2.418666666666667E+009;1.963398456573486E-001;-4.181813448667526E-002;-1.428214018233120E-003;1.598138944245875E-003;
2.418833333333334E+009;1.952574402093887E-001;-4.195739328861237E-002;-1.510867150500417E-003;1.531097921542823E-003;
2.419000000000000E+009;1.939819008111954E-001;-4.240563884377480E-002;-1.505142427049577E-003;1.505835680291057E-003;
2.419166666666667E+009;1.927801817655563E-001;-4.287958890199661E-002;-1.579424832016230E-003;1.240985700860620E-003;
2.419333333333334E+009;1.916121840476990E-001;-4.355917870998383E-002;-1.597025548107922E-003;1.246489351615310E-003;
2.419500000000000E+009;1.900235563516617E-001;-4.394772276282311E-002;-1.662780763581395E-003;1.192068681120873E-003;
2.419666666666667E+009;1.887453645467758E-001;-4.493270441889763E-002;-1.671936362981796E-003;1.147334696725011E-003;
2.419833333333334E+009;1.872534602880478E-001;-4.559525102376938E-002;-1.837727613747120E-003;1.121935085393488E-003;
2.420000000000000E+009;1.859572231769562E-001;-4.657848179340363E-002;-2.004437148571014E-003;1.012781867757440E-003;
2.420166666666667E+009;1.843924075365067E-001;-4.758265241980553E-002;-2.002514665946364E-003;9.971954859793186E-004;
2.420333333333334E+009;1.830498725175858E-001;-4.880568757653236E-002;-2.087931148707867E-003;1.102229580283165E-003;
2.420500000000000E+009;1.816005259752274E-001;-5.016198381781578E-002;-2.134259091690183E-003;9.779091924428940E-004;
2.420666666666667E+009;1.800400018692017E-001;-5.115743353962898E-002;-2.254869090393186E-003;1.219026278704405E-003;
2.420833333333334E+009;1.786389946937561E-001;-5.281409621238709E-002;-2.434273250401020E-003;1.183960004709661E-003;
2.421000000000000E+009;1.772143095731735E-001;-5.441407859325409E-002;-2.571771387010813E-003;1.459623919799924E-003;
2.421166666666667E+009;1.760748624801636E-001;-5.603337660431862E-002;-2.752691973000765E-003;1.391205354593694E-003;
2.421333333333334E+009;1.745284199714661E-001;-5.736845731735230E-002;-2.706089057028294E-003;1.635652617551386E-003;
2.421500000000000E+009;1.733350157737732E-001;-5.938271805644035E-002;-2.495116088539362E-003;1.739632338285446E-003;
2.421666666666667E+009;1.722530722618103E-001;-6.099947541952133E-002;-2.727705053985119E-003;1.828554319217801E-003;
2.421833333333334E+009;1.712313294410706E-001;-6.274193525314331E-002;-2.737119793891907E-003;2.001267392188311E-003;
2.422000000000000E+009;1.701812148094177E-001;-6.456622481346130E-002;-2.738139359280467E-003;2.178985159844160E-003;
2.422166666666667E+009;1.693613976240158E-001;-6.670968979597092E-002;-2.804272109642625E-003;2.417789539322257E-003;
2.422333333333334E+009;1.684207320213318E-001;-6.850334256887436E-002;-2.678990596905351E-003;2.377148717641830E-003;
2.422500000000000E+009;1.676011830568314E-001;-7.032724469900131E-002;-2.625277731567621E-003;2.614777069538832E-003;
2.422666666666667E+009;1.668514311313629E-001;-7.210688292980194E-002;-2.606277819722891E-003;2.568212570622563E-003;
2.422833333333334E+009;1.666605174541473E-001;-7.397233694791794E-002;-2.506282180547714E-003;2.713183173909783E-003;
2.423000000000000E+009;1.661463528871536E-001;-7.597965747117996E-002;-2.509755082428455E-003;2.789156744256616E-003;
2.423166666666667E+009;1.656492799520493E-001;-7.793051004409790E-002;-2.401892328634858E-003;3.088956698775291E-003;
2.423333333333334E+009;1.654433310031891E-001;-7.946915179491043E-002;-2.335238270461559E-003;2.946304390206933E-003;
2.423500000000000E+009;1.654060781002045E-001;-8.139255642890930E-002;-2.351856790482998E-003;3.160672960802913E-003;
2.423666666666667E+009;1.652614027261734E-001;-8.323190361261368E-002;-2.339348662644625E-003;3.265485633164644E-003;
2.423833333333334E+009;1.651284992694855E-001;-8.492539823055267E-002;-2.378669334575534E-003;3.413509810343385E-003;
2.424000000000000E+009;1.653163135051727E-001;-8.652866631746292E-002;-2.190164057537913E-003;3.497101133689284E-003;
2.424166666666667E+009;1.653457134962082E-001;-8.790109306573868E-002;-2.249383134767413E-003;3.742977278307080E-003;
2.424333333333334E+009;1.654647290706635E-001;-8.943471312522888E-002;-2.127308864146471E-003;3.930838778614998E-003;
2.424500000000000E+009;1.657163649797440E-001;-9.120029956102371E-002;-1.828439417295158E-003;4.080374725162983E-003;
2.424666666666667E+009;1.658697128295898E-001;-9.238952398300171E-002;-1.760851941071451E-003;4.130430985242128E-003;
2.424833333333334E+009;1.663844734430313E-001;-9.356535971164703E-002;-1.626815996132791E-003;4.343759268522263E-003;
2.425000000000000E+009;1.665762513875961E-001;-9.477242827415466E-002;-1.496258773840964E-003;4.564533941447735E-003;
2.425166666666667E+009;1.668868958950043E-001;-9.578017145395279E-002;-1.117403618991375E-003;4.727567546069622E-003;
2.425333333333334E+009;1.670974940061569E-001;-9.675320982933044E-002;-9.804220171645284E-004;4.737583920359612E-003;
2.425500000000000E+009;1.674000620841980E-001;-9.778977930545807E-002;-7.924770470708609E-004;4.684417042881250E-003;
2.425666666666667E+009;1.676876991987228E-001;-9.842102974653244E-002;-4.336946294642985E-004;4.873283207416534E-003;
2.425833333333334E+009;1.678986549377441E-001;-9.928777068853378E-002;-2.154054527636617E-004;4.938776604831219E-003;
2.426000000000000E+009;1.683035194873810E-001;-9.980747103691101E-002;9.798087558010593E-005;4.812973085790873E-003;
2.426166666666667E+009;1.685711145401001E-001;-1.003677770495415E-001;3.422197769396007E-004;4.806756507605314E-003;
2.426333333333334E+009;1.685584336519241E-001;-1.009518876671791E-001;5.949279875494540E-004;4.851364530622959E-003;
2.426500000000000E+009;1.690173894166946E-001;-1.013418734073639E-001;7.916183094494045E-004;4.543708171695471E-003;
2.426666666666667E+009;1.690601557493210E-001;-1.017319113016129E-001;9.961188770830631E-004;4.554005339741707E-003;
2.426833333333334E+009;1.692202538251877E-001;-1.021714434027672E-001;1.167683629319072E-003;4.465891048312187E-003;
2.427000000000000E+009;1.691359132528305E-001;-1.024885177612305E-001;1.367939985357225E-003;4.234113264828920E-003;
2.427166666666667E+009;1.691943258047104E-001;-1.026989743113518E-001;1.364836120046675E-003;4.292187280952931E-003;
2.427333333333334E+009;1.690161824226379E-001;-1.030848845839500E-001;1.418843399733305E-003;3.947568591684103E-003;
2.427500000000000E+009;1.688037961721420E-001;-1.033886000514031E-001;1.538648735731840E-003;3.931093495339155E-003;
2.427666666666667E+009;1.684206128120422E-001;-1.036077812314034E-001;1.595732057467103E-003;3.891499247401953E-003;
