# Version 1.00
#
freq[Hz];re:Trc1_S11;im:Trc1_S11;re:Trc2_S21;im:Trc2_S21;
2.400000000000000E+009;1.562961339950562E-001;1.054331958293915E-001;2.277294639497995E-003;-2.671489957720041E-003;
2.400166666666667E+009;1.562901139259338E-001;1.030839979648590E-001;2.342891413718462E-003;-2.799321198835969E-003;
2.400333333333334E+009;1.564064174890518E-001;1.008933261036873E-001;2.159350086003542E-003;-2.806911012157798E-003;
2.400500000000000E+009;1.566371768712997E-001;9.847821295261383E-002;2.369535388424993E-003;-2.757105510681868E-003;
2.400666666666667E+009;1.568336486816406E-001;9.617146104574204E-002;2.304698107764125E-003;-2.690185327082872E-003;
2.400833333333334E+009;1.570145785808563E-001;9.328812360763550E-002;2.123115817084909E-003;-2.767686964944005E-003;
2.401000000000000E+009;1.573262661695480E-001;9.072322398424149E-002;2.327427500858903E-003;-2.694720169529319E-003;
2.401166666666667E+009;1.575969457626343E-001;8.808677643537521E-002;2.221436472609639E-003;-2.672392874956131E-003;
2.401333333333334E+009;1.580872386693955E-001;8.545582741498947E-002;2.193590160459280E-003;-2.893282100558281E-003;
2.401500000000000E+009;1.586823761463165E-001;8.256410062313080E-002;2.095911186188459E-003;-2.935853088274598E-003;
2.401666666666667E+009;1.589981913566589E-001;8.008783310651779E-002;2.101688180118799E-003;-2.806534059345722E-003;
2.401833333333334E+009;1.596043556928635E-001;7.758411765098572E-002;2.022802596911788E-003;-3.090354148298502E-003;
2.402000000000000E+009;1.605222374200821E-001;7.484971731901169E-002;2.069225534796715E-003;-3.230798989534378E-003;
2.402166666666667E+009;1.612252593040466E-001;7.273820042610169E-002;2.026559552177787E-003;-3.257871139794588E-003;
2.402333333333334E+009;1.620243936777115E-001;7.001873105764389E-002;1.799111720174551E-003;-3.337978152558208E-003;
2.402500000000000E+009;1.631910949945450E-001;6.773985177278519E-002;1.625733100809157E-003;-3.381524933502078E-003;
2.402666666666667E+009;1.644407957792282E-001;6.558923423290253E-002;1.454567536711693E-003;-3.427064511924982E-003;
2.402833333333334E+009;1.654534488916397E-001;6.330927461385727E-002;1.391359837725759E-003;-3.488923190161586E-003;
2.403000000000000E+009;1.669005304574966E-001;6.119152158498764E-002;1.324326149187982E-003;-3.475410165265203E-003;
2.403166666666667E+009;1.683693081140518E-001;5.911471694707871E-002;1.006536534987390E-003;-3.381068119779229E-003;
2.403333333333334E+009;1.698016077280045E-001;5.710612237453461E-002;7.436943706125021E-004;-3.570642089471221E-003;
2.403500000000000E+009;1.713700890541077E-001;5.521927773952484E-002;6.530465325340629E-004;-3.463543020188808E-003;
2.403666666666667E+009;1.729701310396195E-001;5.339144542813301E-002;4.827989905606955E-004;-3.201753133907914E-003;
2.403833333333334E+009;1.744891256093979E-001;5.165249481797218E-002;5.375558976083994E-004;-2.988344524055719E-003;
2.404000000000000E+009;1.758754700422287E-001;4.998572915792465E-002;6.276680505834520E-004;-3.035941626876593E-003;
2.404166666666667E+009;1.774550676345825E-001;4.869939386844635E-002;5.190638476051390E-004;-2.736866474151611E-003;
2.404333333333334E+009;1.789899617433548E-001;4.708268865942955E-002;5.200213636271656E-004;-2.858323743566871E-003;
2.404500000000000E+009;1.802466809749603E-001;4.565184190869331E-002;6.334570934996009E-004;-2.774426015093923E-003;
2.404666666666667E+009;1.818499714136124E-001;4.473437368869782E-002;6.412311340682209E-004;-2.718205098062754E-003;
2.404833333333334E+009;1.832718551158905E-001;4.363231360912323E-002;5.853414186276496E-004;-2.718610921874642E-003;
2.405000000000000E+009;1.843003779649735E-001;4.302224516868591E-002;7.418407476507127E-004;-2.750464482232928E-003;
2.405166666666667E+009;1.857085227966309E-001;4.209211096167564E-002;6.462184246629477E-004;-2.930155023932457E-003;
2.405333333333334E+009;1.869006305932999E-001;4.174531996250153E-002;7.494683959521353E-004;-3.016668371856213E-003;
2.405500000000000E+009;1.882018148899078E-001;4.120019078254700E-002;7.133760373108089E-004;-3.092191182076931E-003;
2.405666666666667E+009;1.891731470823288E-001;4.072553664445877E-002;4.612007760442793E-004;-3.273724811151624E-003;
2.405833333333334E+009;1.901869326829910E-001;4.031959548592567E-002;3.709885349962860E-004;-3.378708381205797E-003;
2.406000000000000E+009;1.911854296922684E-001;4.013673216104507E-002;3.344205470057204E-005;-3.595524001866579E-003;
2.406166666666667E+009;1.920186132192612E-001;3.983335569500923E-002;7.278947305167094E-005;-3.295826958492398E-003;
2.406333333333334E+009;1.927765607833862E-001;3.982124105095863E-002;9.338010568171740E-005;-3.402235452085733E-003;
2.406500000000000E+009;1.934456974267960E-001;3.944845870137215E-002;-1.410189433954656E-004;-3.341248957440257E-003;
2.406666666666667E+009;1.940073370933533E-001;3.948542103171349E-002;-3.180211060680449E-004;-3.417718922719359E-003;
2.406833333333334E+009;1.944836378097534E-001;3.928679227828980E-002;-3.724276029970497E-004;-3.255590563639998E-003;
2.407000000000000E+009;1.947236508131027E-001;3.937104344367981E-002;-3.539425379130989E-004;-3.108347766101360E-003;
2.407166666666667E+009;1.951117515563965E-001;3.899415209889412E-002;-4.358775331638753E-004;-3.170103300362825E-003;
2.407333333333334E+009;1.950026750564575E-001;3.898465633392334E-002;-3.118768217973411E-004;-3.136165672913194E-003;
2.407500000000000E+009;1.949623376131058E-001;3.882442042231560E-002;-3.327812300994992E-004;-3.114933380857110E-003;
2.407666666666667E+009;1.949779242277145E-001;3.871208056807518E-002;-2.506566816009581E-004;-2.932126168161631E-003;
2.407833333333334E+009;1.946430206298828E-001;3.831659257411957E-002;-4.428775864653289E-004;-2.972596324980259E-003;
2.408000000000000E+009;1.945386677980423E-001;3.796529769897461E-002;-1.461852807551622E-004;-3.232881426811218E-003;
2.408166666666667E+009;1.941628307104111E-001;3.751212731003761E-002;-3.011003136634827E-004;-3.236951772123575E-003;
2.408333333333334E+009;1.937901973724365E-001;3.683460503816605E-002;-3.302570257801563E-004;-3.263736609369516E-003;
2.408500000000000E+009;1.931875497102737E-001;3.647802397608757E-002;-4.114539769943804E-004;-3.316632006317377E-003;
2.408666666666667E+009;1.926691681146622E-001;3.577188402414322E-002;-3.521112084854394E-004;-3.627631114795804E-003;
2.408833333333334E+009;1.922051906585693E-001;3.495209664106369E-002;-3.551810223143548E-004;-3.508528461679816E-003;
2.409000000000000E+009;1.913352310657501E-001;3.397939726710320E-002;-6.193751469254494E-004;-3.739112755283713E-003;
2.409166666666667E+009;1.906924247741699E-001;3.284862637519836E-002;-6.517434376291931E-004;-3.710110438987613E-003;
2.409333333333334E+009;1.899348944425583E-001;3.176279738545418E-002;-8.476668735966086E-004;-3.975677769631147E-003;
2.409500000000000E+009;1.888064742088318E-001;3.035799413919449E-002;-1.064796699211001E-003;-3.998959902673960E-003;
2.409666666666667E+009;1.882899701595306E-001;2.885838784277439E-002;-1.189780305139720E-003;-4.135489463806152E-003;
2.409833333333334E+009;1.872817128896713E-001;2.754806913435459E-002;-1.290331711061299E-003;-4.048101138323546E-003;
2.410000000000000E+009;1.866770982742310E-001;2.595944516360760E-002;-1.627418561838567E-003;-3.975223749876022E-003;
2.410166666666667E+009;1.857418566942215E-001;2.402829192578793E-002;-1.572017790749669E-003;-3.972908947616816E-003;
2.410333333333334E+009;1.849156171083450E-001;2.233297005295754E-002;-1.750391325913370E-003;-3.952310886234045E-003;
2.410500000000000E+009;1.842591315507889E-001;2.053601108491421E-002;-1.962010981515050E-003;-4.057723097503185E-003;
2.410666666666667E+009;1.834667026996613E-001;1.834531687200069E-002;-2.307107439264655E-003;-3.992617130279541E-003;
2.410833333333334E+009;1.830359995365143E-001;1.640910096466541E-002;-2.370230853557587E-003;-3.779487917199731E-003;
2.411000000000000E+009;1.823097318410873E-001;1.416562870144844E-002;-2.513181185349822E-003;-3.865726292133331E-003;
2.411166666666667E+009;1.821414828300476E-001;1.207225769758225E-002;-2.611710457131267E-003;-3.769864793866873E-003;
2.411333333333334E+009;1.815014034509659E-001;9.626121260225773E-003;-2.859050640836358E-003;-3.863268997520208E-003;
2.411500000000000E+009;1.812801957130432E-001;7.631288375705481E-003;-3.009916748851538E-003;-3.615958848968148E-003;
2.411666666666667E+009;1.813178062438965E-001;5.367643665522337E-003;-3.272651229053736E-003;-3.544698935002089E-003;
2.411833333333334E+009;1.810725331306458E-001;3.251171903684735E-003;-3.246898297220469E-003;-3.483473556116223E-003;
2.412000000000000E+009;1.812695860862732E-001;5.922338459640741E-004;-3.457144834101200E-003;-3.296999959275127E-003;
2.412166666666667E+009;1.813059300184250E-001;-1.358751906082034E-003;-3.618899499997497E-003;-3.375419648364186E-003;
2.412333333333334E+009;1.815617233514786E-001;-3.712018718943000E-003;-3.870291635394096E-003;-3.376313485205174E-003;
2.412500000000000E+009;1.820364147424698E-001;-5.960545036941767E-003;-3.735953243449330E-003;-3.183988155797124E-003;
2.412666666666667E+009;1.825485378503799E-001;-8.113560266792774E-003;-4.165845923125744E-003;-3.013924695551395E-003;
2.412833333333334E+009;1.832818984985352E-001;-1.045797020196915E-002;-4.299986176192761E-003;-2.946793567389250E-003;
2.413000000000000E+009;1.839387118816376E-001;-1.259130798280239E-002;-4.407200962305069E-003;-2.667770488187671E-003;
2.413166666666667E+009;1.846948415040970E-001;-1.466223224997520E-002;-4.811889026314020E-003;-2.385386265814304E-003;
2.413333333333334E+009;1.856838613748550E-001;-1.687797345221043E-002;-4.940554499626160E-003;-2.226144075393677E-003;
2.413500000000000E+009;1.865565925836563E-001;-1.894834451377392E-002;-5.199547391384840E-003;-1.917641959153116E-003;
2.413666666666667E+009;1.873908787965775E-001;-2.104483917355537E-002;-5.297266412526369E-003;-1.576921553350985E-003;
2.413833333333334E+009;1.885557919740677E-001;-2.278969250619412E-002;-5.309833679348230E-003;-1.188561320304871E-003;
2.414000000000000E+009;1.895964443683624E-001;-2.466140128672123E-002;-5.349182989448309E-003;-9.343226556666195E-004;
2.414166666666667E+009;1.908001154661179E-001;-2.640407904982567E-002;-5.327537655830383E-003;-5.935321096330881E-004;
2.414333333333334E+009;1.916448026895523E-001;-2.826924249529839E-002;-5.270824767649174E-003;-2.265169459860772E-004;
2.414500000000000E+009;1.927367746829987E-001;-2.959800139069557E-002;-5.275994539260864E-003;1.304901525145397E-004;
2.414666666666667E+009;1.939333975315094E-001;-3.113196976482868E-002;-5.179130472242832E-003;3.013287496287376E-004;
2.414833333333334E+009;1.948387622833252E-001;-3.246618062257767E-002;-4.962261766195297E-003;6.412348011508584E-004;
2.415000000000000E+009;1.958534270524979E-001;-3.352953121066093E-002;-4.851692356169224E-003;8.170302608050406E-004;
2.415166666666667E+009;1.968194842338562E-001;-3.468889743089676E-002;-4.662629216909409E-003;1.004098681733012E-003;
2.415333333333334E+009;1.979019790887833E-001;-3.571432083845139E-002;-4.659926053136587E-003;1.161201042123139E-003;
2.415500000000000E+009;1.987476199865341E-001;-3.643536940217018E-002;-4.485115408897400E-003;1.425910973921418E-003;
2.415666666666667E+009;1.996529400348663E-001;-3.727418556809425E-002;-4.291942808777094E-003;1.475364901125431E-003;
2.415833333333334E+009;2.003612965345383E-001;-3.814080357551575E-002;-4.176602233201265E-003;1.759968232363462E-003;
2.416000000000000E+009;2.009499222040176E-001;-3.878773376345635E-002;-4.022085573524237E-003;1.810597488656640E-003;
2.416166666666667E+009;2.015362828969955E-001;-3.949971497058868E-002;-3.895716276019812E-003;1.824563252739608E-003;
2.416333333333334E+009;2.020429670810700E-001;-3.979995101690292E-002;-3.766356501728296E-003;2.185430144891143E-003;
2.416500000000000E+009;2.024312019348145E-001;-4.006073623895645E-002;-3.446893300861120E-003;2.080332022160292E-003;
2.416666666666667E+009;2.026656121015549E-001;-4.065663740038872E-002;-3.396975109353662E-003;2.402822021394968E-003;
2.416833333333334E+009;2.025545239448547E-001;-4.085071012377739E-002;-3.072447143495083E-003;2.369351685047150E-003;
2.417000000000000E+009;2.026494890451431E-001;-4.106169939041138E-002;-2.799129579216242E-003;2.552467165514827E-003;
2.417166666666667E+009;2.022763639688492E-001;-4.123253375291824E-002;-2.588466741144657E-003;2.455892972648144E-003;
2.417333333333334E+009;2.019681185483933E-001;-4.125039651989937E-002;-2.271870151162148E-003;2.411226043477655E-003;
2.417500000000000E+009;2.016623765230179E-001;-4.138816148042679E-002;-2.186748199164867E-003;2.313594333827496E-003;
2.417666666666667E+009;2.011654973030090E-001;-4.144074022769928E-002;-1.910568447783589E-003;2.261511981487274E-003;
2.417833333333334E+009;2.005845755338669E-001;-4.137092456221581E-002;-1.916542882099748E-003;2.170945517718792E-003;
2.418000000000000E+009;1.999926716089249E-001;-4.135915264487267E-002;-1.745840534567833E-003;1.925771706737578E-003;
2.418166666666667E+009;1.991363167762756E-001;-4.148543998599052E-002;-1.543883117847145E-003;1.937742345035076E-003;
2.418333333333334E+009;1.983387619256973E-001;-4.154209047555924E-002;-1.552557339891791E-003;1.757986960001290E-003;
2.418500000000000E+009;1.972652822732925E-001;-4.166863486170769E-002;-1.333252410404384E-003;1.618160167708993E-003;
2.418666666666667E+009;1.964826285839081E-001;-4.172626882791519E-002;-1.437032129615545E-003;1.512230490334332E-003;
2.418833333333334E+009;1.952151954174042E-001;-4.210105910897255E-002;-1.448279828764498E-003;1.357355620712042E-003;
2.419000000000000E+009;1.940232664346695E-001;-4.246002435684204E-002;-1.423909212462604E-003;1.292066881433129E-003;
2.419166666666667E+009;1.928733140230179E-001;-4.290300235152245E-002;-1.496176701039076E-003;1.177209545858204E-003;
2.419333333333334E+009;1.914758831262589E-001;-4.350546747446060E-002;-1.562394201755524E-003;1.076744520105422E-003;
2.419500000000000E+009;1.901593357324600E-001;-4.403948038816452E-002;-1.722887973301113E-003;9.777770610526204E-004;
2.419666666666667E+009;1.887767761945725E-001;-4.489548504352570E-002;-1.751582603901625E-003;1.031506108120084E-003;
2.419833333333334E+009;1.874049752950668E-001;-4.567816480994225E-002;-1.862510107457638E-003;7.528187707066536E-004;
2.420000000000000E+009;1.860501170158386E-001;-4.670480266213417E-002;-1.939339679665864E-003;8.366174879483879E-004;
2.420166666666667E+009;1.846061050891876E-001;-4.772003740072250E-002;-2.077791839838028E-003;8.751164423301816E-004;
2.420333333333334E+009;1.830611377954483E-001;-4.870615899562836E-002;-2.298081992194057E-003;9.152295533567667E-004;
2.420500000000000E+009;1.816027164459229E-001;-5.007332190871239E-002;-2.303599612787366E-003;9.093869593925774E-004;
2.420666666666667E+009;1.800808906555176E-001;-5.121302232146263E-002;-2.470734762027860E-003;1.032852451317012E-003;
2.420833333333334E+009;1.786674857139587E-001;-5.286497995257378E-002;-2.586940070614219E-003;1.113294507376850E-003;
2.421000000000000E+009;1.772420704364777E-001;-5.425760522484779E-002;-2.653205767273903E-003;1.099278219044209E-003;
2.421166666666667E+009;1.761862784624100E-001;-5.597826838493347E-002;-2.747760852798820E-003;1.256084069609642E-003;
2.421333333333334E+009;1.745134443044663E-001;-5.741502344608307E-002;-2.875662874430418E-003;1.406737952493131E-003;
2.421500000000000E+009;1.732793152332306E-001;-5.944231152534485E-002;-2.977379132062197E-003;1.502726343460381E-003;
2.421666666666667E+009;1.723038405179977E-001;-6.107368320226669E-002;-2.875295234844089E-003;1.733480021357536E-003;
2.421833333333334E+009;1.712777614593506E-001;-6.285532563924789E-002;-2.823749324306846E-003;1.909674727357924E-003;
2.422000000000000E+009;1.701860278844833E-001;-6.453141570091248E-002;-2.823163988068700E-003;2.080562291666865E-003;
2.422166666666667E+009;1.693761199712753E-001;-6.683075428009033E-002;-2.809037920087576E-003;2.113951835781336E-003;
2.422333333333334E+009;1.682838648557663E-001;-6.854622066020966E-002;-2.836495405063033E-003;2.285744994878769E-003;
2.422500000000000E+009;1.676975786685944E-001;-7.026108354330063E-002;-2.710190135985613E-003;2.445798134431243E-003;
2.422666666666667E+009;1.669274419546127E-001;-7.221519201993942E-002;-2.680158475413919E-003;2.607219386845827E-003;
2.422833333333334E+009;1.667272597551346E-001;-7.409354299306870E-002;-2.550786128267646E-003;2.725468948483467E-003;
2.423000000000000E+009;1.661710590124130E-001;-7.609597593545914E-002;-2.600958338007331E-003;2.669731387868524E-003;
2.423166666666667E+009;1.657277941703796E-001;-7.788857817649841E-002;-2.375780139118433E-003;2.815146232023835E-003;
2.423333333333334E+009;1.654957532882690E-001;-7.979714125394821E-002;-2.509591402485967E-003;2.896297024562955E-003;
2.423500000000000E+009;1.653032004833221E-001;-8.144748955965042E-002;-2.328426111489534E-003;3.147360635921359E-003;
2.423666666666667E+009;1.654351800680161E-001;-8.316539973020554E-002;-2.379833022132516E-003;3.268683562055230E-003;
2.423833333333334E+009;1.652873009443283E-001;-8.482622355222702E-002;-2.349224872887135E-003;3.528166096657515E-003;
2.424000000000000E+009;1.653851419687271E-001;-8.652183413505554E-002;-2.230288693681359E-003;3.485014894977212E-003;
2.424166666666667E+009;1.653923243284226E-001;-8.800622075796127E-002;-2.154845744371414E-003;3.565392689779401E-003;
2.424333333333334E+009;1.655943542718887E-001;-8.935016393661499E-002;-2.081687794998288E-003;3.845867235213518E-003;
2.424500000000000E+009;1.656333655118942E-001;-9.106854349374771E-002;-2.153633860871196E-003;4.084887448698282E-003;
2.424666666666667E+009;1.658607274293900E-001;-9.237192571163178E-002;-1.956705469638109E-003;4.301893990486860E-003;
2.424833333333334E+009;1.664868444204330E-001;-9.361919760704041E-002;-1.797885983251035E-003;4.368675407022238E-003;
2.425000000000000E+009;1.666347980499268E-001;-9.477108716964722E-002;-1.468376605771482E-003;4.508872982114554E-003;
2.425166666666667E+009;1.667955517768860E-001;-9.598611295223236E-002;-1.343744923360646E-003;4.596780985593796E-003;
2.425333333333334E+009;1.670219451189041E-001;-9.674735367298126E-002;-1.098114065825939E-003;4.738652147352696E-003;
2.425500000000000E+009;1.673990041017532E-001;-9.785085171461105E-002;-6.981279584579170E-004;4.843518603593111E-003;
2.425666666666667E+009;1.676887720823288E-001;-9.843596071004868E-002;-5.664689815603197E-004;4.875388462096453E-003;
2.425833333333334E+009;1.679743528366089E-001;-9.927644580602646E-002;-3.130809345748276E-004;4.891056101769209E-003;
2.426000000000000E+009;1.683242172002792E-001;-9.969389438629150E-002;-1.461029314668849E-004;4.839528352022171E-003;
2.426166666666667E+009;1.685061156749725E-001;-1.003802120685577E-001;2.367197739658877E-004;4.817102104425430E-003;
2.426333333333334E+009;1.685494333505631E-001;-1.010800749063492E-001;5.009220913052559E-004;4.826815333217382E-003;
2.426500000000000E+009;1.688613891601563E-001;-1.013988405466080E-001;7.084177341312170E-004;4.558862186968327E-003;
2.426666666666667E+009;1.689675897359848E-001;-1.017470732331276E-001;8.528908947482705E-004;4.572749603539705E-003;
2.426833333333334E+009;1.693122833967209E-001;-1.022364348173142E-001;1.128942240029573E-003;4.417539108544588E-003;
2.427000000000000E+009;1.691756844520569E-001;-1.024577394127846E-001;1.140958396717906E-003;4.301373846828938E-003;
2.427166666666667E+009;1.690938025712967E-001;-1.025939136743546E-001;1.380770234391093E-003;4.277645610272884E-003;
2.427333333333334E+009;1.691182255744934E-001;-1.030300855636597E-001;1.532256836071611E-003;4.121175035834312E-003;
2.427500000000000E+009;1.688359826803207E-001;-1.033613905310631E-001;1.456244383007288E-003;4.031028132885695E-003;
2.427666666666667E+009;1.684748232364655E-001;-1.036174967885017E-001;1.533672446385026E-003;3.858570940792561E-003;
