# Version 1.00
#
freq[Hz];re:Trc1_S11;im:Trc1_S11;re:Trc2_S21;im:Trc2_S21;
2.400000000000000E+009;1.563436090946198E-001;1.055338457226753E-001;2.093055984005332E-003;-2.601211424916983E-003;
2.400166666666667E+009;1.562514752149582E-001;1.031798571348190E-001;2.352298703044653E-003;-2.737843897193670E-003;
2.400333333333334E+009;1.566884219646454E-001;1.009596362709999E-001;2.711994107812643E-003;-2.882484113797545E-003;
2.400500000000000E+009;1.568455845117569E-001;9.855443984270096E-002;2.447650535032153E-003;-2.374048810452223E-003;
2.400666666666667E+009;1.569748669862747E-001;9.617993980646133E-002;2.145372098311782E-003;-2.690402325242758E-003;
2.400833333333334E+009;1.569266617298126E-001;9.315983206033707E-002;1.897417474538088E-003;-3.696905449032784E-003;
2.401000000000000E+009;1.576458811759949E-001;9.061606973409653E-002;2.370045520365238E-003;-2.822389826178551E-003;
2.401166666666667E+009;1.577280163764954E-001;8.820495009422302E-002;1.894604880362749E-003;-3.562826430425048E-003;
2.401333333333334E+009;1.583238095045090E-001;8.569260686635971E-002;2.081889659166336E-003;-3.045850433409214E-003;
2.401500000000000E+009;1.587464362382889E-001;8.272412419319153E-002;1.948005636222661E-003;-3.049271414056420E-003;
2.401666666666667E+009;1.590865850448608E-001;8.026135712862015E-002;2.020194893702865E-003;-3.130419645458460E-003;
2.401833333333334E+009;1.596296131610870E-001;7.761253416538239E-002;1.851687789894640E-003;-3.165364032611251E-003;
2.402000000000000E+009;1.605590879917145E-001;7.504217326641083E-002;1.700078486464918E-003;-3.353043692186475E-003;
2.402166666666667E+009;1.613518148660660E-001;7.250349968671799E-002;1.709263422526419E-003;-3.484880784526467E-003;
2.402333333333334E+009;1.622806340456009E-001;7.003542035818100E-002;1.589108956977725E-003;-3.663984593003988E-003;
2.402500000000000E+009;1.633836925029755E-001;6.781369447708130E-002;1.491895178332925E-003;-3.540382720530033E-003;
2.402666666666667E+009;1.644419282674789E-001;6.558682769536972E-002;1.372632104903460E-003;-3.681032219901681E-003;
2.402833333333334E+009;1.655850857496262E-001;6.330780684947968E-002;1.131084049120545E-003;-3.692429512739182E-003;
2.403000000000000E+009;1.668424159288406E-001;6.125996261835098E-002;8.982117869891226E-004;-3.851503366604447E-003;
2.403166666666667E+009;1.684040725231171E-001;5.914835259318352E-002;8.998361299745739E-004;-3.715587547048926E-003;
2.403333333333334E+009;1.697914004325867E-001;5.711011588573456E-002;6.069678347557783E-004;-3.573318943381310E-003;
2.403500000000000E+009;1.714825332164764E-001;5.523579195141792E-002;3.520582686178386E-004;-3.573952941223979E-003;
2.403666666666667E+009;1.730681508779526E-001;5.338779464364052E-002;3.290291060693562E-004;-3.409010590985417E-003;
2.403833333333334E+009;1.744467020034790E-001;5.157617107033730E-002;2.206515491707251E-004;-3.332840278744698E-003;
2.404000000000000E+009;1.756515502929688E-001;5.009831488132477E-002;-1.540898847451899E-005;-3.160142106935382E-003;
2.404166666666667E+009;1.773544102907181E-001;4.846816509962082E-002;1.945616386365145E-004;-3.134478814899921E-003;
2.404333333333334E+009;1.787445843219757E-001;4.723328351974487E-002;1.239402190549299E-004;-3.054210683330894E-003;
2.404500000000000E+009;1.803305745124817E-001;4.577554762363434E-002;3.731236211024225E-004;-2.957663964480162E-003;
2.404666666666667E+009;1.817368417978287E-001;4.464842006564140E-002;2.374793402850628E-004;-2.945869928225875E-003;
2.404833333333334E+009;1.832588613033295E-001;4.379461705684662E-002;4.272971709724516E-004;-2.985719358548522E-003;
2.405000000000000E+009;1.842796057462692E-001;4.289652034640312E-002;2.513918734621257E-004;-3.193094162270427E-003;
2.405166666666667E+009;1.855237782001495E-001;4.231959581375122E-002;2.855740312952548E-004;-3.013431560248137E-003;
2.405333333333334E+009;1.867962330579758E-001;4.172517731785774E-002;1.888864935608581E-004;-3.355046734213829E-003;
2.405500000000000E+009;1.882135123014450E-001;4.114885255694389E-002;1.204050786327571E-004;-3.265880979597569E-003;
2.405666666666667E+009;1.890902072191238E-001;4.067003354430199E-002;1.080993752111681E-004;-3.379476489499211E-003;
2.405833333333334E+009;1.902870237827301E-001;4.047100618481636E-002;-3.725050919456407E-005;-3.357330802828074E-003;
2.406000000000000E+009;1.911320388317108E-001;4.003776609897614E-002;-9.645168756833300E-005;-3.344108816236258E-003;
2.406166666666667E+009;1.920079886913300E-001;3.970949351787567E-002;-3.306375001557171E-004;-3.326395293697715E-003;
2.406333333333334E+009;1.928025335073471E-001;3.970221057534218E-002;-4.172838525846601E-004;-3.467225702479482E-003;
2.406500000000000E+009;1.934435516595841E-001;3.951652720570564E-002;-3.617150359787047E-004;-3.371574450284243E-003;
2.406666666666667E+009;1.940100193023682E-001;3.950394317507744E-002;-5.235949647612870E-004;-3.172262106090784E-003;
2.406833333333334E+009;1.944675594568253E-001;3.928102180361748E-002;-8.140761638060212E-004;-3.139892593026161E-003;
2.407000000000000E+009;1.946408450603485E-001;3.931638970971108E-002;-6.971240509301424E-004;-2.955799456685782E-003;
2.407166666666667E+009;1.950993388891220E-001;3.901058435440064E-002;-6.859351415187120E-004;-2.992088906466961E-003;
2.407333333333334E+009;1.949535906314850E-001;3.895555436611176E-002;-7.398941670544446E-004;-2.849612385034561E-003;
2.407500000000000E+009;1.949527710676193E-001;3.883221745491028E-002;-5.972480867058039E-004;-2.780471695587039E-003;
2.407666666666667E+009;1.950401663780212E-001;3.869067505002022E-002;-5.378294736146927E-004;-2.828169148415327E-003;
2.407833333333334E+009;1.946058273315430E-001;3.835834190249443E-002;-6.417926051653922E-004;-2.821065951138735E-003;
2.408000000000000E+009;1.944690942764282E-001;3.800446912646294E-002;-5.755598540417850E-004;-2.666689688339829E-003;
2.408166666666667E+009;1.940256357192993E-001;3.753375634551048E-002;-6.307680159807205E-004;-2.829397562891245E-003;
2.408333333333334E+009;1.937246322631836E-001;3.684661537408829E-002;-3.965262440033257E-004;-2.871504519134760E-003;
2.408500000000000E+009;1.931587159633637E-001;3.633566945791245E-002;-4.834520805161446E-004;-3.026698948815465E-003;
2.408666666666667E+009;1.928090751171112E-001;3.583310917019844E-002;-3.916989080607891E-004;-3.190975636243820E-003;
2.408833333333334E+009;1.922448724508286E-001;3.474557027220726E-002;-5.415134364739060E-004;-3.285333514213562E-003;
2.409000000000000E+009;1.913984566926956E-001;3.382936120033264E-002;-4.903724184259772E-004;-3.455929690971971E-003;
2.409166666666667E+009;1.906054466962814E-001;3.271284699440002E-002;-6.059031002223492E-004;-3.436700673773885E-003;
2.409333333333334E+009;1.899036020040512E-001;3.178254514932632E-002;-7.522820960730314E-004;-3.529358888044953E-003;
2.409500000000000E+009;1.889622807502747E-001;3.023188002407551E-002;-9.222558583132923E-004;-3.734800266101956E-003;
2.409666666666667E+009;1.881874650716782E-001;2.887355349957943E-002;-1.179260667413473E-003;-3.712566802278161E-003;
2.409833333333334E+009;1.873270571231842E-001;2.735676057636738E-002;-1.406345749273896E-003;-3.712423611432314E-003;
2.410000000000000E+009;1.864688396453857E-001;2.567535825073719E-002;-1.514983247034252E-003;-3.843962214887142E-003;
2.410166666666667E+009;1.855958551168442E-001;2.410107664763928E-002;-1.786008127965033E-003;-3.775668796151876E-003;
2.410333333333334E+009;1.849940866231918E-001;2.230110950767994E-002;-1.879636081866920E-003;-3.853632370010018E-003;
2.410500000000000E+009;1.842034310102463E-001;2.049588039517403E-002;-2.200762508437038E-003;-3.752099117264152E-003;
2.410666666666667E+009;1.835224479436874E-001;1.820361427962780E-002;-2.318384591490030E-003;-3.758929204195738E-003;
2.410833333333334E+009;1.830161362886429E-001;1.627832092344761E-002;-2.368389861658216E-003;-3.664294956251979E-003;
2.411000000000000E+009;1.824951320886612E-001;1.417711004614830E-002;-2.477881265804172E-003;-3.702560206875205E-003;
2.411166666666667E+009;1.821103394031525E-001;1.218565739691258E-002;-2.634783042594791E-003;-3.509296802803874E-003;
2.411333333333334E+009;1.815945208072662E-001;9.764047339558601E-003;-2.987742424011231E-003;-3.421818371862173E-003;
2.411500000000000E+009;1.811462789773941E-001;7.473712321370840E-003;-3.034575376659632E-003;-3.412624355405569E-003;
2.411666666666667E+009;1.811721026897430E-001;5.333781708031893E-003;-3.158482257276774E-003;-3.419133136048913E-003;
2.411833333333334E+009;1.809908598661423E-001;3.112618578597903E-003;-3.303912701085210E-003;-3.231218550354242E-003;
2.412000000000000E+009;1.812284588813782E-001;6.338444072753191E-004;-3.474230412393808E-003;-3.107710042968392E-003;
2.412166666666667E+009;1.814651489257813E-001;-1.337105641141534E-003;-3.662212286144495E-003;-3.116910811513662E-003;
2.412333333333334E+009;1.816806346178055E-001;-3.795161843299866E-003;-3.874092828482390E-003;-2.954761264845729E-003;
2.412500000000000E+009;1.819886565208435E-001;-6.067415699362755E-003;-3.991906065493822E-003;-2.941351849585772E-003;
2.412666666666667E+009;1.826430261135101E-001;-8.195408619940281E-003;-4.156624898314476E-003;-2.721222350373864E-003;
2.412833333333334E+009;1.832464337348938E-001;-1.059689000248909E-002;-4.496136214584112E-003;-2.537491964176297E-003;
2.413000000000000E+009;1.840160340070725E-001;-1.258442085236311E-002;-4.607731476426125E-003;-2.549010328948498E-003;
2.413166666666667E+009;1.848208308219910E-001;-1.472177635878325E-002;-4.771308042109013E-003;-2.180430572479963E-003;
2.413333333333334E+009;1.858471333980560E-001;-1.686058938503265E-002;-4.957064520567656E-003;-1.940548303537071E-003;
2.413500000000000E+009;1.865378767251968E-001;-1.904815435409546E-002;-5.220862105488777E-003;-1.820571371354163E-003;
2.413666666666667E+009;1.875476390123367E-001;-2.112444117665291E-002;-5.259792786091566E-003;-1.432844204828143E-003;
2.413833333333334E+009;1.886399686336517E-001;-2.282780967652798E-002;-5.392004270106554E-003;-9.028877830132842E-004;
2.414000000000000E+009;1.896522492170334E-001;-2.466591633856297E-002;-5.442749243229628E-003;-6.376054370775819E-004;
2.414166666666667E+009;1.906720697879791E-001;-2.621276304125786E-002;-5.399994552135468E-003;-3.400589339435101E-004;
2.414333333333334E+009;1.917884796857834E-001;-2.821283042430878E-002;-5.235651042312384E-003;-7.786930655129254E-005;
2.414500000000000E+009;1.928419470787048E-001;-2.955214865505695E-002;-5.202901549637318E-003;2.933997020591050E-004;
2.414666666666667E+009;1.938785910606384E-001;-3.111800551414490E-002;-5.271028261631727E-003;6.203420925885439E-004;
2.414833333333334E+009;1.948608309030533E-001;-3.240422531962395E-002;-5.033820867538452E-003;7.202788256108761E-004;
2.415000000000000E+009;1.959079056978226E-001;-3.368360921740532E-002;-4.980403464287520E-003;9.464491158723831E-004;
2.415166666666667E+009;1.968808770179749E-001;-3.476648405194283E-002;-4.837204236537218E-003;1.168793183751404E-003;
2.415333333333334E+009;1.979208439588547E-001;-3.565110638737679E-002;-4.569179378449917E-003;1.352761639282107E-003;
2.415500000000000E+009;1.987742632627487E-001;-3.650911152362824E-002;-4.503111355006695E-003;1.485417364165187E-003;
2.415666666666667E+009;1.997027993202210E-001;-3.737620636820793E-002;-4.248574841767550E-003;1.787793706171215E-003;
2.415833333333334E+009;2.003884613513947E-001;-3.807551786303520E-002;-4.151448607444763E-003;1.896263216622174E-003;
2.416000000000000E+009;2.008886933326721E-001;-3.870616853237152E-002;-4.032800439745188E-003;2.035496290773153E-003;
2.416166666666667E+009;2.015230655670166E-001;-3.940017521381378E-002;-3.821560880169272E-003;2.325522713363171E-003;
2.416333333333334E+009;2.020109891891480E-001;-3.972716629505158E-002;-3.741697408258915E-003;2.383151557296515E-003;
2.416500000000000E+009;2.023683041334152E-001;-4.009083285927773E-002;-3.461952321231365E-003;2.530488651245832E-003;
2.416666666666667E+009;2.025044411420822E-001;-4.049750417470932E-002;-3.144444664940238E-003;2.679386408999562E-003;
2.416833333333334E+009;2.026387751102448E-001;-4.075276479125023E-002;-2.989809261634946E-003;2.727631013840437E-003;
2.417000000000000E+009;2.026555240154266E-001;-4.106441885232925E-002;-2.719740848988295E-003;2.667139982804656E-003;
2.417166666666667E+009;2.023766040802002E-001;-4.109560325741768E-002;-2.475771121680737E-003;2.699549542739987E-003;
2.417333333333334E+009;2.020496129989624E-001;-4.113985225558281E-002;-2.268906449899077E-003;2.624822780489922E-003;
2.417500000000000E+009;2.017448693513870E-001;-4.128191247582436E-002;-1.875969464890659E-003;2.429857617244124E-003;
2.417666666666667E+009;2.011286914348602E-001;-4.133594036102295E-002;-1.835027826018632E-003;2.438414841890335E-003;
2.417833333333334E+009;2.007622271776199E-001;-4.130838066339493E-002;-1.629970618523657E-003;2.386228414252400E-003;
2.418000000000000E+009;2.000644952058792E-001;-4.121296107769013E-002;-1.670919242314994E-003;2.309616887941957E-003;
2.418166666666667E+009;1.991931945085526E-001;-4.140099138021469E-002;-1.382865477353334E-003;2.081598155200481E-003;
2.418333333333334E+009;1.982785910367966E-001;-4.143498837947846E-002;-1.338870497420430E-003;1.898641348816454E-003;
2.418500000000000E+009;1.973533034324646E-001;-4.163447022438049E-002;-1.324337557889521E-003;1.872066641226411E-003;
2.418666666666667E+009;1.964510828256607E-001;-4.169952869415283E-002;-1.145457616075873E-003;1.784093561582267E-003;
2.418833333333334E+009;1.952618807554245E-001;-4.195215553045273E-002;-1.111608231440187E-003;1.712169498205185E-003;
2.419000000000000E+009;1.940362304449081E-001;-4.239911958575249E-002;-1.244891667738557E-003;1.495915465056896E-003;
2.419166666666667E+009;1.928347051143646E-001;-4.295708984136581E-002;-1.290685730054975E-003;1.522856298834086E-003;
2.419333333333334E+009;1.917054057121277E-001;-4.347018525004387E-002;-1.253444585017860E-003;1.388850854709745E-003;
2.419500000000000E+009;1.903049945831299E-001;-4.409926757216454E-002;-1.223139348439872E-003;1.296488335356116E-003;
2.419666666666667E+009;1.888196170330048E-001;-4.478521272540093E-002;-1.437765662558377E-003;1.158421975560486E-003;
2.419833333333334E+009;1.873216629028320E-001;-4.568961262702942E-002;-1.457654521800578E-003;1.111751189455390E-003;
2.420000000000000E+009;1.858440786600113E-001;-4.659449681639671E-002;-1.643444644287229E-003;1.080010901205242E-003;
2.420166666666667E+009;1.845082938671112E-001;-4.756646603345871E-002;-1.725829439237714E-003;1.116556115448475E-003;
2.420333333333334E+009;1.830467432737351E-001;-4.885060712695122E-002;-1.700399909168482E-003;1.015636255033314E-003;
2.420500000000000E+009;1.815871596336365E-001;-5.014980584383011E-002;-1.791851478628814E-003;1.078491332009435E-003;
2.420666666666667E+009;1.801257729530335E-001;-5.131300911307335E-002;-1.838742988184094E-003;1.210107002407312E-003;
2.420833333333334E+009;1.787226647138596E-001;-5.289263278245926E-002;-1.965937204658985E-003;1.305792946368456E-003;
2.421000000000000E+009;1.773879826068878E-001;-5.421419069170952E-002;-2.039874671027064E-003;1.257421215996146E-003;
2.421166666666667E+009;1.761162728071213E-001;-5.600910633802414E-002;-2.109500113874674E-003;1.355267595499754E-003;
2.421333333333334E+009;1.745623648166657E-001;-5.744044482707977E-002;-2.259975997731090E-003;1.404548063874245E-003;
2.421500000000000E+009;1.735325306653976E-001;-5.926741659641266E-002;-2.100971527397633E-003;1.665091956965625E-003;
2.421666666666667E+009;1.721621453762054E-001;-6.107430905103684E-002;-2.373088151216507E-003;1.812199363484979E-003;
2.421833333333334E+009;1.711895018815994E-001;-6.288513541221619E-002;-2.325182314962149E-003;1.753739197738469E-003;
2.422000000000000E+009;1.701399087905884E-001;-6.472980231046677E-002;-2.390112029388547E-003;1.921170507557690E-003;
2.422166666666667E+009;1.693957597017288E-001;-6.663326174020767E-002;-2.181034535169601E-003;2.120483666658402E-003;
2.422333333333334E+009;1.684605777263641E-001;-6.859846413135529E-002;-2.193883061408997E-003;2.049381379038096E-003;
2.422500000000000E+009;1.677361130714417E-001;-7.032074779272080E-002;-2.217822242528200E-003;2.276497427374125E-003;
2.422666666666667E+009;1.670888066291809E-001;-7.221700251102448E-002;-2.038899809122086E-003;2.317924052476883E-003;
2.422833333333334E+009;1.666886806488037E-001;-7.418672740459442E-002;-2.114933682605624E-003;2.432232955470681E-003;
2.423000000000000E+009;1.661564856767654E-001;-7.609324157238007E-002;-2.146056620404124E-003;2.594165969640017E-003;
2.423166666666667E+009;1.657570600509644E-001;-7.803146541118622E-002;-2.131804358214140E-003;2.572791883721948E-003;
2.423333333333334E+009;1.654625535011292E-001;-7.960478216409683E-002;-2.034015720710158E-003;2.708070911467075E-003;
2.423500000000000E+009;1.653860807418823E-001;-8.135882019996643E-002;-2.044232795014978E-003;2.740513300523162E-003;
2.423666666666667E+009;1.653036773204804E-001;-8.327607810497284E-002;-2.158018760383129E-003;2.893493743613362E-003;
2.423833333333334E+009;1.653658598661423E-001;-8.502107858657837E-002;-2.037619007751346E-003;2.892180578783155E-003;
2.424000000000000E+009;1.653576344251633E-001;-8.662173151969910E-002;-2.084139967337251E-003;3.067032434046269E-003;
2.424166666666667E+009;1.653004139661789E-001;-8.794489502906799E-002;-1.996186096221209E-003;3.342042909935117E-003;
2.424333333333334E+009;1.655508428812027E-001;-8.947995305061340E-002;-1.883928664028645E-003;3.511032555252314E-003;
2.424500000000000E+009;1.657672673463821E-001;-9.113622456789017E-002;-1.824382692575455E-003;3.638756228610873E-003;
2.424666666666667E+009;1.658270806074143E-001;-9.242072701454163E-002;-1.709827105514705E-003;3.846614854410291E-003;
2.424833333333334E+009;1.665124595165253E-001;-9.362664818763733E-002;-1.483172760345042E-003;3.961690701544285E-003;
2.425000000000000E+009;1.666419059038162E-001;-9.477101266384125E-002;-1.404984039254487E-003;3.965313546359539E-003;
2.425166666666667E+009;1.669431775808334E-001;-9.575724601745606E-002;-1.122197252698243E-003;4.374449141323566E-003;
2.425333333333334E+009;1.671076864004135E-001;-9.677141159772873E-002;-9.077573195099831E-004;4.404135514050722E-003;
2.425500000000000E+009;1.674641668796539E-001;-9.786868840456009E-002;-7.073711603879929E-004;4.536122549325228E-003;
2.425666666666667E+009;1.676339507102966E-001;-9.845101088285446E-002;-3.314387286081910E-004;4.541056696325541E-003;
2.425833333333334E+009;1.679152399301529E-001;-9.944628924131393E-002;-2.267238596687093E-004;4.501814953982830E-003;
2.426000000000000E+009;1.682394295930862E-001;-9.988524019718170E-002;1.568364823469892E-004;4.387961234897375E-003;
2.426166666666667E+009;1.685429513454437E-001;-1.004776880145073E-001;2.476660592947155E-004;4.329288378357887E-003;
2.426333333333334E+009;1.685780137777329E-001;-1.011268496513367E-001;5.863420083187521E-004;4.312737379223108E-003;
2.426500000000000E+009;1.690170317888260E-001;-1.014847531914711E-001;6.532702245749533E-004;4.186830017715693E-003;
2.426666666666667E+009;1.689662337303162E-001;-1.018319055438042E-001;9.443619055673480E-004;4.284048918634653E-003;
2.426833333333334E+009;1.691902875900269E-001;-1.021823883056641E-001;1.057579182088375E-003;4.047104157507420E-003;
2.427000000000000E+009;1.690856218338013E-001;-1.025293990969658E-001;1.092229154892266E-003;3.953786101192236E-003;
2.427166666666667E+009;1.691585034132004E-001;-1.026979610323906E-001;1.183903892524540E-003;3.810605267062783E-003;
2.427333333333334E+009;1.690085530281067E-001;-1.031651943922043E-001;1.345496275462210E-003;3.784584347158670E-003;
2.427500000000000E+009;1.687475144863129E-001;-1.034170836210251E-001;1.502646482549608E-003;3.627819940447807E-003;
2.427666666666667E+009;1.684232503175736E-001;-1.036454513669014E-001;1.445060712285340E-003;3.538278164342046E-003;
