# Version 1.00
#
freq[Hz];re:Trc1_S11;im:Trc1_S11;re:Trc2_S21;im:Trc2_S21;
2.400000000000000E+009;1.548936069011688E-001;1.121298745274544E-001;4.336879123002291E-003;-2.307930728420615E-003;
2.400166666666667E+009;1.543216407299042E-001;1.099086478352547E-001;4.099960904568434E-003;-2.712788060307503E-003;
2.400333333333334E+009;1.542692929506302E-001;1.075594872236252E-001;4.024255555123091E-003;-2.865677000954747E-003;
2.400500000000000E+009;1.539290398359299E-001;1.050922423601151E-001;3.917009104043245E-003;-3.006811952218413E-003;
2.400666666666667E+009;1.538399308919907E-001;1.023339703679085E-001;3.738550934940577E-003;-3.257731441408396E-003;
2.400833333333334E+009;1.534499078989029E-001;9.948386251926422E-002;3.349954495206475E-003;-3.449599258601666E-003;
2.401000000000000E+009;1.535310894250870E-001;9.662521630525589E-002;3.237638156861067E-003;-3.473835298791528E-003;
2.401166666666667E+009;1.532340198755264E-001;9.391793608665466E-002;3.068876219913364E-003;-3.656295360997319E-003;
2.401333333333334E+009;1.535667032003403E-001;9.100790321826935E-002;3.001885255798698E-003;-3.716432256624103E-003;
2.401500000000000E+009;1.536956280469894E-001;8.801787346601486E-002;2.841489622369409E-003;-3.868426661938429E-003;
2.401666666666667E+009;1.540129482746124E-001;8.506280183792114E-002;2.485360950231552E-003;-3.844837425276637E-003;
2.401833333333334E+009;1.542917639017105E-001;8.209137618541718E-002;2.471354324370623E-003;-3.845040919259191E-003;
2.402000000000000E+009;1.548842936754227E-001;7.904654741287231E-002;2.334111835807562E-003;-3.963954281061888E-003;
2.402166666666667E+009;1.555050313472748E-001;7.635167986154556E-002;2.035867655649781E-003;-4.109042230993509E-003;
2.402333333333334E+009;1.563853174448013E-001;7.338359951972961E-002;2.024882473051548E-003;-4.133387003093958E-003;
2.402500000000000E+009;1.574530750513077E-001;7.061117887496948E-002;1.651773112826049E-003;-4.109523259103298E-003;
2.402666666666667E+009;1.586009711027145E-001;6.803534924983978E-002;1.538618584163487E-003;-4.046048037707806E-003;
2.402833333333334E+009;1.598235517740250E-001;6.548629701137543E-002;1.320945215411484E-003;-4.165196325629950E-003;
2.403000000000000E+009;1.611097455024719E-001;6.276786327362061E-002;1.211712835356593E-003;-4.127591848373413E-003;
2.403166666666667E+009;1.628061085939407E-001;6.047450378537178E-002;1.168077345937491E-003;-4.142556339502335E-003;
2.403333333333334E+009;1.645374745130539E-001;5.777150765061379E-002;8.264007046818733E-004;-4.116870928555727E-003;
2.403500000000000E+009;1.662377864122391E-001;5.562966316938400E-002;7.704234449192882E-004;-4.042521584779024E-003;
2.403666666666667E+009;1.680598407983780E-001;5.351975932717323E-002;6.827058386988938E-004;-4.077738150954247E-003;
2.403833333333334E+009;1.699827611446381E-001;5.125762149691582E-002;5.330922431312501E-004;-3.956907428801060E-003;
2.404000000000000E+009;1.716340482234955E-001;4.923494160175324E-002;4.269610217306763E-004;-4.009782802313566E-003;
2.404166666666667E+009;1.736103743314743E-001;4.760125651955605E-002;1.704277965473011E-004;-4.126172047108412E-003;
2.404333333333334E+009;1.754079908132553E-001;4.585021361708641E-002;-2.604653855087236E-005;-4.148118663579226E-003;
2.404500000000000E+009;1.772452592849731E-001;4.411432147026062E-002;-1.346175849903375E-004;-3.972649574279785E-003;
2.404666666666667E+009;1.790375262498856E-001;4.278291761875153E-002;-3.118239983450621E-004;-4.062132909893990E-003;
2.404833333333334E+009;1.810294240713120E-001;4.173979163169861E-002;-4.319156578276306E-004;-4.026209004223347E-003;
2.405000000000000E+009;1.824361830949783E-001;4.086197167634964E-002;-5.042889970354736E-004;-4.066948778927326E-003;
2.405166666666667E+009;1.843401044607163E-001;3.999236226081848E-002;-8.318019099533558E-004;-3.986035939306021E-003;
2.405333333333334E+009;1.859499663114548E-001;3.932155296206474E-002;-8.646306232549250E-004;-3.743338864296675E-003;
2.405500000000000E+009;1.876777261495590E-001;3.879027813673019E-002;-1.005430589430034E-003;-3.693082137033343E-003;
2.405666666666667E+009;1.891326159238815E-001;3.837830573320389E-002;-1.361969858407974E-003;-3.633994376286864E-003;
2.405833333333334E+009;1.908890902996063E-001;3.814702481031418E-002;-1.324605429545045E-003;-3.561777528375387E-003;
2.406000000000000E+009;1.921841651201248E-001;3.807019442319870E-002;-1.460025901906192E-003;-3.368498291820288E-003;
2.406166666666667E+009;1.933640241622925E-001;3.799690678715706E-002;-1.471538096666336E-003;-3.364950418472290E-003;
2.406333333333334E+009;1.945418417453766E-001;3.810838982462883E-002;-1.636844361200929E-003;-3.040922340005636E-003;
2.406500000000000E+009;1.956700235605240E-001;3.813773766160011E-002;-1.591847278177738E-003;-2.859444124624133E-003;
2.406666666666667E+009;1.964703798294067E-001;3.846206888556480E-002;-1.750360475853086E-003;-3.081248374655843E-003;
2.406833333333334E+009;1.972905546426773E-001;3.853361308574677E-002;-1.762996427714825E-003;-2.690415596589446E-003;
2.407000000000000E+009;1.978718638420105E-001;3.905294090509415E-002;-1.816912787035108E-003;-2.749034902080894E-003;
2.407166666666667E+009;1.985395699739456E-001;3.905534744262695E-002;-1.812459435313940E-003;-2.570295706391335E-003;
2.407333333333334E+009;1.986519694328308E-001;3.927604481577873E-002;-1.781375729478896E-003;-2.563285175710917E-003;
2.407500000000000E+009;1.988971978425980E-001;3.973779454827309E-002;-1.784535241313279E-003;-2.433192217722535E-003;
2.407666666666667E+009;1.990517377853394E-001;3.985926508903503E-002;-1.869581989012659E-003;-2.361270133405924E-003;
2.407833333333334E+009;1.986531913280487E-001;4.015633091330528E-002;-1.919753500260413E-003;-2.330294810235500E-003;
2.408000000000000E+009;1.987872123718262E-001;4.025346413254738E-002;-1.879144925624132E-003;-2.113018184900284E-003;
2.408166666666667E+009;1.982241272926331E-001;4.022398591041565E-002;-1.817208016291261E-003;-2.159995492547751E-003;
2.408333333333334E+009;1.978517621755600E-001;3.997377678751946E-002;-1.782706473022699E-003;-2.167861908674240E-003;
2.408500000000000E+009;1.971708089113236E-001;4.009533300995827E-002;-1.839337055571377E-003;-2.067668596282601E-003;
2.408666666666667E+009;1.966439932584763E-001;3.980644419789314E-002;-1.749253948219121E-003;-1.945644151419401E-003;
2.408833333333334E+009;1.957986205816269E-001;3.939557075500488E-002;-1.745585235767067E-003;-1.890827319584787E-003;
2.409000000000000E+009;1.948222368955612E-001;3.875168040394783E-002;-1.751858158968389E-003;-1.889350474812090E-003;
2.409166666666667E+009;1.937453150749207E-001;3.802484273910523E-002;-1.711960998363793E-003;-1.911624451167882E-003;
2.409333333333334E+009;1.926502436399460E-001;3.728344663977623E-002;-1.601512893103063E-003;-1.910079037770629E-003;
2.409500000000000E+009;1.916062682867050E-001;3.619449958205223E-002;-1.710852724500001E-003;-2.017128281295300E-003;
2.409666666666667E+009;1.902072429656982E-001;3.516988456249237E-002;-1.550002139993012E-003;-2.198213478550315E-003;
2.409833333333334E+009;1.892093718051910E-001;3.394131362438202E-002;-1.556201139464974E-003;-2.254450926557183E-003;
2.410000000000000E+009;1.879817843437195E-001;3.255085274577141E-002;-1.740280655212700E-003;-2.190838102251291E-003;
2.410166666666667E+009;1.868252605199814E-001;3.075729124248028E-002;-1.793644856661558E-003;-2.210753038525581E-003;
2.410333333333334E+009;1.855149567127228E-001;2.920562587678433E-002;-1.876361551694572E-003;-2.445436548441649E-003;
2.410500000000000E+009;1.842999458312988E-001;2.723257057368755E-002;-1.875850372016430E-003;-2.447880338877440E-003;
2.410666666666667E+009;1.833293139934540E-001;2.516151778399944E-002;-2.225880743935704E-003;-2.477532718330622E-003;
2.410833333333334E+009;1.823176294565201E-001;2.312880940735340E-002;-2.362444298341870E-003;-2.516074106097221E-003;
2.411000000000000E+009;1.813775002956390E-001;2.095462754368782E-002;-2.524299779906869E-003;-2.503676107153297E-003;
2.411166666666667E+009;1.806715130805969E-001;1.884518936276436E-002;-2.622740576043725E-003;-2.624718938022852E-003;
2.411333333333334E+009;1.798439472913742E-001;1.619946770370007E-002;-2.821998437866569E-003;-2.540623303502798E-003;
2.411500000000000E+009;1.791706681251526E-001;1.381885539740324E-002;-3.026785096153617E-003;-2.396984025835991E-003;
2.411666666666667E+009;1.787250936031342E-001;1.144526433199644E-002;-3.222612896934152E-003;-2.354324096813798E-003;
2.411833333333334E+009;1.783574521541596E-001;8.842522278428078E-003;-3.371537895873189E-003;-2.367852022871375E-003;
2.412000000000000E+009;1.782614439725876E-001;6.104842759668827E-003;-3.531114663928747E-003;-2.200320828706026E-003;
2.412166666666667E+009;1.781958490610123E-001;3.734651487320662E-003;-3.696221858263016E-003;-1.992494333535433E-003;
2.412333333333334E+009;1.780474483966827E-001;8.935597143135965E-004;-3.906144993379712E-003;-1.728786970488727E-003;
2.412500000000000E+009;1.784962266683579E-001;-1.713196630589664E-003;-3.963987808674574E-003;-1.526478445157409E-003;
2.412666666666667E+009;1.788153201341629E-001;-4.378970246762037E-003;-4.099115263670683E-003;-1.312424079515040E-003;
2.412833333333334E+009;1.792619079351425E-001;-7.161058019846678E-003;-4.350918345153332E-003;-1.146807218901813E-003;
2.413000000000000E+009;1.799988597631455E-001;-9.712607599794865E-003;-4.353816155344248E-003;-1.058081397786737E-003;
2.413166666666667E+009;1.806801110506058E-001;-1.230266410857439E-002;-4.215724300593138E-003;-5.643453332595527E-004;
2.413333333333334E+009;1.818157732486725E-001;-1.480304822325707E-002;-4.385075066238642E-003;-5.798329948447645E-004;
2.413500000000000E+009;1.827287375926971E-001;-1.728699915111065E-002;-4.409066867083311E-003;-2.453411871101707E-004;
2.413666666666667E+009;1.839667111635208E-001;-1.989701017737389E-002;-4.545327275991440E-003;5.187789065530524E-005;
2.413833333333334E+009;1.851095706224442E-001;-2.211636863648891E-002;-4.291412420570850E-003;2.288582909386605E-004;
2.414000000000000E+009;1.862178742885590E-001;-2.440036088228226E-002;-4.270766861736774E-003;4.602151166182011E-004;
2.414166666666667E+009;1.875659823417664E-001;-2.638141438364983E-002;-4.277710337191820E-003;6.668419810011983E-004;
2.414333333333334E+009;1.887687742710114E-001;-2.867512963712215E-002;-4.109555389732122E-003;7.032916182652116E-004;
2.414500000000000E+009;1.902607232332230E-001;-3.047211840748787E-002;-3.992592450231314E-003;1.026440411806107E-003;
2.414666666666667E+009;1.915476918220520E-001;-3.209647908806801E-002;-4.192331340163946E-003;1.117004896514118E-003;
2.414833333333334E+009;1.928604692220688E-001;-3.370633348822594E-002;-3.877216251567006E-003;1.263492158614099E-003;
2.415000000000000E+009;1.941818743944168E-001;-3.521253913640976E-002;-3.882452845573425E-003;1.287345192395151E-003;
2.415166666666667E+009;1.956576853990555E-001;-3.653232753276825E-002;-3.743822919204831E-003;1.493261661380529E-003;
2.415333333333334E+009;1.968515366315842E-001;-3.778500854969025E-002;-3.546681022271514E-003;1.736550591886044E-003;
2.415500000000000E+009;1.985098123550415E-001;-3.864540904760361E-002;-3.571374807506800E-003;1.901203882880509E-003;
2.415666666666667E+009;1.996941864490509E-001;-3.967018425464630E-002;-3.386768978089094E-003;1.867599785327911E-003;
2.415833333333334E+009;2.007826268672943E-001;-4.034315049648285E-002;-3.230583621188998E-003;2.110850764438510E-003;
2.416000000000000E+009;2.018608897924423E-001;-4.109279438853264E-002;-3.131224308162928E-003;2.125183120369911E-003;
2.416166666666667E+009;2.027465403079987E-001;-4.173421487212181E-002;-2.984741004183888E-003;2.251529833301902E-003;
2.416333333333334E+009;2.037121802568436E-001;-4.200891405344009E-002;-2.906794892624021E-003;2.572925994172692E-003;
2.416500000000000E+009;2.044060677289963E-001;-4.235908389091492E-002;-2.756620524451137E-003;2.462922129780054E-003;
2.416666666666667E+009;2.050086855888367E-001;-4.268729314208031E-002;-2.646045759320259E-003;2.605740446597338E-003;
2.416833333333334E+009;2.054283618927002E-001;-4.262621328234673E-002;-2.515349304303527E-003;2.734694862738252E-003;
2.417000000000000E+009;2.058330327272415E-001;-4.281437769532204E-002;-2.581493463367224E-003;2.734540961682797E-003;
2.417166666666667E+009;2.057933211326599E-001;-4.259150475263596E-002;-2.359526231884956E-003;2.855563070625067E-003;
2.417333333333334E+009;2.058687359094620E-001;-4.238899424672127E-002;-2.226998331025243E-003;2.761401003226638E-003;
2.417500000000000E+009;2.057338207960129E-001;-4.238174483180046E-002;-2.114954404532909E-003;2.755065215751529E-003;
2.417666666666667E+009;2.054615914821625E-001;-4.188235849142075E-002;-1.965042902156711E-003;2.959627192467451E-003;
2.417833333333334E+009;2.051452994346619E-001;-4.162773489952087E-002;-1.895641442388296E-003;2.938121091574431E-003;
2.418000000000000E+009;2.045993506908417E-001;-4.111999645829201E-002;-1.829312765039504E-003;2.954765688627958E-003;
2.418166666666667E+009;2.039981931447983E-001;-4.080708324909210E-002;-1.675934996455908E-003;3.118104301393032E-003;
2.418333333333334E+009;2.032961994409561E-001;-4.063552990555763E-002;-1.700398861430585E-003;3.105847630649805E-003;
2.418500000000000E+009;2.022826522588730E-001;-4.027736559510231E-002;-1.349299098365009E-003;3.176876809448004E-003;
2.418666666666667E+009;2.014528512954712E-001;-3.995618969202042E-002;-1.437648083083332E-003;3.290088847279549E-003;
2.418833333333334E+009;2.002290934324265E-001;-3.996245190501213E-002;-1.082826522178948E-003;3.317922819405794E-003;
2.419000000000000E+009;1.989183276891708E-001;-3.999220207333565E-002;-1.188702997751534E-003;3.328560385853052E-003;
2.419166666666667E+009;1.978252381086350E-001;-4.017027094960213E-002;-9.453307720832527E-004;3.188998671248555E-003;
2.419333333333334E+009;1.962243169546127E-001;-4.029739275574684E-002;-8.446432184427977E-004;3.272207221016288E-003;
2.419500000000000E+009;1.947515904903412E-001;-4.048147797584534E-002;-5.368620622903109E-004;3.377557732164860E-003;
2.419666666666667E+009;1.929363012313843E-001;-4.120631888508797E-002;-4.134941555093974E-004;3.354570129886270E-003;
2.419833333333334E+009;1.911836713552475E-001;-4.155844449996948E-002;-3.898706054314971E-004;3.204695647582412E-003;
2.420000000000000E+009;1.896836310625076E-001;-4.223668202757835E-002;-2.377928758505732E-004;3.117859829217196E-003;
2.420166666666667E+009;1.878750622272492E-001;-4.304982349276543E-002;-9.557934390613809E-005;3.175155725330114E-003;
2.420333333333334E+009;1.861551553010941E-001;-4.404811188578606E-002;-9.539165330352262E-005;3.070781705901027E-003;
2.420500000000000E+009;1.842017322778702E-001;-4.533179104328156E-002;1.960523877642117E-005;2.866773633286357E-003;
2.420666666666667E+009;1.825440227985382E-001;-4.627458751201630E-002;1.541800011182204E-004;2.816735068336129E-003;
2.420833333333334E+009;1.806400120258331E-001;-4.767815396189690E-002;1.610805629752576E-004;2.858346328139305E-003;
2.421000000000000E+009;1.788599044084549E-001;-4.923596233129501E-002;1.253592781722546E-004;2.809243742376566E-003;
2.421166666666667E+009;1.772421300411224E-001;-5.093836039304733E-002;1.498799101682380E-004;2.692609094083309E-003;
2.421333333333334E+009;1.753661930561066E-001;-5.240258201956749E-002;1.487249101046473E-004;2.839566674083471E-003;
2.421500000000000E+009;1.736790090799332E-001;-5.445020273327828E-002;3.257105126976967E-004;2.845543669536710E-003;
2.421666666666667E+009;1.724544763565064E-001;-5.642842873930931E-002;3.923096228390932E-004;2.768588718026876E-003;
2.421833333333334E+009;1.709156930446625E-001;-5.831848829984665E-002;4.480005300138146E-004;2.759228926151991E-003;
2.422000000000000E+009;1.695998907089233E-001;-6.027234718203545E-002;5.184730980545282E-004;2.899758517742157E-003;
2.422166666666667E+009;1.685255616903305E-001;-6.246857717633247E-002;6.179951014928520E-004;2.769492566585541E-003;
2.422333333333334E+009;1.674038767814636E-001;-6.467606872320175E-002;6.858420092612505E-004;2.645598491653800E-003;
2.422500000000000E+009;1.663186103105545E-001;-6.678559631109238E-002;8.514880319125950E-004;2.680950565263629E-003;
2.422666666666667E+009;1.652534306049347E-001;-6.913209706544876E-002;8.974338416010141E-004;2.647725632414222E-003;
2.422833333333334E+009;1.646257936954498E-001;-7.137475162744522E-002;1.041730516590178E-003;2.746132668107748E-003;
2.423000000000000E+009;1.639796942472458E-001;-7.365988940000534E-002;1.060687354765832E-003;2.768476493656635E-003;
2.423166666666667E+009;1.635439842939377E-001;-7.570713013410568E-002;1.053222687914968E-003;2.583912573754787E-003;
2.423333333333334E+009;1.631098538637161E-001;-7.810514420270920E-002;1.265950151719153E-003;2.545911818742752E-003;
2.423500000000000E+009;1.628976464271545E-001;-7.995883375406265E-002;1.272750087082386E-003;2.513138577342033E-003;
2.423666666666667E+009;1.629217863082886E-001;-8.209903538227081E-002;1.376125961542130E-003;2.260422566905618E-003;
2.423833333333334E+009;1.628988236188889E-001;-8.420703560113907E-002;1.511581474915147E-003;2.492950297892094E-003;
2.424000000000000E+009;1.627964079380035E-001;-8.617495745420456E-002;1.471736701205373E-003;2.223228337243199E-003;
2.424166666666667E+009;1.629780530929565E-001;-8.800134807825089E-002;1.682813162915409E-003;2.232771366834641E-003;
2.424333333333334E+009;1.632307171821594E-001;-8.978223055601120E-002;1.715455553494394E-003;2.049942035228014E-003;
2.424500000000000E+009;1.635404676198959E-001;-9.186046570539475E-002;1.790793263353407E-003;1.990041928365827E-003;
2.424666666666667E+009;1.637902706861496E-001;-9.333625435829163E-002;1.863552141003311E-003;1.939662382937968E-003;
2.424833333333334E+009;1.645998209714890E-001;-9.476915001869202E-002;1.935280859470367E-003;1.804419560357928E-003;
2.425000000000000E+009;1.649903804063797E-001;-9.612607955932617E-002;1.950406702235341E-003;1.676698564551771E-003;
2.425166666666667E+009;1.654021441936493E-001;-9.741631150245667E-002;2.008775016292930E-003;1.575343078002334E-003;
2.425333333333334E+009;1.660458147525787E-001;-9.861366450786591E-002;1.885571517050266E-003;1.506486092694104E-003;
2.425500000000000E+009;1.667133420705795E-001;-9.981985390186310E-002;1.846057362854481E-003;1.272477325983346E-003;
2.425666666666667E+009;1.671819239854813E-001;-1.006588488817215E-001;1.965826144441962E-003;1.357943634502590E-003;
2.425833333333334E+009;1.677363216876984E-001;-1.015373021364212E-001;1.924340729601681E-003;1.327508129179478E-003;
2.426000000000000E+009;1.683830916881561E-001;-1.021087542176247E-001;1.910601975396276E-003;1.298867980949581E-003;
2.426166666666667E+009;1.689787507057190E-001;-1.027297973632813E-001;1.999401254579425E-003;1.179554732516408E-003;
2.426333333333334E+009;1.694191992282867E-001;-1.034237667918205E-001;2.032362855970860E-003;1.094527309760451E-003;
2.426500000000000E+009;1.700393408536911E-001;-1.035087555646896E-001;1.990517368540168E-003;1.074392697773874E-003;
2.426666666666667E+009;1.704639643430710E-001;-1.038748249411583E-001;1.918560476042330E-003;9.740500245243311E-004;
2.426833333333334E+009;1.708812862634659E-001;-1.042525842785835E-001;2.218771027401090E-003;9.307279833592475E-004;
2.427000000000000E+009;1.711688190698624E-001;-1.044157892465591E-001;2.060567960143089E-003;7.580690435133874E-004;
2.427166666666667E+009;1.714458912611008E-001;-1.043196842074394E-001;2.076347125694156E-003;7.575830677524209E-004;
2.427333333333334E+009;1.715742647647858E-001;-1.046825796365738E-001;2.117228927090764E-003;7.431143894791603E-004;
2.427500000000000E+009;1.715557575225830E-001;-1.047082319855690E-001;2.012983430176973E-003;6.777191301807761E-004;
2.427666666666667E+009;1.713887900114059E-001;-1.045867875218391E-001;2.059197984635830E-003;6.398184341378510E-004;
