# Version 1.00
#
freq[Hz];re:Trc1_S11;im:Trc1_S11;re:Trc2_S21;im:Trc2_S21;
2.400000000000000E+009;1.549984663724899E-001;1.122659817337990E-001;4.435401409864426E-003;-2.373734256252646E-003;
2.400166666666667E+009;1.544631421566010E-001;1.099826321005821E-001;4.284763243049383E-003;-2.775734290480614E-003;
2.400333333333334E+009;1.543979793787003E-001;1.077462285757065E-001;4.197937902063131E-003;-2.941687824204564E-003;
2.400500000000000E+009;1.541315913200378E-001;1.050363853573799E-001;3.978349268436432E-003;-3.002668498083949E-003;
2.400666666666667E+009;1.539358496665955E-001;1.026488617062569E-001;3.750184783712030E-003;-3.232246264815331E-003;
2.400833333333334E+009;1.536370813846588E-001;9.975162148475647E-002;3.467463655397296E-003;-3.375384723767638E-003;
2.401000000000000E+009;1.537089645862579E-001;9.680661559104919E-002;3.451602300629020E-003;-3.575032809749246E-003;
2.401166666666667E+009;1.536004543304443E-001;9.407009184360504E-002;3.329066326841712E-003;-3.676177002489567E-003;
2.401333333333334E+009;1.535376161336899E-001;9.120430797338486E-002;2.957657212391496E-003;-3.844277467578650E-003;
2.401500000000000E+009;1.539970934391022E-001;8.806641399860382E-002;2.858482766896486E-003;-3.861397039145231E-003;
2.401666666666667E+009;1.540746688842773E-001;8.517464250326157E-002;2.633844269439578E-003;-3.937903791666031E-003;
2.401833333333334E+009;1.543670147657394E-001;8.217532187700272E-002;2.414185088127852E-003;-3.857702715322375E-003;
2.402000000000000E+009;1.550640463829041E-001;7.926423102617264E-002;2.173179527744651E-003;-4.043550696223974E-003;
2.402166666666667E+009;1.556002199649811E-001;7.656407356262207E-002;2.128694439306855E-003;-4.161492921411991E-003;
2.402333333333334E+009;1.566099077463150E-001;7.351880520582199E-002;1.953045255504549E-003;-4.257890395820141E-003;
2.402500000000000E+009;1.576333642005920E-001;7.073815166950226E-002;1.705959090031683E-003;-4.160049837082624E-003;
2.402666666666667E+009;1.587404310703278E-001;6.798107177019119E-002;1.507398672401905E-003;-4.263296257704496E-003;
2.402833333333334E+009;1.599413901567459E-001;6.555061042308807E-002;1.339129521511495E-003;-4.231161903589964E-003;
2.403000000000000E+009;1.614675223827362E-001;6.285265833139420E-002;1.077969209291041E-003;-4.267072770744562E-003;
2.403166666666667E+009;1.632633209228516E-001;6.046280264854431E-002;1.163066714070737E-003;-4.198804032057524E-003;
2.403333333333334E+009;1.646644473075867E-001;5.791053175926209E-002;1.306345686316490E-003;-3.901669057086110E-003;
2.403500000000000E+009;1.666177213191986E-001;5.566505715250969E-002;8.385982800973579E-005;-4.274861421436071E-003;
2.403666666666667E+009;1.681506484746933E-001;5.331808328628540E-002;1.799470628611744E-003;-3.342324402183294E-003;
2.403833333333334E+009;1.700230091810226E-001;5.104134604334831E-002;1.798535464331508E-003;-2.863636706024408E-003;
2.404000000000000E+009;1.718043535947800E-001;4.930767416954041E-002;1.057029003277421E-003;-4.436714574694634E-003;
2.404166666666667E+009;1.736245602369309E-001;4.768298938870430E-002;7.078906637616456E-004;-4.635422024875879E-003;
2.404333333333334E+009;1.753201186656952E-001;4.580040648579598E-002;1.538590295240283E-003;-4.910052753984928E-003;
2.404500000000000E+009;1.775979101657867E-001;4.401624202728272E-002;-1.684694725554436E-004;-1.877756207250059E-003;
2.404666666666667E+009;1.791798025369644E-001;4.292045533657074E-002;-2.068216999759898E-004;-4.693532362580299E-003;
2.404833333333334E+009;1.811797916889191E-001;4.170218482613564E-002;-5.095578962936997E-004;-3.878939896821976E-003;
2.405000000000000E+009;1.827230304479599E-001;4.087137058377266E-002;-5.960859707556665E-004;-4.088707733899355E-003;
2.405166666666667E+009;1.846481710672379E-001;4.016524553298950E-002;-9.022611775435507E-004;-3.879657015204430E-003;
2.405333333333334E+009;1.861768513917923E-001;3.942024707794190E-002;-9.122049086727202E-004;-3.868739819154143E-003;
2.405500000000000E+009;1.879071742296219E-001;3.893199563026428E-002;-1.134223770350218E-003;-3.767768619582057E-003;
2.405666666666667E+009;1.894126236438751E-001;3.849205747246742E-002;-1.173889031633735E-003;-3.574659582227469E-003;
2.405833333333334E+009;1.910173743963242E-001;3.831648826599121E-002;-1.474189106374979E-003;-3.488062880933285E-003;
2.406000000000000E+009;1.921935528516769E-001;3.791885077953339E-002;-1.616672379896045E-003;-3.420092863962054E-003;
2.406166666666667E+009;1.934103965759277E-001;3.787314146757126E-002;-1.570740132592619E-003;-3.194635966792703E-003;
2.406333333333334E+009;1.947416365146637E-001;3.810838237404823E-002;-1.558531541377306E-003;-3.175866790115833E-003;
2.406500000000000E+009;1.957157254219055E-001;3.807054087519646E-002;-1.643547904677689E-003;-2.936325268819928E-003;
2.406666666666667E+009;1.966704428195953E-001;3.831626847386360E-002;-1.738814054988325E-003;-2.924000378698111E-003;
2.406833333333334E+009;1.975272893905640E-001;3.852193057537079E-002;-1.853968715295196E-003;-2.811350394040346E-003;
2.407000000000000E+009;1.980492323637009E-001;3.896067664027214E-002;-1.843465608544648E-003;-2.781157149001956E-003;
2.407166666666667E+009;1.986742764711380E-001;3.898264467716217E-002;-1.933351741172373E-003;-2.615306759253144E-003;
2.407333333333334E+009;1.987342983484268E-001;3.932612016797066E-002;-1.838356838561595E-003;-2.549343043938279E-003;
2.407500000000000E+009;1.989222317934036E-001;3.968803584575653E-002;-1.939154579304159E-003;-2.415977185592055E-003;
2.407666666666667E+009;1.991972625255585E-001;3.978012502193451E-002;-1.741044572554529E-003;-2.323390683159232E-003;
2.407833333333334E+009;1.988568753004074E-001;4.002157598733902E-002;-1.911876141093671E-003;-2.090687863528729E-003;
2.408000000000000E+009;1.989275664091110E-001;4.012167453765869E-002;-1.828621025197208E-003;-2.296331338584423E-003;
2.408166666666667E+009;1.983821541070938E-001;4.006182402372360E-002;-1.791306538507342E-003;-2.104434184730053E-003;
2.408333333333334E+009;1.979831159114838E-001;4.000551998615265E-002;-1.977707957848907E-003;-2.071253024041653E-003;
2.408500000000000E+009;1.973513662815094E-001;4.002563282847405E-002;-1.837264746427536E-003;-1.959744608029723E-003;
2.408666666666667E+009;1.967043280601502E-001;3.976025432348251E-002;-1.842998666688800E-003;-1.975127262994647E-003;
2.408833333333334E+009;1.959933489561081E-001;3.929002955555916E-002;-1.829387387260795E-003;-1.900370582006872E-003;
2.409000000000000E+009;1.950289458036423E-001;3.862585127353668E-002;-1.793304458260536E-003;-1.873827306553721E-003;
2.409166666666667E+009;1.938230246305466E-001;3.784105554223061E-002;-1.891757012344897E-003;-1.871238229796290E-003;
2.409333333333334E+009;1.929980516433716E-001;3.726871684193611E-002;-1.641746377572417E-003;-1.897802227176726E-003;
2.409500000000000E+009;1.918621063232422E-001;3.614153340458870E-002;-1.694306032732129E-003;-2.091249451041222E-003;
2.409666666666667E+009;1.906785666942596E-001;3.508158028125763E-002;-1.775669516064227E-003;-1.964348368346691E-003;
2.409833333333334E+009;1.892518848180771E-001;3.373823314905167E-002;-1.613312866538763E-003;-2.053780248388648E-003;
2.410000000000000E+009;1.881017088890076E-001;3.238328918814659E-002;-1.820060540921986E-003;-2.252422040328383E-003;
2.410166666666667E+009;1.868632286787033E-001;3.061185218393803E-002;-1.791610033251345E-003;-2.265776740387082E-003;
2.410333333333334E+009;1.857762187719345E-001;2.897329442203045E-002;-1.856044516898692E-003;-2.293066121637821E-003;
2.410500000000000E+009;1.846068203449249E-001;2.722843922674656E-002;-1.968792872503400E-003;-2.402869984507561E-003;
2.410666666666667E+009;1.833603531122208E-001;2.503322437405586E-002;-2.208790974691510E-003;-2.482346491888166E-003;
2.410833333333334E+009;1.824100017547607E-001;2.287150360643864E-002;-2.263376722112298E-003;-2.506253309547901E-003;
2.411000000000000E+009;1.815008670091629E-001;2.073420584201813E-002;-2.430794993415475E-003;-2.333092037588358E-003;
2.411166666666667E+009;1.806901246309280E-001;1.865701004862785E-002;-2.652812516316772E-003;-2.528704702854157E-003;
2.411333333333334E+009;1.799229532480240E-001;1.591557823121548E-002;-2.852915320545435E-003;-2.396534197032452E-003;
2.411500000000000E+009;1.791693717241287E-001;1.363218203186989E-002;-2.988690277561545E-003;-2.210228703916073E-003;
2.411666666666667E+009;1.788400709629059E-001;1.114752888679504E-002;-3.166301874443889E-003;-2.207583747804165E-003;
2.411833333333334E+009;1.782793849706650E-001;8.737142197787762E-003;-3.416583407670260E-003;-2.233549952507019E-003;
2.412000000000000E+009;1.782567501068115E-001;5.937666632235050E-003;-3.493221709504724E-003;-2.051708986982703E-003;
2.412166666666667E+009;1.780760735273361E-001;3.481470979750156E-003;-3.702061017975211E-003;-1.760590472258627E-003;
2.412333333333334E+009;1.782145798206329E-001;8.024334674701095E-004;-3.849183674901724E-003;-1.781904371455312E-003;
2.412500000000000E+009;1.784517168998718E-001;-1.886068726889789E-003;-4.207599908113480E-003;-1.675582723692060E-003;
2.412666666666667E+009;1.787058562040329E-001;-4.655362106859684E-003;-4.066065885126591E-003;-1.342380535788834E-003;
2.412833333333334E+009;1.794074922800064E-001;-7.115667220205069E-003;-4.007987212389708E-003;-1.042999094352126E-003;
2.413000000000000E+009;1.800836622714996E-001;-9.777995757758617E-003;-4.244491457939148E-003;-9.565797518007457E-004;
2.413166666666667E+009;1.805534809827805E-001;-1.236998476088047E-002;-4.406891763210297E-003;-7.585924468003213E-004;
2.413333333333334E+009;1.816885918378830E-001;-1.489305868744850E-002;-4.304122645407915E-003;-4.185035359114409E-004;
2.413500000000000E+009;1.824644505977631E-001;-1.760845258831978E-002;-4.360056016594172E-003;-1.487453118897975E-004;
2.413666666666667E+009;1.838982403278351E-001;-1.988565362989903E-002;-4.298141226172447E-003;9.955233690561727E-005;
2.413833333333334E+009;1.850759536027908E-001;-2.222849801182747E-002;-4.301897250115871E-003;2.769984421320260E-004;
2.414000000000000E+009;1.862186193466187E-001;-2.456690929830074E-002;-4.204685334116221E-003;4.210676706861705E-004;
2.414166666666667E+009;1.874392926692963E-001;-2.658171020448208E-002;-4.107414744794369E-003;6.066567148081958E-004;
2.414333333333334E+009;1.887897700071335E-001;-2.873404137790203E-002;-4.165959544479847E-003;9.559729369357228E-004;
2.414500000000000E+009;1.900738179683685E-001;-3.041208349168301E-002;-4.094269592314959E-003;1.178609323687851E-003;
2.414666666666667E+009;1.913943439722061E-001;-3.224284574389458E-002;-3.945292904973030E-003;1.196222146973014E-003;
2.414833333333334E+009;1.927339881658554E-001;-3.379444777965546E-002;-3.888331120833755E-003;1.388990553095937E-003;
2.415000000000000E+009;1.940678954124451E-001;-3.543196618556976E-002;-3.702492918819189E-003;1.367657911032438E-003;
2.415166666666667E+009;1.955900639295578E-001;-3.663839027285576E-002;-3.732414916157723E-003;1.733147189952433E-003;
2.415333333333334E+009;1.969716101884842E-001;-3.785486519336700E-002;-3.609648672863841E-003;1.911930623464286E-003;
2.415500000000000E+009;1.982572525739670E-001;-3.881521522998810E-002;-3.433670615777373E-003;1.896764733828604E-003;
2.415666666666667E+009;1.995955556631088E-001;-3.987741470336914E-002;-3.302299184724689E-003;1.941411755979061E-003;
2.415833333333334E+009;2.007004320621491E-001;-4.052279144525528E-002;-3.075817599892616E-003;2.094953553751111E-003;
2.416000000000000E+009;2.017098069190979E-001;-4.133131355047226E-002;-3.114167368039489E-003;2.224594354629517E-003;
2.416166666666667E+009;2.027332931756973E-001;-4.176539182662964E-002;-2.902102423831821E-003;2.228157827630639E-003;
2.416333333333334E+009;2.035843431949616E-001;-4.227604717016220E-002;-2.928595989942551E-003;2.438067458570004E-003;
2.416500000000000E+009;2.043398618698120E-001;-4.254040122032166E-002;-2.637437079101801E-003;2.388118999078870E-003;
2.416666666666667E+009;2.048316895961762E-001;-4.285695031285286E-002;-2.717079129070044E-003;2.466750796884298E-003;
2.416833333333334E+009;2.052927017211914E-001;-4.290954023599625E-002;-2.632319461554289E-003;2.579144435003400E-003;
2.417000000000000E+009;2.057382166385651E-001;-4.286852106451988E-002;-2.301483415067196E-003;2.559859072789550E-003;
2.417166666666667E+009;2.056515365839005E-001;-4.278063774108887E-002;-2.278683939948678E-003;2.831004327163100E-003;
2.417333333333334E+009;2.055978924036026E-001;-4.242907837033272E-002;-2.205220749601722E-003;2.696554642170668E-003;
2.417500000000000E+009;2.055847197771072E-001;-4.226935282349587E-002;-1.978760818019509E-003;2.728262916207314E-003;
2.417666666666667E+009;2.051845192909241E-001;-4.202776774764061E-002;-2.057186793535948E-003;2.721905009821057E-003;
2.417833333333334E+009;2.050033211708069E-001;-4.165992140769959E-002;-2.016779966652393E-003;3.010005922988057E-003;
2.418000000000000E+009;2.044553607702255E-001;-4.126534610986710E-002;-1.856129150837660E-003;2.811306156218052E-003;
2.418166666666667E+009;2.039178460836411E-001;-4.102054238319397E-002;-1.632816041819751E-003;2.962558064609766E-003;
2.418333333333334E+009;2.031182944774628E-001;-4.070014506578445E-002;-1.554800895974040E-003;3.007788211107254E-003;
2.418500000000000E+009;2.022012770175934E-001;-4.053673893213272E-002;-1.445251051336527E-003;3.057324560359120E-003;
2.418666666666667E+009;2.012571841478348E-001;-4.016457870602608E-002;-1.409739837981761E-003;3.171925432980061E-003;
2.418833333333334E+009;1.999770849943161E-001;-4.002376645803452E-002;-1.090849051252008E-003;3.271114779636264E-003;
2.419000000000000E+009;1.986953616142273E-001;-4.003036394715309E-002;-1.151334494352341E-003;3.334944834932685E-003;
2.419166666666667E+009;1.975093930959702E-001;-4.002386704087257E-002;-8.789317216724157E-004;3.311366541311145E-003;
2.419333333333334E+009;1.960549056529999E-001;-4.033301025629044E-002;-8.338328334502876E-004;3.247239626944065E-003;
2.419500000000000E+009;1.945163309574127E-001;-4.065868258476257E-002;-6.851207581348717E-004;3.305983263999224E-003;
2.419666666666667E+009;1.927552670240402E-001;-4.122650623321533E-002;-4.891218850389123E-004;3.178105689585209E-003;
2.419833333333334E+009;1.910707056522369E-001;-4.149879142642021E-002;-4.038271727040410E-004;3.185148583725095E-003;
2.420000000000000E+009;1.894088834524155E-001;-4.234067723155022E-002;-1.777508587110788E-004;2.988972933962941E-003;
2.420166666666667E+009;1.875360459089279E-001;-4.310755431652069E-002;-4.235532287566457E-006;3.079781075939536E-003;
2.420333333333334E+009;1.859880834817886E-001;-4.421626403927803E-002;6.206027319421992E-005;2.855981700122356E-003;
2.420500000000000E+009;1.839877218008041E-001;-4.518270120024681E-002;3.404855306143872E-005;2.845681272447109E-003;
2.420666666666667E+009;1.821769773960114E-001;-4.637845978140831E-002;4.039717532577924E-005;2.946028485894203E-003;
2.420833333333334E+009;1.804067045450211E-001;-4.768601059913635E-002;1.705860195215792E-004;2.939504804089665E-003;
2.421000000000000E+009;1.786060184240341E-001;-4.920965433120728E-002;3.918778384104371E-005;2.823453163728118E-003;
2.421166666666667E+009;1.769428104162216E-001;-5.085365474224091E-002;2.071991475531831E-004;2.868652809411287E-003;
2.421333333333334E+009;1.751662492752075E-001;-5.245639756321907E-002;1.605963188922033E-004;2.731959568336606E-003;
2.421500000000000E+009;1.736062616109848E-001;-5.439579486846924E-002;2.491913037374616E-004;2.788929268717766E-003;
2.421666666666667E+009;1.721310317516327E-001;-5.639706552028656E-002;2.263291389681399E-004;2.723556244745851E-003;
2.421833333333334E+009;1.707437336444855E-001;-5.821990221738815E-002;2.471700427122414E-004;2.811081707477570E-003;
2.422000000000000E+009;1.694745868444443E-001;-6.025220453739166E-002;5.059505347162485E-004;2.618760103359819E-003;
2.422166666666667E+009;1.683600246906281E-001;-6.253243237733841E-002;5.956817185506225E-004;2.684381091967225E-003;
2.422333333333334E+009;1.670374721288681E-001;-6.468211859464645E-002;6.785620935261250E-004;2.772371051833034E-003;
2.422500000000000E+009;1.660269796848297E-001;-6.686282902956009E-002;8.412100723944604E-004;2.732205670326948E-003;
2.422666666666667E+009;1.651010364294052E-001;-6.897205859422684E-002;9.316492360085249E-004;2.749028149992228E-003;
2.422833333333334E+009;1.644736826419830E-001;-7.110331207513809E-002;1.044674892909825E-003;2.451843349263072E-003;
2.423000000000000E+009;1.637329459190369E-001;-7.335423678159714E-002;1.063866773620248E-003;2.565829316154122E-003;
2.423166666666667E+009;1.633393019437790E-001;-7.546710968017578E-002;1.194379408843815E-003;2.564355265349150E-003;
2.423333333333334E+009;1.628920435905457E-001;-7.788515090942383E-002;1.217061071656644E-003;2.457439200952649E-003;
2.423500000000000E+009;1.627784371376038E-001;-8.000516891479492E-002;1.229051849804819E-003;2.573506440967321E-003;
2.423666666666667E+009;1.627386361360550E-001;-8.200705051422119E-002;1.150103285908699E-003;2.232273807749152E-003;
2.423833333333334E+009;1.625880748033524E-001;-8.402212709188461E-002;1.407173229381442E-003;2.262738067656755E-003;
2.424000000000000E+009;1.627398878335953E-001;-8.613681048154831E-002;1.641097129322588E-003;2.364705316722393E-003;
2.424166666666667E+009;1.628119498491287E-001;-8.777841180562973E-002;1.507231732830405E-003;2.070342190563679E-003;
2.424333333333334E+009;1.631038039922714E-001;-8.953469246625900E-002;1.666618045419455E-003;1.964415190741420E-003;
2.424500000000000E+009;1.634672880172730E-001;-9.159631282091141E-002;1.870662672445178E-003;1.894899993203580E-003;
2.424666666666667E+009;1.637474298477173E-001;-9.313299506902695E-002;1.827412517741323E-003;1.769701833836734E-003;
2.424833333333334E+009;1.644857227802277E-001;-9.471403062343597E-002;1.793557778000832E-003;1.810144982300699E-003;
2.425000000000000E+009;1.649631708860397E-001;-9.603634476661682E-002;1.755693345330656E-003;1.620417460799217E-003;
2.425166666666667E+009;1.653897017240524E-001;-9.725268185138702E-002;1.930047525092959E-003;1.571419532410801E-003;
2.425333333333334E+009;1.659355163574219E-001;-9.842851012945175E-002;1.830723253078759E-003;1.606959267519414E-003;
2.425500000000000E+009;1.665529608726502E-001;-9.955139458179474E-002;1.938646775670350E-003;1.352234976366162E-003;
2.425666666666667E+009;1.672710776329041E-001;-1.003951877355576E-001;1.852809684351087E-003;1.275329152122140E-003;
2.425833333333334E+009;1.676175594329834E-001;-1.014117226004601E-001;1.833133981563151E-003;1.418835599906743E-003;
2.426000000000000E+009;1.684132814407349E-001;-1.019196733832359E-001;1.786531880497932E-003;1.309596584178507E-003;
2.426166666666667E+009;1.688953191041946E-001;-1.024102270603180E-001;1.859552343375981E-003;1.153889927081764E-003;
2.426333333333334E+009;1.691663712263107E-001;-1.031128764152527E-001;1.809516106732190E-003;1.179043320007622E-003;
2.426500000000000E+009;1.699101626873016E-001;-1.033823266625404E-001;1.758060534484685E-003;1.177115133032203E-003;
2.426666666666667E+009;1.703168302774429E-001;-1.036389097571373E-001;1.841942546889186E-003;1.136794686317444E-003;
2.426833333333334E+009;1.708472669124603E-001;-1.040822044014931E-001;2.002206631004810E-003;9.190535056404769E-004;
2.427000000000000E+009;1.711530983448029E-001;-1.042220816016197E-001;2.083869418129325E-003;9.560760809108615E-004;
2.427166666666667E+009;1.713281720876694E-001;-1.041866168379784E-001;2.034077653661370E-003;8.497070521116257E-004;
2.427333333333334E+009;1.715394407510757E-001;-1.044348105788231E-001;2.046238863840699E-003;8.468050509691238E-004;
2.427500000000000E+009;1.714948862791061E-001;-1.045115813612938E-001;2.041340805590153E-003;7.826029323041439E-004;
2.427666666666667E+009;1.714932173490524E-001;-1.043781116604805E-001;1.834773691371083E-003;4.812018014490604E-004;
