# Version 1.00
#
freq[Hz];re:Trc1_S11;im:Trc1_S11;re:Trc2_S21;im:Trc2_S21;
2.400000000000000E+009;1.581975519657135E-001;6.248842924833298E-002;1.159528852440417E-003;-1.668317127041519E-003;
2.400166666666667E+009;1.581940650939941E-001;6.102569401264191E-002;1.128006493672729E-003;-1.900364761240780E-003;
2.400333333333334E+009;1.580430567264557E-001;5.922574922442436E-002;1.315852394327521E-003;-1.856611226685345E-003;
2.400500000000000E+009;1.580433696508408E-001;5.724216252565384E-002;1.158523024059832E-003;-2.034172881394625E-003;
2.400666666666667E+009;1.579345464706421E-001;5.519245192408562E-002;1.217494951561093E-003;-2.123281592503190E-003;
2.400833333333334E+009;1.583229303359985E-001;5.338186398148537E-002;9.237185004167259E-004;-2.176742767915130E-003;
2.401000000000000E+009;1.585388630628586E-001;5.133526027202606E-002;9.488573996350169E-004;-2.144838450476527E-003;
2.401166666666667E+009;1.586266309022903E-001;4.933663085103035E-002;1.001753844320774E-003;-2.245192881673574E-003;
2.401333333333334E+009;1.586006134748459E-001;4.705645143985748E-002;8.984179585240781E-004;-2.500098664313555E-003;
2.401500000000000E+009;1.590575724840164E-001;4.505833610892296E-002;9.828825714066625E-004;-2.524066949263215E-003;
2.401666666666667E+009;1.591222882270813E-001;4.326746985316277E-002;9.506815113127232E-004;-2.631006995216012E-003;
2.401833333333334E+009;1.596556901931763E-001;4.120054095983505E-002;8.691978291608393E-004;-2.705025020986795E-003;
2.402000000000000E+009;1.600393950939179E-001;3.912140801548958E-002;7.514280150644481E-004;-2.956302370876074E-003;
2.402166666666667E+009;1.606829911470413E-001;3.689076378941536E-002;6.573644932359457E-004;-2.986769890412688E-003;
2.402333333333334E+009;1.609791219234467E-001;3.514359891414642E-002;3.731186734512448E-004;-2.920658094808459E-003;
2.402500000000000E+009;1.618302315473557E-001;3.340585902333260E-002;2.280927728861570E-004;-3.018427640199661E-003;
2.402666666666667E+009;1.625450700521469E-001;3.164959698915482E-002;3.433611127547920E-004;-3.154709236696363E-003;
2.402833333333334E+009;1.633238792419434E-001;2.987441048026085E-002;5.435330967884511E-005;-3.222525818273425E-003;
2.403000000000000E+009;1.640636920928955E-001;2.812638692557812E-002;-1.787224464351311E-004;-3.281754208728671E-003;
2.403166666666667E+009;1.648487001657486E-001;2.669785916805267E-002;-3.446598711889237E-004;-3.288301406428218E-003;
2.403333333333334E+009;1.656506806612015E-001;2.520545199513435E-002;-5.477623781189323E-004;-3.312463639304042E-003;
2.403500000000000E+009;1.666565239429474E-001;2.398852817714214E-002;-6.592696299776435E-004;-3.279864089563489E-003;
2.403666666666667E+009;1.676655113697052E-001;2.234757691621780E-002;-8.116648532450199E-004;-3.301809774711728E-003;
2.403833333333334E+009;1.685601621866226E-001;2.118964120745659E-002;-1.017570728436112E-003;-3.280864330008626E-003;
2.404000000000000E+009;1.695510447025299E-001;1.993696764111519E-002;-1.161199063062668E-003;-3.344404976814985E-003;
2.404166666666667E+009;1.705913096666336E-001;1.869234256446362E-002;-1.309079350903630E-003;-3.290017601102591E-003;
2.404333333333334E+009;1.714137047529221E-001;1.788805425167084E-002;-1.450073556043208E-003;-3.206747584044933E-003;
2.404500000000000E+009;1.720997244119644E-001;1.680675148963928E-002;-1.694747828878462E-003;-2.935981145128608E-003;
2.404666666666667E+009;1.732802391052246E-001;1.603638939559460E-002;-1.933275489136577E-003;-3.124892245978117E-003;
2.404833333333334E+009;1.741829663515091E-001;1.509143691509962E-002;-1.881719217635691E-003;-2.748320344835520E-003;
2.405000000000000E+009;1.749604940414429E-001;1.430082973092794E-002;-2.199898241087794E-003;-2.641755156219006E-003;
2.405166666666667E+009;1.757402718067169E-001;1.379374507814646E-002;-2.296290826052427E-003;-2.561821136623621E-003;
2.405333333333334E+009;1.767273098230362E-001;1.288376189768314E-002;-2.308916766196489E-003;-2.421530894935131E-003;
2.405500000000000E+009;1.771777868270874E-001;1.263137441128492E-002;-2.347098896279931E-003;-2.229798352345824E-003;
2.405666666666667E+009;1.779282689094544E-001;1.212009973824024E-002;-2.693908521905541E-003;-2.346295164898038E-003;
2.405833333333334E+009;1.783251911401749E-001;1.178496982902288E-002;-2.615814562886953E-003;-2.146784448996186E-003;
2.406000000000000E+009;1.790284514427185E-001;1.129654049873352E-002;-2.652972005307674E-003;-1.913912128657103E-003;
2.406166666666667E+009;1.793231517076492E-001;1.104870904237032E-002;-2.566770417615771E-003;-1.734780962578952E-003;
2.406333333333334E+009;1.799287050962448E-001;1.073853578418493E-002;-2.758459653705359E-003;-1.699764397926629E-003;
2.406500000000000E+009;1.800533831119537E-001;1.038139499723911E-002;-2.585536800324917E-003;-1.693775295279920E-003;
2.406666666666667E+009;1.802927702665329E-001;1.010255049914122E-002;-2.818826120346785E-003;-1.353515661321580E-003;
2.406833333333334E+009;1.804627627134323E-001;9.801597334444523E-003;-2.562467241659761E-003;-1.437380327843130E-003;
2.407000000000000E+009;1.805895566940308E-001;9.172525256872177E-003;-2.634939737617970E-003;-1.197662902995944E-003;
2.407166666666667E+009;1.807266771793366E-001;9.228662587702274E-003;-2.738310722634196E-003;-1.113208592869341E-003;
2.407333333333334E+009;1.804054826498032E-001;8.491629734635353E-003;-2.822565380483866E-003;-1.103141461499035E-003;
2.407500000000000E+009;1.801819354295731E-001;8.114860393106937E-003;-2.806543605402112E-003;-9.343762067146599E-004;
2.407666666666667E+009;1.801231652498245E-001;7.725255098193884E-003;-2.838273067027330E-003;-7.704322342760861E-004;
2.407833333333334E+009;1.797266006469727E-001;7.068073377013207E-003;-2.859849017113447E-003;-7.240566192194820E-004;
2.408000000000000E+009;1.793931424617767E-001;6.447277963161469E-003;-2.729018218815327E-003;-5.661500617861748E-004;
2.408166666666667E+009;1.790088862180710E-001;5.961182061582804E-003;-2.754474291577935E-003;-4.811941471416503E-004;
2.408333333333334E+009;1.786478459835053E-001;5.257750861346722E-003;-2.616781974211335E-003;-5.167435156181455E-004;
2.408500000000000E+009;1.780216097831726E-001;4.412660840898752E-003;-2.749005798250437E-003;-4.143666592426598E-004;
2.408666666666667E+009;1.773630976676941E-001;3.433882491663098E-003;-2.580887638032436E-003;-3.122490597888827E-004;
2.408833333333334E+009;1.767347157001495E-001;2.448952989652753E-003;-2.688839100301266E-003;-2.941985439974815E-004;
2.409000000000000E+009;1.760237216949463E-001;1.391016994602978E-003;-2.633134601637721E-003;-2.561458968557417E-004;
2.409166666666667E+009;1.754460185766220E-001;3.215699398424476E-004;-2.696478040888906E-003;-1.120168235502206E-004;
2.409333333333334E+009;1.748879402875900E-001;-1.027565333060920E-003;-2.560859778895974E-003;-6.501902680611238E-005;
2.409500000000000E+009;1.740611791610718E-001;-2.448900602757931E-003;-2.499183407053351E-003;-7.085997640388086E-005;
2.409666666666667E+009;1.733965724706650E-001;-3.756669815629721E-003;-2.569328760728240E-003;-6.084677443141118E-005;
2.409833333333334E+009;1.724767088890076E-001;-4.973072558641434E-003;-2.491003600880504E-003;-6.056614893168444E-006;
2.410000000000000E+009;1.719674915075302E-001;-6.534221582114697E-003;-2.454764908179641E-003;1.463230146327987E-004;
2.410166666666667E+009;1.713916659355164E-001;-8.031154982745647E-003;-2.417881740257144E-003;5.198291546548717E-005;
2.410333333333334E+009;1.708997339010239E-001;-9.685562923550606E-003;-2.428996143862605E-003;2.181894087698311E-004;
2.410500000000000E+009;1.703489869832993E-001;-1.139432378113270E-002;-2.599106868728995E-003;2.058057434624061E-004;
2.410666666666667E+009;1.697745323181152E-001;-1.336280442774296E-002;-2.519742818549275E-003;1.933130843099207E-004;
2.410833333333334E+009;1.694061607122421E-001;-1.490438450127840E-002;-2.527292352169752E-003;1.436835009371862E-004;
2.411000000000000E+009;1.690244674682617E-001;-1.673005707561970E-002;-2.361645223572850E-003;2.344459644518793E-004;
2.411166666666667E+009;1.685962527990341E-001;-1.875628530979157E-002;-2.523587550967932E-003;3.007837804034352E-004;
2.411333333333334E+009;1.684429496526718E-001;-2.052484638988972E-002;-2.522469731047750E-003;4.046800022479147E-004;
2.411500000000000E+009;1.681296527385712E-001;-2.266601286828518E-002;-2.608987502753735E-003;3.211167640984058E-004;
2.411666666666667E+009;1.681078672409058E-001;-2.441458404064179E-002;-2.688611159101129E-003;3.443710738793016E-004;
2.411833333333334E+009;1.682435423135757E-001;-2.628711238503456E-002;-2.752444706857204E-003;5.800026119686663E-004;
2.412000000000000E+009;1.682763397693634E-001;-2.839417383074760E-002;-2.769230166450143E-003;4.832475970033556E-004;
2.412166666666667E+009;1.682294011116028E-001;-3.029192239046097E-002;-2.666314831003547E-003;7.027737447060645E-004;
2.412333333333334E+009;1.685752272605896E-001;-3.197590261697769E-002;-2.767186611890793E-003;8.721798658370972E-004;
2.412500000000000E+009;1.687256693840027E-001;-3.387718647718430E-002;-2.808251418173313E-003;8.697806624695659E-004;
2.412666666666667E+009;1.691054552793503E-001;-3.598161041736603E-002;-2.709788037464023E-003;1.032249187119305E-003;
2.412833333333334E+009;1.695705801248550E-001;-3.770155087113380E-002;-2.982709556818008E-003;1.201783423312008E-003;
2.413000000000000E+009;1.700069457292557E-001;-3.944018483161926E-002;-2.693606307730079E-003;1.246738014742732E-003;
2.413166666666667E+009;1.703149825334549E-001;-4.131260141730309E-002;-2.945230575278401E-003;1.343969488516450E-003;
2.413333333333334E+009;1.706835627555847E-001;-4.294787347316742E-002;-2.844671485945582E-003;1.588748302310705E-003;
2.413500000000000E+009;1.713602095842362E-001;-4.449961334466934E-002;-2.771529601886869E-003;1.700012711808085E-003;
2.413666666666667E+009;1.718380451202393E-001;-4.625599086284638E-002;-2.554996404796839E-003;1.892208005301654E-003;
2.413833333333334E+009;1.724271029233933E-001;-4.755787923932076E-002;-2.737168222665787E-003;1.927503035403788E-003;
2.414000000000000E+009;1.727936267852783E-001;-4.912167415022850E-002;-2.563423477113247E-003;1.954264938831329E-003;
2.414166666666667E+009;1.734436154365540E-001;-5.038191005587578E-002;-2.487518126145005E-003;2.318621147423983E-003;
2.414333333333334E+009;1.738975048065186E-001;-5.156484246253967E-002;-2.394786104559898E-003;2.231883583590388E-003;
2.414500000000000E+009;1.747173368930817E-001;-5.270953476428986E-002;-2.339800819754601E-003;2.474806969985366E-003;
2.414666666666667E+009;1.751326024532318E-001;-5.382470786571503E-002;-1.948469318449497E-003;2.410949673503637E-003;
2.414833333333334E+009;1.755673587322235E-001;-5.481822043657303E-002;-2.022660570219159E-003;2.573311561718583E-003;
2.415000000000000E+009;1.758981049060822E-001;-5.572958663105965E-002;-1.948898076079786E-003;2.654947573319078E-003;
2.415166666666667E+009;1.763767451047897E-001;-5.650105327367783E-002;-1.688672462478280E-003;2.541088964790106E-003;
2.415333333333334E+009;1.769027709960938E-001;-5.720254033803940E-002;-1.732321456074715E-003;2.730184700340033E-003;
2.415500000000000E+009;1.772644221782684E-001;-5.772687494754791E-002;-1.578668598085642E-003;2.930849092081189E-003;
2.415666666666667E+009;1.774910688400269E-001;-5.843995884060860E-002;-1.434765988960862E-003;2.896713325753808E-003;
2.415833333333334E+009;1.777379214763641E-001;-5.896889418363571E-002;-1.333854044787586E-003;2.875830745324493E-003;
2.416000000000000E+009;1.776916533708572E-001;-5.930095538496971E-002;-1.154100289568305E-003;3.001816570758820E-003;
2.416166666666667E+009;1.778676509857178E-001;-5.971717834472656E-002;-1.118742628023028E-003;2.984891645610333E-003;
2.416333333333334E+009;1.777870804071426E-001;-6.018932163715363E-002;-1.153085846453905E-003;3.162144450470805E-003;
2.416500000000000E+009;1.777438372373581E-001;-6.032763794064522E-002;-1.010086736641824E-003;3.191566327586770E-003;
2.416666666666667E+009;1.775418370962143E-001;-6.056263297796249E-002;-8.204697514884174E-004;3.086119191721082E-003;
2.416833333333334E+009;1.773180663585663E-001;-6.089203432202339E-002;-5.755952442996204E-004;3.192777512595058E-003;
2.417000000000000E+009;1.768486350774765E-001;-6.122712418437004E-002;-6.342284032143652E-004;3.226614790037274E-003;
2.417166666666667E+009;1.764519661664963E-001;-6.123821437358856E-002;-4.242242721375078E-004;3.111758502200246E-003;
2.417333333333334E+009;1.759791374206543E-001;-6.148983538150787E-002;-4.487141850404441E-004;3.153798170387745E-003;
2.417500000000000E+009;1.752531081438065E-001;-6.184237077832222E-002;-2.496401721145958E-004;3.116033505648375E-003;
2.417666666666667E+009;1.746421903371811E-001;-6.191135570406914E-002;-5.927296297159046E-005;3.191339550539851E-003;
2.417833333333334E+009;1.738183051347733E-001;-6.220934540033341E-002;-9.684193355496973E-005;3.050817176699638E-003;
2.418000000000000E+009;1.729156523942947E-001;-6.263023614883423E-002;6.583198410226032E-005;3.077587578445673E-003;
2.418166666666667E+009;1.719694435596466E-001;-6.285455822944641E-002;2.351221774006262E-004;3.087154123932123E-003;
2.418333333333334E+009;1.711856722831726E-001;-6.325698643922806E-002;2.840965171344578E-004;3.129159100353718E-003;
2.418500000000000E+009;1.700418591499329E-001;-6.361448764801025E-002;3.394589002709836E-004;3.032095497474074E-003;
2.418666666666667E+009;1.689515113830566E-001;-6.421012431383133E-002;5.056050140410662E-004;3.013757755979896E-003;
2.418833333333334E+009;1.677372008562088E-001;-6.477557122707367E-002;4.890458076260984E-004;3.049164311960340E-003;
2.419000000000000E+009;1.665482670068741E-001;-6.536068022251129E-002;8.269692771136761E-004;2.926455810666084E-003;
2.419166666666667E+009;1.654791533946991E-001;-6.589735299348831E-002;8.654811535961926E-004;2.915190765634179E-003;
2.419333333333334E+009;1.640844196081162E-001;-6.657452881336212E-002;7.429150282405317E-004;2.679094206541777E-003;
2.419500000000000E+009;1.630794405937195E-001;-6.751576811075211E-002;9.491358068771660E-004;2.767147962003946E-003;
2.419666666666667E+009;1.619353890419006E-001;-6.828577071428299E-002;9.551322436891496E-004;2.696823328733444E-003;
2.419833333333334E+009;1.606308370828629E-001;-6.922070682048798E-002;1.133527490310371E-003;2.682116813957691E-003;
2.420000000000000E+009;1.595338135957718E-001;-7.036631554365158E-002;1.181481406092644E-003;2.591241383925080E-003;
2.420166666666667E+009;1.584187000989914E-001;-7.134870439767838E-002;1.270147855393589E-003;2.624574815854430E-003;
2.420333333333334E+009;1.573981642723084E-001;-7.259472459554672E-002;1.464577508158982E-003;2.565742237493396E-003;
2.420500000000000E+009;1.564555466175079E-001;-7.365751266479492E-002;1.399443252012134E-003;2.406273735687137E-003;
2.420666666666667E+009;1.553004235029221E-001;-7.503361254930496E-002;1.400134875439107E-003;2.308104885742068E-003;
2.420833333333334E+009;1.544232368469238E-001;-7.660934329032898E-002;1.546977320685983E-003;2.437590621411800E-003;
2.421000000000000E+009;1.535181999206543E-001;-7.784332334995270E-002;1.459916937164962E-003;2.357884775847197E-003;
2.421166666666667E+009;1.528906673192978E-001;-7.935211807489395E-002;1.692696590907872E-003;2.225890755653381E-003;
2.421333333333334E+009;1.521114408969879E-001;-8.100122213363648E-002;1.732935779727995E-003;2.288897056132555E-003;
2.421500000000000E+009;1.515894979238510E-001;-8.262664079666138E-002;1.744345412589610E-003;2.036403398960829E-003;
2.421666666666667E+009;1.507612168788910E-001;-8.414108306169510E-002;1.890005893073976E-003;2.132065361365676E-003;
2.421833333333334E+009;1.504293233156204E-001;-8.593100309371948E-002;1.884203054942191E-003;2.099948469549418E-003;
2.422000000000000E+009;1.500170826911926E-001;-8.747183531522751E-002;1.818749005906284E-003;1.940092886798084E-003;
2.422166666666667E+009;1.497663557529450E-001;-8.942533284425736E-002;1.869200030341744E-003;1.921922317706049E-003;
2.422333333333334E+009;1.495878100395203E-001;-9.090626239776611E-002;2.130801789462566E-003;1.950375270098448E-003;
2.422500000000000E+009;1.495619267225266E-001;-9.275881946086884E-002;2.161958720535040E-003;1.725207432173193E-003;
2.422666666666667E+009;1.493838131427765E-001;-9.442517161369324E-002;2.122598234564066E-003;1.752135460264981E-003;
2.422833333333334E+009;1.494721174240112E-001;-9.606190770864487E-002;2.237449632957578E-003;1.534072798676789E-003;
2.423000000000000E+009;1.495862454175949E-001;-9.766589105129242E-002;2.293789060786367E-003;1.656228094361723E-003;
2.423166666666667E+009;1.498223841190338E-001;-9.938031435012817E-002;2.229766454547644E-003;1.419702661223710E-003;
2.423333333333334E+009;1.501698046922684E-001;-1.008998230099678E-001;2.312681404873729E-003;1.463841530494392E-003;
2.423500000000000E+009;1.504577696323395E-001;-1.024413481354713E-001;2.450496191158891E-003;1.514193485490978E-003;
2.423666666666667E+009;1.504552215337753E-001;-1.040177270770073E-001;2.422207733616233E-003;1.333005260676146E-003;
2.423833333333334E+009;1.511223763227463E-001;-1.055849120020866E-001;2.593179466202855E-003;1.320939278230071E-003;
2.424000000000000E+009;1.514618247747421E-001;-1.067331433296204E-001;2.474021399393678E-003;1.127028837800026E-003;
2.424166666666667E+009;1.518496125936508E-001;-1.080553382635117E-001;2.611485775560141E-003;1.176375546492636E-003;
2.424333333333334E+009;1.522137671709061E-001;-1.091478392481804E-001;2.677105134353042E-003;1.122719608247280E-003;
2.424500000000000E+009;1.527474820613861E-001;-1.104909777641296E-001;2.618358470499516E-003;8.973656222224236E-004;
2.424666666666667E+009;1.533028334379196E-001;-1.113927960395813E-001;2.635698532685638E-003;9.211605647578836E-004;
2.424833333333334E+009;1.536238640546799E-001;-1.124385893344879E-001;2.798543078824878E-003;6.958541343919933E-004;
2.425000000000000E+009;1.541899740695953E-001;-1.135075986385346E-001;2.727022860199213E-003;5.274867871776223E-004;
2.425166666666667E+009;1.544486433267593E-001;-1.142709404230118E-001;2.790802856907249E-003;4.454370937310159E-004;
2.425333333333334E+009;1.550166457891464E-001;-1.148959100246429E-001;2.869079355150461E-003;4.067113331984729E-004;
2.425500000000000E+009;1.553947031497955E-001;-1.156479865312576E-001;2.756021916866303E-003;1.759637525537983E-004;
2.425666666666667E+009;1.555002927780151E-001;-1.162193715572357E-001;2.784574171528220E-003;1.762861211318523E-004;
2.425833333333334E+009;1.558048874139786E-001;-1.169621199369431E-001;2.810692880302668E-003;1.340888265985996E-004;
2.426000000000000E+009;1.559637188911438E-001;-1.173330098390579E-001;2.808861201629043E-003;-4.159379022894427E-005;
2.426166666666667E+009;1.563839763402939E-001;-1.176642104983330E-001;2.635926008224487E-003;-1.965715491678566E-004;
2.426333333333334E+009;1.563367992639542E-001;-1.179939061403275E-001;2.646141452714801E-003;-3.008238854818046E-004;
2.426500000000000E+009;1.563917249441147E-001;-1.182289198040962E-001;2.634600270539522E-003;-3.574090660549700E-004;
2.426666666666667E+009;1.564518958330154E-001;-1.183495372533798E-001;2.715660026296973E-003;-4.844986833631992E-004;
2.426833333333334E+009;1.562032252550125E-001;-1.185917258262634E-001;2.571717835962772E-003;-5.557448021136224E-004;
2.427000000000000E+009;1.558544933795929E-001;-1.188719645142555E-001;2.526300493627787E-003;-8.228987571783364E-004;
2.427166666666667E+009;1.555123031139374E-001;-1.188851967453957E-001;2.480069408193231E-003;-7.821220206096768E-004;
2.427333333333334E+009;1.551445871591568E-001;-1.190488412976265E-001;2.492825267836452E-003;-8.417939534410834E-004;
2.427500000000000E+009;1.547832489013672E-001;-1.191571503877640E-001;2.345647197216749E-003;-7.054702145978808E-004;
2.427666666666667E+009;1.539593487977982E-001;-1.192704960703850E-001;2.186472760513425E-003;-9.331416222266853E-004;
