# Version 1.00
#
freq[Hz];re:Trc1_S11;im:Trc1_S11;re:Trc2_S21;im:Trc2_S21;
2.400000000000000E+009;1.581065207719803E-001;6.252694129943848E-002;1.263092504814267E-003;-1.743529690429568E-003;
2.400166666666667E+009;1.581109464168549E-001;6.099917367100716E-002;1.158521394245327E-003;-1.800270634703338E-003;
2.400333333333334E+009;1.581175327301025E-001;5.902883782982826E-002;1.271738554351032E-003;-1.915606902912259E-003;
2.400500000000000E+009;1.581317186355591E-001;5.731469392776489E-002;1.032263389788568E-003;-1.852671732194722E-003;
2.400666666666667E+009;1.580132544040680E-001;5.534345656633377E-002;1.044812845066190E-003;-2.012849319726229E-003;
2.400833333333334E+009;1.582149118185043E-001;5.331464856863022E-002;1.205693464726210E-003;-2.036786638200283E-003;
2.401000000000000E+009;1.582433432340622E-001;5.136466398835182E-002;1.073908060789108E-003;-2.172194421291351E-003;
2.401166666666667E+009;1.585904508829117E-001;4.923656582832336E-002;1.087934011593461E-003;-2.352842595428228E-003;
2.401333333333334E+009;1.585331261157990E-001;4.721740633249283E-002;9.516426362097263E-004;-2.356869867071509E-003;
2.401500000000000E+009;1.590881496667862E-001;4.521765932440758E-002;1.088271616026759E-003;-2.519431523978710E-003;
2.401666666666667E+009;1.592585146427155E-001;4.322310537099838E-002;8.859549998305738E-004;-2.745762234553695E-003;
2.401833333333334E+009;1.597990542650223E-001;4.117399081587791E-002;6.663989624939859E-004;-2.771235303953290E-003;
2.402000000000000E+009;1.600732952356339E-001;3.919762372970581E-002;6.532459519803524E-004;-2.895019482821226E-003;
2.402166666666667E+009;1.605881154537201E-001;3.722343966364861E-002;4.804631171282381E-004;-2.921017585322261E-003;
2.402333333333334E+009;1.610601395368576E-001;3.525210916996002E-002;5.193633842281997E-004;-2.988454885780811E-003;
2.402500000000000E+009;1.619887351989746E-001;3.343150764703751E-002;2.823800314217806E-004;-3.198733786121011E-003;
2.402666666666667E+009;1.625638008117676E-001;3.178609162569046E-002;1.779866288416088E-004;-3.198160789906979E-003;
2.402833333333334E+009;1.632928699254990E-001;3.011824004352093E-002;-3.598379043978639E-005;-3.178691491484642E-003;
2.403000000000000E+009;1.641378253698349E-001;2.854673005640507E-002;-2.914755896199495E-004;-3.292519599199295E-003;
2.403166666666667E+009;1.650218516588211E-001;2.686016634106636E-002;-3.724125272128731E-004;-3.454708028584719E-003;
2.403333333333334E+009;1.659808158874512E-001;2.540639042854309E-002;-5.994073580950499E-004;-3.226118627935648E-003;
2.403500000000000E+009;1.666364818811417E-001;2.382041700184345E-002;-6.582947680726647E-004;-3.243138082325459E-003;
2.403666666666667E+009;1.677056699991226E-001;2.247812785208225E-002;-8.904105634428561E-004;-3.349545411765575E-003;
2.403833333333334E+009;1.688069701194763E-001;2.129227295517921E-002;-1.006823149509728E-003;-3.206737339496613E-003;
2.404000000000000E+009;1.697547286748886E-001;2.015074156224728E-002;-1.422639819793403E-003;-3.257026197388768E-003;
2.404166666666667E+009;1.705400198698044E-001;1.892383769154549E-002;-1.335886889137328E-003;-3.236054675653577E-003;
2.404333333333334E+009;1.714044511318207E-001;1.783024147152901E-002;-1.585515332408249E-003;-3.228134708479047E-003;
2.404500000000000E+009;1.723577529191971E-001;1.676020585000515E-002;-1.814938965253532E-003;-3.151689190417528E-003;
2.404666666666667E+009;1.731409281492233E-001;1.595731824636459E-002;-1.853040186688304E-003;-2.886611269786954E-003;
2.404833333333334E+009;1.740895807743073E-001;1.508826855570078E-002;-1.922980300150812E-003;-2.723209559917450E-003;
2.405000000000000E+009;1.749478876590729E-001;1.439523138105869E-002;-2.196796471253038E-003;-2.696186769753695E-003;
2.405166666666667E+009;1.758255213499069E-001;1.379231363534927E-002;-2.286512870341539E-003;-2.517879242077470E-003;
2.405333333333334E+009;1.766116470098496E-001;1.303165964782238E-002;-2.383292885497212E-003;-2.355763921514154E-003;
2.405500000000000E+009;1.773367524147034E-001;1.252323109656572E-002;-2.392221940681338E-003;-2.363925799727440E-003;
2.405666666666667E+009;1.780233383178711E-001;1.207425352185965E-002;-2.483482705429196E-003;-2.146619372069836E-003;
2.405833333333334E+009;1.784394383430481E-001;1.181533001363277E-002;-2.548335585743189E-003;-2.014461439102888E-003;
2.406000000000000E+009;1.790711283683777E-001;1.116399560123682E-002;-2.591331722214818E-003;-1.884542871266604E-003;
2.406166666666667E+009;1.793392002582550E-001;1.106166560202837E-002;-2.509603742510080E-003;-1.595879090018570E-003;
2.406333333333334E+009;1.799292862415314E-001;1.060379389673472E-002;-2.587042283266783E-003;-1.618264825083315E-003;
2.406500000000000E+009;1.801351159811020E-001;1.031628530472517E-002;-2.719416050240398E-003;-1.491969334892929E-003;
2.406666666666667E+009;1.801498979330063E-001;1.003465987741947E-002;-2.853026380762458E-003;-1.557019655592740E-003;
2.406833333333334E+009;1.804404407739639E-001;9.638481773436070E-003;-2.681438578292728E-003;-1.222621183842421E-003;
2.407000000000000E+009;1.806307137012482E-001;9.403976611793041E-003;-2.700057113543153E-003;-1.094125793315470E-003;
2.407166666666667E+009;1.806332916021347E-001;9.062536060810089E-003;-2.603368600830436E-003;-1.133588841184974E-003;
2.407333333333334E+009;1.804057210683823E-001;8.446444757282734E-003;-2.778187394142151E-003;-1.087844371795654E-003;
2.407500000000000E+009;1.802071034908295E-001;8.233604952692986E-003;-2.642022678628564E-003;-8.911791956052184E-004;
2.407666666666667E+009;1.801912188529968E-001;7.742045447230339E-003;-2.705022227019072E-003;-8.502182317897677E-004;
2.407833333333334E+009;1.797353625297546E-001;7.045550737529993E-003;-2.713175490498543E-003;-6.173871806822717E-004;
2.408000000000000E+009;1.794217377901077E-001;6.413465365767479E-003;-2.527046250179410E-003;-5.536863463930786E-004;
2.408166666666667E+009;1.788303405046463E-001;5.960228852927685E-003;-2.866392489522696E-003;-5.119656561873853E-004;
2.408333333333334E+009;1.785632073879242E-001;5.273755174130201E-003;-2.676788717508316E-003;-4.816803557332605E-004;
2.408500000000000E+009;1.780813038349152E-001;4.374060779809952E-003;-2.726188628003001E-003;-4.677322576753795E-004;
2.408666666666667E+009;1.774812638759613E-001;3.433600766584277E-003;-2.557220170274377E-003;-3.989811521023512E-004;
2.408833333333334E+009;1.768067777156830E-001;2.473338972777128E-003;-2.778236987069249E-003;-3.263343241997063E-004;
2.409000000000000E+009;1.759822517633438E-001;1.523306826129556E-003;-2.655634190887213E-003;-2.815908228512853E-004;
2.409166666666667E+009;1.753876209259033E-001;3.925349155906588E-004;-2.492361702024937E-003;-1.922311785165221E-004;
2.409333333333334E+009;1.748979687690735E-001;-8.893173653632402E-004;-2.618370577692986E-003;-3.591574786696583E-004;
2.409500000000000E+009;1.740511059761047E-001;-2.325497800484300E-003;-2.542674541473389E-003;-7.621706026839092E-005;
2.409666666666667E+009;1.734438240528107E-001;-3.584978403523564E-003;-2.461190568283200E-003;-8.347303810296580E-005;
2.409833333333334E+009;1.726116836071014E-001;-4.711205139756203E-003;-2.439956180751324E-003;1.168521612271434E-005;
2.410000000000000E+009;1.720848232507706E-001;-6.378096528351307E-003;-2.429301617667079E-003;4.518831337918527E-005;
2.410166666666667E+009;1.716346144676209E-001;-8.003118447959423E-003;-2.528083045035601E-003;-3.049696533707902E-005;
2.410333333333334E+009;1.708389073610306E-001;-9.551990777254105E-003;-2.495481865480542E-003;8.689569222042337E-005;
2.410500000000000E+009;1.703419238328934E-001;-1.124147232621908E-002;-2.367779612541199E-003;8.878272637957707E-005;
2.410666666666667E+009;1.697628796100617E-001;-1.328672748059034E-002;-2.333921147510409E-003;1.115993727580644E-004;
2.410833333333334E+009;1.694392561912537E-001;-1.491332333534956E-002;-2.388359513133764E-003;1.418944302713499E-004;
2.411000000000000E+009;1.691605299711227E-001;-1.677119173109531E-002;-2.603229135274887E-003;1.115229970309883E-004;
2.411166666666667E+009;1.687169671058655E-001;-1.855389587581158E-002;-2.483613323420286E-003;2.079298137687147E-004;
2.411333333333334E+009;1.684973984956741E-001;-2.043656259775162E-002;-2.588808303698897E-003;2.548108168412000E-004;
2.411500000000000E+009;1.682074069976807E-001;-2.255968190729618E-002;-2.754481043666601E-003;2.937553799711168E-004;
2.411666666666667E+009;1.682962626218796E-001;-2.444312348961830E-002;-2.711992710828781E-003;4.270558129064739E-004;
2.411833333333334E+009;1.680791229009628E-001;-2.611269988119602E-002;-2.772123087197542E-003;5.607075290754437E-004;
2.412000000000000E+009;1.684782952070236E-001;-2.821021527051926E-002;-2.663267776370049E-003;6.454563699662685E-004;
2.412166666666667E+009;1.683055162429810E-001;-3.028504177927971E-002;-2.661895938217640E-003;4.764256591442972E-004;
2.412333333333334E+009;1.687652319669724E-001;-3.205487132072449E-002;-2.854929538443685E-003;7.714331150054932E-004;
2.412500000000000E+009;1.687979847192764E-001;-3.389896452426910E-002;-2.871199278160930E-003;8.956132223829627E-004;
2.412666666666667E+009;1.691343784332275E-001;-3.606161102652550E-002;-2.763201016932726E-003;9.940986055880785E-004;
2.412833333333334E+009;1.695634126663208E-001;-3.780757263302803E-002;-2.793837105855346E-003;1.165253226645291E-003;
2.413000000000000E+009;1.699426025152206E-001;-3.943698853254318E-002;-2.897926373407245E-003;1.440278836525977E-003;
2.413166666666667E+009;1.704189926385880E-001;-4.130952805280685E-002;-2.746942685917020E-003;1.424559042789042E-003;
2.413333333333334E+009;1.707703471183777E-001;-4.284362494945526E-002;-2.553214086219668E-003;1.579593983478844E-003;
2.413500000000000E+009;1.711707860231400E-001;-4.442988336086273E-002;-2.735081594437361E-003;1.661904272623360E-003;
2.413666666666667E+009;1.719975620508194E-001;-4.603558778762817E-002;-2.709135646000505E-003;1.743998844176531E-003;
2.413833333333334E+009;1.723468899726868E-001;-4.768171906471252E-002;-2.557879779487848E-003;2.009098185226321E-003;
2.414000000000000E+009;1.729126572608948E-001;-4.900714382529259E-002;-2.552471822127700E-003;2.008030656725168E-003;
2.414166666666667E+009;1.734418421983719E-001;-5.026555061340332E-002;-2.474206732586026E-003;2.207125769928098E-003;
2.414333333333334E+009;1.740489006042481E-001;-5.164136737585068E-002;-2.353465184569359E-003;2.451849402859807E-003;
2.414500000000000E+009;1.746655553579330E-001;-5.283157899975777E-002;-2.401929581537843E-003;2.287057228386402E-003;
2.414666666666667E+009;1.752059012651444E-001;-5.370479077100754E-002;-2.102170372381806E-003;2.414502203464508E-003;
2.414833333333334E+009;1.755686104297638E-001;-5.483501404523850E-002;-1.972712809219956E-003;2.630904549732804E-003;
2.415000000000000E+009;1.759339123964310E-001;-5.575825273990631E-002;-1.971746794879437E-003;2.624169923365116E-003;
2.415166666666667E+009;1.764152348041534E-001;-5.644170939922333E-002;-1.862508128397167E-003;2.672822680324316E-003;
2.415333333333334E+009;1.768317073583603E-001;-5.729755386710167E-002;-1.660939538851380E-003;2.745419507846236E-003;
2.415500000000000E+009;1.771219819784164E-001;-5.778943002223969E-002;-1.559727475978434E-003;2.932540839537978E-003;
2.415666666666667E+009;1.773098856210709E-001;-5.837576091289520E-002;-1.492955838330090E-003;2.874596044421196E-003;
2.415833333333334E+009;1.776853054761887E-001;-5.887058749794960E-002;-1.204864471219480E-003;2.972965128719807E-003;
2.416000000000000E+009;1.778253763914108E-001;-5.935084819793701E-002;-1.282530138269067E-003;3.006870625540614E-003;
2.416166666666667E+009;1.779839396476746E-001;-5.974370241165161E-002;-9.479685686528683E-004;3.094268264248967E-003;
2.416333333333334E+009;1.778120696544647E-001;-6.004520133137703E-002;-1.095019862987101E-003;3.079136367887259E-003;
2.416500000000000E+009;1.776802241802216E-001;-6.034939736127853E-002;-9.638475021347404E-004;3.059842158108950E-003;
2.416666666666667E+009;1.775322705507278E-001;-6.055810302495956E-002;-8.101248531602323E-004;2.959237433969975E-003;
2.416833333333334E+009;1.773595809936523E-001;-6.087321788072586E-002;-6.378825637511909E-004;2.922536805272102E-003;
2.417000000000000E+009;1.768345385789871E-001;-6.114104017615318E-002;-4.925972316414118E-004;3.015752183273435E-003;
2.417166666666667E+009;1.764009594917297E-001;-6.124353408813477E-002;-5.472389166243374E-004;3.137810388579965E-003;
2.417333333333334E+009;1.758684962987900E-001;-6.136784330010414E-002;-2.020371466642246E-004;3.135822247713804E-003;
2.417500000000000E+009;1.752241253852844E-001;-6.173081323504448E-002;-1.345301570836455E-004;2.974486211314797E-003;
2.417666666666667E+009;1.746317297220230E-001;-6.191738322377205E-002;-1.368652010569349E-004;2.928538946434856E-003;
2.417833333333334E+009;1.738284677267075E-001;-6.216105818748474E-002;-2.091307942464482E-005;3.043260890990496E-003;
2.418000000000000E+009;1.728739589452744E-001;-6.257547438144684E-002;8.551809150958434E-005;3.080699592828751E-003;
2.418166666666667E+009;1.720249503850937E-001;-6.272232532501221E-002;2.416080387774855E-004;2.982683246955276E-003;
2.418333333333334E+009;1.713263243436813E-001;-6.326450407505035E-002;2.697152376640588E-004;2.983052982017398E-003;
2.418500000000000E+009;1.701162904500961E-001;-6.357138603925705E-002;3.417818516027182E-004;2.881736261770129E-003;
2.418666666666667E+009;1.690849661827087E-001;-6.413196772336960E-002;4.925896064378321E-004;3.033060347661376E-003;
2.418833333333334E+009;1.677262634038925E-001;-6.468325853347778E-002;5.379990907385945E-004;3.145966213196516E-003;
2.419000000000000E+009;1.665434837341309E-001;-6.525155156850815E-002;6.500761955976486E-004;2.945636864751577E-003;
2.419166666666667E+009;1.656596213579178E-001;-6.586451083421707E-002;6.535106804221869E-004;2.877600258216262E-003;
2.419333333333334E+009;1.641016602516174E-001;-6.646787375211716E-002;8.102717110887170E-004;2.892203163355589E-003;
2.419500000000000E+009;1.630440205335617E-001;-6.740383058786392E-002;1.070334226824343E-003;2.910730894654989E-003;
2.419666666666667E+009;1.618891954421997E-001;-6.831401586532593E-002;9.954258566722274E-004;2.705257385969162E-003;
2.419833333333334E+009;1.606479585170746E-001;-6.908218562602997E-002;1.134063117206097E-003;2.629135269671679E-003;
2.420000000000000E+009;1.594853848218918E-001;-7.016360759735107E-002;1.180579769425094E-003;2.515420783311129E-003;
2.420166666666667E+009;1.584891825914383E-001;-7.141201198101044E-002;1.204665168188512E-003;2.518390771001577E-003;
2.420333333333334E+009;1.575176566839218E-001;-7.269939035177231E-002;1.393220038153231E-003;2.397175645455718E-003;
2.420500000000000E+009;1.565054059028626E-001;-7.357309013605118E-002;1.375453430227935E-003;2.398215467110276E-003;
2.420666666666667E+009;1.552850902080536E-001;-7.497391104698181E-002;1.457734615541995E-003;2.419654047116637E-003;
2.420833333333334E+009;1.544418185949326E-001;-7.649809122085571E-002;1.395912957377732E-003;2.369407331570983E-003;
2.421000000000000E+009;1.535231024026871E-001;-7.795780152082443E-002;1.560042728669941E-003;2.245021052658558E-003;
2.421166666666667E+009;1.528668403625488E-001;-7.936890423297882E-002;1.570204971358180E-003;2.317184815183282E-003;
2.421333333333334E+009;1.522043794393539E-001;-8.104497194290161E-002;1.715060672722757E-003;2.237964188680053E-003;
2.421500000000000E+009;1.515838056802750E-001;-8.258622884750366E-002;1.713872305117548E-003;2.143350895494223E-003;
2.421666666666667E+009;1.509814113378525E-001;-8.417996019124985E-002;1.777073135599494E-003;2.035395707935095E-003;
2.421833333333334E+009;1.505279242992401E-001;-8.569095283746719E-002;1.869723084382713E-003;2.183984266594052E-003;
2.422000000000000E+009;1.500916928052902E-001;-8.749643713235855E-002;1.818571239709854E-003;2.132365945726633E-003;
2.422166666666667E+009;1.497462391853333E-001;-8.933486044406891E-002;1.921488204970956E-003;1.928084762766957E-003;
2.422333333333334E+009;1.497185528278351E-001;-9.105249494314194E-002;2.044818829745054E-003;1.957569038495421E-003;
2.422500000000000E+009;1.495099961757660E-001;-9.254170954227448E-002;2.016465878114104E-003;1.786674838513136E-003;
2.422666666666667E+009;1.493420153856278E-001;-9.435982257127762E-002;2.090491121634841E-003;1.732103643007577E-003;
2.422833333333334E+009;1.496158093214035E-001;-9.611392021179199E-002;2.120289718732238E-003;1.700173132121563E-003;
2.423000000000000E+009;1.495062112808228E-001;-9.777300804853439E-002;2.083043567836285E-003;1.642380258999765E-003;
2.423166666666667E+009;1.497691720724106E-001;-9.945260733366013E-002;2.251663012430072E-003;1.713291509076953E-003;
2.423333333333334E+009;1.499858796596527E-001;-1.008420586585999E-001;2.254460938274860E-003;1.546639949083328E-003;
2.423500000000000E+009;1.503387242555618E-001;-1.024541631340981E-001;2.378707518801093E-003;1.349186873994768E-003;
2.423666666666667E+009;1.505147814750671E-001;-1.040772274136543E-001;2.445716643705964E-003;1.187854912132025E-003;
2.423833333333334E+009;1.510238945484161E-001;-1.054147407412529E-001;2.576345810666680E-003;1.363827264867723E-003;
2.424000000000000E+009;1.513473838567734E-001;-1.065856441855431E-001;2.553866710513830E-003;1.058246474713087E-003;
2.424166666666667E+009;1.516741514205933E-001;-1.080531254410744E-001;2.705962164327502E-003;1.154465950094163E-003;
2.424333333333334E+009;1.523159146308899E-001;-1.091827750205994E-001;2.462400589138269E-003;9.155037114396691E-004;
2.424500000000000E+009;1.528417021036148E-001;-1.103677451610565E-001;2.723263576626778E-003;9.215240133926272E-004;
2.424666666666667E+009;1.533676832914352E-001;-1.111429557204247E-001;2.684333361685276E-003;1.102081849239767E-003;
2.424833333333334E+009;1.535712927579880E-001;-1.123602911829948E-001;2.755631925538182E-003;7.596872164867818E-004;
2.425000000000000E+009;1.541959494352341E-001;-1.133006587624550E-001;2.631961135193706E-003;6.498057628050447E-004;
2.425166666666667E+009;1.543871015310288E-001;-1.141433119773865E-001;2.810060512274504E-003;4.436254384927452E-004;
2.425333333333334E+009;1.549926251173019E-001;-1.148313730955124E-001;2.817048458382487E-003;4.103246610611677E-004;
2.425500000000000E+009;1.553903520107269E-001;-1.156103089451790E-001;2.807465847581625E-003;2.273686113767326E-004;
2.425666666666667E+009;1.555710881948471E-001;-1.161907091736794E-001;2.617113990709186E-003;1.468026457587257E-004;
2.425833333333334E+009;1.558821201324463E-001;-1.168132871389389E-001;2.721628639847040E-003;4.981380243407330E-006;
2.426000000000000E+009;1.559754312038422E-001;-1.172671392560005E-001;2.858647610992193E-003;-2.386516425758600E-004;
2.426166666666667E+009;1.563455164432526E-001;-1.175531297922134E-001;2.720077289268374E-003;-1.765682827681303E-004;
2.426333333333334E+009;1.563178002834320E-001;-1.179252266883850E-001;2.633173717185855E-003;-4.035148303955793E-004;
2.426500000000000E+009;1.563504785299301E-001;-1.182482019066811E-001;2.737503498792648E-003;-4.507027042564005E-004;
2.426666666666667E+009;1.565103381872177E-001;-1.183117553591728E-001;2.639136044308543E-003;-4.817999433726072E-004;
2.426833333333334E+009;1.561911702156067E-001;-1.185398697853088E-001;2.573342295363545E-003;-4.889181000180543E-004;
2.427000000000000E+009;1.559599637985230E-001;-1.188831105828285E-001;2.494954271242023E-003;-6.217240006662905E-004;
2.427166666666667E+009;1.556461155414581E-001;-1.188535839319229E-001;2.267571631819010E-003;-8.169191423803568E-004;
2.427333333333334E+009;1.551726907491684E-001;-1.190366372466087E-001;2.462666248902679E-003;-8.173341630026698E-004;
2.427500000000000E+009;1.547773182392120E-001;-1.190836429595947E-001;2.341577317565680E-003;-8.242828189395368E-004;
2.427666666666667E+009;1.541009098291397E-001;-1.192319840192795E-001;2.255568280816078E-003;-8.982531726360321E-004;
