# Version 1.00
#
freq[Hz];re:Trc1_S11;im:Trc1_S11;re:Trc2_S21;im:Trc2_S21;
2.400000000000000E+009;1.583390384912491E-001;6.266772001981735E-002;1.296848873607814E-003;-1.707210321910679E-003;
2.400166666666667E+009;1.583129614591599E-001;6.108758226037026E-002;1.271728193387389E-003;-1.656175707466900E-003;
2.400333333333334E+009;1.580960750579834E-001;5.913042277097702E-002;1.272055902518332E-003;-2.022835658863187E-003;
2.400500000000000E+009;1.582189351320267E-001;5.734669789671898E-002;1.160155516117811E-003;-1.981828361749649E-003;
2.400666666666667E+009;1.581405252218247E-001;5.535252019762993E-002;1.173274591565132E-003;-2.096839249134064E-003;
2.400833333333334E+009;1.581804752349854E-001;5.344688892364502E-002;1.236449461430311E-003;-2.112698974087834E-003;
2.401000000000000E+009;1.582674831151962E-001;5.136344581842423E-002;1.225302577950060E-003;-2.183345844969153E-003;
2.401166666666667E+009;1.584748923778534E-001;4.925520718097687E-002;1.047747791744769E-003;-2.288152463734150E-003;
2.401333333333334E+009;1.587537527084351E-001;4.712907597422600E-002;1.047131954692304E-003;-2.513329498469830E-003;
2.401500000000000E+009;1.590989083051682E-001;4.505309835076332E-002;1.032858854159713E-003;-2.525021787732840E-003;
2.401666666666667E+009;1.592816859483719E-001;4.326013475656509E-002;7.664499571546912E-004;-2.561078406870365E-003;
2.401833333333334E+009;1.596946120262146E-001;4.111104831099510E-002;9.867493063211441E-004;-2.562221139669418E-003;
2.402000000000000E+009;1.600444912910461E-001;3.899672999978066E-002;8.291211561299861E-004;-2.814164850860834E-003;
2.402166666666667E+009;1.604943424463272E-001;3.699665144085884E-002;5.814965115860105E-004;-2.899673068895936E-003;
2.402333333333334E+009;1.613239198923111E-001;3.530431166291237E-002;4.896111786365509E-004;-3.137015737593174E-003;
2.402500000000000E+009;1.619333326816559E-001;3.332645073533058E-002;3.134929866064340E-004;-2.940393984317780E-003;
2.402666666666667E+009;1.623722761869431E-001;3.160916641354561E-002;1.700994471320882E-004;-3.312067594379187E-003;
2.402833333333334E+009;1.632684469223023E-001;3.004221990704536E-002;1.094099206966348E-004;-3.309631487354636E-003;
2.403000000000000E+009;1.639853566884995E-001;2.829692140221596E-002;-1.251083886018023E-004;-3.327162237837911E-003;
2.403166666666667E+009;1.648912727832794E-001;2.672822214663029E-002;-1.543900580145419E-004;-3.207084489986301E-003;
2.403333333333334E+009;1.657618135213852E-001;2.533090673387051E-002;-5.988855264149606E-004;-3.232435090467334E-003;
2.403500000000000E+009;1.666830182075501E-001;2.390918508172035E-002;-7.727958727627993E-004;-3.450668649747968E-003;
2.403666666666667E+009;1.676219552755356E-001;2.251443825662136E-002;-9.170916746370494E-004;-3.435783786699176E-003;
2.403833333333334E+009;1.686033904552460E-001;2.111517265439034E-002;-1.191900577396154E-003;-3.230056958273053E-003;
2.404000000000000E+009;1.696341931819916E-001;1.996101252734661E-002;-1.210533431731165E-003;-3.366900142282248E-003;
2.404166666666667E+009;1.703853160142899E-001;1.877648383378983E-002;-1.270408392883837E-003;-3.216491546481848E-003;
2.404333333333334E+009;1.712925583124161E-001;1.772246696054936E-002;-1.493681338615716E-003;-3.116849111393094E-003;
2.404500000000000E+009;1.723155975341797E-001;1.664190180599690E-002;-1.742358203046024E-003;-3.067764453589916E-003;
2.404666666666667E+009;1.732120811939240E-001;1.596795208752155E-002;-1.906573539599776E-003;-2.876581158488989E-003;
2.404833333333334E+009;1.741231381893158E-001;1.513515505939722E-002;-2.068237634375691E-003;-2.793404972180724E-003;
2.405000000000000E+009;1.749806106090546E-001;1.430621277540922E-002;-2.205217489972711E-003;-2.668545348569751E-003;
2.405166666666667E+009;1.758489906787872E-001;1.374734658747912E-002;-2.219205489382148E-003;-2.633585128933191E-003;
2.405333333333334E+009;1.766069382429123E-001;1.307677570730448E-002;-2.208719495683909E-003;-2.356982557103038E-003;
2.405500000000000E+009;1.773858666419983E-001;1.259139925241470E-002;-2.412036992609501E-003;-2.221564063802362E-003;
2.405666666666667E+009;1.779545545578003E-001;1.216375548392534E-002;-2.407104941084981E-003;-2.132803434506059E-003;
2.405833333333334E+009;1.783586144447327E-001;1.181504502892494E-002;-2.597125247120857E-003;-1.971993595361710E-003;
2.406000000000000E+009;1.789110898971558E-001;1.122902706265450E-002;-2.381242578849196E-003;-1.846010331064463E-003;
2.406166666666667E+009;1.793420910835266E-001;1.103734411299229E-002;-2.528869081288576E-003;-1.809774781577289E-003;
2.406333333333334E+009;1.799294352531433E-001;1.075229607522488E-002;-2.633602591231465E-003;-1.548484782688320E-003;
2.406500000000000E+009;1.800538450479507E-001;1.035930868238211E-002;-2.573819365352392E-003;-1.592042041011155E-003;
2.406666666666667E+009;1.801332682371140E-001;1.000803522765636E-002;-2.716575516387820E-003;-1.363233313895762E-003;
2.406833333333334E+009;1.803926676511765E-001;9.679399430751801E-003;-2.647521905601025E-003;-1.140704960562289E-003;
2.407000000000000E+009;1.806175261735916E-001;9.310773573815823E-003;-2.711114706471562E-003;-1.333506777882576E-003;
2.407166666666667E+009;1.806596368551254E-001;9.095106273889542E-003;-2.747993683442473E-003;-1.124053960666060E-003;
2.407333333333334E+009;1.803780347108841E-001;8.446652442216873E-003;-2.676048316061497E-003;-9.975779103115201E-004;
2.407500000000000E+009;1.803424358367920E-001;8.238624781370163E-003;-2.630751579999924E-003;-9.668716229498386E-004;
2.407666666666667E+009;1.801400333642960E-001;7.755890954285860E-003;-2.668869681656361E-003;-7.516876794397831E-004;
2.407833333333334E+009;1.797156035900116E-001;7.017656695097685E-003;-2.700031036511064E-003;-6.976373842917383E-004;
2.408000000000000E+009;1.794109195470810E-001;6.403668783605099E-003;-2.812323858961463E-003;-6.522570620290935E-004;
2.408166666666667E+009;1.789136081933975E-001;5.996213760226965E-003;-2.762311138212681E-003;-5.562624428421259E-004;
2.408333333333334E+009;1.786258965730667E-001;5.336614791303873E-003;-2.700402634218335E-003;-4.116971394978464E-004;
2.408500000000000E+009;1.778929829597473E-001;4.348869435489178E-003;-2.613537944853306E-003;-3.506502253003418E-004;
2.408666666666667E+009;1.774212270975113E-001;3.452276112511754E-003;-2.571647288277745E-003;-3.954663989134133E-004;
2.408833333333334E+009;1.768340468406677E-001;2.495147753506899E-003;-2.484136726707220E-003;-3.988137177657336E-004;
2.409000000000000E+009;1.760923713445664E-001;1.537881558761001E-003;-2.664030529558659E-003;-2.562628360465169E-004;
2.409166666666667E+009;1.754776835441589E-001;4.089288995601237E-004;-2.588443690910935E-003;-2.308495604665950E-004;
2.409333333333334E+009;1.748861074447632E-001;-9.858590783551335E-004;-2.596759703010321E-003;-1.568296283949167E-004;
2.409500000000000E+009;1.742065399885178E-001;-2.161159878596664E-003;-2.357441466301680E-003;-1.827279775170609E-004;
2.409666666666667E+009;1.734933406114578E-001;-3.599175950512290E-003;-2.404520986601710E-003;-8.757267642067745E-005;
2.409833333333334E+009;1.727514117956162E-001;-5.007216706871986E-003;-2.533381571993232E-003;-1.467205152039242E-006;
2.410000000000000E+009;1.722220331430435E-001;-6.304038222879171E-003;-2.532808575779200E-003;-4.431738125276752E-005;
2.410166666666667E+009;1.715342849493027E-001;-8.000740781426430E-003;-2.461353549733758E-003;1.891670108307153E-004;
2.410333333333334E+009;1.708556264638901E-001;-9.689565747976303E-003;-2.395488787442446E-003;2.692962880246341E-004;
2.410500000000000E+009;1.703642606735230E-001;-1.139144133776426E-002;-2.576661529019475E-003;1.996697537833825E-004;
2.410666666666667E+009;1.699195951223373E-001;-1.310870423913002E-002;-2.534815575927496E-003;2.179962320951745E-004;
2.410833333333334E+009;1.693693846464157E-001;-1.501486916095018E-002;-2.445983700454235E-003;1.295354886678979E-004;
2.411000000000000E+009;1.691544055938721E-001;-1.662846095860004E-002;-2.411108696833253E-003;2.788222627714276E-004;
2.411166666666667E+009;1.689962446689606E-001;-1.866133138537407E-002;-2.647185698151588E-003;2.816179185174406E-004;
2.411333333333334E+009;1.685182452201843E-001;-2.050183340907097E-002;-2.512254053726792E-003;4.650181508623064E-004;
2.411500000000000E+009;1.681856513023377E-001;-2.255449071526527E-002;-2.574395854026079E-003;4.214404616504908E-004;
2.411666666666667E+009;1.682454496622086E-001;-2.442941628396511E-002;-2.705094637349248E-003;4.006637900602073E-004;
2.411833333333334E+009;1.683011054992676E-001;-2.630854770541191E-002;-2.679573604837060E-003;6.581071647815406E-004;
2.412000000000000E+009;1.683503538370132E-001;-2.829498425126076E-002;-2.720609772950411E-003;6.050030351616442E-004;
2.412166666666667E+009;1.682787686586380E-001;-3.030378371477127E-002;-2.747776219621301E-003;6.788420723751187E-004;
2.412333333333334E+009;1.686083674430847E-001;-3.208638727664948E-002;-2.859102096408606E-003;7.585041457787156E-004;
2.412500000000000E+009;1.687029302120209E-001;-3.393729031085968E-002;-2.668184228241444E-003;9.903520112857223E-004;
2.412666666666667E+009;1.690994352102280E-001;-3.602674230933189E-002;-2.721693366765976E-003;9.679803624749184E-004;
2.412833333333334E+009;1.696532219648361E-001;-3.779572620987892E-002;-2.766963792964816E-003;1.062908908352256E-003;
2.413000000000000E+009;1.698171496391296E-001;-3.948744386434555E-002;-2.704721176996827E-003;1.356863533146679E-003;
2.413166666666667E+009;1.702597737312317E-001;-4.124146327376366E-002;-2.681684680283070E-003;1.309024984948337E-003;
2.413333333333334E+009;1.706090569496155E-001;-4.289940744638443E-002;-2.617415273562074E-003;1.423040172085166E-003;
2.413500000000000E+009;1.711646467447281E-001;-4.448292776942253E-002;-2.570031210780144E-003;1.539053511805832E-003;
2.413666666666667E+009;1.718777418136597E-001;-4.623058065772057E-002;-2.662043552845717E-003;1.697184052318335E-003;
2.413833333333334E+009;1.721639186143875E-001;-4.759065806865692E-002;-2.482964657247067E-003;1.817804062739015E-003;
2.414000000000000E+009;1.727126538753510E-001;-4.903494566679001E-002;-2.599246334284544E-003;2.047696383669972E-003;
2.414166666666667E+009;1.734350770711899E-001;-5.025115236639977E-002;-2.460278570652008E-003;2.097641117870808E-003;
2.414333333333334E+009;1.739835590124130E-001;-5.149111896753311E-002;-2.345146844163537E-003;2.253059064969420E-003;
2.414500000000000E+009;1.746913492679596E-001;-5.259839072823525E-002;-2.056603785604239E-003;2.372787101194263E-003;
2.414666666666667E+009;1.751317083835602E-001;-5.369855463504791E-002;-2.072977833449841E-003;2.395690418779850E-003;
2.414833333333334E+009;1.755735874176025E-001;-5.482416227459908E-002;-1.965802861377597E-003;2.488641534000635E-003;
2.415000000000000E+009;1.760756969451904E-001;-5.565821006894112E-002;-1.824993174523115E-003;2.673713956028223E-003;
2.415166666666667E+009;1.763789653778076E-001;-5.646045506000519E-002;-1.689182245172560E-003;2.640972845256329E-003;
2.415333333333334E+009;1.768744736909866E-001;-5.722881481051445E-002;-1.748726237565279E-003;2.819123910740018E-003;
2.415500000000000E+009;1.771794557571411E-001;-5.780986323952675E-002;-1.611431478522718E-003;2.678985241800547E-003;
2.415666666666667E+009;1.773915439844132E-001;-5.829287692904472E-002;-1.401213463395834E-003;2.929377136752009E-003;
2.415833333333334E+009;1.775943934917450E-001;-5.889143794775009E-002;-1.442168490029872E-003;2.875923179090023E-003;
2.416000000000000E+009;1.776472479104996E-001;-5.924359709024429E-002;-1.150040654465556E-003;2.981319557875395E-003;
2.416166666666667E+009;1.779241263866425E-001;-5.963271856307983E-002;-1.082374365068972E-003;2.798104658722878E-003;
2.416333333333334E+009;1.778214275836945E-001;-5.994033813476563E-002;-7.974878535605967E-004;2.974546281620860E-003;
2.416500000000000E+009;1.777822822332382E-001;-6.037971004843712E-002;-8.637610008008778E-004;3.025192068889737E-003;
2.416666666666667E+009;1.774889528751373E-001;-6.059702485799789E-002;-7.873879512771964E-004;2.988216234371066E-003;
2.416833333333334E+009;1.773485243320465E-001;-6.091541051864624E-002;-7.122324313968420E-004;3.046721220016480E-003;
2.417000000000000E+009;1.767933517694473E-001;-6.116081401705742E-002;-5.265779909677804E-004;3.023230470716953E-003;
2.417166666666667E+009;1.763322204351425E-001;-6.131218001246452E-002;-3.220233484171331E-004;3.054783446714282E-003;
2.417333333333334E+009;1.759388148784638E-001;-6.141818687319756E-002;-3.258860961068422E-004;3.089632606133819E-003;
2.417500000000000E+009;1.753074377775192E-001;-6.182664260268211E-002;-2.635476121213287E-004;3.163493005558848E-003;
2.417666666666667E+009;1.745669543743134E-001;-6.197522208094597E-002;-1.310544030275196E-004;3.183074994012713E-003;
2.417833333333334E+009;1.737009286880493E-001;-6.223736703395844E-002;-1.871635322459042E-005;3.178711514919996E-003;
2.418000000000000E+009;1.728187054395676E-001;-6.263637542724609E-002;8.788055856712163E-005;2.963208360597491E-003;
2.418166666666667E+009;1.720387339591980E-001;-6.279461085796356E-002;1.576748909428716E-004;3.237840253859758E-003;
2.418333333333334E+009;1.711795181035996E-001;-6.335477530956268E-002;3.440674045123160E-004;3.019582713022828E-003;
2.418500000000000E+009;1.700203865766525E-001;-6.355059146881104E-002;4.085595719516277E-004;3.005412640050054E-003;
2.418666666666667E+009;1.690424382686615E-001;-6.416251510381699E-002;5.442260880954564E-004;3.034635214135051E-003;
2.418833333333334E+009;1.677962094545364E-001;-6.469930708408356E-002;6.853860686533153E-004;2.967982785776258E-003;
2.419000000000000E+009;1.666481643915176E-001;-6.519369781017304E-002;6.818241672590375E-004;2.913639415055513E-003;
2.419166666666667E+009;1.655026823282242E-001;-6.603996455669403E-002;7.454110891558230E-004;2.913024742156267E-003;
2.419333333333334E+009;1.641450375318527E-001;-6.650284677743912E-002;8.425225969403982E-004;2.827656222507358E-003;
2.419500000000000E+009;1.630006879568100E-001;-6.738618016242981E-002;9.530690149404109E-004;2.707177773118019E-003;
2.419666666666667E+009;1.619161218404770E-001;-6.843832135200501E-002;1.035113702528179E-003;2.637280384078622E-003;
2.419833333333334E+009;1.607173681259155E-001;-6.929659843444824E-002;1.069059479050338E-003;2.663105959072709E-003;
2.420000000000000E+009;1.595835089683533E-001;-7.025703042745590E-002;1.176118850708008E-003;2.735674148425460E-003;
2.420166666666667E+009;1.585170626640320E-001;-7.134926319122315E-002;1.308323699049652E-003;2.613950055092573E-003;
2.420333333333334E+009;1.574757397174835E-001;-7.264643162488937E-002;1.203608815558255E-003;2.647891640663147E-003;
2.420500000000000E+009;1.564269810914993E-001;-7.370593398809433E-002;1.392718520946801E-003;2.592064673081040E-003;
2.420666666666667E+009;1.552634239196777E-001;-7.497557252645493E-002;1.446278765797615E-003;2.336431760340929E-003;
2.420833333333334E+009;1.544893682003021E-001;-7.636142522096634E-002;1.519641722552478E-003;2.445958089083433E-003;
2.421000000000000E+009;1.536109745502472E-001;-7.780442386865616E-002;1.629181671887636E-003;2.203915035352111E-003;
2.421166666666667E+009;1.528397500514984E-001;-7.940500974655151E-002;1.712958095595241E-003;2.300890162587166E-003;
2.421333333333334E+009;1.521974951028824E-001;-8.101512491703033E-002;1.639294088818133E-003;2.177036600187421E-003;
2.421500000000000E+009;1.514084488153458E-001;-8.254555612802506E-002;1.692043268121779E-003;2.172817243263125E-003;
2.421666666666667E+009;1.509437561035156E-001;-8.426405489444733E-002;1.671187928877771E-003;2.087505999952555E-003;
2.421833333333334E+009;1.504880338907242E-001;-8.588970452547073E-002;1.848527113907039E-003;2.189087914302945E-003;
2.422000000000000E+009;1.500354260206223E-001;-8.764930069446564E-002;1.847451669164002E-003;2.138552023097873E-003;
2.422166666666667E+009;1.499892771244049E-001;-8.943423628807068E-002;1.946426345966756E-003;2.032169606536627E-003;
2.422333333333334E+009;1.495462954044342E-001;-9.104165434837341E-002;1.909319078549743E-003;1.767235458828509E-003;
2.422500000000000E+009;1.494802981615067E-001;-9.252680093050003E-002;2.056123223155737E-003;1.776578603312373E-003;
2.422666666666667E+009;1.493869721889496E-001;-9.425746649503708E-002;2.045396715402603E-003;1.713625621050596E-003;
2.422833333333334E+009;1.493722200393677E-001;-9.617034345865250E-002;2.092974027618766E-003;1.788981491699815E-003;
2.423000000000000E+009;1.494930535554886E-001;-9.772900491952896E-002;2.246354473754764E-003;1.692362711764872E-003;
2.423166666666667E+009;1.498361378908157E-001;-9.941354393959045E-002;2.252696780487895E-003;1.540051540359855E-003;
2.423333333333334E+009;1.499719917774200E-001;-1.008627265691757E-001;2.357575809583068E-003;1.462583313696086E-003;
2.423500000000000E+009;1.503028869628906E-001;-1.025022193789482E-001;2.315878868103027E-003;1.401987974531949E-003;
2.423666666666667E+009;1.504006832838059E-001;-1.041038706898689E-001;2.320109633728862E-003;1.355870743282139E-003;
2.423833333333334E+009;1.509691774845123E-001;-1.054498776793480E-001;2.301895525306463E-003;1.271625631488860E-003;
2.424000000000000E+009;1.513167768716812E-001;-1.066472455859184E-001;2.606856636703014E-003;1.192827243357897E-003;
2.424166666666667E+009;1.516817361116409E-001;-1.080570146441460E-001;2.694925758987665E-003;1.015055342577398E-003;
2.424333333333334E+009;1.523148566484451E-001;-1.092570945620537E-001;2.543183509260416E-003;1.020545838400722E-003;
2.424500000000000E+009;1.528278738260269E-001;-1.104343533515930E-001;2.656360156834126E-003;9.985350770875812E-004;
2.424666666666667E+009;1.532836258411408E-001;-1.113934591412544E-001;2.621515188366175E-003;9.077270515263081E-004;
2.424833333333334E+009;1.536454707384110E-001;-1.123251244425774E-001;2.763974014669657E-003;7.461631903424859E-004;
2.425000000000000E+009;1.541104912757874E-001;-1.133611202239990E-001;2.756181173026562E-003;5.498139653354883E-004;
2.425166666666667E+009;1.544691324234009E-001;-1.140978261828423E-001;2.705443417653441E-003;5.969105404801667E-004;
2.425333333333334E+009;1.548899263143539E-001;-1.148869022727013E-001;2.784236799925566E-003;3.988142416346818E-004;
2.425500000000000E+009;1.554311811923981E-001;-1.156244724988937E-001;2.699408913031220E-003;3.498362493701279E-004;
2.425666666666667E+009;1.556399166584015E-001;-1.162455305457115E-001;2.875642152503133E-003;2.450922329444438E-004;
2.425833333333334E+009;1.558540612459183E-001;-1.167698204517365E-001;2.757197245955467E-003;-3.589536936488003E-005;
2.426000000000000E+009;1.561365276575089E-001;-1.173173189163208E-001;2.732543507590890E-003;-4.900924250250682E-005;
2.426166666666667E+009;1.564005017280579E-001;-1.176148802042007E-001;2.560965484008193E-003;-5.593259265879169E-005;
2.426333333333334E+009;1.562782377004623E-001;-1.179699301719666E-001;2.629982773214579E-003;-3.262624377384782E-004;
2.426500000000000E+009;1.563772708177567E-001;-1.182299479842186E-001;2.599842380732298E-003;-3.883564786519855E-004;
2.426666666666667E+009;1.565283685922623E-001;-1.183354184031487E-001;2.636252436786890E-003;-4.200931871309876E-004;
2.426833333333334E+009;1.562126129865646E-001;-1.186044886708260E-001;2.520316513255239E-003;-5.450511234812439E-004;
2.427000000000000E+009;1.559072881937027E-001;-1.190002560615540E-001;2.547570038586855E-003;-5.917537491768599E-004;
2.427166666666667E+009;1.555946171283722E-001;-1.188493892550468E-001;2.451872220262885E-003;-7.261550053954125E-004;
2.427333333333334E+009;1.550806015729904E-001;-1.191087439656258E-001;2.286495408043265E-003;-9.004991734400392E-004;
2.427500000000000E+009;1.546179056167603E-001;-1.191678419709206E-001;2.361673163250089E-003;-8.595864637754858E-004;
2.427666666666667E+009;1.539624780416489E-001;-1.193041503429413E-001;2.222749637439847E-003;-9.497650316916406E-004;
