# Version 1.00
#
freq[Hz];re:Trc1_S11;im:Trc1_S11;re:Trc2_S21;im:Trc2_S21;
2.400000000000000E+009;1.582821607589722E-001;6.264919787645340E-002;1.405160874128342E-003;-1.893409644253552E-003;
2.400166666666667E+009;1.581811457872391E-001;6.107874587178230E-002;1.370686572045088E-003;-1.778524834662676E-003;
2.400333333333334E+009;1.580612659454346E-001;5.915331467986107E-002;1.222368329763413E-003;-1.765192602761090E-003;
2.400500000000000E+009;1.580155938863754E-001;5.723129957914352E-002;1.262715784832835E-003;-1.844696816988289E-003;
2.400666666666667E+009;1.580391675233841E-001;5.549476295709610E-002;1.392103498801589E-003;-2.224461641162634E-003;
2.400833333333334E+009;1.581759899854660E-001;5.342683941125870E-002;1.344917574897409E-003;-2.129673724994063E-003;
2.401000000000000E+009;1.582073122262955E-001;5.147336795926094E-002;1.273752539418638E-003;-2.355420961976051E-003;
2.401166666666667E+009;1.584248542785645E-001;4.929053038358688E-002;1.293359207920730E-003;-2.277171239256859E-003;
2.401333333333334E+009;1.586372405290604E-001;4.718930646777153E-002;1.064016600139439E-003;-2.535229548811913E-003;
2.401500000000000E+009;1.589171737432480E-001;4.517412930727005E-002;1.161902328021824E-003;-2.700699493288994E-003;
2.401666666666667E+009;1.594222038984299E-001;4.328636452555656E-002;9.754765778779984E-004;-2.769080689176917E-003;
2.401833333333334E+009;1.596655100584030E-001;4.117831587791443E-002;8.877087384462357E-004;-2.902475418522954E-003;
2.402000000000000E+009;1.600856184959412E-001;3.909370303153992E-002;8.578641572967172E-004;-2.827445976436138E-003;
2.402166666666667E+009;1.606396734714508E-001;3.734930232167244E-002;8.543309522792697E-004;-2.977213822305203E-003;
2.402333333333334E+009;1.611073613166809E-001;3.541243076324463E-002;6.585749215446413E-004;-3.084282856434584E-003;
2.402500000000000E+009;1.619706898927689E-001;3.364053741097450E-002;4.773878317791969E-004;-3.188385860994458E-003;
2.402666666666667E+009;1.625593304634094E-001;3.183694183826447E-002;2.712367277126759E-004;-3.528720932081342E-003;
2.402833333333334E+009;1.632988303899765E-001;3.018951416015625E-002;-2.612757816677913E-005;-3.432801458984613E-003;
2.403000000000000E+009;1.642522066831589E-001;2.864565700292587E-002;-1.011090353131294E-004;-3.378376597538590E-003;
2.403166666666667E+009;1.649085432291031E-001;2.700442075729370E-002;-1.494146417826414E-004;-3.296769689768553E-003;
2.403333333333334E+009;1.658354401588440E-001;2.537425234913826E-002;-3.552756679710001E-004;-3.483657492324710E-003;
2.403500000000000E+009;1.668183654546738E-001;2.403760328888893E-002;-5.950853810645640E-004;-3.374035004526377E-003;
2.403666666666667E+009;1.677444726228714E-001;2.258148044347763E-002;-9.663124219514430E-004;-3.588884836062789E-003;
2.403833333333334E+009;1.686990559101105E-001;2.116265147924423E-002;-9.276957134716213E-004;-3.490890841931105E-003;
2.404000000000000E+009;1.696065515279770E-001;2.015784941613674E-002;-1.153384335339069E-003;-3.499543294310570E-003;
2.404166666666667E+009;1.705149561166763E-001;1.904134452342987E-002;-1.299511524848640E-003;-3.328786697238684E-003;
2.404333333333334E+009;1.714971512556076E-001;1.799779385328293E-002;-1.650596270337701E-003;-3.287689760327339E-003;
2.404500000000000E+009;1.724109351634979E-001;1.685049384832382E-002;-1.826377119868994E-003;-3.201593644917011E-003;
2.404666666666667E+009;1.734126210212708E-001;1.600728742778301E-002;-1.776836696080864E-003;-3.042481373995543E-003;
2.404833333333334E+009;1.741730570793152E-001;1.512192469090223E-002;-2.023542998358607E-003;-2.893468365073204E-003;
2.405000000000000E+009;1.751024425029755E-001;1.437795255333185E-002;-2.161744749173522E-003;-2.836457220837474E-003;
2.405166666666667E+009;1.758871823549271E-001;1.378950756043196E-002;-2.317636273801327E-003;-2.746325219050050E-003;
2.405333333333334E+009;1.766690462827683E-001;1.301558781415224E-002;-2.427651546895504E-003;-2.675887895748019E-003;
2.405500000000000E+009;1.774368286132813E-001;1.271535083651543E-002;-2.379078185185790E-003;-2.432436449453235E-003;
2.405666666666667E+009;1.780146658420563E-001;1.221156772226095E-002;-2.557712141424418E-003;-2.311539370566607E-003;
2.405833333333334E+009;1.783849895000458E-001;1.180016808211803E-002;-2.645582659170032E-003;-2.359197707846761E-003;
2.406000000000000E+009;1.792038381099701E-001;1.126773469150066E-002;-2.657824428752065E-003;-2.150943735614419E-003;
2.406166666666667E+009;1.794584095478058E-001;1.109027862548828E-002;-2.615727018564940E-003;-1.710140495561063E-003;
2.406333333333334E+009;1.799650341272354E-001;1.068866625428200E-002;-2.748647239059210E-003;-1.902835094369948E-003;
2.406500000000000E+009;1.801731884479523E-001;1.027442701160908E-002;-2.803047653287649E-003;-1.692224643193185E-003;
2.406666666666667E+009;1.803237348794937E-001;1.013107318431139E-002;-2.719264011830092E-003;-1.565859303809702E-003;
2.406833333333334E+009;1.806339472532272E-001;9.727610275149345E-003;-2.874479629099369E-003;-1.470047864131630E-003;
2.407000000000000E+009;1.807868480682373E-001;9.347483515739441E-003;-2.657521748915315E-003;-1.264728023670614E-003;
2.407166666666667E+009;1.806810945272446E-001;9.110571816563606E-003;-2.834582934156060E-003;-1.140332198701799E-003;
2.407333333333334E+009;1.805564612150192E-001;8.630090393126011E-003;-2.714700996875763E-003;-1.197081990540028E-003;
2.407500000000000E+009;1.803055703639984E-001;8.184678852558136E-003;-2.780132694169879E-003;-1.013077679090202E-003;
2.407666666666667E+009;1.802974790334702E-001;7.692307699471712E-003;-2.819725777953863E-003;-9.548430098220706E-004;
2.407833333333334E+009;1.797645539045334E-001;7.053798530250788E-003;-2.748426282778382E-003;-9.040265576913953E-004;
2.408000000000000E+009;1.794687211513519E-001;6.524007301777601E-003;-2.739948686212301E-003;-8.144793682731688E-004;
2.408166666666667E+009;1.789984107017517E-001;5.995869636535645E-003;-2.800237853080034E-003;-6.562964990735054E-004;
2.408333333333334E+009;1.787299066781998E-001;5.147604737430811E-003;-2.810498233884573E-003;-6.406665779650211E-004;
2.408500000000000E+009;1.781643629074097E-001;4.305583890527487E-003;-2.698533236980438E-003;-5.481344414874911E-004;
2.408666666666667E+009;1.775501817464829E-001;3.485132241621614E-003;-2.807739190757275E-003;-3.773858770728111E-004;
2.408833333333334E+009;1.768040955066681E-001;2.479845192283392E-003;-2.657946199178696E-003;-3.168935654684901E-004;
2.409000000000000E+009;1.761886477470398E-001;1.454235985875130E-003;-2.749600913375616E-003;-3.289689775556326E-004;
2.409166666666667E+009;1.756319403648377E-001;2.949443296529353E-004;-2.699463861063123E-003;-1.920497161336243E-004;
2.409333333333334E+009;1.749406307935715E-001;-9.837488178163767E-004;-2.620074432343245E-003;-2.224934869445860E-004;
2.409500000000000E+009;1.742436438798904E-001;-2.279563341289759E-003;-2.534578554332256E-003;-9.670886356616393E-005;
2.409666666666667E+009;1.734477430582047E-001;-3.703148337081075E-003;-2.617842284962535E-003;4.966553024132736E-005;
2.409833333333334E+009;1.727856695652008E-001;-5.058211274445057E-003;-2.580372383818030E-003;-8.860642992658541E-005;
2.410000000000000E+009;1.722982823848724E-001;-6.604349240660667E-003;-2.616477897390723E-003;6.835969543317333E-005;
2.410166666666667E+009;1.716914325952530E-001;-7.990214042365551E-003;-2.509284764528275E-003;5.301427154336125E-005;
2.410333333333334E+009;1.709838360548019E-001;-9.668319486081600E-003;-2.731296001002193E-003;1.723788736853749E-004;
2.410500000000000E+009;1.704748868942261E-001;-1.131984498351812E-002;-2.463626675307751E-003;9.373576176585630E-005;
2.410666666666667E+009;1.699846088886261E-001;-1.333205308765173E-002;-2.586492337286472E-003;2.696386945899576E-004;
2.410833333333334E+009;1.694978475570679E-001;-1.490431278944016E-002;-2.572949510067701E-003;2.261576009914279E-004;
2.411000000000000E+009;1.692549884319305E-001;-1.667317003011704E-002;-2.667928813025355E-003;1.115427003242075E-004;
2.411166666666667E+009;1.688164621591568E-001;-1.879126764833927E-002;-2.721262862905860E-003;3.103271592408419E-004;
2.411333333333334E+009;1.685716956853867E-001;-2.055157721042633E-002;-2.653457690030336E-003;2.933819778263569E-004;
2.411500000000000E+009;1.683675497770309E-001;-2.261488325893879E-002;-2.754978835582733E-003;2.864221460185945E-004;
2.411666666666667E+009;1.684393435716629E-001;-2.460001036524773E-002;-2.828008960932493E-003;4.318884748499841E-004;
2.411833333333334E+009;1.683702319860458E-001;-2.634102851152420E-002;-2.722337609156966E-003;5.692915292456746E-004;
2.412000000000000E+009;1.684100180864334E-001;-2.835911512374878E-002;-2.828135387971997E-003;6.253929459489882E-004;
2.412166666666667E+009;1.685563474893570E-001;-3.034906834363937E-002;-2.919437596574426E-003;6.878094864077866E-004;
2.412333333333334E+009;1.687113493680954E-001;-3.213844820857048E-002;-2.871032571420074E-003;7.987819262780249E-004;
2.412500000000000E+009;1.687015146017075E-001;-3.414369374513626E-002;-2.833202015608549E-003;9.505938505753875E-004;
2.412666666666667E+009;1.691453158855438E-001;-3.609476238489151E-002;-2.934536198154092E-003;9.533457341603935E-004;
2.412833333333334E+009;1.696874797344208E-001;-3.786649182438850E-002;-2.958060009405017E-003;1.156073529273272E-003;
2.413000000000000E+009;1.700544804334641E-001;-3.956914693117142E-002;-3.027448663488030E-003;1.183012500405312E-003;
2.413166666666667E+009;1.702769100666046E-001;-4.123004153370857E-002;-2.924988511949778E-003;1.486626802943647E-003;
2.413333333333334E+009;1.706613749265671E-001;-4.315565899014473E-002;-2.757868729531765E-003;1.652867649681866E-003;
2.413500000000000E+009;1.714045703411102E-001;-4.475418850779533E-002;-2.811807207763195E-003;1.715558348223567E-003;
2.413666666666667E+009;1.718648076057434E-001;-4.637057334184647E-002;-2.861152170225978E-003;1.951887388713658E-003;
2.413833333333334E+009;1.723643392324448E-001;-4.778973013162613E-002;-2.739986637607217E-003;2.075856318697333E-003;
2.414000000000000E+009;1.727492213249207E-001;-4.939148575067520E-002;-2.725592348724604E-003;2.046588109806180E-003;
2.414166666666667E+009;1.734994798898697E-001;-5.053599178791046E-002;-2.485583303496242E-003;2.142746699973941E-003;
2.414333333333334E+009;1.740071177482605E-001;-5.170788243412972E-002;-2.406351268291473E-003;2.501383656635881E-003;
2.414500000000000E+009;1.746948957443237E-001;-5.286387354135513E-002;-2.361149294301868E-003;2.464970340952277E-003;
2.414666666666667E+009;1.751327812671661E-001;-5.386406555771828E-002;-2.262624679133296E-003;2.560450928285718E-003;
2.414833333333334E+009;1.755956560373306E-001;-5.496906489133835E-002;-2.128911670297384E-003;2.778600202873349E-003;
2.415000000000000E+009;1.759718358516693E-001;-5.569470301270485E-002;-2.006621565669775E-003;2.801635768264532E-003;
2.415166666666667E+009;1.762863993644714E-001;-5.646437406539917E-002;-1.930042635649443E-003;2.996109891682863E-003;
2.415333333333334E+009;1.768604069948196E-001;-5.737489461898804E-002;-1.744014793075621E-003;2.960863290354610E-003;
2.415500000000000E+009;1.771030128002167E-001;-5.789332091808319E-002;-1.606240286491811E-003;2.983642974868417E-003;
2.415666666666667E+009;1.774001866579056E-001;-5.853965133428574E-002;-1.575206057168543E-003;3.061896422877908E-003;
2.415833333333334E+009;1.777983456850052E-001;-5.907441303133965E-002;-1.390652032569051E-003;2.951967064291239E-003;
2.416000000000000E+009;1.776015311479569E-001;-5.931135639548302E-002;-1.334577216766775E-003;3.091301303356886E-003;
2.416166666666667E+009;1.779293268918991E-001;-5.984103679656982E-002;-1.048005418851972E-003;3.084673779085279E-003;
2.416333333333334E+009;1.776943504810333E-001;-6.012545153498650E-002;-9.818746475502849E-004;3.253274830058217E-003;
2.416500000000000E+009;1.776198893785477E-001;-6.055922061204910E-002;-8.578367996960878E-004;3.231482580304146E-003;
2.416666666666667E+009;1.774089485406876E-001;-6.062012538313866E-002;-7.448473479598761E-004;3.327487502247095E-003;
2.416833333333334E+009;1.772698611021042E-001;-6.094314530491829E-002;-5.977048422209919E-004;3.243210259824991E-003;
2.417000000000000E+009;1.767546087503433E-001;-6.116316094994545E-002;-6.084629567340016E-004;3.119417931884527E-003;
2.417166666666667E+009;1.763125509023666E-001;-6.131739541888237E-002;-3.650272265076637E-004;3.277711337432265E-003;
2.417333333333334E+009;1.758349835872650E-001;-6.154698505997658E-002;-3.130891418550164E-004;3.171820426359773E-003;
2.417500000000000E+009;1.751665174961090E-001;-6.191226467490196E-002;-4.965679909219034E-005;3.189806826412678E-003;
2.417666666666667E+009;1.745683401823044E-001;-6.201942265033722E-002;-1.307183702010661E-004;3.255157964304090E-003;
2.417833333333334E+009;1.737450808286667E-001;-6.214592978358269E-002;1.258455013157800E-004;3.254969604313374E-003;
2.418000000000000E+009;1.728963404893875E-001;-6.251625716686249E-002;5.710599361918867E-005;3.033349057659507E-003;
2.418166666666667E+009;1.718980371952057E-001;-6.293360143899918E-002;1.272705849260092E-004;3.138078376650810E-003;
2.418333333333334E+009;1.712027937173843E-001;-6.325685977935791E-002;2.609129878692329E-004;3.030492225661874E-003;
2.418500000000000E+009;1.700147092342377E-001;-6.363867968320847E-002;3.867456398438662E-004;2.962975529953837E-003;
2.418666666666667E+009;1.690867394208908E-001;-6.411460787057877E-002;4.713013186119497E-004;3.002516226843000E-003;
2.418833333333334E+009;1.678030341863632E-001;-6.468051671981812E-002;5.944736767560244E-004;3.037707880139351E-003;
2.419000000000000E+009;1.665854156017304E-001;-6.523153185844421E-002;8.886195137165487E-004;3.031624713912606E-003;
2.419166666666667E+009;1.654385924339294E-001;-6.585006415843964E-002;7.360902382060885E-004;2.952352864667773E-003;
2.419333333333334E+009;1.641168892383575E-001;-6.649515777826309E-002;9.493189863860607E-004;2.780158538371325E-003;
2.419500000000000E+009;1.630246192216873E-001;-6.741509586572647E-002;9.324604179710150E-004;2.722886390984058E-003;
2.419666666666667E+009;1.616451144218445E-001;-6.828246265649796E-002;1.077171764336526E-003;2.650495618581772E-003;
2.419833333333334E+009;1.606211066246033E-001;-6.921433657407761E-002;1.252359594218433E-003;2.719439566135407E-003;
2.420000000000000E+009;1.595308631658554E-001;-7.024000585079193E-002;1.276829512789846E-003;2.690116176381707E-003;
2.420166666666667E+009;1.583526432514191E-001;-7.137660682201386E-002;1.408057636581361E-003;2.598740626126528E-003;
2.420333333333334E+009;1.573656499385834E-001;-7.259464263916016E-002;1.541808363981545E-003;2.490271814167500E-003;
2.420500000000000E+009;1.564268320798874E-001;-7.366321980953217E-002;1.554878195747733E-003;2.555756364017725E-003;
2.420666666666667E+009;1.553605049848557E-001;-7.491337507963181E-002;1.508182962425053E-003;2.403669059276581E-003;
2.420833333333334E+009;1.544767767190933E-001;-7.644277811050415E-002;1.675703329965472E-003;2.505306852981448E-003;
2.421000000000000E+009;1.535398364067078E-001;-7.796051353216171E-002;1.714925630949438E-003;2.249624812975526E-003;
2.421166666666667E+009;1.528860628604889E-001;-7.943533360958099E-002;1.680697896517813E-003;2.309184754267335E-003;
2.421333333333334E+009;1.522596180438995E-001;-8.100105822086334E-002;1.884074881672859E-003;2.174310153350234E-003;
2.421500000000000E+009;1.515249013900757E-001;-8.264163881540299E-002;1.879712333902717E-003;2.117841504514217E-003;
2.421666666666667E+009;1.509741246700287E-001;-8.422175794839859E-002;1.978990389034152E-003;2.044465625658631E-003;
2.421833333333334E+009;1.505618095397949E-001;-8.584992587566376E-002;1.962698996067047E-003;1.986918505281210E-003;
2.422000000000000E+009;1.502096205949783E-001;-8.749862015247345E-002;2.025780500844121E-003;1.976240193471313E-003;
2.422166666666667E+009;1.498465240001679E-001;-8.928429335355759E-002;1.948593650013208E-003;1.975447637960315E-003;
2.422333333333334E+009;1.495471000671387E-001;-9.100054949522018E-002;1.986523391678929E-003;1.706408569589257E-003;
2.422500000000000E+009;1.494416892528534E-001;-9.245724976062775E-002;2.150885760784149E-003;1.704068388789892E-003;
2.422666666666667E+009;1.493149399757385E-001;-9.434432536363602E-002;2.276747953146696E-003;1.773773808963597E-003;
2.422833333333334E+009;1.494718790054321E-001;-9.615719318389893E-002;2.195880282670260E-003;1.631334656849504E-003;
2.423000000000000E+009;1.494823843240738E-001;-9.777081757783890E-002;2.275550970807672E-003;1.656041829846799E-003;
2.423166666666667E+009;1.498047560453415E-001;-9.946665912866592E-002;2.280153101310134E-003;1.569638843648136E-003;
2.423333333333334E+009;1.499270349740982E-001;-1.007674112915993E-001;2.372757066041231E-003;1.589181483723223E-003;
2.423500000000000E+009;1.503273546695709E-001;-1.025512069463730E-001;2.436809474602342E-003;1.321366406045854E-003;
2.423666666666667E+009;1.504328101873398E-001;-1.040547415614128E-001;2.569437259808183E-003;1.332911779172719E-003;
2.423833333333334E+009;1.510439515113831E-001;-1.053941845893860E-001;2.609009388834238E-003;1.257580588571727E-003;
2.424000000000000E+009;1.512740701436997E-001;-1.067620217800140E-001;2.631095005199313E-003;1.087331795133650E-003;
2.424166666666667E+009;1.517980545759201E-001;-1.080821529030800E-001;2.637508790940046E-003;9.865894680842757E-004;
2.424333333333334E+009;1.522551476955414E-001;-1.091933101415634E-001;2.690197899937630E-003;8.864774135872722E-004;
2.424500000000000E+009;1.528344750404358E-001;-1.105531156063080E-001;2.752422355115414E-003;7.954859756864607E-004;
2.424666666666667E+009;1.533449888229370E-001;-1.113461852073669E-001;2.745260950177908E-003;7.557185017503798E-004;
2.424833333333334E+009;1.536876857280731E-001;-1.124145910143852E-001;2.726891310885549E-003;6.175567395985127E-004;
2.425000000000000E+009;1.542477309703827E-001;-1.134413778781891E-001;2.673388924449682E-003;4.750204097945243E-004;
2.425166666666667E+009;1.543695628643036E-001;-1.142357811331749E-001;2.732880180701613E-003;4.562459071166813E-004;
2.425333333333334E+009;1.549838036298752E-001;-1.149190962314606E-001;2.900734078139067E-003;4.075471078976989E-004;
2.425500000000000E+009;1.553221046924591E-001;-1.156730279326439E-001;2.837613690644503E-003;2.034785284195095E-004;
2.425666666666667E+009;1.554922908544540E-001;-1.160913482308388E-001;2.725058235228062E-003;1.268539199372754E-004;
2.425833333333334E+009;1.557736098766327E-001;-1.166764274239540E-001;2.747430931776762E-003;-6.060243686079048E-005;
2.426000000000000E+009;1.560339033603668E-001;-1.172903850674629E-001;2.723725512623787E-003;-1.966369309229776E-004;
2.426166666666667E+009;1.564336568117142E-001;-1.176551207900047E-001;2.757776761427522E-003;-2.740240888670087E-004;
2.426333333333334E+009;1.563027799129486E-001;-1.178343966603279E-001;2.537958789616823E-003;-4.455958842299879E-004;
2.426500000000000E+009;1.563676148653030E-001;-1.181474700570107E-001;2.692663110792637E-003;-4.394194693304598E-004;
2.426666666666667E+009;1.564583331346512E-001;-1.183179393410683E-001;2.600188134238124E-003;-4.900041967630386E-004;
2.426833333333334E+009;1.561866253614426E-001;-1.185287609696388E-001;2.590784337371588E-003;-6.585490191355348E-004;
2.427000000000000E+009;1.559152454137802E-001;-1.188069209456444E-001;2.531489590182900E-003;-6.413616356439889E-004;
2.427166666666667E+009;1.555653363466263E-001;-1.188028752803803E-001;2.309526083990932E-003;-7.623367710039020E-004;
2.427333333333334E+009;1.551293134689331E-001;-1.190247163176537E-001;2.295434940606356E-003;-9.255252080038190E-004;
2.427500000000000E+009;1.546786278486252E-001;-1.191057413816452E-001;2.279769396409392E-003;-8.759039919823408E-004;
2.427666666666667E+009;1.540258079767227E-001;-1.191780120134354E-001;2.148909959942102E-003;-1.104142284020782E-003;
