# Version 1.00
#
freq[Hz];re:Trc1_S11;im:Trc1_S11;re:Trc2_S21;im:Trc2_S21;
2.400000000000000E+009;1.582063585519791E-001;6.263293325901032E-002;1.242731348611414E-003;-1.763037871569395E-003;
2.400166666666667E+009;1.581953465938568E-001;6.107027456164360E-002;1.140782725997269E-003;-1.720918575301766E-003;
2.400333333333334E+009;1.580067276954651E-001;5.898705869913101E-002;1.349464175291359E-003;-1.973541220650077E-003;
2.400500000000000E+009;1.581416875123978E-001;5.711567774415016E-002;1.162134925834835E-003;-2.095544710755348E-003;
2.400666666666667E+009;1.580304205417633E-001;5.532282963395119E-002;1.170969451777637E-003;-2.085150219500065E-003;
2.400833333333334E+009;1.581564098596573E-001;5.349050089716911E-002;1.082362723536789E-003;-2.319265389814973E-003;
2.401000000000000E+009;1.583179831504822E-001;5.134529247879982E-002;1.029404578730464E-003;-2.312475349754095E-003;
2.401166666666667E+009;1.585814654827118E-001;4.930788278579712E-002;9.992372943088412E-004;-2.421602373942733E-003;
2.401333333333334E+009;1.585075408220291E-001;4.714579880237579E-002;9.370927582494915E-004;-2.366254571825266E-003;
2.401500000000000E+009;1.591010987758637E-001;4.516474530100822E-002;9.924338664859533E-004;-2.622201805934310E-003;
2.401666666666667E+009;1.594449877738953E-001;4.322748631238937E-002;1.031558145768940E-003;-2.689855406060815E-003;
2.401833333333334E+009;1.596274822950363E-001;4.092850536108017E-002;9.251343435607851E-004;-2.755802124738693E-003;
2.402000000000000E+009;1.600006818771362E-001;3.904670849442482E-002;6.890951190143824E-004;-3.029705723747611E-003;
2.402166666666667E+009;1.605603098869324E-001;3.704346716403961E-002;7.712850929237902E-004;-3.060280578210950E-003;
2.402333333333334E+009;1.612079143524170E-001;3.524551168084145E-002;6.470865919254720E-004;-3.161877626553178E-003;
2.402500000000000E+009;1.619950979948044E-001;3.358849883079529E-002;4.888200201094151E-004;-3.153404686599970E-003;
2.402666666666667E+009;1.624398976564407E-001;3.169203549623489E-002;1.516597403679043E-004;-3.322825068607926E-003;
2.402833333333334E+009;1.633587181568146E-001;2.995687909424305E-002;1.139578089350835E-004;-3.220691811293364E-003;
2.403000000000000E+009;1.641475111246109E-001;2.829739078879356E-002;-1.352316903648898E-004;-3.243823535740376E-003;
2.403166666666667E+009;1.649535000324249E-001;2.670669183135033E-002;-2.859743253793567E-004;-3.380781738087535E-003;
2.403333333333334E+009;1.658494770526886E-001;2.528929710388184E-002;-4.693086084444076E-004;-3.493227763101459E-003;
2.403500000000000E+009;1.664690077304840E-001;2.388402074575424E-002;-5.979393026791513E-004;-3.595300251618028E-003;
2.403666666666667E+009;1.675780117511749E-001;2.250443585216999E-002;-9.310259483754635E-004;-3.319238545373082E-003;
2.403833333333334E+009;1.687690913677216E-001;2.122779376804829E-002;-9.616797906346619E-004;-3.214292693883181E-003;
2.404000000000000E+009;1.695302724838257E-001;2.002036198973656E-002;-1.223003258928657E-003;-3.309845691546798E-003;
2.404166666666667E+009;1.705634742975235E-001;1.881692931056023E-002;-1.366073847748339E-003;-3.274042624980211E-003;
2.404333333333334E+009;1.712417453527451E-001;1.779587753117085E-002;-1.583050354383886E-003;-3.142069093883038E-003;
2.404500000000000E+009;1.723280847072601E-001;1.678713224828243E-002;-1.661364804022014E-003;-3.154442179948092E-003;
2.404666666666667E+009;1.731901168823242E-001;1.595543324947357E-002;-1.772784162312746E-003;-3.077440429478884E-003;
2.404833333333334E+009;1.740526705980301E-001;1.513296552002430E-002;-1.875096582807601E-003;-3.052866784855723E-003;
2.405000000000000E+009;1.750392764806747E-001;1.446354854851961E-002;-1.964359544217587E-003;-2.757494803518057E-003;
2.405166666666667E+009;1.757024973630905E-001;1.373914070427418E-002;-2.179737202823162E-003;-2.642375184223056E-003;
2.405333333333334E+009;1.766051799058914E-001;1.309369504451752E-002;-2.332727191969752E-003;-2.522055059671402E-003;
2.405500000000000E+009;1.772536784410477E-001;1.264623459428549E-002;-2.403566846624017E-003;-2.336252247914672E-003;
2.405666666666667E+009;1.780040860176086E-001;1.215426996350288E-002;-2.417680807411671E-003;-2.285927068442106E-003;
2.405833333333334E+009;1.784472018480301E-001;1.179684046655893E-002;-2.622725907713175E-003;-2.090584952384234E-003;
2.406000000000000E+009;1.791937947273254E-001;1.124906912446022E-002;-2.480119466781616E-003;-2.032424323260784E-003;
2.406166666666667E+009;1.792759001255035E-001;1.105716731399298E-002;-2.573262434452772E-003;-1.766314147971571E-003;
2.406333333333334E+009;1.799505650997162E-001;1.061759050935507E-002;-2.644133986905217E-003;-1.763368956744671E-003;
2.406500000000000E+009;1.801263242959976E-001;1.037566922605038E-002;-2.706701867282391E-003;-1.541097299195826E-003;
2.406666666666667E+009;1.802585422992706E-001;1.002693548798561E-002;-2.748116385191679E-003;-1.396590145304799E-003;
2.406833333333334E+009;1.805454343557358E-001;9.582962840795517E-003;-2.918604528531432E-003;-1.281106611713767E-003;
2.407000000000000E+009;1.806285977363586E-001;9.319110773503780E-003;-2.735466463491321E-003;-1.391069497913122E-003;
2.407166666666667E+009;1.807495951652527E-001;9.094145148992539E-003;-2.761380281299353E-003;-1.190096838399768E-003;
2.407333333333334E+009;1.806164234876633E-001;8.518738672137260E-003;-2.813579980283976E-003;-1.069021644070745E-003;
2.407500000000000E+009;1.804205626249313E-001;8.129143156111240E-003;-2.713371301069856E-003;-1.067076693288982E-003;
2.407666666666667E+009;1.802605092525482E-001;7.667375728487968E-003;-2.804388059303165E-003;-8.710838155820966E-004;
2.407833333333334E+009;1.798144876956940E-001;6.877462379634380E-003;-2.718034433200955E-003;-7.718118140473962E-004;
2.408000000000000E+009;1.794689744710922E-001;6.331383250653744E-003;-2.795547712594271E-003;-6.993968272581697E-004;
2.408166666666667E+009;1.789532005786896E-001;5.770705174654722E-003;-2.756505971774459E-003;-7.126946002244949E-004;
2.408333333333334E+009;1.786419898271561E-001;5.059934686869383E-003;-2.686680527403951E-003;-4.721913137473166E-004;
2.408500000000000E+009;1.780305057764053E-001;4.133344627916813E-003;-2.722704084590077E-003;-4.403453785926104E-004;
2.408666666666667E+009;1.773140132427216E-001;3.287354484200478E-003;-2.870569005608559E-003;-2.869776508305222E-004;
2.408833333333334E+009;1.768307834863663E-001;2.478089416399598E-003;-2.623375738039613E-003;-4.739227006211877E-004;
2.409000000000000E+009;1.761685162782669E-001;1.383803202770650E-003;-2.624868648126721E-003;-3.286428982391954E-004;
2.409166666666667E+009;1.754030734300613E-001;3.272244648542255E-004;-2.628031652420759E-003;-2.625519700814039E-004;
2.409333333333334E+009;1.748691350221634E-001;-9.176312014460564E-004;-2.572115045040846E-003;-1.678819826338440E-004;
2.409500000000000E+009;1.741418838500977E-001;-2.377827884629369E-003;-2.647879533469677E-003;-1.360508322250098E-004;
2.409666666666667E+009;1.733723878860474E-001;-3.589613828808069E-003;-2.698788885027170E-003;-1.466399116907269E-004;
2.409833333333334E+009;1.727160662412643E-001;-4.980261437594891E-003;-2.517289482057095E-003;-1.434233272448182E-004;
2.410000000000000E+009;1.721600592136383E-001;-6.505344994366169E-003;-2.549732802435756E-003;-3.936560460715555E-005;
2.410166666666667E+009;1.715674698352814E-001;-8.164347149431706E-003;-2.508531324565411E-003;2.558230880822521E-005;
2.410333333333334E+009;1.709891408681870E-001;-9.633552283048630E-003;-2.641519531607628E-003;1.079474968719296E-004;
2.410500000000000E+009;1.704540699720383E-001;-1.139598991721869E-002;-2.425776096060872E-003;5.467850860441104E-005;
2.410666666666667E+009;1.698081642389298E-001;-1.338123623281717E-002;-2.546060597524047E-003;1.620126568013802E-004;
2.410833333333334E+009;1.695050597190857E-001;-1.478434260934591E-002;-2.435458824038506E-003;1.698267296887934E-004;
2.411000000000000E+009;1.689924001693726E-001;-1.675341837108135E-002;-2.721922704949975E-003;2.780505456030369E-004;
2.411166666666667E+009;1.687155514955521E-001;-1.876204274594784E-002;-2.556633669883013E-003;2.799969224724919E-004;
2.411333333333334E+009;1.683276295661926E-001;-2.046881243586540E-002;-2.646787790581584E-003;2.534665982238948E-004;
2.411500000000000E+009;1.681650429964066E-001;-2.268242090940476E-002;-2.679554047062993E-003;3.480596351437271E-004;
2.411666666666667E+009;1.683637499809265E-001;-2.447753958404064E-002;-2.717720344662666E-003;5.039065144956112E-004;
2.411833333333334E+009;1.682163625955582E-001;-2.633889019489288E-002;-2.859628526493907E-003;4.785233177244663E-004;
2.412000000000000E+009;1.682812124490738E-001;-2.835620939731598E-002;-2.704431535676122E-003;5.788099952042103E-004;
2.412166666666667E+009;1.683059483766556E-001;-3.022122569382191E-002;-2.794454805552959E-003;7.834546267986298E-004;
2.412333333333334E+009;1.687427461147308E-001;-3.206267952919006E-002;-2.843166003003717E-003;7.964989636093378E-004;
2.412500000000000E+009;1.688518226146698E-001;-3.400963917374611E-002;-2.774101449176669E-003;8.448726148344576E-004;
2.412666666666667E+009;1.690791100263596E-001;-3.595259413123131E-002;-2.943163039162755E-003;1.096123945899308E-003;
2.412833333333334E+009;1.695182621479034E-001;-3.779001161456108E-002;-2.754656597971916E-003;1.098688226193190E-003;
2.413000000000000E+009;1.698478758335114E-001;-3.957241028547287E-002;-2.918596379458904E-003;1.277533243410289E-003;
2.413166666666667E+009;1.703631877899170E-001;-4.132422059774399E-002;-2.705682301893830E-003;1.442508306354284E-003;
2.413333333333334E+009;1.708829253911972E-001;-4.304898902773857E-002;-2.974832197651267E-003;1.427489332854748E-003;
2.413500000000000E+009;1.712936162948608E-001;-4.458037763834000E-002;-2.797328634187579E-003;1.832339679822326E-003;
2.413666666666667E+009;1.718166470527649E-001;-4.623638838529587E-002;-2.753129694610834E-003;1.818249817006290E-003;
2.413833333333334E+009;1.722362488508225E-001;-4.764713719487190E-002;-2.711965469643474E-003;1.906928024254739E-003;
2.414000000000000E+009;1.728710085153580E-001;-4.914119094610214E-002;-2.689488232135773E-003;2.023673383519054E-003;
2.414166666666667E+009;1.734243929386139E-001;-5.049380660057068E-002;-2.479044254869223E-003;2.064074156805873E-003;
2.414333333333334E+009;1.738941073417664E-001;-5.161125957965851E-002;-2.315105637535453E-003;2.259661210700870E-003;
2.414500000000000E+009;1.748590916395187E-001;-5.284561589360237E-002;-2.408928237855434E-003;2.404157072305679E-003;
2.414666666666667E+009;1.750877946615219E-001;-5.369004607200623E-002;-2.181767020374537E-003;2.384323161095381E-003;
2.414833333333334E+009;1.755555570125580E-001;-5.485563352704048E-002;-1.949712634086609E-003;2.673542127013207E-003;
2.415000000000000E+009;1.760323196649551E-001;-5.559786409139633E-002;-1.856318907812238E-003;2.645134925842285E-003;
2.415166666666667E+009;1.764342039823532E-001;-5.642616003751755E-002;-1.855824491940439E-003;2.689579268917441E-003;
2.415333333333334E+009;1.768117696046829E-001;-5.737006291747093E-002;-1.680687186308205E-003;2.812347142025828E-003;
2.415500000000000E+009;1.772758364677429E-001;-5.785456299781799E-002;-1.617236644960940E-003;2.890122588723898E-003;
2.415666666666667E+009;1.773745864629746E-001;-5.828198045492172E-002;-1.611902378499508E-003;3.011452732607722E-003;
2.415833333333334E+009;1.776029318571091E-001;-5.890877917408943E-002;-1.490458962507546E-003;3.035060362890363E-003;
2.416000000000000E+009;1.776286959648132E-001;-5.938649177551270E-002;-1.390374149195850E-003;3.020726609975100E-003;
2.416166666666667E+009;1.779791712760925E-001;-5.978612601757050E-002;-1.196481869556010E-003;3.090996760874987E-003;
2.416333333333334E+009;1.778240054845810E-001;-6.005785241723061E-002;-9.514395496807993E-004;2.984364982694387E-003;
2.416500000000000E+009;1.777159422636032E-001;-6.040024012327194E-002;-7.764703477732837E-004;2.992473542690277E-003;
2.416666666666667E+009;1.774662584066391E-001;-6.051875278353691E-002;-6.977029261179268E-004;2.983330283313990E-003;
2.416833333333334E+009;1.773841232061386E-001;-6.090989708900452E-002;-5.725155351683497E-004;3.210919443517923E-003;
2.417000000000000E+009;1.767854839563370E-001;-6.122695654630661E-002;-5.640006274916232E-004;3.115535713732243E-003;
2.417166666666667E+009;1.765340119600296E-001;-6.130646541714668E-002;-3.680436057038605E-004;3.106596879661083E-003;
2.417333333333334E+009;1.759134531021118E-001;-6.145541369915009E-002;-2.872899931389839E-004;3.181160427629948E-003;
2.417500000000000E+009;1.751544177532196E-001;-6.193491443991661E-002;-2.402965037617832E-004;3.205791814252734E-003;
2.417666666666667E+009;1.746563911437988E-001;-6.193854287266731E-002;3.876278424286284E-005;3.211717586964369E-003;
2.417833333333334E+009;1.737534552812576E-001;-6.213329359889031E-002;-3.740797910722904E-005;3.074737731367350E-003;
2.418000000000000E+009;1.728526204824448E-001;-6.263326108455658E-002;2.130244247382507E-004;3.234434174373746E-003;
2.418166666666667E+009;1.719282120466232E-001;-6.283286958932877E-002;2.456811198499054E-004;3.017537295818329E-003;
2.418333333333334E+009;1.711518019437790E-001;-6.327984482049942E-002;2.198727743234485E-004;3.077623434364796E-003;
2.418500000000000E+009;1.699906289577484E-001;-6.366364657878876E-002;3.957064764108509E-004;3.046366618946195E-003;
2.418666666666667E+009;1.690239161252976E-001;-6.422334909439087E-002;6.981549086049199E-004;3.017317038029432E-003;
2.418833333333334E+009;1.677290797233582E-001;-6.469061225652695E-002;5.846511339768767E-004;3.117868909612298E-003;
2.419000000000000E+009;1.665274798870087E-001;-6.530839204788208E-002;7.159425294958055E-004;2.980393823236227E-003;
2.419166666666667E+009;1.655041724443436E-001;-6.591969728469849E-002;7.749781361781061E-004;2.863313071429730E-003;
2.419333333333334E+009;1.640031188726425E-001;-6.642828136682510E-002;8.678928716108203E-004;2.869143383577466E-003;
2.419500000000000E+009;1.629971414804459E-001;-6.743678450584412E-002;1.041277660988271E-003;2.738595707342029E-003;
2.419666666666667E+009;1.617345958948135E-001;-6.849570572376251E-002;1.015713554807007E-003;2.707830397412181E-003;
2.419833333333334E+009;1.606839299201965E-001;-6.906183809041977E-002;1.135457656346262E-003;2.703975653275847E-003;
2.420000000000000E+009;1.595832854509354E-001;-7.016628980636597E-002;1.278848154470325E-003;2.767095575109124E-003;
2.420166666666667E+009;1.583882570266724E-001;-7.144270092248917E-002;1.180984778329730E-003;2.595708239823580E-003;
2.420333333333334E+009;1.574229001998901E-001;-7.266265898942947E-002;1.388938166201115E-003;2.456768648698926E-003;
2.420500000000000E+009;1.564455479383469E-001;-7.373301684856415E-002;1.352375023998320E-003;2.488818485289812E-003;
2.420666666666667E+009;1.552637666463852E-001;-7.499732822179794E-002;1.343630719929934E-003;2.458810340613127E-003;
2.420833333333334E+009;1.545063257217407E-001;-7.648041844367981E-002;1.545214559882879E-003;2.549808705225587E-003;
2.421000000000000E+009;1.535704433917999E-001;-7.797107845544815E-002;1.606168807484210E-003;2.324744127690792E-003;
2.421166666666667E+009;1.528250724077225E-001;-7.941120862960815E-002;1.762600732035935E-003;2.271815668791533E-003;
2.421333333333334E+009;1.521982997655869E-001;-8.100552111864090E-002;1.711811870336533E-003;2.222359180450440E-003;
2.421500000000000E+009;1.515132933855057E-001;-8.250667899847031E-002;1.754576456733048E-003;2.164929173886776E-003;
2.421666666666667E+009;1.510874330997467E-001;-8.426065742969513E-002;1.860753400251269E-003;2.131614135578275E-003;
2.421833333333334E+009;1.506873965263367E-001;-8.583935350179672E-002;2.105414634570479E-003;1.921502989716828E-003;
2.422000000000000E+009;1.501405537128449E-001;-8.751418441534042E-002;1.990318065509200E-003;1.971237594261766E-003;
2.422166666666667E+009;1.499064266681671E-001;-8.932554721832275E-002;2.014824189245701E-003;2.045815344899893E-003;
2.422333333333334E+009;1.497474908828735E-001;-9.079191088676453E-002;2.207356505095959E-003;1.822749618440867E-003;
2.422500000000000E+009;1.495499163866043E-001;-9.261161088943481E-002;2.072731498628855E-003;1.764811458997428E-003;
2.422666666666667E+009;1.493474841117859E-001;-9.435260295867920E-002;2.063327934592962E-003;1.744312932714820E-003;
2.422833333333334E+009;1.494837254285812E-001;-9.621521830558777E-002;2.108032349497080E-003;1.816473435610533E-003;
2.423000000000000E+009;1.495331376791000E-001;-9.779754281044006E-002;2.286408329382539E-003;1.604520832188427E-003;
2.423166666666667E+009;1.499790698289871E-001;-9.945473819971085E-002;2.398238983005285E-003;1.601721276529133E-003;
2.423333333333334E+009;1.501652300357819E-001;-1.007977575063705E-001;2.330004237592220E-003;1.475089229643345E-003;
2.423500000000000E+009;1.503714025020599E-001;-1.024374738335609E-001;2.506711753085256E-003;1.422089175321162E-003;
2.423666666666667E+009;1.505738645792007E-001;-1.041235774755478E-001;2.516289241611958E-003;1.274455804377794E-003;
2.423833333333334E+009;1.511426717042923E-001;-1.054585576057434E-001;2.535372972488403E-003;1.371053513139486E-003;
2.424000000000000E+009;1.513095498085022E-001;-1.067621037364006E-001;2.492621075361967E-003;1.204826519824565E-003;
2.424166666666667E+009;1.518651545047760E-001;-1.081933975219727E-001;2.663815394043922E-003;1.125887152738869E-003;
2.424333333333334E+009;1.522604525089264E-001;-1.092848777770996E-001;2.674533519893885E-003;9.994459105655551E-004;
2.424500000000000E+009;1.527437120676041E-001;-1.105149164795876E-001;2.679235767573118E-003;9.178650798276067E-004;
2.424666666666667E+009;1.533546745777130E-001;-1.114191636443138E-001;2.769812475889921E-003;7.472280994988978E-004;
2.424833333333334E+009;1.536628603935242E-001;-1.125380694866180E-001;2.748962957412005E-003;7.037068135105074E-004;
2.425000000000000E+009;1.542152315378189E-001;-1.133718043565750E-001;2.756513189524412E-003;6.027828785590828E-004;
2.425166666666667E+009;1.544943302869797E-001;-1.141426339745522E-001;2.721960656344891E-003;6.089851376600564E-004;
2.425333333333334E+009;1.549538969993591E-001;-1.149441450834274E-001;2.834779676049948E-003;2.677141455933452E-004;
2.425500000000000E+009;1.552902311086655E-001;-1.158532872796059E-001;2.866967814043164E-003;2.986932813655585E-004;
2.425666666666667E+009;1.556497961282730E-001;-1.162550523877144E-001;2.900385297834873E-003;-5.160966247785837E-005;
2.425833333333334E+009;1.558547914028168E-001;-1.166871562600136E-001;2.784226555377245E-003;-1.551965397084132E-006;
2.426000000000000E+009;1.561471372842789E-001;-1.172384992241859E-001;2.747545484453440E-003;7.839839963708073E-005;
2.426166666666667E+009;1.564269959926605E-001;-1.177085712552071E-001;2.722749253734946E-003;-1.754445256665349E-004;
2.426333333333334E+009;1.563707739114761E-001;-1.180014610290527E-001;2.680776175111532E-003;-2.193241089116782E-004;
2.426500000000000E+009;1.563508361577988E-001;-1.182530224323273E-001;2.599033061414957E-003;-3.967304073739797E-004;
2.426666666666667E+009;1.565815359354019E-001;-1.183581203222275E-001;2.603685948997736E-003;-5.562115111388266E-004;
2.426833333333334E+009;1.562446057796478E-001;-1.186973676085472E-001;2.540149260312319E-003;-5.685659707523882E-004;
2.427000000000000E+009;1.559559553861618E-001;-1.188879385590553E-001;2.380605554208159E-003;-6.749874446541071E-004;
2.427166666666667E+009;1.556634157896042E-001;-1.188489869236946E-001;2.570295473560691E-003;-6.753146881237626E-004;
2.427333333333334E+009;1.551187932491303E-001;-1.189460009336472E-001;2.370927482843399E-003;-9.000034187920392E-004;
2.427500000000000E+009;1.547121107578278E-001;-1.191444769501686E-001;2.421718789264560E-003;-9.387760655954480E-004;
2.427666666666667E+009;1.540812849998474E-001;-1.193649396300316E-001;2.174097346141934E-003;-1.132443314418197E-003;
