# Version 1.00
#
freq[Hz];re:Trc1_S11;im:Trc1_S11;re:Trc2_S21;im:Trc2_S21;
2.400000000000000E+009;1.688321381807327E-001;4.568696022033691E-002;-6.328407675027847E-003;3.384548763278872E-004;
2.400166666666667E+009;1.699080020189285E-001;4.468325152993202E-002;-6.323500536382198E-003;5.859258817508817E-004;
2.400333333333334E+009;1.707298457622528E-001;4.350669309496880E-002;-6.200235337018967E-003;1.010329346172512E-003;
2.400500000000000E+009;1.719479411840439E-001;4.258992895483971E-002;-6.147658918052912E-003;1.206673914566636E-003;
2.400666666666667E+009;1.728081107139587E-001;4.154494777321816E-002;-5.922524724155664E-003;1.634180545806885E-003;
2.400833333333334E+009;1.735887825489044E-001;4.081594198942184E-002;-5.838451441377401E-003;1.941806403920054E-003;
2.401000000000000E+009;1.744434088468552E-001;4.003842920064926E-002;-5.713763181120157E-003;2.051256131380796E-003;
2.401166666666667E+009;1.752228140830994E-001;3.920163586735725E-002;-5.488360300660133E-003;2.463660435751081E-003;
2.401333333333334E+009;1.759455054998398E-001;3.871145471930504E-002;-5.429713986814022E-003;2.598963212221861E-003;
2.401500000000000E+009;1.768132746219635E-001;3.794155269861221E-002;-5.200959276407957E-003;2.860456472262740E-003;
2.401666666666667E+009;1.773216724395752E-001;3.735325485467911E-002;-5.148089025169611E-003;3.259238554164767E-003;
2.401833333333334E+009;1.777662634849548E-001;3.672351315617561E-002;-4.769367165863514E-003;3.287229919806123E-003;
2.402000000000000E+009;1.781708002090454E-001;3.614564239978790E-002;-4.611711483448744E-003;3.780127735808492E-003;
2.402166666666667E+009;1.786865144968033E-001;3.547883406281471E-002;-4.148860462009907E-003;3.701222594827414E-003;
2.402333333333334E+009;1.789603233337402E-001;3.486356511712074E-002;-4.257824737578630E-003;3.961127251386643E-003;
2.402500000000000E+009;1.794942319393158E-001;3.429833054542542E-002;-3.788676811382175E-003;4.243739880621433E-003;
2.402666666666667E+009;1.796260923147202E-001;3.385100886225700E-002;-3.481608349829912E-003;4.367132205516100E-003;
2.402833333333334E+009;1.798143833875656E-001;3.317546099424362E-002;-3.047534963116050E-003;4.433173686265945E-003;
2.403000000000000E+009;1.799294501543045E-001;3.251834213733673E-002;-2.875488717108965E-003;4.627478308975697E-003;
2.403166666666667E+009;1.798840016126633E-001;3.164648637175560E-002;-2.410567831248045E-003;4.585942719131708E-003;
2.403333333333334E+009;1.798637658357620E-001;3.087332844734192E-002;-2.297270577400923E-003;4.661828745156527E-003;
2.403500000000000E+009;1.795879304409027E-001;2.996833436191082E-002;-1.856018323451281E-003;4.599664360284805E-003;
2.403666666666667E+009;1.792634427547455E-001;2.885714359581471E-002;-1.656458480283618E-003;4.613792523741722E-003;
2.403833333333334E+009;1.792755424976349E-001;2.786307595670223E-002;-1.252598827704787E-003;4.585300572216511E-003;
2.404000000000000E+009;1.788226664066315E-001;2.675016038119793E-002;-9.461051668040454E-004;4.449198488146067E-003;
2.404166666666667E+009;1.784298717975617E-001;2.555152773857117E-002;-6.864121532998979E-004;4.326368682086468E-003;
2.404333333333334E+009;1.779449582099915E-001;2.445089444518089E-002;-4.576514184009284E-004;4.219516646116972E-003;
2.404500000000000E+009;1.773584932088852E-001;2.319674380123615E-002;-4.020758206024766E-004;3.877199022099376E-003;
2.404666666666667E+009;1.770112365484238E-001;2.183780260384083E-002;-8.285821968456730E-005;3.885934827849269E-003;
2.404833333333334E+009;1.765103340148926E-001;2.030323259532452E-002;-6.677240889985114E-005;3.830143017694354E-003;
2.405000000000000E+009;1.759346574544907E-001;1.869057677686214E-002;2.821904490701854E-004;3.632767824456096E-003;
2.405166666666667E+009;1.754337698221207E-001;1.722316071391106E-002;2.968421904370189E-004;3.391091246157885E-003;
2.405333333333334E+009;1.751208156347275E-001;1.564527302980423E-002;3.825864114332944E-004;3.102432936429977E-003;
2.405500000000000E+009;1.745444685220718E-001;1.395903620868921E-002;4.157758085057139E-004;3.174945712089539E-003;
2.405666666666667E+009;1.742004305124283E-001;1.230133324861527E-002;4.371918912511319E-004;2.812033751979470E-003;
2.405833333333334E+009;1.736626923084259E-001;1.058680377900600E-002;5.403102259151638E-004;2.772799460217357E-003;
2.406000000000000E+009;1.734278649091721E-001;8.486333303153515E-003;5.710321129299700E-004;2.435199450701475E-003;
2.406166666666667E+009;1.730441451072693E-001;6.805543787777424E-003;8.499026880599558E-004;2.324463101103902E-003;
2.406333333333334E+009;1.730518192052841E-001;4.671703092753887E-003;7.490811403840780E-004;2.152091357856989E-003;
2.406500000000000E+009;1.728590130805969E-001;2.766395919024944E-003;5.136629915796220E-004;2.043458865955472E-003;
2.406666666666667E+009;1.724460572004318E-001;7.680683047510684E-004;4.017801838926971E-004;1.972383586689830E-003;
2.406833333333334E+009;1.725470274686813E-001;-1.366815762594342E-003;5.582603043876588E-004;1.705428003333509E-003;
2.407000000000000E+009;1.726326346397400E-001;-3.425147617235780E-003;4.670034977607429E-004;1.630722661502659E-003;
2.407166666666667E+009;1.728123575448990E-001;-5.402085836976767E-003;3.601893258746713E-004;1.569700543768704E-003;
2.407333333333334E+009;1.727250665426254E-001;-7.716833148151636E-003;1.209644178743474E-004;1.393222366459668E-003;
2.407500000000000E+009;1.729217618703842E-001;-9.705474600195885E-003;1.293565146625042E-004;1.529389992356300E-003;
2.407666666666667E+009;1.733134239912033E-001;-1.166385691612959E-002;-3.412919613765553E-005;1.526800682768226E-003;
2.407833333333334E+009;1.733565032482147E-001;-1.396392844617367E-002;-1.516448683105409E-004;1.537217525765300E-003;
2.408000000000000E+009;1.737845540046692E-001;-1.586529612541199E-002;-2.547583426348865E-004;1.551264780573547E-003;
2.408166666666667E+009;1.741362065076828E-001;-1.788533665239811E-002;-4.158612864557654E-004;1.671298057772219E-003;
2.408333333333334E+009;1.747126132249832E-001;-1.973674446344376E-002;-5.170574877411127E-004;1.733573619276285E-003;
2.408500000000000E+009;1.749723553657532E-001;-2.176600135862827E-002;-4.650585178751499E-004;1.745708053931594E-003;
2.408666666666667E+009;1.753612756729126E-001;-2.358548715710640E-002;-6.683450774289668E-004;1.967539545148611E-003;
2.408833333333334E+009;1.756818443536758E-001;-2.529240027070046E-002;-5.847442080266774E-004;2.061745384708047E-003;
2.409000000000000E+009;1.761756986379623E-001;-2.699679136276245E-002;-4.537214117590338E-004;2.303131856024265E-003;
2.409166666666667E+009;1.766024976968765E-001;-2.864537201821804E-002;-5.230440874584019E-004;2.292577177286148E-003;
2.409333333333334E+009;1.771868616342545E-001;-3.001898340880871E-002;-3.856158873531967E-004;2.524802228435874E-003;
2.409500000000000E+009;1.775883287191391E-001;-3.145327791571617E-002;-2.735725429374725E-004;2.685370855033398E-003;
2.409666666666667E+009;1.779783070087433E-001;-3.264481946825981E-002;-1.667443721089512E-004;2.692586043849587E-003;
2.409833333333334E+009;1.782095730304718E-001;-3.376082330942154E-002;-1.283488527406007E-004;2.748408354818821E-003;
2.410000000000000E+009;1.789702326059341E-001;-3.474026545882225E-002;6.787247548345476E-005;2.856372389942408E-003;
2.410166666666667E+009;1.794686168432236E-001;-3.567750751972199E-002;2.098907716572285E-004;2.964113373309374E-003;
2.410333333333334E+009;1.797869503498077E-001;-3.655536472797394E-002;4.062204097863287E-004;3.107018303126097E-003;
2.410500000000000E+009;1.801859289407730E-001;-3.726202622056007E-002;6.234002066776156E-004;3.097359556704760E-003;
2.410666666666667E+009;1.806111633777618E-001;-3.828181698918343E-002;7.376133580692112E-004;3.074386157095432E-003;
2.410833333333334E+009;1.810865849256516E-001;-3.862333670258522E-002;9.899620199576020E-004;3.081653034314513E-003;
2.411000000000000E+009;1.813307404518127E-001;-3.930945321917534E-002;1.182728214189410E-003;3.006828017532826E-003;
2.411166666666667E+009;1.815570592880249E-001;-3.996065258979797E-002;1.298379269428551E-003;2.919137710705400E-003;
2.411333333333334E+009;1.816872805356979E-001;-4.021177440881729E-002;1.574834925122559E-003;3.041792428120971E-003;
2.411500000000000E+009;1.817549467086792E-001;-4.096425324678421E-002;1.552442787215114E-003;2.967397449538112E-003;
2.411666666666667E+009;1.818498820066452E-001;-4.142292961478233E-002;1.943817245773971E-003;2.850776305422187E-003;
2.411833333333334E+009;1.817897260189056E-001;-4.161480069160461E-002;1.978129381313920E-003;2.726712962612510E-003;
2.412000000000000E+009;1.816404461860657E-001;-4.206892102956772E-002;2.237623324617744E-003;2.574612852185965E-003;
2.412166666666667E+009;1.812907457351685E-001;-4.240574315190315E-002;2.281513297930360E-003;2.237153705209494E-003;
2.412333333333334E+009;1.809436380863190E-001;-4.267589375376701E-002;2.427821746096015E-003;2.076993929222226E-003;
2.412500000000000E+009;1.806335002183914E-001;-4.312589019536972E-002;2.586286282166839E-003;2.002296503633261E-003;
2.412666666666667E+009;1.799429506063461E-001;-4.347984865307808E-002;2.703704405575991E-003;1.757165184244514E-003;
2.412833333333334E+009;1.793426871299744E-001;-4.389743134379387E-002;2.601813059300184E-003;1.463186112232506E-003;
2.413000000000000E+009;1.786401867866516E-001;-4.431905597448349E-002;2.563904039561749E-003;1.233548740856350E-003;
2.413166666666667E+009;1.777054071426392E-001;-4.462186247110367E-002;2.609300427138805E-003;1.001236261799932E-003;
2.413333333333334E+009;1.769414097070694E-001;-4.509234055876732E-002;2.549824770539999E-003;8.048415766097605E-004;
2.413500000000000E+009;1.758615523576737E-001;-4.555482417345047E-002;2.338940277695656E-003;7.317090057767928E-004;
2.413666666666667E+009;1.748937219381332E-001;-4.624748602509499E-002;2.172127133235335E-003;6.763840210624039E-004;
2.413833333333334E+009;1.737159490585327E-001;-4.666912183165550E-002;2.016909653320909E-003;4.274284583516419E-004;
2.414000000000000E+009;1.725740283727646E-001;-4.742903262376785E-002;1.934483298100531E-003;3.423113666940481E-004;
2.414166666666667E+009;1.716330945491791E-001;-4.808357730507851E-002;1.617318019270897E-003;3.287975559942424E-004;
2.414333333333334E+009;1.703354865312576E-001;-4.890212416648865E-002;1.412861631251872E-003;3.220255603082478E-004;
2.414500000000000E+009;1.692181527614594E-001;-4.966209456324577E-002;1.307790400460362E-003;3.457267011981458E-004;
2.414666666666667E+009;1.679221689701080E-001;-5.058924108743668E-002;1.392080448567867E-003;2.972352667711675E-004;
2.414833333333334E+009;1.666746437549591E-001;-5.162158980965614E-002;1.178565551526845E-003;5.338956834748387E-004;
2.415000000000000E+009;1.655525714159012E-001;-5.275490134954453E-002;1.086705713532865E-003;4.368699446786195E-004;
2.415166666666667E+009;1.643242388963699E-001;-5.383227020502091E-002;1.217035111039877E-003;4.909781273454428E-004;
2.415333333333334E+009;1.631081998348236E-001;-5.533419176936150E-002;9.131041588261724E-004;5.969589110463858E-004;
2.415500000000000E+009;1.618592292070389E-001;-5.655339732766151E-002;9.955022251233459E-004;5.870028981007636E-004;
2.415666666666667E+009;1.607579588890076E-001;-5.804149806499481E-002;9.727614233270288E-004;7.584576960653067E-004;
2.415833333333334E+009;1.598024517297745E-001;-5.957850441336632E-002;7.507329573854804E-004;8.223994518630207E-004;
2.416000000000000E+009;1.585399210453033E-001;-6.126053258776665E-002;8.418838260695338E-004;8.125425665639341E-004;
2.416166666666667E+009;1.577367782592773E-001;-6.286055594682694E-002;8.077883394435048E-004;1.000741496682167E-003;
2.416333333333334E+009;1.568316370248795E-001;-6.453350931406021E-002;8.261250331997871E-004;1.185186207294464E-003;
2.416500000000000E+009;1.558281779289246E-001;-6.648004055023193E-002;8.255437714979053E-004;9.381208219565451E-004;
2.416666666666667E+009;1.548897624015808E-001;-6.823789328336716E-002;9.470461518503726E-004;1.150203286670148E-003;
2.416833333333334E+009;1.541821211576462E-001;-7.029972970485687E-002;7.435332518070936E-004;1.300007104873657E-003;
2.417000000000000E+009;1.532599627971649E-001;-7.218112051486969E-002;1.013821922242641E-003;1.457397476769984E-003;
2.417166666666667E+009;1.526474356651306E-001;-7.398993521928787E-002;1.132182776927948E-003;1.284590922296047E-003;
2.417333333333334E+009;1.519718766212463E-001;-7.598048448562622E-002;1.062036375515163E-003;1.561568235047162E-003;
2.417500000000000E+009;1.513526886701584E-001;-7.788725942373276E-002;1.124982838518918E-003;1.443296088837087E-003;
2.417666666666667E+009;1.510198414325714E-001;-7.970120012760162E-002;1.221993006765842E-003;1.585980295203626E-003;
2.417833333333334E+009;1.506029516458511E-001;-8.158241212368012E-002;1.345170545391738E-003;1.821720972657204E-003;
2.418000000000000E+009;1.502175629138947E-001;-8.348786085844040E-002;1.421078923158348E-003;1.729103270918131E-003;
2.418166666666667E+009;1.499325037002564E-001;-8.501878380775452E-002;1.343452837318182E-003;1.908195787109435E-003;
2.418333333333334E+009;1.498832106590271E-001;-8.675099164247513E-002;1.498675323091447E-003;1.941491267643869E-003;
2.418500000000000E+009;1.495599001646042E-001;-8.845468610525131E-002;1.744402688927949E-003;2.019034931436181E-003;
2.418666666666667E+009;1.495778113603592E-001;-8.997189253568649E-002;1.910207327455282E-003;2.098212717100978E-003;
2.418833333333334E+009;1.494701951742172E-001;-9.148774296045303E-002;2.108374843373895E-003;2.181874122470617E-003;
2.419000000000000E+009;1.494586616754532E-001;-9.280972182750702E-002;2.240622183308005E-003;2.309098606929183E-003;
2.419166666666667E+009;1.495595872402191E-001;-9.396914392709732E-002;2.386880340054631E-003;2.432882087305188E-003;
2.419333333333334E+009;1.494669914245606E-001;-9.501869231462479E-002;2.923857187852264E-003;2.350770402699709E-003;
2.419500000000000E+009;1.495559662580490E-001;-9.635557234287262E-002;3.004292258992791E-003;2.348299371078610E-003;
2.419666666666667E+009;1.499215066432953E-001;-9.725481271743774E-002;3.258372424170375E-003;2.396866679191589E-003;
2.419833333333334E+009;1.499488502740860E-001;-9.778892993927002E-002;3.583155572414398E-003;2.158506074920297E-003;
2.420000000000000E+009;1.502887904644013E-001;-9.873591363430023E-002;3.849332220852375E-003;2.049966482445598E-003;
2.420166666666667E+009;1.505243480205536E-001;-9.924558550119400E-002;4.240727517753840E-003;1.843516714870930E-003;
2.420333333333334E+009;1.507649570703507E-001;-9.972566366195679E-002;4.491311497986317E-003;1.848474377766252E-003;
2.420500000000000E+009;1.512261778116226E-001;-9.985938668251038E-002;4.690162371844053E-003;1.508915680460632E-003;
2.420666666666667E+009;1.513125747442246E-001;-1.003032475709915E-001;4.957757424563170E-003;1.187503337860107E-003;
2.420833333333334E+009;1.515181362628937E-001;-1.005786210298538E-001;5.294345319271088E-003;1.123478985391557E-003;
2.421000000000000E+009;1.517519056797028E-001;-1.005833372473717E-001;5.367227829992771E-003;6.548857199959457E-004;
2.421166666666667E+009;1.518517136573792E-001;-1.005220487713814E-001;5.562707781791687E-003;3.752812626771629E-004;
2.421333333333334E+009;1.520448029041290E-001;-1.005814149975777E-001;5.738752894103527E-003;5.221046376391314E-005;
2.421500000000000E+009;1.520518213510513E-001;-1.003494784235954E-001;5.888109561055899E-003;-2.980463032145053E-004;
2.421666666666667E+009;1.520811617374420E-001;-1.000725328922272E-001;5.970393773168325E-003;-6.210888968780637E-004;
2.421833333333334E+009;1.520184725522995E-001;-1.001130416989327E-001;5.975222215056419E-003;-1.127217663452029E-003;
2.422000000000000E+009;1.517471373081207E-001;-9.975062310695648E-002;6.151141133159399E-003;-1.486463355831802E-003;
2.422166666666667E+009;1.516308635473251E-001;-9.971202909946442E-002;6.007472984492779E-003;-1.989640528336167E-003;
2.422333333333334E+009;1.514291316270828E-001;-9.915243089199066E-002;6.011357065290213E-003;-2.325973706319928E-003;
2.422500000000000E+009;1.507683396339417E-001;-9.869731962680817E-002;5.884617567062378E-003;-2.816248452290893E-003;
2.422666666666667E+009;1.502360254526138E-001;-9.850621223449707E-002;5.789658986032009E-003;-3.266179934144020E-003;
2.422833333333334E+009;1.496549844741821E-001;-9.834237396717072E-002;5.582872312515974E-003;-3.632016479969025E-003;
2.423000000000000E+009;1.489072442054749E-001;-9.776100516319275E-002;5.293268244713545E-003;-3.964040894061327E-003;
2.423166666666667E+009;1.481062173843384E-001;-9.753784537315369E-002;5.000605713576078E-003;-4.326147492974997E-003;
2.423333333333334E+009;1.471230685710907E-001;-9.700929373502731E-002;4.773464519530535E-003;-4.733505193144083E-003;
2.423500000000000E+009;1.460962146520615E-001;-9.679844230413437E-002;4.508145619183779E-003;-4.878442268818617E-003;
2.423666666666667E+009;1.449336260557175E-001;-9.674507379531860E-002;4.202417563647032E-003;-5.318763200193644E-003;
2.423833333333334E+009;1.438126415014267E-001;-9.643232822418213E-002;3.807075088843703E-003;-5.356159061193466E-003;
2.424000000000000E+009;1.424764394760132E-001;-9.626418352127075E-002;3.486511996015906E-003;-5.569656379520893E-003;
2.424166666666667E+009;1.410826891660690E-001;-9.620271623134613E-002;3.111967584118247E-003;-5.926076788455248E-003;
2.424333333333334E+009;1.398342102766037E-001;-9.598302096128464E-002;2.737153554335237E-003;-5.707970354706049E-003;
2.424500000000000E+009;1.385587304830551E-001;-9.618088603019714E-002;2.505311043933034E-003;-5.973228253424168E-003;
2.424666666666667E+009;1.370598524808884E-001;-9.600735455751419E-002;2.208116231486201E-003;-6.013247650116682E-003;
2.424833333333334E+009;1.355662643909454E-001;-9.641554951667786E-002;1.796964090317488E-003;-6.204181350767613E-003;
2.425000000000000E+009;1.341078132390976E-001;-9.660416096448898E-002;1.503240666352212E-003;-6.145430263131857E-003;
2.425166666666667E+009;1.324312537908554E-001;-9.702483564615250E-002;1.166492118500173E-003;-6.226121913641691E-003;
2.425333333333334E+009;1.310704201459885E-001;-9.756799787282944E-002;9.570804540999234E-004;-6.229351740330458E-003;
2.425500000000000E+009;1.297492682933807E-001;-9.827386587858200E-002;6.345813162624836E-004;-6.228392943739891E-003;
2.425666666666667E+009;1.280384063720703E-001;-9.900338202714920E-002;3.291815228294581E-004;-5.947950296103954E-003;
2.425833333333334E+009;1.267860829830170E-001;-9.982915222644806E-002;-1.138670995715074E-004;-6.022910121828318E-003;
2.426000000000000E+009;1.253944635391235E-001;-1.008253395557404E-001;-2.858004882000387E-004;-5.819828249514103E-003;
2.426166666666667E+009;1.241217255592346E-001;-1.019515171647072E-001;-6.859151180833578E-004;-5.770845338702202E-003;
2.426333333333334E+009;1.227192506194115E-001;-1.031003743410111E-001;-7.970790611580014E-004;-5.686521995812655E-003;
2.426500000000000E+009;1.215523630380631E-001;-1.043779850006104E-001;-1.180044375360012E-003;-5.615650676190853E-003;
2.426666666666667E+009;1.204767748713493E-001;-1.056334972381592E-001;-1.272735418751836E-003;-5.407790653407574E-003;
2.426833333333334E+009;1.193103268742561E-001;-1.071135178208351E-001;-1.439978950656951E-003;-5.316373426467180E-003;
2.427000000000000E+009;1.181936487555504E-001;-1.088563352823257E-001;-1.654617604799569E-003;-5.181788932532072E-003;
2.427166666666667E+009;1.172381713986397E-001;-1.101271882653236E-001;-1.974245999008417E-003;-4.953992553055286E-003;
2.427333333333334E+009;1.161905750632286E-001;-1.119048744440079E-001;-1.965437084436417E-003;-4.812379367649555E-003;
2.427500000000000E+009;1.156289577484131E-001;-1.136424094438553E-001;-2.101310295984149E-003;-4.672410432249308E-003;
2.427666666666667E+009;1.148272678256035E-001;-1.154452040791512E-001;-2.328836591914296E-003;-4.550148732960224E-003;
2.427833333333334E+009;1.140442937612534E-001;-1.172263473272324E-001;-2.339407335966826E-003;-4.282964393496513E-003;
