# Version 1.00
#
freq[Hz];re:Trc1_S11;im:Trc1_S11;re:Trc2_S21;im:Trc2_S21;
2.400000000000000E+009;1.559082269668579E-001;1.045590192079544E-001;1.123498543165624E-003;3.638673573732376E-003;
2.400166666666667E+009;1.557508707046509E-001;1.023502647876740E-001;1.395083731040359E-003;3.693670034408569E-003;
2.400333333333334E+009;1.558461934328079E-001;1.000236868858337E-001;1.697804545983672E-003;3.587364219129086E-003;
2.400500000000000E+009;1.559303402900696E-001;9.740108996629715E-002;1.908830017782748E-003;3.605429315939546E-003;
2.400666666666667E+009;1.562064141035080E-001;9.496672451496124E-002;2.199330599978566E-003;3.626203397288919E-003;
2.400833333333334E+009;1.563089489936829E-001;9.229782968759537E-002;2.248353324830532E-003;3.319879295304418E-003;
2.401000000000000E+009;1.565285027027130E-001;8.965987712144852E-002;2.496386878192425E-003;3.295963164418936E-003;
2.401166666666667E+009;1.567351967096329E-001;8.686076104640961E-002;2.811755985021591E-003;2.979770535603166E-003;
2.401333333333334E+009;1.571857482194901E-001;8.423658460378647E-002;2.880004467442632E-003;2.976420801132917E-003;
2.401500000000000E+009;1.576044410467148E-001;8.174316585063934E-002;2.826251788064838E-003;2.572280820459127E-003;
2.401666666666667E+009;1.580907404422760E-001;7.900822907686234E-002;2.927341731265187E-003;2.489094622433186E-003;
2.401833333333334E+009;1.584532111883164E-001;7.660729438066483E-002;2.942846389487386E-003;2.396028721705079E-003;
2.402000000000000E+009;1.594303697347641E-001;7.394098490476608E-002;2.992378082126379E-003;2.228689612820745E-003;
2.402166666666667E+009;1.602538526058197E-001;7.151617109775543E-002;2.982286503538489E-003;2.077159238979220E-003;
2.402333333333334E+009;1.610853672027588E-001;6.917540729045868E-002;2.932833740487695E-003;1.946736942045391E-003;
2.402500000000000E+009;1.621240377426148E-001;6.672508269548416E-002;2.914346987381578E-003;1.851595239713788E-003;
2.402666666666667E+009;1.634608209133148E-001;6.453427672386169E-002;3.081557806581259E-003;1.603411277756095E-003;
2.402833333333334E+009;1.646704077720642E-001;6.213717162609100E-002;2.972931601107121E-003;1.497776829637587E-003;
2.403000000000000E+009;1.659008562564850E-001;6.004665791988373E-002;2.897291444242001E-003;1.613784232176840E-003;
2.403166666666667E+009;1.676892191171646E-001;5.804466828703880E-002;2.707518870010972E-003;1.300995936617255E-003;
2.403333333333334E+009;1.688136607408524E-001;5.597219988703728E-002;2.725102007389069E-003;1.348746474832296E-003;
2.403500000000000E+009;1.705766171216965E-001;5.396697297692299E-002;2.942368155345321E-003;1.444051857106388E-003;
2.403666666666667E+009;1.721763014793396E-001;5.216824635863304E-002;2.904214430600405E-003;1.420746208168566E-003;
2.403833333333334E+009;1.735999882221222E-001;5.042814090847969E-002;2.936702221632004E-003;1.409094664268196E-003;
2.404000000000000E+009;1.750171035528183E-001;4.877975210547447E-002;3.022283082827926E-003;1.338439644314349E-003;
2.404166666666667E+009;1.766019761562347E-001;4.738540202379227E-002;3.011690918356180E-003;1.507694367319346E-003;
2.404333333333334E+009;1.780525147914887E-001;4.582113772630692E-002;2.831723308190703E-003;1.405222457833588E-003;
2.404500000000000E+009;1.795921176671982E-001;4.461817815899849E-002;3.425469854846597E-003;1.423641806468368E-003;
2.404666666666667E+009;1.811141669750214E-001;4.351578652858734E-002;3.575826529413462E-003;1.269555301405489E-003;
2.404833333333334E+009;1.825557649135590E-001;4.234363511204720E-002;3.562005702406168E-003;1.167933456599712E-003;
2.405000000000000E+009;1.837130188941956E-001;4.177906736731529E-002;3.765856381505728E-003;1.024490105919540E-003;
2.405166666666667E+009;1.849632710218430E-001;4.105234891176224E-002;3.856489202007651E-003;9.740285458974540E-004;
2.405333333333334E+009;1.861946582794190E-001;4.035496339201927E-002;3.938178066164255E-003;6.960685132071376E-004;
2.405500000000000E+009;1.875328868627548E-001;3.988412022590637E-002;4.015676677227020E-003;4.603861598297954E-004;
2.405666666666667E+009;1.884711533784866E-001;3.948399797081947E-002;4.160711541771889E-003;3.468141658231616E-004;
2.405833333333334E+009;1.895697861909866E-001;3.917292132973671E-002;4.150449298322201E-003;1.880463387351483E-004;
2.406000000000000E+009;1.905528903007507E-001;3.897056356072426E-002;4.119645338505507E-003;-1.855982845881954E-004;
2.406166666666667E+009;1.913239955902100E-001;3.867081925272942E-002;4.036162514239550E-003;-2.935705706477165E-004;
2.406333333333334E+009;1.922308206558228E-001;3.853822872042656E-002;4.061387386173010E-003;-5.800907965749502E-004;
2.406500000000000E+009;1.929587870836258E-001;3.836413845419884E-002;4.036188591271639E-003;-6.640708888880909E-004;
2.406666666666667E+009;1.933689713478088E-001;3.836432844400406E-002;3.937636967748404E-003;-7.843553903512657E-004;
2.406833333333334E+009;1.938237994909287E-001;3.807885572314262E-002;3.867840860038996E-003;-7.984524709172547E-004;
2.407000000000000E+009;1.940291225910187E-001;3.823290020227432E-002;3.808567766100168E-003;-1.033344306051731E-003;
2.407166666666667E+009;1.944624632596970E-001;3.780144080519676E-002;3.812543582171202E-003;-1.005490892566741E-003;
2.407333333333334E+009;1.943744421005249E-001;3.795851394534111E-002;3.558978671208024E-003;-1.286949147470295E-003;
2.407500000000000E+009;1.943208575248718E-001;3.775406628847122E-002;3.685339353978634E-003;-1.341486000455916E-003;
2.407666666666667E+009;1.943891644477844E-001;3.748852759599686E-002;3.637408139184117E-003;-1.404830371029675E-003;
2.407833333333334E+009;1.939441710710526E-001;3.723099455237389E-002;3.629657672718167E-003;-1.359730726107955E-003;
2.408000000000000E+009;1.938876807689667E-001;3.695347905158997E-002;3.484457964077592E-003;-1.713308040052652E-003;
2.408166666666667E+009;1.934095323085785E-001;3.655450791120529E-002;3.485802095383406E-003;-1.536907395347953E-003;
2.408333333333334E+009;1.929729133844376E-001;3.580848872661591E-002;3.464173758402467E-003;-1.761163352057338E-003;
2.408500000000000E+009;1.923590600490570E-001;3.525977209210396E-002;3.443323541432619E-003;-1.976707251742482E-003;
2.408666666666667E+009;1.919092833995819E-001;3.467703610658646E-002;3.418929642066360E-003;-1.892169704660773E-003;
2.408833333333334E+009;1.912817209959030E-001;3.397063910961151E-002;3.250395180657506E-003;-2.087773056700826E-003;
2.409000000000000E+009;1.904227882623673E-001;3.297358378767967E-002;3.312979824841023E-003;-2.288088900968432E-003;
2.409166666666667E+009;1.896117180585861E-001;3.193636238574982E-002;3.116610925644636E-003;-2.364505315199494E-003;
2.409333333333334E+009;1.889632344245911E-001;3.138295561075211E-002;3.196910023689270E-003;-2.429552609100938E-003;
2.409500000000000E+009;1.879896223545075E-001;3.034746646881104E-002;3.070127917453647E-003;-2.556076273322105E-003;
2.409666666666667E+009;1.869570761919022E-001;2.884870022535324E-002;3.060866147279739E-003;-2.463883254677057E-003;
2.409833333333334E+009;1.860152482986450E-001;2.745007909834385E-002;3.051309147849679E-003;-2.500683767721057E-003;
2.410000000000000E+009;1.851716637611389E-001;2.594179101288319E-002;2.927371067926288E-003;-2.551227342337370E-003;
2.410166666666667E+009;1.841334551572800E-001;2.412465773522854E-002;2.983119804412127E-003;-2.656830940395594E-003;
2.410333333333334E+009;1.831285059452057E-001;2.238653786480427E-002;3.002477111294866E-003;-2.789416583254933E-003;
2.410500000000000E+009;1.821572780609131E-001;2.047878690063953E-002;2.960843266919255E-003;-2.791337668895721E-003;
2.410666666666667E+009;1.813062727451325E-001;1.818620599806309E-002;2.942112274467945E-003;-3.083745483309031E-003;
2.410833333333334E+009;1.807407140731812E-001;1.613088697195053E-002;3.022872144356370E-003;-3.213681280612946E-003;
2.411000000000000E+009;1.801187396049500E-001;1.391182187944651E-002;2.954905387014151E-003;-3.271468682214618E-003;
2.411166666666667E+009;1.793620884418488E-001;1.178336236625910E-002;2.787521108984947E-003;-3.520403522998095E-003;
2.411333333333334E+009;1.791257709264755E-001;9.255860000848770E-003;2.674285089597106E-003;-3.614415880292654E-003;
2.411500000000000E+009;1.787158101797104E-001;6.917913910001516E-003;2.528666052967310E-003;-3.942746203392744E-003;
2.411666666666667E+009;1.786606907844544E-001;4.529413301497698E-003;2.535143867135048E-003;-4.266214091330767E-003;
2.411833333333334E+009;1.783892214298248E-001;2.214765641838312E-003;2.342373831197619E-003;-4.313605371862650E-003;
2.412000000000000E+009;1.787324845790863E-001;-4.181864787824452E-004;2.082480583339930E-003;-4.551253281533718E-003;
2.412166666666667E+009;1.786077320575714E-001;-2.585525391623378E-003;2.020250307396054E-003;-4.724231548607349E-003;
2.412333333333334E+009;1.789052337408066E-001;-5.115384235978127E-003;1.595129142515361E-003;-4.788315389305353E-003;
2.412500000000000E+009;1.795477867126465E-001;-7.625566329807043E-003;1.466616755351424E-003;-4.866153001785278E-003;
2.412666666666667E+009;1.799187362194061E-001;-9.833212941884995E-003;1.336207147687674E-003;-5.077025387436152E-003;
2.412833333333334E+009;1.806453466415405E-001;-1.226729340851307E-002;9.701161761768162E-004;-5.003258585929871E-003;
2.413000000000000E+009;1.815101355314255E-001;-1.466331072151661E-002;5.631344392895699E-004;-5.112868733704090E-003;
2.413166666666667E+009;1.821876466274262E-001;-1.660766638815403E-002;4.232477222103626E-004;-5.229128990322352E-003;
2.413333333333334E+009;1.833749115467072E-001;-1.917626149952412E-002;-5.662057810695842E-005;-5.112474318593741E-003;
2.413500000000000E+009;1.841756105422974E-001;-2.119220979511738E-002;-2.897562226280570E-004;-5.259387660771608E-003;
2.413666666666667E+009;1.853741556406021E-001;-2.356508374214172E-002;-5.497229867614806E-004;-5.106003489345312E-003;
2.413833333333334E+009;1.863848865032196E-001;-2.517507411539555E-002;-7.513557793572545E-004;-4.874663427472115E-003;
2.414000000000000E+009;1.873306930065155E-001;-2.723672054708004E-002;-1.058827736414969E-003;-4.744611214846373E-003;
2.414166666666667E+009;1.887151151895523E-001;-2.882774546742439E-002;-1.123211113736033E-003;-4.682778380811214E-003;
2.414333333333334E+009;1.896450519561768E-001;-3.098807856440544E-002;-1.293452573008835E-003;-4.759066272526979E-003;
2.414500000000000E+009;1.909876018762589E-001;-3.223180398344994E-002;-1.642833929508925E-003;-4.549639765173197E-003;
2.414666666666667E+009;1.921500414609909E-001;-3.374727070331574E-002;-1.581154996529222E-003;-4.590335302054882E-003;
2.414833333333334E+009;1.931331455707550E-001;-3.502672538161278E-002;-1.826255815103650E-003;-4.317990504205227E-003;
2.415000000000000E+009;1.942917555570602E-001;-3.627491742372513E-002;-1.913287094794214E-003;-4.202270414680243E-003;
2.415166666666667E+009;1.954593360424042E-001;-3.731480985879898E-002;-2.128016669303179E-003;-4.034797661006451E-003;
2.415333333333334E+009;1.964089721441269E-001;-3.808184713125229E-002;-2.339443424716592E-003;-3.957916516810656E-003;
2.415500000000000E+009;1.975425332784653E-001;-3.890799731016159E-002;-2.357267541810870E-003;-3.908395301550627E-003;
2.415666666666667E+009;1.984677761793137E-001;-3.975231945514679E-002;-2.598272403702140E-003;-3.865210572257638E-003;
2.415833333333334E+009;1.994116902351379E-001;-4.020396620035172E-002;-2.561890054494143E-003;-3.774667624384165E-003;
2.416000000000000E+009;2.000134140253067E-001;-4.089465364813805E-002;-2.866958966478705E-003;-3.374193562194705E-003;
2.416166666666667E+009;2.008308172225952E-001;-4.150910302996635E-002;-2.852466655895114E-003;-3.396871965378523E-003;
2.416333333333334E+009;2.015078216791153E-001;-4.168936237692833E-002;-3.082196693867445E-003;-3.135915612801909E-003;
2.416500000000000E+009;2.019603997468948E-001;-4.204817861318588E-002;-3.280983772128820E-003;-2.988806227222085E-003;
2.416666666666667E+009;2.022002339363098E-001;-4.240044951438904E-002;-3.242707578465343E-003;-2.772653941065073E-003;
2.416833333333334E+009;2.022058516740799E-001;-4.218445718288422E-002;-3.429875243455172E-003;-2.529663033783436E-003;
2.417000000000000E+009;2.023560106754303E-001;-4.250141605734825E-002;-3.421168308705092E-003;-2.405119827017188E-003;
2.417166666666667E+009;2.020848691463471E-001;-4.238030686974526E-002;-3.321615047752857E-003;-2.160632750019431E-003;
2.417333333333334E+009;2.018578201532364E-001;-4.220193997025490E-002;-3.341874340549111E-003;-2.020974410697818E-003;
2.417500000000000E+009;2.017173171043396E-001;-4.217628017067909E-002;-3.291549626737833E-003;-1.844485173933208E-003;
2.417666666666667E+009;2.011177986860275E-001;-4.199705272912979E-002;-3.259722841903567E-003;-1.714525395072997E-003;
2.417833333333334E+009;2.007069140672684E-001;-4.179319739341736E-002;-3.281048266217113E-003;-1.676476793363690E-003;
2.418000000000000E+009;2.000240385532379E-001;-4.162215441465378E-002;-3.203088650479913E-003;-1.554399961605668E-003;
2.418166666666667E+009;1.992500573396683E-001;-4.150290042161942E-002;-3.066315082833171E-003;-1.452051219530404E-003;
2.418333333333334E+009;1.981604248285294E-001;-4.148057475686073E-002;-3.129745600745082E-003;-1.269825734198093E-003;
2.418500000000000E+009;1.972633302211762E-001;-4.146276041865349E-002;-2.990340348333120E-003;-1.186910783872008E-003;
2.418666666666667E+009;1.963729560375214E-001;-4.147390276193619E-002;-3.076901193708181E-003;-1.139657921157777E-003;
2.418833333333334E+009;1.950946897268295E-001;-4.153100401163101E-002;-2.987714251503348E-003;-1.160330604761839E-003;
2.419000000000000E+009;1.937789618968964E-001;-4.191806912422180E-002;-2.791405888274312E-003;-1.137867453508079E-003;
2.419166666666667E+009;1.924989074468613E-001;-4.209199920296669E-002;-2.916524419561029E-003;-1.158035942353308E-003;
2.419333333333334E+009;1.912029683589935E-001;-4.265142232179642E-002;-2.777806948870421E-003;-1.208091154694557E-003;
2.419500000000000E+009;1.896693110466003E-001;-4.322848096489906E-002;-3.015772206708789E-003;-1.165228430181742E-003;
2.419666666666667E+009;1.881073415279388E-001;-4.404671862721443E-002;-3.120361361652613E-003;-1.162231899797916E-003;
2.419833333333334E+009;1.864467859268189E-001;-4.445644468069077E-002;-3.120221663266420E-003;-1.074612024240196E-003;
2.420000000000000E+009;1.848811656236649E-001;-4.533902928233147E-002;-3.211401402950287E-003;-1.017892616800964E-003;
2.420166666666667E+009;1.832591295242310E-001;-4.658166691660881E-002;-3.152441699057818E-003;-8.856831118464470E-004;
2.420333333333334E+009;1.815629154443741E-001;-4.777300730347633E-002;-3.251797519624233E-003;-7.990507874637842E-004;
2.420500000000000E+009;1.800143271684647E-001;-4.916856065392494E-002;-3.349712816998363E-003;-6.683056126348674E-004;
2.420666666666667E+009;1.783723980188370E-001;-5.040897801518440E-002;-3.335658926516771E-003;-5.988310440443456E-004;
2.420833333333334E+009;1.767632067203522E-001;-5.197123065590859E-002;-3.386321943253279E-003;-5.668138619512320E-004;
2.421000000000000E+009;1.753622442483902E-001;-5.353228375315666E-002;-3.312156768515706E-003;-4.760177398566157E-004;
2.421166666666667E+009;1.739592552185059E-001;-5.523322895169258E-002;-3.406575415283442E-003;-3.006595361512154E-004;
2.421333333333334E+009;1.725377738475800E-001;-5.691861361265183E-002;-3.156960476189852E-003;-1.379663590341806E-004;
2.421500000000000E+009;1.712023913860321E-001;-5.884602665901184E-002;-3.235899144783616E-003;-8.881608664523810E-005;
2.421666666666667E+009;1.700790375471115E-001;-6.062888726592064E-002;-3.166761249303818E-003;-7.709159035584889E-006;
2.421833333333334E+009;1.688506007194519E-001;-6.246463581919670E-002;-3.089993027970195E-003;-4.018039544462226E-005;
2.422000000000000E+009;1.679597347974777E-001;-6.469295918941498E-002;-3.020904492586851E-003;4.318988794693723E-005;
2.422166666666667E+009;1.670329570770264E-001;-6.653419137001038E-002;-3.001188626512885E-003;1.896687172120437E-004;
2.422333333333334E+009;1.661371290683746E-001;-6.873157620429993E-002;-3.041204530745745E-003;7.147858559619635E-005;
2.422500000000000E+009;1.652571558952332E-001;-7.041049748659134E-002;-2.866384340450168E-003;1.693216036073864E-004;
2.422666666666667E+009;1.645544618368149E-001;-7.248957455158234E-002;-2.992508234456182E-003;2.315669407835230E-004;
2.422833333333334E+009;1.643417030572891E-001;-7.468722760677338E-002;-3.032451029866934E-003;3.397006366867572E-004;
2.423000000000000E+009;1.637202203273773E-001;-7.679799944162369E-002;-3.190989140421152E-003;2.631192910484970E-004;
2.423166666666667E+009;1.632996648550034E-001;-7.870797067880631E-002;-2.990848151966929E-003;2.043818240053952E-004;
2.423333333333334E+009;1.631424576044083E-001;-8.061987906694412E-002;-3.054009517654777E-003;3.890126536134630E-004;
2.423500000000000E+009;1.630505025386810E-001;-8.221754431724548E-002;-3.105317242443562E-003;4.171120235696435E-004;
2.423666666666667E+009;1.631645560264587E-001;-8.419546484947205E-002;-3.177100326865912E-003;3.720153472386301E-004;
2.423833333333334E+009;1.632097959518433E-001;-8.591433614492416E-002;-3.097718115895987E-003;4.993693437427282E-004;
2.424000000000000E+009;1.632269322872162E-001;-8.763195574283600E-002;-3.167056245729327E-003;5.799950449727476E-004;
2.424166666666667E+009;1.635271757841110E-001;-8.913451433181763E-002;-3.191838506609201E-003;5.593845853582025E-004;
2.424333333333334E+009;1.636581718921661E-001;-9.058869630098343E-002;-3.393440041691065E-003;8.174584363587201E-004;
2.424500000000000E+009;1.639506667852402E-001;-9.233452379703522E-002;-3.298714058473706E-003;8.502812706865370E-004;
2.424666666666667E+009;1.641696244478226E-001;-9.357235580682755E-002;-3.276009112596512E-003;1.065901247784495E-003;
2.424833333333334E+009;1.648545712232590E-001;-9.476912766695023E-002;-3.276226809248328E-003;1.140088075771928E-003;
2.425000000000000E+009;1.651451736688614E-001;-9.599947184324265E-002;-3.483286593109369E-003;1.293882844038308E-003;
2.425166666666667E+009;1.654683798551559E-001;-9.705377370119095E-002;-3.336739959195256E-003;1.578714000061154E-003;
2.425333333333334E+009;1.657461524009705E-001;-9.809026867151260E-002;-3.305546473711729E-003;1.750377472490072E-003;
2.425500000000000E+009;1.663596630096436E-001;-9.885322302579880E-002;-3.352135885506868E-003;1.769899739883840E-003;
2.425666666666667E+009;1.666989177465439E-001;-9.949839115142822E-002;-3.128501819446683E-003;1.960049150511622E-003;
2.425833333333334E+009;1.670097410678864E-001;-1.003060117363930E-001;-3.085930133238435E-003;2.140256110578775E-003;
2.426000000000000E+009;1.674364209175110E-001;-1.007184386253357E-001;-2.977917436510325E-003;2.364587038755417E-003;
2.426166666666667E+009;1.677856445312500E-001;-1.011957600712776E-001;-2.950669499114156E-003;2.416751114651561E-003;
2.426333333333334E+009;1.678209453821182E-001;-1.017176508903503E-001;-2.802013885229826E-003;2.608187962323427E-003;
2.426500000000000E+009;1.682428121566773E-001;-1.019131243228912E-001;-2.713180147111416E-003;2.681693527847529E-003;
2.426666666666667E+009;1.684698015451431E-001;-1.022451072931290E-001;-2.503758296370506E-003;2.671146299690008E-003;
2.426833333333334E+009;1.686879247426987E-001;-1.025227755308151E-001;-2.454464789479971E-003;2.793855499476194E-003;
2.427000000000000E+009;1.685883551836014E-001;-1.027176156640053E-001;-2.403972903266549E-003;2.928657690063119E-003;
2.427166666666667E+009;1.687330007553101E-001;-1.028182208538055E-001;-2.246401272714138E-003;3.045726800337434E-003;
2.427333333333334E+009;1.685217618942261E-001;-1.030589565634728E-001;-2.059130230918527E-003;3.047137521207333E-003;
2.427500000000000E+009;1.681986898183823E-001;-1.032224297523499E-001;-2.021658001467586E-003;3.073819680139422E-003;
2.427666666666667E+009;1.678359806537628E-001;-1.032271310687065E-001;-1.779781887307763E-003;3.155073383823037E-003;
