# Version 1.00
#
freq[Hz];re:Trc1_S11;im:Trc1_S11;re:Trc2_S21;im:Trc2_S21;
2.400000000000000E+009;1.546400487422943E-001;1.059134975075722E-001;1.023600460030139E-003;3.689734498038888E-003;
2.400166666666667E+009;1.543054580688477E-001;1.035003438591957E-001;1.325350836850703E-003;3.638037480413914E-003;
2.400333333333334E+009;1.545799225568771E-001;1.009710207581520E-001;1.567772473208606E-003;3.498284844681621E-003;
2.400500000000000E+009;1.544524282217026E-001;9.836239367723465E-002;1.774690113961697E-003;3.569354070350528E-003;
2.400666666666667E+009;1.544485837221146E-001;9.592955559492111E-002;2.257745945826173E-003;3.511898685246706E-003;
2.400833333333334E+009;1.544384211301804E-001;9.308770298957825E-002;2.348386915400624E-003;3.276458708569408E-003;
2.401000000000000E+009;1.547506451606751E-001;9.017583727836609E-002;2.532124053686857E-003;3.155655227601528E-003;
2.401166666666667E+009;1.548008769750595E-001;8.763130009174347E-002;2.830363577231765E-003;2.966954838484526E-003;
2.401333333333334E+009;1.552594453096390E-001;8.495987206697464E-002;2.839840948581696E-003;2.773251384496689E-003;
2.401500000000000E+009;1.558436453342438E-001;8.200354129076004E-002;2.850373275578022E-003;2.616797806695104E-003;
2.401666666666667E+009;1.560691148042679E-001;7.923442870378494E-002;2.997889881953597E-003;2.510967897251248E-003;
2.401833333333334E+009;1.567365378141403E-001;7.640524953603745E-002;2.769142854958773E-003;2.360582817345858E-003;
2.402000000000000E+009;1.573888659477234E-001;7.370514422655106E-002;2.947570756077766E-003;1.979402499273419E-003;
2.402166666666667E+009;1.583135277032852E-001;7.131065428256989E-002;2.851784229278565E-003;2.131487941369414E-003;
2.402333333333334E+009;1.592864841222763E-001;6.849791109561920E-002;3.024441422894597E-003;1.860011951066554E-003;
2.402500000000000E+009;1.606418490409851E-001;6.631214916706085E-002;2.980958204716444E-003;1.801263657398522E-003;
2.402666666666667E+009;1.616175919771195E-001;6.398487091064453E-002;3.053585067391396E-003;1.593970926478505E-003;
2.402833333333334E+009;1.630434095859528E-001;6.162341684103012E-002;2.874027471989393E-003;1.533405506052077E-003;
2.403000000000000E+009;1.644383370876312E-001;5.919911339879036E-002;2.932203467935324E-003;1.650748541578651E-003;
2.403166666666667E+009;1.662002354860306E-001;5.724478140473366E-002;2.867520321160555E-003;1.451489282771945E-003;
2.403333333333334E+009;1.676549315452576E-001;5.481714382767677E-002;2.836278872564435E-003;1.335049164481461E-003;
2.403500000000000E+009;1.694411933422089E-001;5.317083373665810E-002;2.701998222619295E-003;1.302751014009118E-003;
2.403666666666667E+009;1.712531596422195E-001;5.109016969799995E-002;2.776768524199724E-003;1.308745937421918E-003;
2.403833333333334E+009;1.727445721626282E-001;4.942801222205162E-002;2.955477451905608E-003;1.436302787624300E-003;
2.404000000000000E+009;1.744642704725266E-001;4.757454991340637E-002;3.065390978008509E-003;1.420868560671806E-003;
2.404166666666667E+009;1.761535555124283E-001;4.616207256913185E-002;3.166057635098696E-003;1.250282861292362E-003;
2.404333333333334E+009;1.776510328054428E-001;4.469143971800804E-002;3.005083184689283E-003;1.365649979561567E-003;
2.404500000000000E+009;1.792445033788681E-001;4.331253468990326E-002;3.285385435447097E-003;1.370618469081819E-003;
2.404666666666667E+009;1.809328794479370E-001;4.231086000800133E-002;3.345119999721646E-003;1.271940302103758E-003;
2.404833333333334E+009;1.825636923313141E-001;4.128896072506905E-002;3.660414833575487E-003;1.225339248776436E-003;
2.405000000000000E+009;1.838409304618835E-001;4.060532152652741E-002;3.522279905155301E-003;9.772483026608825E-004;
2.405166666666667E+009;1.852920502424240E-001;3.997964039444923E-002;3.785477718338370E-003;9.936274727806449E-004;
2.405333333333334E+009;1.867691576480866E-001;3.952211886644363E-002;3.855034243315458E-003;8.174969116225839E-004;
2.405500000000000E+009;1.881037056446075E-001;3.898382186889648E-002;4.019712563604116E-003;6.214187014847994E-004;
2.405666666666667E+009;1.891928762197495E-001;3.864482417702675E-002;3.993053454905748E-003;4.177573719061911E-004;
2.405833333333334E+009;1.904141306877136E-001;3.849790990352631E-002;4.040558822453022E-003;7.251690840348601E-005;
2.406000000000000E+009;1.913695037364960E-001;3.831331059336662E-002;3.887176979333162E-003;-4.093306779395789E-005;
2.406166666666667E+009;1.924353092908859E-001;3.822354227304459E-002;3.960517700761557E-003;-1.096771957236342E-004;
2.406333333333334E+009;1.932646185159683E-001;3.821311518549919E-002;4.024550784379244E-003;-4.738810239359736E-004;
2.406500000000000E+009;1.940603107213974E-001;3.822598978877068E-002;3.823266830295324E-003;-4.124373663216829E-004;
2.406666666666667E+009;1.945632696151733E-001;3.816090524196625E-002;3.836582181975246E-003;-8.260185131803155E-004;
2.406833333333334E+009;1.951186209917069E-001;3.823146224021912E-002;3.796578850597143E-003;-8.466633153147996E-004;
2.407000000000000E+009;1.953176409006119E-001;3.842522576451302E-002;3.911724779754877E-003;-9.603399084880948E-004;
2.407166666666667E+009;1.956657767295837E-001;3.837027773261070E-002;3.789241425693035E-003;-1.196816447190940E-003;
2.407333333333334E+009;1.955865174531937E-001;3.832023590803146E-002;3.722618101164699E-003;-1.231916132383049E-003;
2.407500000000000E+009;1.954922974109650E-001;3.843677043914795E-002;3.629707498475909E-003;-1.355863292701542E-003;
2.407666666666667E+009;1.954888999462128E-001;3.836197033524513E-002;3.581370227038860E-003;-1.459636143408716E-003;
2.407833333333334E+009;1.949928700923920E-001;3.826547786593437E-002;3.567084204405546E-003;-1.534006558358669E-003;
2.408000000000000E+009;1.950034201145172E-001;3.801439329981804E-002;3.506068838760257E-003;-1.615926390513778E-003;
2.408166666666667E+009;1.942557245492935E-001;3.770767897367477E-002;3.376123728230596E-003;-1.586012309417129E-003;
2.408333333333334E+009;1.939600557088852E-001;3.716009855270386E-002;3.514640964567661E-003;-1.806531683541834E-003;
2.408500000000000E+009;1.930035501718521E-001;3.676596656441689E-002;3.409736556932330E-003;-2.011402510106564E-003;
2.408666666666667E+009;1.925831586122513E-001;3.621175512671471E-002;3.224520944058895E-003;-2.009270479902625E-003;
2.408833333333334E+009;1.917770355939865E-001;3.534957766532898E-002;3.376018488779664E-003;-2.004533540457487E-003;
2.409000000000000E+009;1.908846795558929E-001;3.444821387529373E-002;3.285537008196116E-003;-2.235309220850468E-003;
2.409166666666667E+009;1.899596601724625E-001;3.349514678120613E-002;3.118677996098995E-003;-2.197330351918936E-003;
2.409333333333334E+009;1.890479922294617E-001;3.242038935422897E-002;2.997452858835459E-003;-2.343988511711359E-003;
2.409500000000000E+009;1.878454238176346E-001;3.108663484454155E-002;2.860996872186661E-003;-2.457994502037764E-003;
2.409666666666667E+009;1.870613694190979E-001;2.967959642410278E-002;2.977147232741118E-003;-2.546124393120408E-003;
2.409833333333334E+009;1.858647316694260E-001;2.809118293225765E-002;2.925160340964794E-003;-2.566238632425666E-003;
2.410000000000000E+009;1.850345879793167E-001;2.638859860599041E-002;2.912431722506881E-003;-2.540153684094548E-003;
2.410166666666667E+009;1.839968413114548E-001;2.456659078598023E-002;2.919397084042430E-003;-2.613216871395707E-003;
2.410333333333334E+009;1.832043826580048E-001;2.265397086739540E-002;2.876507351174951E-003;-2.849809359759092E-003;
2.410500000000000E+009;1.821248829364777E-001;2.080291137099266E-002;2.886459929868579E-003;-2.709015272557735E-003;
2.410666666666667E+009;1.812324970960617E-001;1.855031214654446E-002;2.883097855374217E-003;-2.876821439713240E-003;
2.410833333333334E+009;1.807124018669128E-001;1.639856211841106E-002;2.935569034889340E-003;-3.088979749009013E-003;
2.411000000000000E+009;1.800591796636581E-001;1.405545044690371E-002;2.938621211796999E-003;-3.224991960451007E-003;
2.411166666666667E+009;1.794254779815674E-001;1.183395273983479E-002;2.762896241620183E-003;-3.622382180765271E-003;
2.411333333333334E+009;1.790200024843216E-001;9.449229575693607E-003;2.805453026667237E-003;-3.675821702927351E-003;
2.411500000000000E+009;1.786005198955536E-001;7.217733189463615E-003;2.552603371441364E-003;-3.857555100694299E-003;
2.411666666666667E+009;1.783909052610397E-001;4.715822637081146E-003;2.438281429931521E-003;-4.166645929217339E-003;
2.411833333333334E+009;1.782884001731873E-001;2.265784190967679E-003;2.328132977709174E-003;-4.214764572679997E-003;
2.412000000000000E+009;1.783968508243561E-001;-3.150310367345810E-004;2.272776560857892E-003;-4.480294883251190E-003;
2.412166666666667E+009;1.785313040018082E-001;-2.356780227273703E-003;2.002885565161705E-003;-4.644406959414482E-003;
2.412333333333334E+009;1.788339614868164E-001;-4.959215410053730E-003;1.654987339861691E-003;-4.765630234032869E-003;
2.412500000000000E+009;1.791956126689911E-001;-7.446341682225466E-003;1.520593883469701E-003;-4.787731915712357E-003;
2.412666666666667E+009;1.797926425933838E-001;-9.866827167570591E-003;1.158970873802900E-003;-4.996666684746742E-003;
2.412833333333334E+009;1.804844439029694E-001;-1.224335655570030E-002;9.884408209472895E-004;-4.921275656670332E-003;
2.413000000000000E+009;1.812504529953003E-001;-1.457597129046917E-002;6.580408080480993E-004;-5.118930246680975E-003;
2.413166666666667E+009;1.820435523986816E-001;-1.671768166124821E-002;4.247234610375017E-004;-5.069458391517401E-003;
2.413333333333334E+009;1.831056922674179E-001;-1.909521035850048E-002;5.448403499030974E-006;-5.060524214059115E-003;
2.413500000000000E+009;1.839846074581146E-001;-2.131835184991360E-002;-9.646001126384363E-005;-5.039419047534466E-003;
2.413666666666667E+009;1.850838959217072E-001;-2.347543835639954E-002;-4.285338800400496E-004;-4.964584484696388E-003;
2.413833333333334E+009;1.862721443176270E-001;-2.529812231659889E-002;-7.526499684900045E-004;-4.863320849835873E-003;
2.414000000000000E+009;1.872518658638001E-001;-2.720739878714085E-002;-9.941747412085533E-004;-4.598741885274649E-003;
2.414166666666667E+009;1.885722130537033E-001;-2.906871587038040E-002;-9.664523531682789E-004;-4.593189340084791E-003;
2.414333333333334E+009;1.895794123411179E-001;-3.101044334471226E-002;-1.319033326581121E-003;-4.652735311537981E-003;
2.414500000000000E+009;1.910604238510132E-001;-3.249013796448708E-002;-1.431438722647727E-003;-4.472492262721062E-003;
2.414666666666667E+009;1.920304596424103E-001;-3.380966559052467E-002;-1.688913209363818E-003;-4.409903194755316E-003;
2.414833333333334E+009;1.932426393032074E-001;-3.504091128706932E-002;-1.709502772428095E-003;-4.200085997581482E-003;
2.415000000000000E+009;1.942193061113358E-001;-3.648011386394501E-002;-1.737215323373675E-003;-4.147791769355536E-003;
2.415166666666667E+009;1.954934597015381E-001;-3.740059956908226E-002;-1.984053524211049E-003;-4.043314605951309E-003;
2.415333333333334E+009;1.967250853776932E-001;-3.839039430022240E-002;-2.123214770108461E-003;-3.925088327378035E-003;
2.415500000000000E+009;1.976758986711502E-001;-3.898140415549278E-002;-2.393597736954689E-003;-3.804644802585244E-003;
2.415666666666667E+009;1.987236887216568E-001;-3.992805629968643E-002;-2.451366977766156E-003;-3.821381134912372E-003;
2.415833333333334E+009;1.994509994983673E-001;-4.040281847119331E-002;-2.561894943937659E-003;-3.502731909975410E-003;
2.416000000000000E+009;2.000413835048676E-001;-4.092102497816086E-002;-2.706923754885793E-003;-3.505676751956344E-003;
2.416166666666667E+009;2.009351104497910E-001;-4.146787151694298E-002;-2.781960647553206E-003;-3.244224702939391E-003;
2.416333333333334E+009;2.014362812042236E-001;-4.171753302216530E-002;-3.098046872764826E-003;-3.150981385260820E-003;
2.416500000000000E+009;2.018922716379166E-001;-4.189028218388557E-002;-3.212567651644349E-003;-2.811862155795097E-003;
2.416666666666667E+009;2.021930664777756E-001;-4.223157092928886E-002;-3.125883871689439E-003;-2.700145822018385E-003;
2.416833333333334E+009;2.022754698991776E-001;-4.227251186966896E-002;-3.330034902319312E-003;-2.582438057288528E-003;
2.417000000000000E+009;2.024054676294327E-001;-4.238339886069298E-002;-3.267180873081088E-003;-2.309021772816777E-003;
2.417166666666667E+009;2.020702511072159E-001;-4.236892238259316E-002;-3.397195599973202E-003;-2.119018230587244E-003;
2.417333333333334E+009;2.018676698207855E-001;-4.214624688029289E-002;-3.150526899844408E-003;-2.103005070239306E-003;
2.417500000000000E+009;2.014639377593994E-001;-4.217373579740524E-002;-3.106044372543693E-003;-1.741304993629456E-003;
2.417666666666667E+009;2.009971886873245E-001;-4.193882271647453E-002;-3.342737443745136E-003;-1.792754861526191E-003;
2.417833333333334E+009;2.004743963479996E-001;-4.188676923513413E-002;-3.251671791076660E-003;-1.613827189430594E-003;
2.418000000000000E+009;1.998050957918167E-001;-4.155280441045761E-002;-3.235068405047059E-003;-1.356096705421805E-003;
2.418166666666667E+009;1.989553421735764E-001;-4.156307131052017E-002;-3.071859711781144E-003;-1.216408680193126E-003;
2.418333333333334E+009;1.980329453945160E-001;-4.158239811658859E-002;-2.875509206205607E-003;-1.284027239307761E-003;
2.418500000000000E+009;1.970103681087494E-001;-4.149366170167923E-002;-2.973773982375860E-003;-1.248196116648614E-003;
2.418666666666667E+009;1.960872262716293E-001;-4.136503115296364E-002;-2.903655869886279E-003;-1.326066558249295E-003;
2.418833333333334E+009;1.948499530553818E-001;-4.165878519415855E-002;-2.901659347116947E-003;-1.118320273235440E-003;
2.419000000000000E+009;1.935714483261108E-001;-4.185086861252785E-002;-2.745835110545158E-003;-1.176678808405995E-003;
2.419166666666667E+009;1.923503875732422E-001;-4.220654070377350E-002;-2.769038546830416E-003;-1.211575348861516E-003;
2.419333333333334E+009;1.909784823656082E-001;-4.268588498234749E-002;-2.866527996957302E-003;-1.108940574340522E-003;
2.419500000000000E+009;1.895985752344132E-001;-4.322201758623123E-002;-2.723225858062506E-003;-1.186669687740505E-003;
2.419666666666667E+009;1.878067553043366E-001;-4.411147162318230E-002;-3.038289723917842E-003;-9.705867851153016E-004;
2.419833333333334E+009;1.863035112619400E-001;-4.476422071456909E-002;-3.024316392838955E-003;-1.098088221624494E-003;
2.420000000000000E+009;1.848059445619583E-001;-4.561916366219521E-002;-3.078231355175376E-003;-9.715965134091675E-004;
2.420166666666667E+009;1.832768470048904E-001;-4.670703038573265E-002;-3.072956344112754E-003;-8.396468474529684E-004;
2.420333333333334E+009;1.817143857479096E-001;-4.794882982969284E-002;-3.052970627322793E-003;-8.292312268167734E-004;
2.420500000000000E+009;1.799263060092926E-001;-4.925166070461273E-002;-3.229299793019891E-003;-6.970113608986139E-004;
2.420666666666667E+009;1.785546541213989E-001;-5.044928938150406E-002;-3.237186465412378E-003;-7.123630493879318E-004;
2.420833333333334E+009;1.768009364604950E-001;-5.198502913117409E-002;-3.194913966581225E-003;-3.703924594447017E-004;
2.421000000000000E+009;1.754822283983231E-001;-5.358545109629631E-002;-3.326918464154005E-003;-4.550260782707483E-004;
2.421166666666667E+009;1.741105318069458E-001;-5.519158393144608E-002;-3.282674355432391E-003;-2.025974827120081E-004;
2.421333333333334E+009;1.723792850971222E-001;-5.667058378458023E-002;-3.023945260792971E-003;-1.975790073629469E-004;
2.421500000000000E+009;1.712287366390228E-001;-5.874605476856232E-002;-3.050141502171755E-003;-8.488153980579227E-005;
2.421666666666667E+009;1.702268421649933E-001;-6.065010279417038E-002;-3.027257043868303E-003;1.412824803992407E-005;
2.421833333333334E+009;1.690173894166946E-001;-6.246563419699669E-002;-3.016522154211998E-003;-2.594446414150298E-005;
2.422000000000000E+009;1.678769588470459E-001;-6.438065320253372E-002;-3.027647500857711E-003;2.139393836841919E-005;
2.422166666666667E+009;1.672068536281586E-001;-6.655691564083099E-002;-3.079300746321678E-003;7.680887938477099E-005;
2.422333333333334E+009;1.660475134849548E-001;-6.839197129011154E-002;-2.987434156239033E-003;1.050624632625841E-004;
2.422500000000000E+009;1.653736531734467E-001;-7.028505206108093E-002;-2.957095857709646E-003;1.813145499909297E-004;
2.422666666666667E+009;1.646770685911179E-001;-7.243192940950394E-002;-2.997486852109432E-003;3.068728547077626E-004;
2.422833333333334E+009;1.641757637262344E-001;-7.456784695386887E-002;-3.022693796083331E-003;2.004819689318538E-004;
2.423000000000000E+009;1.638336479663849E-001;-7.651960104703903E-002;-2.847712254151702E-003;3.676034102682024E-004;
2.423166666666667E+009;1.634234189987183E-001;-7.841567695140839E-002;-2.925958484411240E-003;2.767835394479334E-004;
2.423333333333334E+009;1.631876081228256E-001;-8.031997829675674E-002;-2.940938808023930E-003;2.810330188367516E-004;
2.423500000000000E+009;1.630443483591080E-001;-8.211518824100494E-002;-2.874972764402628E-003;4.662174324039370E-004;
2.423666666666667E+009;1.631280332803726E-001;-8.392690867185593E-002;-3.095224266871810E-003;5.092846695333719E-004;
2.423833333333334E+009;1.631033867597580E-001;-8.559616655111313E-002;-3.043689532205463E-003;5.888793384656310E-004;
2.424000000000000E+009;1.630755662918091E-001;-8.732382208108902E-002;-3.164453897625208E-003;6.199648487381637E-004;
2.424166666666667E+009;1.632952839136124E-001;-8.884000778198242E-002;-3.244719468057156E-003;6.836199318058789E-004;
2.424333333333334E+009;1.634582728147507E-001;-9.032792598009110E-002;-3.241652389988303E-003;7.832231931388378E-004;
2.424500000000000E+009;1.639553159475327E-001;-9.199848026037216E-002;-3.091046586632729E-003;9.039075812324882E-004;
2.424666666666667E+009;1.641107648611069E-001;-9.338375926017761E-002;-3.422583220526576E-003;1.220008591189981E-003;
2.424833333333334E+009;1.647679805755615E-001;-9.458060562610626E-002;-3.296260023489595E-003;1.135468832217157E-003;
2.425000000000000E+009;1.650913059711456E-001;-9.571729600429535E-002;-3.390361787751317E-003;1.391314202919602E-003;
2.425166666666667E+009;1.653065234422684E-001;-9.665141254663467E-002;-3.333027707412839E-003;1.609183032996953E-003;
2.425333333333334E+009;1.657387912273407E-001;-9.769206494092941E-002;-3.429330419749022E-003;1.580069307237864E-003;
2.425500000000000E+009;1.661364287137985E-001;-9.864562749862671E-002;-3.266224171966314E-003;1.774032018147409E-003;
2.425666666666667E+009;1.665826737880707E-001;-9.919666498899460E-002;-3.144858404994011E-003;1.963720656931400E-003;
2.425833333333334E+009;1.667644530534744E-001;-1.001065969467163E-001;-3.178073093295097E-003;2.122785197570920E-003;
2.426000000000000E+009;1.672128140926361E-001;-1.004359573125839E-001;-3.113372251391411E-003;2.105469582602382E-003;
2.426166666666667E+009;1.675674915313721E-001;-1.009020507335663E-001;-2.902824664488435E-003;2.537851454690099E-003;
2.426333333333334E+009;1.676364094018936E-001;-1.013800799846649E-001;-2.863066038116813E-003;2.461349358782172E-003;
2.426500000000000E+009;1.681180596351624E-001;-1.016354709863663E-001;-2.726413309574127E-003;2.558965934440494E-003;
2.426666666666667E+009;1.682505458593369E-001;-1.018930822610855E-001;-2.348477719351649E-003;2.707796636968851E-003;
2.426833333333334E+009;1.684287041425705E-001;-1.022726073861122E-001;-2.488802885636687E-003;2.783280098810792E-003;
2.427000000000000E+009;1.684835404157639E-001;-1.025081500411034E-001;-2.401195699349046E-003;2.723549958318472E-003;
2.427166666666667E+009;1.684688180685043E-001;-1.025451049208641E-001;-2.250076970085502E-003;3.064539283514023E-003;
2.427333333333334E+009;1.683459281921387E-001;-1.027813255786896E-001;-2.108791843056679E-003;2.990420442074537E-003;
2.427500000000000E+009;1.680438667535782E-001;-1.029037609696388E-001;-1.956396270543337E-003;3.136781975626946E-003;
2.427666666666667E+009;1.676600724458695E-001;-1.030843704938889E-001;-1.761216786690056E-003;3.136951243504882E-003;
