# Version 1.00
#
freq[Hz];re:Trc1_S11;im:Trc1_S11;re:Trc2_S21;im:Trc2_S21;
2.400000000000000E+009;1.546068042516708E-001;1.062623709440231E-001;1.146888942457736E-003;3.687788965180516E-003;
2.400166666666667E+009;1.542743295431137E-001;1.039429083466530E-001;1.183478860184550E-003;3.850262844935060E-003;
2.400333333333334E+009;1.543661803007126E-001;1.015206947922707E-001;1.578875817358494E-003;3.643956733867526E-003;
2.400500000000000E+009;1.542722731828690E-001;9.888350963592529E-002;1.722706714645028E-003;3.595455083996058E-003;
2.400666666666667E+009;1.544917225837708E-001;9.655876457691193E-002;2.111098729074001E-003;3.511034185066819E-003;
2.400833333333334E+009;1.544023454189301E-001;9.348057955503464E-002;2.450301079079509E-003;3.497192868962884E-003;
2.401000000000000E+009;1.547215431928635E-001;9.073369950056076E-002;2.534073079004884E-003;3.262117039412260E-003;
2.401166666666667E+009;1.547017544507980E-001;8.822596818208695E-002;2.724014455452561E-003;2.930025802925229E-003;
2.401333333333334E+009;1.552154421806335E-001;8.527345210313797E-002;2.752900123596191E-003;2.909744856879115E-003;
2.401500000000000E+009;1.557453274726868E-001;8.241410553455353E-002;2.829943783581257E-003;2.691715490072966E-003;
2.401666666666667E+009;1.560683399438858E-001;7.960525900125504E-002;2.778937341645360E-003;2.419400960206986E-003;
2.401833333333334E+009;1.567141860723496E-001;7.691176980733872E-002;2.891686744987965E-003;2.324623754248023E-003;
2.402000000000000E+009;1.575362086296082E-001;7.423484325408936E-002;2.863751258701086E-003;2.161009004339576E-003;
2.402166666666667E+009;1.583704650402069E-001;7.161412388086319E-002;2.860958455130458E-003;2.006515162065625E-003;
2.402333333333334E+009;1.595712602138519E-001;6.896729022264481E-002;2.943350235000253E-003;1.911293016746640E-003;
2.402500000000000E+009;1.606339216232300E-001;6.665078550577164E-002;2.926012966781855E-003;1.914101769216359E-003;
2.402666666666667E+009;1.617618352174759E-001;6.439086049795151E-002;2.847595605999231E-003;1.596846268512309E-003;
2.402833333333334E+009;1.631950139999390E-001;6.195133551955223E-002;2.899149199947715E-003;1.597023801878095E-003;
2.403000000000000E+009;1.646012812852860E-001;5.968362465500832E-002;2.708751242607832E-003;1.590145053341985E-003;
2.403166666666667E+009;1.665064990520477E-001;5.748815461993218E-002;3.018767107278109E-003;1.520472229458392E-003;
2.403333333333334E+009;1.677628904581070E-001;5.523137375712395E-002;2.742911921814084E-003;1.368243363685906E-003;
2.403500000000000E+009;1.696763783693314E-001;5.339887365698814E-002;2.643421525135636E-003;1.344246556982398E-003;
2.403666666666667E+009;1.714587807655335E-001;5.161071196198463E-002;2.883417066186667E-003;1.456907135434449E-003;
2.403833333333334E+009;1.730962693691254E-001;4.963301494717598E-002;2.740653697401285E-003;1.511629670858383E-003;
2.404000000000000E+009;1.745275110006332E-001;4.797444492578507E-002;2.871439792215824E-003;1.341022551059723E-003;
2.404166666666667E+009;1.764032542705536E-001;4.648908227682114E-002;2.954138442873955E-003;1.441394444555044E-003;
2.404333333333334E+009;1.779404878616333E-001;4.499547928571701E-002;2.999818185344338E-003;1.392800011672080E-003;
2.404500000000000E+009;1.795699745416641E-001;4.371677711606026E-002;3.161084139719605E-003;1.332302694208920E-003;
2.404666666666667E+009;1.811748296022415E-001;4.256656393408775E-002;3.319231327623129E-003;1.473808777518570E-003;
2.404833333333334E+009;1.828713715076447E-001;4.151846840977669E-002;3.519201651215553E-003;1.198377227410674E-003;
2.405000000000000E+009;1.842334419488907E-001;4.100149124860764E-002;3.526009386405349E-003;1.223445637151599E-003;
2.405166666666667E+009;1.855438053607941E-001;4.018277302384377E-002;3.860299475491047E-003;1.028949278406799E-003;
2.405333333333334E+009;1.870174258947372E-001;3.989408537745476E-002;3.816324518993497E-003;8.056000806391239E-004;
2.405500000000000E+009;1.883647739887238E-001;3.942694142460823E-002;3.966100513935089E-003;5.712102283723652E-004;
2.405666666666667E+009;1.895527988672257E-001;3.898082673549652E-002;4.150995519012213E-003;3.444740432314575E-004;
2.405833333333334E+009;1.907362937927246E-001;3.874841704964638E-002;4.188017919659615E-003;3.485518100205809E-004;
2.406000000000000E+009;1.918275505304337E-001;3.853888064622879E-002;4.224089905619621E-003;1.760856866894756E-005;
2.406166666666667E+009;1.926877647638321E-001;3.829869627952576E-002;4.016143735498190E-003;-1.223886647494510E-004;
2.406333333333334E+009;1.936749219894409E-001;3.839966654777527E-002;4.124843515455723E-003;-5.182424793019891E-004;
2.406500000000000E+009;1.942699849605560E-001;3.845196589827538E-002;3.962989896535873E-003;-6.039912695996463E-004;
2.406666666666667E+009;1.948489397764206E-001;3.854792565107346E-002;3.870090236887336E-003;-7.348312647081912E-004;
2.406833333333334E+009;1.953326463699341E-001;3.847783431410790E-002;3.719115862622857E-003;-8.816188783384860E-004;
2.407000000000000E+009;1.956218630075455E-001;3.867224976420403E-002;3.682600567117333E-003;-1.056727138347924E-003;
2.407166666666667E+009;1.960545182228088E-001;3.845641762018204E-002;3.736593760550022E-003;-9.682297240942717E-004;
2.407333333333334E+009;1.959489434957504E-001;3.861370310187340E-002;3.865326289087534E-003;-1.020414289087057E-003;
2.407500000000000E+009;1.958506703376770E-001;3.865898028016090E-002;3.657554509118199E-003;-1.301639946177602E-003;
2.407666666666667E+009;1.958479285240173E-001;3.852233663201332E-002;3.692757803946734E-003;-1.293599838390946E-003;
2.407833333333334E+009;1.953275203704834E-001;3.845343738794327E-002;3.608537372201681E-003;-1.555976574309170E-003;
2.408000000000000E+009;1.952354609966278E-001;3.810508921742439E-002;3.569433698430657E-003;-1.584658399224281E-003;
2.408166666666667E+009;1.947396844625473E-001;3.782410919666290E-002;3.508844180032611E-003;-1.664310577325523E-003;
2.408333333333334E+009;1.941817700862885E-001;3.725638613104820E-002;3.363989992067218E-003;-1.625382690690458E-003;
2.408500000000000E+009;1.934725642204285E-001;3.686546906828880E-002;3.389265621080995E-003;-1.793502480722964E-003;
2.408666666666667E+009;1.928654909133911E-001;3.623585775494576E-002;3.386668628081679E-003;-1.924029318615794E-003;
2.408833333333334E+009;1.921894252300263E-001;3.547824546694756E-002;3.176366910338402E-003;-2.073222538456321E-003;
2.409000000000000E+009;1.912610828876495E-001;3.444637730717659E-002;3.135174745693803E-003;-2.095829229801893E-003;
2.409166666666667E+009;1.902540177106857E-001;3.351829573512077E-002;3.070604754611850E-003;-2.194904722273350E-003;
2.409333333333334E+009;1.894457191228867E-001;3.241056576371193E-002;3.181343898177147E-003;-2.274066675454378E-003;
2.409500000000000E+009;1.883758008480072E-001;3.098845109343529E-002;3.223375882953405E-003;-2.450024243444204E-003;
2.409666666666667E+009;1.872994750738144E-001;2.965008467435837E-002;3.007384249940515E-003;-2.355725271627307E-003;
2.409833333333334E+009;1.862963289022446E-001;2.796669304370880E-002;2.903123386204243E-003;-2.477006986737251E-003;
2.410000000000000E+009;1.854377090930939E-001;2.639603242278099E-002;2.955110510811210E-003;-2.543911570683122E-003;
2.410166666666667E+009;1.843494921922684E-001;2.450833842158318E-002;3.031800966709852E-003;-2.578005893155932E-003;
2.410333333333334E+009;1.833784431219101E-001;2.256382815539837E-002;2.998613286763430E-003;-2.673741430044174E-003;
2.410500000000000E+009;1.824803203344345E-001;2.071114070713520E-002;2.971526468172669E-003;-2.718024887144566E-003;
2.410666666666667E+009;1.816550791263580E-001;1.845135726034641E-002;2.857010811567307E-003;-3.046954516321421E-003;
2.410833333333334E+009;1.809506565332413E-001;1.614765822887421E-002;2.914389828220010E-003;-3.010468557476997E-003;
2.411000000000000E+009;1.803550720214844E-001;1.418638415634632E-002;3.067291341722012E-003;-3.345632925629616E-003;
2.411166666666667E+009;1.797643601894379E-001;1.193021796643734E-002;2.998298266902566E-003;-3.525515552610159E-003;
2.411333333333334E+009;1.792637109756470E-001;9.323195554316044E-003;2.851811703294516E-003;-3.670613979920745E-003;
2.411500000000000E+009;1.787734180688858E-001;7.099437061697245E-003;2.749480307102203E-003;-3.879731521010399E-003;
2.411666666666667E+009;1.788242906332016E-001;4.545400384813547E-003;2.560722408816218E-003;-4.086615517735481E-003;
2.411833333333334E+009;1.785105466842651E-001;2.218221314251423E-003;2.321819541975856E-003;-4.260522313416004E-003;
2.412000000000000E+009;1.786711215972900E-001;-3.516323340591043E-004;2.315721707418561E-003;-4.343713633716106E-003;
2.412166666666667E+009;1.786968410015106E-001;-2.548384480178356E-003;1.961546251550317E-003;-4.598735831677914E-003;
2.412333333333334E+009;1.790340244770050E-001;-5.105849355459213E-003;1.723559689708054E-003;-4.693191964179277E-003;
2.412500000000000E+009;1.794559210538864E-001;-7.626883685588837E-003;1.561720855534077E-003;-4.865211434662342E-003;
2.412666666666667E+009;1.801050305366516E-001;-1.004633493721485E-002;1.237337128259242E-003;-4.996933508664370E-003;
2.412833333333334E+009;1.807547062635422E-001;-1.249926444143057E-002;1.006201258860529E-003;-4.930157214403153E-003;
2.413000000000000E+009;1.816864311695099E-001;-1.478832215070725E-002;6.503977347165346E-004;-5.084532313048840E-003;
2.413166666666667E+009;1.823474764823914E-001;-1.702459156513214E-002;2.760860952548683E-004;-5.083014722913504E-003;
2.413333333333334E+009;1.833775043487549E-001;-1.933037117123604E-002;1.670318306423724E-004;-5.016164388507605E-003;
2.413500000000000E+009;1.842043399810791E-001;-2.152467146515846E-002;-1.187965390272439E-004;-5.106080789119005E-003;
2.413666666666667E+009;1.853633821010590E-001;-2.363996952772141E-002;-5.005864077247679E-004;-4.974425770342350E-003;
2.413833333333334E+009;1.864619255065918E-001;-2.565650828182697E-002;-6.750682950951159E-004;-4.786447621881962E-003;
2.414000000000000E+009;1.876340359449387E-001;-2.750853076577187E-002;-8.086410816758871E-004;-4.692817106842995E-003;
2.414166666666667E+009;1.887289583683014E-001;-2.928606793284416E-002;-9.894197573885322E-004;-4.699416458606720E-003;
2.414333333333334E+009;1.899178475141525E-001;-3.123858384788036E-002;-1.224554725922644E-003;-4.481029696762562E-003;
2.414500000000000E+009;1.910837888717651E-001;-3.251386806368828E-002;-1.488133333623409E-003;-4.581723362207413E-003;
2.414666666666667E+009;1.921569257974625E-001;-3.407444059848785E-002;-1.553207053802908E-003;-4.324343055486679E-003;
2.414833333333334E+009;1.933269798755646E-001;-3.543484583497047E-002;-1.622800249606371E-003;-4.387638065963984E-003;
2.415000000000000E+009;1.943819075822830E-001;-3.663578629493713E-002;-1.814719988033176E-003;-4.303300287574530E-003;
2.415166666666667E+009;1.956233680248261E-001;-3.777224197983742E-002;-2.099658828228712E-003;-4.005973692983389E-003;
2.415333333333334E+009;1.966438591480255E-001;-3.859097883105278E-002;-2.204671502113342E-003;-4.077954217791557E-003;
2.415500000000000E+009;1.978597640991211E-001;-3.927664458751679E-002;-2.339051570743322E-003;-3.904642770066857E-003;
2.415666666666667E+009;1.989013850688934E-001;-4.006630182266235E-002;-2.464815508574247E-003;-3.644081531092525E-003;
2.415833333333334E+009;1.995530277490616E-001;-4.059652611613274E-002;-2.551060169935226E-003;-3.658897476270795E-003;
2.416000000000000E+009;2.002778947353363E-001;-4.126811772584915E-002;-2.783231670036912E-003;-3.489923663437367E-003;
2.416166666666667E+009;2.010154426097870E-001;-4.174183681607246E-002;-2.888662973418832E-003;-3.410119330510497E-003;
2.416333333333334E+009;2.015428394079208E-001;-4.206258431077004E-002;-2.995619550347328E-003;-3.300064709037542E-003;
2.416500000000000E+009;2.019120454788208E-001;-4.227159172296524E-002;-3.021934069693089E-003;-3.076325170695782E-003;
2.416666666666667E+009;2.022915780544281E-001;-4.246560484170914E-002;-3.223561914637685E-003;-2.806404838338494E-003;
2.416833333333334E+009;2.022879421710968E-001;-4.248556122183800E-002;-3.191612195223570E-003;-2.569750882685185E-003;
2.417000000000000E+009;2.025461047887802E-001;-4.264012351632118E-002;-3.271815134212375E-003;-2.391673158854246E-003;
2.417166666666667E+009;2.020691484212875E-001;-4.257452860474587E-002;-3.204652806743980E-003;-2.222792711108923E-003;
2.417333333333334E+009;2.018363624811173E-001;-4.237617552280426E-002;-3.267920576035976E-003;-2.117254771292210E-003;
2.417500000000000E+009;2.016149759292603E-001;-4.249234125018120E-002;-3.254414768889546E-003;-1.868597930297256E-003;
2.417666666666667E+009;2.009887695312500E-001;-4.234267771244049E-002;-3.117137588560581E-003;-1.777693512849510E-003;
2.417833333333334E+009;2.004964351654053E-001;-4.209247976541519E-002;-3.141109133139253E-003;-1.634680433198810E-003;
2.418000000000000E+009;1.998924016952515E-001;-4.180811718106270E-002;-2.985563129186630E-003;-1.458936254493892E-003;
2.418166666666667E+009;1.990130245685577E-001;-4.176584258675575E-002;-3.101826878264546E-003;-1.408992451615632E-003;
2.418333333333334E+009;1.981643289327622E-001;-4.164789989590645E-002;-2.791585866361857E-003;-1.302844262681902E-003;
2.418500000000000E+009;1.971300244331360E-001;-4.176464304327965E-002;-2.858847146853805E-003;-1.338562928140163E-003;
2.418666666666667E+009;1.962015628814697E-001;-4.158825427293778E-002;-2.784564392641187E-003;-1.292900298722088E-003;
2.418833333333334E+009;1.949374824762344E-001;-4.197819530963898E-002;-2.819292480126023E-003;-1.255031093023717E-003;
2.419000000000000E+009;1.935230195522308E-001;-4.204229265451431E-002;-2.841665176674724E-003;-1.235090778209269E-003;
2.419166666666667E+009;1.923070549964905E-001;-4.237498715519905E-002;-2.787674078717828E-003;-1.088203745894134E-003;
2.419333333333334E+009;1.909673959016800E-001;-4.302408918738365E-002;-2.865845104679465E-003;-1.200409606099129E-003;
2.419500000000000E+009;1.893533468246460E-001;-4.341086745262146E-002;-2.836940111592412E-003;-1.207130611874163E-003;
2.419666666666667E+009;1.879283189773560E-001;-4.429688677191734E-002;-2.909803530201316E-003;-1.190845039673150E-003;
2.419833333333334E+009;1.863203495740891E-001;-4.507326334714890E-002;-2.843642141669989E-003;-1.251898589543998E-003;
2.420000000000000E+009;1.847849786281586E-001;-4.595243185758591E-002;-3.075906075537205E-003;-1.135610160417855E-003;
2.420166666666667E+009;1.831862777471542E-001;-4.688256606459618E-002;-3.096860600635409E-003;-9.559942409396172E-004;
2.420333333333334E+009;1.817904859781265E-001;-4.808955639600754E-002;-3.196329809725285E-003;-8.330871351063252E-004;
2.420500000000000E+009;1.799882650375366E-001;-4.944942519068718E-002;-3.175365738570690E-003;-7.868723478168249E-004;
2.420666666666667E+009;1.784356981515884E-001;-5.052305385470390E-002;-3.230196423828602E-003;-6.097448058426380E-004;
2.420833333333334E+009;1.768257170915604E-001;-5.222874507308006E-002;-3.175204386934638E-003;-4.319348663557321E-004;
2.421000000000000E+009;1.755154132843018E-001;-5.372079089283943E-002;-3.233131254091859E-003;-3.449349896982312E-004;
2.421166666666667E+009;1.741832941770554E-001;-5.551850050687790E-002;-3.272754373028874E-003;-1.976229686988518E-004;
2.421333333333334E+009;1.723314225673676E-001;-5.696815997362137E-002;-3.003012156113982E-003;-2.390039298916236E-004;
2.421500000000000E+009;1.711847186088562E-001;-5.908328667283058E-002;-3.143389942124486E-003;-1.513475435785949E-004;
2.421666666666667E+009;1.699514240026474E-001;-6.074078753590584E-002;-3.098820336163044E-003;-1.221686834469438E-004;
2.421833333333334E+009;1.690732240676880E-001;-6.262163817882538E-002;-2.887483919039369E-003;-2.559287713665981E-005;
2.422000000000000E+009;1.677487939596176E-001;-6.440268456935883E-002;-2.987429266795516E-003;-3.570629996829666E-005;
2.422166666666667E+009;1.669960618019104E-001;-6.666069477796555E-002;-2.972411457449198E-003;1.324468121310929E-005;
2.422333333333334E+009;1.659604310989380E-001;-6.860494613647461E-002;-3.029586514458060E-003;-8.377583981200587E-006;
2.422500000000000E+009;1.653262972831726E-001;-7.056669145822525E-002;-2.977582858875394E-003;1.252744459634414E-005;
2.422666666666667E+009;1.644734889268875E-001;-7.251739501953125E-002;-2.925401786342263E-003;1.193059651996009E-004;
2.422833333333334E+009;1.642825156450272E-001;-7.473108172416687E-002;-3.056364133954048E-003;3.553105343598872E-004;
2.423000000000000E+009;1.635570675134659E-001;-7.670463621616364E-002;-3.070889040827751E-003;7.865369843784720E-005;
2.423166666666667E+009;1.632349342107773E-001;-7.852096855640411E-002;-2.948990557342768E-003;3.021438897121698E-004;
2.423333333333334E+009;1.629718542098999E-001;-8.053182065486908E-002;-3.170565934851766E-003;2.132457157131285E-004;
2.423500000000000E+009;1.628471910953522E-001;-8.212409168481827E-002;-3.105428302660584E-003;4.637283855117858E-004;
2.423666666666667E+009;1.631288975477219E-001;-8.409515768289566E-002;-3.116422332823277E-003;3.417701518628746E-004;
2.423833333333334E+009;1.628850400447846E-001;-8.579395711421967E-002;-3.122709924355149E-003;3.745964495465159E-004;
2.424000000000000E+009;1.630623936653137E-001;-8.748356997966766E-002;-3.281906014308333E-003;4.795474233105779E-004;
2.424166666666667E+009;1.630865633487701E-001;-8.903091400861740E-002;-3.332392545416951E-003;6.059071165509522E-004;
2.424333333333334E+009;1.633622199296951E-001;-9.056798368692398E-002;-3.357383422553539E-003;7.264980813488364E-004;
2.424500000000000E+009;1.636311709880829E-001;-9.212911874055862E-002;-3.360281232744455E-003;7.696748943999410E-004;
2.424666666666667E+009;1.640512347221375E-001;-9.338933229446411E-002;-3.434360492974520E-003;9.796348167583346E-004;
2.424833333333334E+009;1.645322889089584E-001;-9.464994817972183E-002;-3.462884109467268E-003;1.240046229213476E-003;
2.425000000000000E+009;1.647625714540482E-001;-9.576144069433212E-002;-3.349673934280872E-003;1.226137625053525E-003;
2.425166666666667E+009;1.652656048536301E-001;-9.677257388830185E-002;-3.373834537342191E-003;1.351615646854043E-003;
2.425333333333334E+009;1.654722988605499E-001;-9.772510081529617E-002;-3.353570820763707E-003;1.643895404413343E-003;
2.425500000000000E+009;1.660626381635666E-001;-9.863767027854919E-002;-3.401438705623150E-003;1.820711884647608E-003;
2.425666666666667E+009;1.663822829723358E-001;-9.926456958055496E-002;-3.216609824448824E-003;1.911493483930826E-003;
2.425833333333334E+009;1.667139828205109E-001;-1.001325100660324E-001;-3.144972259178758E-003;2.173705259338021E-003;
2.426000000000000E+009;1.670392751693726E-001;-1.005120277404785E-001;-3.049633000046015E-003;2.152101136744022E-003;
2.426166666666667E+009;1.673346310853958E-001;-1.008913964033127E-001;-2.912281313911080E-003;2.378774108365178E-003;
2.426333333333334E+009;1.674798578023911E-001;-1.014976426959038E-001;-2.895927755162120E-003;2.581369131803513E-003;
2.426500000000000E+009;1.678428947925568E-001;-1.016895696520805E-001;-2.841113833710551E-003;2.623545471578836E-003;
2.426666666666667E+009;1.681191325187683E-001;-1.020358502864838E-001;-2.625373657792807E-003;2.809609286487103E-003;
2.426833333333334E+009;1.683106571435928E-001;-1.022586375474930E-001;-2.483331132680178E-003;2.752043772488833E-003;
2.427000000000000E+009;1.681987643241882E-001;-1.025762185454369E-001;-2.378978766500950E-003;2.894586650654674E-003;
2.427166666666667E+009;1.683354228734970E-001;-1.025902330875397E-001;-2.409145934507251E-003;3.041709074750543E-003;
2.427333333333334E+009;1.681658178567886E-001;-1.028336510062218E-001;-2.117226365953684E-003;3.045763587579131E-003;
2.427500000000000E+009;1.678297519683838E-001;-1.030505150556564E-001;-2.079072408378124E-003;2.960873302072287E-003;
2.427666666666667E+009;1.674697399139404E-001;-1.030752807855606E-001;-1.817265991121531E-003;3.119554137811065E-003;
