# Version 1.00
#
freq[Hz];re:Trc1_S11;im:Trc1_S11;re:Trc2_S21;im:Trc2_S21;
2.400000000000000E+009;1.546599864959717E-001;1.064252033829689E-001;1.288951141759753E-003;3.877541981637478E-003;
2.400166666666667E+009;1.543928682804108E-001;1.039390712976456E-001;1.518440782092512E-003;3.736504353582859E-003;
2.400333333333334E+009;1.545111984014511E-001;1.015963852405548E-001;1.723701949231327E-003;3.757107537239790E-003;
2.400500000000000E+009;1.545207649469376E-001;9.896713495254517E-002;1.927199074998498E-003;3.724261885508895E-003;
2.400666666666667E+009;1.545738130807877E-001;9.652972221374512E-002;2.174059161916375E-003;3.600361058488488E-003;
2.400833333333334E+009;1.546589136123657E-001;9.370133280754089E-002;2.377992728725076E-003;3.444727510213852E-003;
2.401000000000000E+009;1.547424942255020E-001;9.082875400781632E-002;2.687835600227118E-003;3.235835582017899E-003;
2.401166666666667E+009;1.549025475978851E-001;8.818578720092773E-002;2.562760841101408E-003;3.060179529711604E-003;
2.401333333333334E+009;1.554998457431793E-001;8.531685173511505E-002;2.910056617110968E-003;2.986198524013162E-003;
2.401500000000000E+009;1.558198034763336E-001;8.245901763439179E-002;2.895287936553359E-003;2.659801859408617E-003;
2.401666666666667E+009;1.562492996454239E-001;7.965015619993210E-002;2.904405584558845E-003;2.424198202788830E-003;
2.401833333333334E+009;1.568147689104080E-001;7.704260945320129E-002;3.092854749411345E-003;2.417487557977438E-003;
2.402000000000000E+009;1.576542407274246E-001;7.431028783321381E-002;2.982449019327760E-003;2.204135525971651E-003;
2.402166666666667E+009;1.585723459720612E-001;7.182094454765320E-002;3.046656260266900E-003;1.967244315892458E-003;
2.402333333333334E+009;1.594496518373489E-001;6.896264106035233E-002;2.946522086858749E-003;2.045107772573829E-003;
2.402500000000000E+009;1.605662107467651E-001;6.663049012422562E-002;2.925475360825658E-003;1.765337656252086E-003;
2.402666666666667E+009;1.619641929864883E-001;6.435973197221756E-002;2.996048890054226E-003;1.749042770825326E-003;
2.402833333333334E+009;1.631975471973419E-001;6.205026060342789E-002;2.982655074447393E-003;1.711238524876535E-003;
2.403000000000000E+009;1.648732125759125E-001;5.964620411396027E-002;3.140636486932635E-003;1.512004411779344E-003;
2.403166666666667E+009;1.665418893098831E-001;5.769206210970879E-002;2.959303325042129E-003;1.414431259036064E-003;
2.403333333333334E+009;1.679613441228867E-001;5.529678612947464E-002;2.982424106448889E-003;1.398455002345145E-003;
2.403500000000000E+009;1.695805341005325E-001;5.336487665772438E-002;2.860556822270155E-003;1.475682947784662E-003;
2.403666666666667E+009;1.714296191930771E-001;5.160079151391983E-002;2.863314468413591E-003;1.494486234150827E-003;
2.403833333333334E+009;1.731902360916138E-001;4.971248656511307E-002;2.830815501511097E-003;1.350539154373109E-003;
2.404000000000000E+009;1.746266037225723E-001;4.803445190191269E-002;3.086751792579889E-003;1.200942089781165E-003;
2.404166666666667E+009;1.764211058616638E-001;4.646244272589684E-002;3.147840965539217E-003;1.359430025331676E-003;
2.404333333333334E+009;1.781008094549179E-001;4.513917118310928E-002;3.179679159075022E-003;1.430975273251534E-003;
2.404500000000000E+009;1.796882003545761E-001;4.354175552725792E-002;3.496620804071426E-003;1.282862736843526E-003;
2.404666666666667E+009;1.813406497240067E-001;4.270535707473755E-002;3.500242950394750E-003;1.166541362181306E-003;
2.404833333333334E+009;1.827805638313294E-001;4.146638140082359E-002;3.666064934805036E-003;1.201669685542584E-003;
2.405000000000000E+009;1.840993762016296E-001;4.092306643724442E-002;3.725149901583791E-003;9.374708752147853E-004;
2.405166666666667E+009;1.857267469167709E-001;4.027238488197327E-002;3.860881784930825E-003;9.177331230603159E-004;
2.405333333333334E+009;1.871123313903809E-001;3.985843807458878E-002;4.191633779555559E-003;6.824178854003549E-004;
2.405500000000000E+009;1.883749514818192E-001;3.933048993349075E-002;4.188526887446642E-003;6.425678730010986E-004;
2.405666666666667E+009;1.895944625139237E-001;3.908953815698624E-002;4.150873515754938E-003;3.472230455372483E-004;
2.405833333333334E+009;1.909387260675430E-001;3.885001689195633E-002;4.256150219589472E-003;8.504490688210353E-005;
2.406000000000000E+009;1.918873935937882E-001;3.852712363004684E-002;4.202594049274921E-003;-8.508623432135209E-005;
2.406166666666667E+009;1.927380561828613E-001;3.837603703141213E-002;4.158732946962118E-003;-3.269300214014947E-004;
2.406333333333334E+009;1.938330084085465E-001;3.847396746277809E-002;4.130444023758173E-003;-4.766712372656912E-004;
2.406500000000000E+009;1.944093406200409E-001;3.844176232814789E-002;4.143190104514360E-003;-5.381478113122284E-004;
2.406666666666667E+009;1.949805319309235E-001;3.841238468885422E-002;4.061815794557333E-003;-8.446382125839591E-004;
2.406833333333334E+009;1.953995078802109E-001;3.841694816946983E-002;4.070742521435022E-003;-9.365449659526348E-004;
2.407000000000000E+009;1.956491470336914E-001;3.852465376257896E-002;3.834087401628494E-003;-1.192915136925876E-003;
2.407166666666667E+009;1.961526125669479E-001;3.853057324886322E-002;3.958693239837885E-003;-1.167697017081082E-003;
2.407333333333334E+009;1.958578675985336E-001;3.858868032693863E-002;3.746171249076724E-003;-1.169982017017901E-003;
2.407500000000000E+009;1.958700865507126E-001;3.861676901578903E-002;3.753642085939646E-003;-1.292568980716169E-003;
2.407666666666667E+009;1.959252655506134E-001;3.847606852650642E-002;3.595237387344241E-003;-1.430080155842006E-003;
2.407833333333334E+009;1.953171193599701E-001;3.843059390783310E-002;3.688610624521971E-003;-1.637552632018924E-003;
2.408000000000000E+009;1.953313499689102E-001;3.814953193068504E-002;3.596063470467925E-003;-1.686923671513796E-003;
2.408166666666667E+009;1.947222203016281E-001;3.769083693623543E-002;3.669899888336659E-003;-1.871560001745820E-003;
2.408333333333334E+009;1.944180279970169E-001;3.726589679718018E-002;3.470451338216662E-003;-1.747443689964712E-003;
2.408500000000000E+009;1.934980899095535E-001;3.679114580154419E-002;3.378493478521705E-003;-2.040779450908303E-003;
2.408666666666667E+009;1.929622292518616E-001;3.637053072452545E-002;3.339139977470040E-003;-2.087838482111692E-003;
2.408833333333334E+009;1.922414898872376E-001;3.547792881727219E-002;3.325851168483496E-003;-2.145922509953380E-003;
2.409000000000000E+009;1.913063228130341E-001;3.458828479051590E-002;3.291829954832792E-003;-2.276446437463164E-003;
2.409166666666667E+009;1.903017610311508E-001;3.360648080706596E-002;3.185361623764038E-003;-2.207887591794133E-003;
2.409333333333334E+009;1.895104199647903E-001;3.242166712880135E-002;3.189413808286190E-003;-2.432220848277211E-003;
2.409500000000000E+009;1.883444786071777E-001;3.112603724002838E-002;3.103701397776604E-003;-2.497465349733830E-003;
2.409666666666667E+009;1.873689591884613E-001;2.967072091996670E-002;2.975896233692765E-003;-2.588057657703757E-003;
2.409833333333334E+009;1.864247769117355E-001;2.814956381917000E-002;3.021102631464601E-003;-2.492954721674323E-003;
2.410000000000000E+009;1.854047626256943E-001;2.657042816281319E-002;2.994138514623046E-003;-2.723124111071229E-003;
2.410166666666667E+009;1.842959076166153E-001;2.459185570478439E-002;2.954719355329871E-003;-2.780655864626169E-003;
2.410333333333334E+009;1.835614591836929E-001;2.279967628419399E-002;2.815959043800831E-003;-2.862429479137063E-003;
2.410500000000000E+009;1.825475394725800E-001;2.085645310580730E-002;2.945713931694627E-003;-2.919048070907593E-003;
2.410666666666667E+009;1.817339658737183E-001;1.856981962919235E-002;2.960863756015897E-003;-3.084287047386169E-003;
2.410833333333334E+009;1.811800003051758E-001;1.633701287209988E-002;2.903776010498405E-003;-3.179759252816439E-003;
2.411000000000000E+009;1.804889738559723E-001;1.418573129922152E-002;2.902286127209663E-003;-3.409599186852574E-003;
2.411166666666667E+009;1.798662692308426E-001;1.199048850685358E-002;2.730519976466894E-003;-3.640106879174709E-003;
2.411333333333334E+009;1.794333308935165E-001;9.327636100351811E-003;2.682563383132219E-003;-3.754539648070931E-003;
2.411500000000000E+009;1.790542900562286E-001;6.997855380177498E-003;2.692865673452616E-003;-3.984979819506407E-003;
2.411666666666667E+009;1.789248287677765E-001;4.741001408547163E-003;2.381549449637532E-003;-4.139378666877747E-003;
2.411833333333334E+009;1.786983162164688E-001;2.161042066290975E-003;2.305946545675397E-003;-4.334985744208098E-003;
2.412000000000000E+009;1.786407232284546E-001;-3.446173795964569E-004;2.059233142063022E-003;-4.503260366618633E-003;
2.412166666666667E+009;1.789535284042358E-001;-2.604888519272208E-003;1.805749372579157E-003;-4.672921262681484E-003;
2.412333333333334E+009;1.791522055864334E-001;-5.186857189983130E-003;1.774440635927022E-003;-4.873205441981554E-003;
2.412500000000000E+009;1.795223653316498E-001;-7.595778442919254E-003;1.433535595424473E-003;-4.934312310069799E-003;
2.412666666666667E+009;1.800888478755951E-001;-1.005130447447300E-002;1.108086900785565E-003;-4.941031802445650E-003;
2.412833333333334E+009;1.808280199766159E-001;-1.240788307040930E-002;9.768749587237835E-004;-5.051649175584316E-003;
2.413000000000000E+009;1.816368848085403E-001;-1.475515775382519E-002;5.683387862518430E-004;-5.230206064879894E-003;
2.413166666666667E+009;1.822349727153778E-001;-1.707769744098187E-002;2.259023458464071E-004;-5.189028568565846E-003;
2.413333333333334E+009;1.834071576595306E-001;-1.937230303883553E-002;7.669797923881561E-005;-5.129742436110973E-003;
2.413500000000000E+009;1.841474026441574E-001;-2.148947492241859E-002;-2.918452955782414E-004;-5.180947948247194E-003;
2.413666666666667E+009;1.853996515274048E-001;-2.363401651382446E-002;-4.883470246568322E-004;-5.099014379084110E-003;
2.413833333333334E+009;1.865662634372711E-001;-2.568781375885010E-002;-7.550140144303441E-004;-4.882056266069412E-003;
2.414000000000000E+009;1.875000596046448E-001;-2.763359434902668E-002;-9.187503601424396E-004;-4.825099371373653E-003;
2.414166666666667E+009;1.888528764247894E-001;-2.933059819042683E-002;-1.119412481784821E-003;-4.831591621041298E-003;
2.414333333333334E+009;1.899701207876205E-001;-3.126981481909752E-002;-1.358783571049571E-003;-4.808659199625254E-003;
2.414500000000000E+009;1.911611557006836E-001;-3.275439888238907E-002;-1.579581294208765E-003;-4.555345978587866E-003;
2.414666666666667E+009;1.922824978828430E-001;-3.400507196784020E-002;-1.708640833385289E-003;-4.536263644695282E-003;
2.414833333333334E+009;1.932985633611679E-001;-3.544735908508301E-002;-1.869110739789903E-003;-4.466492217034102E-003;
2.415000000000000E+009;1.944545656442642E-001;-3.668599948287010E-002;-1.856016460806131E-003;-4.218857269734144E-003;
2.415166666666667E+009;1.956485807895660E-001;-3.767450153827667E-002;-1.929242745973170E-003;-4.091795533895493E-003;
2.415333333333334E+009;1.968559324741364E-001;-3.861193358898163E-002;-2.352739451453090E-003;-4.029148258268833E-003;
2.415500000000000E+009;1.978445202112198E-001;-3.932092711329460E-002;-2.423515077680349E-003;-4.081940278410912E-003;
2.415666666666667E+009;1.988082230091095E-001;-4.011480510234833E-002;-2.455953974276781E-003;-3.872195724397898E-003;
2.415833333333334E+009;1.996722370386124E-001;-4.078349843621254E-002;-2.804769435897470E-003;-3.717828309163451E-003;
2.416000000000000E+009;2.003388404846191E-001;-4.124048352241516E-002;-2.927148947492242E-003;-3.466419642791152E-003;
2.416166666666667E+009;2.010361403226852E-001;-4.174890741705895E-002;-3.041334217414260E-003;-3.391708247363567E-003;
2.416333333333334E+009;2.016038149595261E-001;-4.202245548367500E-002;-3.192052245140076E-003;-3.138712607324123E-003;
2.416500000000000E+009;2.019659876823425E-001;-4.226013645529747E-002;-3.232968272641301E-003;-2.884426387026906E-003;
2.416666666666667E+009;2.023451328277588E-001;-4.266042262315750E-002;-3.318030619993806E-003;-2.809325233101845E-003;
2.416833333333334E+009;2.024065256118774E-001;-4.266620427370071E-002;-3.380300011485815E-003;-2.516150474548340E-003;
2.417000000000000E+009;2.024659067392349E-001;-4.275901615619659E-002;-3.354420885443687E-003;-2.303545828908682E-003;
2.417166666666667E+009;2.021631151437759E-001;-4.255325719714165E-002;-3.445291426032782E-003;-2.229698002338409E-003;
2.417333333333334E+009;2.019489407539368E-001;-4.245493188500404E-002;-3.350414102897048E-003;-1.964381663128734E-003;
2.417500000000000E+009;2.015719562768936E-001;-4.257634282112122E-002;-3.361970651894808E-003;-1.803141902200878E-003;
2.417666666666667E+009;2.011234313249588E-001;-4.229819402098656E-002;-3.403505077585578E-003;-1.684764283709228E-003;
2.417833333333334E+009;2.006423175334930E-001;-4.210269823670387E-002;-3.164559369906783E-003;-1.565513433888555E-003;
2.418000000000000E+009;1.998826116323471E-001;-4.184930771589279E-002;-3.316702088341117E-003;-1.568909850902855E-003;
2.418166666666667E+009;1.990077495574951E-001;-4.191418737173080E-002;-3.069194732233882E-003;-1.308382372371852E-003;
2.418333333333334E+009;1.981208175420761E-001;-4.173155128955841E-002;-3.106079297140241E-003;-1.288517960347235E-003;
2.418500000000000E+009;1.970459967851639E-001;-4.176306724548340E-002;-3.067971440032125E-003;-1.224904321134090E-003;
2.418666666666667E+009;1.962189376354218E-001;-4.179012775421143E-002;-2.848589094355702E-003;-1.226931926794350E-003;
2.418833333333334E+009;1.949291676282883E-001;-4.199318215250969E-002;-2.954705152660608E-003;-1.247715903446078E-003;
2.419000000000000E+009;1.935733854770660E-001;-4.221405461430550E-002;-2.981511643156409E-003;-1.166022149845958E-003;
2.419166666666667E+009;1.925054937601090E-001;-4.245072230696678E-002;-2.837036503478885E-003;-1.198538113385439E-003;
2.419333333333334E+009;1.910412460565567E-001;-4.304833710193634E-002;-3.125466406345367E-003;-1.241872669197619E-003;
2.419500000000000E+009;1.895131766796112E-001;-4.354099556803703E-002;-2.933142473921180E-003;-1.174668548628688E-003;
2.419666666666667E+009;1.878996789455414E-001;-4.433206841349602E-002;-2.921348437666893E-003;-1.123898429796100E-003;
2.419833333333334E+009;1.862730383872986E-001;-4.496292024850845E-002;-3.001480130478740E-003;-1.047381199896336E-003;
2.420000000000000E+009;1.849087029695511E-001;-4.596387594938278E-002;-3.114056773483753E-003;-1.042248681187630E-003;
2.420166666666667E+009;1.832487285137177E-001;-4.705354198813438E-002;-3.220172133296728E-003;-9.750240715220571E-004;
2.420333333333334E+009;1.816968321800232E-001;-4.827706143260002E-002;-3.299561096355319E-003;-7.340328884311020E-004;
2.420500000000000E+009;1.800008267164230E-001;-4.952052980661392E-002;-3.363004885613918E-003;-6.682145758531988E-004;
2.420666666666667E+009;1.784700751304627E-001;-5.064355954527855E-002;-3.351665101945400E-003;-6.723589613102377E-004;
2.420833333333334E+009;1.768380701541901E-001;-5.222769826650620E-002;-3.292010864242911E-003;-3.319342213217169E-004;
2.421000000000000E+009;1.754517406225205E-001;-5.376739799976349E-002;-3.262505400925875E-003;-3.186912799719721E-004;
2.421166666666667E+009;1.740507632493973E-001;-5.544871464371681E-002;-3.248531371355057E-003;-3.042464668396860E-004;
2.421333333333334E+009;1.724734604358673E-001;-5.704785883426666E-002;-3.196854842826724E-003;-3.647435005404986E-005;
2.421500000000000E+009;1.712783575057983E-001;-5.910674110054970E-002;-3.115348285064101E-003;-2.730410778895021E-005;
2.421666666666667E+009;1.699323058128357E-001;-6.082820519804955E-002;-3.063281532377005E-003;1.157635269919410E-004;
2.421833333333334E+009;1.689110398292542E-001;-6.264383345842362E-002;-2.938117599114776E-003;1.236141688423231E-004;
2.422000000000000E+009;1.678090393543243E-001;-6.459522992372513E-002;-3.021369688212872E-003;1.410549302818254E-004;
2.422166666666667E+009;1.669642031192780E-001;-6.674889475107193E-002;-3.061102004721761E-003;2.168424834962934E-004;
2.422333333333334E+009;1.659564822912216E-001;-6.861943751573563E-002;-3.098644316196442E-003;1.243900624103844E-004;
2.422500000000000E+009;1.653756797313690E-001;-7.055691629648209E-002;-3.068173304200172E-003;2.148654166376218E-004;
2.422666666666667E+009;1.645755320787430E-001;-7.273317873477936E-002;-2.920994302257896E-003;2.738447801675648E-004;
2.422833333333334E+009;1.642125844955444E-001;-7.471565157175064E-002;-3.014619462192059E-003;2.289536205353215E-004;
2.423000000000000E+009;1.635828763246536E-001;-7.657004147768021E-002;-2.983020152896643E-003;3.637649642769247E-004;
2.423166666666667E+009;1.633641421794891E-001;-7.858162373304367E-002;-3.145600203424692E-003;4.771535168401897E-004;
2.423333333333334E+009;1.631029546260834E-001;-8.050110191106796E-002;-3.092390950769186E-003;5.351009313017130E-004;
2.423500000000000E+009;1.629646420478821E-001;-8.238843828439713E-002;-2.977478783577681E-003;4.783840267919004E-004;
2.423666666666667E+009;1.627952754497528E-001;-8.406867086887360E-002;-3.189839422702789E-003;5.288380198180676E-004;
2.423833333333334E+009;1.629821509122849E-001;-8.587626367807388E-002;-3.139829728752375E-003;5.646072677336633E-004;
2.424000000000000E+009;1.630654036998749E-001;-8.768864721059799E-002;-3.157572355121374E-003;7.088675047270954E-004;
2.424166666666667E+009;1.631577759981155E-001;-8.908601850271225E-002;-3.250818699598312E-003;8.364213281311095E-004;
2.424333333333334E+009;1.633727699518204E-001;-9.060984104871750E-002;-3.134670667350292E-003;9.327377774752677E-004;
2.424500000000000E+009;1.637088060379028E-001;-9.221238642930985E-002;-3.348774276673794E-003;9.603205253370106E-004;
2.424666666666667E+009;1.640799492597580E-001;-9.347543120384216E-002;-3.279086202383041E-003;1.101924106478691E-003;
2.424833333333334E+009;1.644687056541443E-001;-9.474619477987289E-002;-3.262115875259042E-003;1.225260319188237E-003;
2.425000000000000E+009;1.648750454187393E-001;-9.595298022031784E-002;-3.189765149727464E-003;1.395482802763581E-003;
2.425166666666667E+009;1.651239544153214E-001;-9.700397402048111E-002;-3.342582378536463E-003;1.479232800193131E-003;
2.425333333333334E+009;1.655149012804031E-001;-9.776272624731064E-002;-3.280067350715399E-003;1.779678976163268E-003;
2.425500000000000E+009;1.659498214721680E-001;-9.885921329259872E-002;-3.214380936697125E-003;1.893937704153359E-003;
2.425666666666667E+009;1.663574278354645E-001;-9.937527030706406E-002;-3.175025107339025E-003;2.039286773651838E-003;
2.425833333333334E+009;1.666734665632248E-001;-1.001968011260033E-001;-3.086509415879846E-003;2.253881888464093E-003;
2.426000000000000E+009;1.670676767826080E-001;-1.006704196333885E-001;-2.910976530984044E-003;2.444147132337093E-003;
2.426166666666667E+009;1.674784719944000E-001;-1.010420918464661E-001;-3.065577009692788E-003;2.449821215122938E-003;
2.426333333333334E+009;1.674860119819641E-001;-1.015294119715691E-001;-2.887226408347487E-003;2.558248117566109E-003;
2.426500000000000E+009;1.677952259778976E-001;-1.018043681979179E-001;-2.678848803043366E-003;2.782167633995414E-003;
2.426666666666667E+009;1.680559813976288E-001;-1.022454053163528E-001;-2.522185212001205E-003;2.762638032436371E-003;
2.426833333333334E+009;1.682389825582504E-001;-1.024490371346474E-001;-2.612002426758409E-003;2.939456375315785E-003;
2.427000000000000E+009;1.681198179721832E-001;-1.026162505149841E-001;-2.359952544793487E-003;2.938381629064679E-003;
2.427166666666667E+009;1.681907474994659E-001;-1.027415171265602E-001;-2.270124154165387E-003;2.912411233410239E-003;
2.427333333333334E+009;1.680425107479096E-001;-1.029884591698647E-001;-2.024925081059337E-003;3.117800690233707E-003;
2.427500000000000E+009;1.678002476692200E-001;-1.031831130385399E-001;-1.933364546857774E-003;3.158801235258579E-003;
2.427666666666667E+009;1.674388200044632E-001;-1.031396910548210E-001;-1.762689440511167E-003;3.180907806381583E-003;
