# Version 1.00
#
freq[Hz];re:Trc1_S11;im:Trc1_S11;re:Trc2_S21;im:Trc2_S21;
2.400000000000000E+009;1.560602784156799E-001;1.087216585874558E-001;5.280204117298126E-003;-1.397261861711741E-003;
2.400166666666667E+009;1.558235287666321E-001;1.064741909503937E-001;5.335246678441763E-003;-1.719587598927319E-003;
2.400333333333334E+009;1.557115018367767E-001;1.042209640145302E-001;5.270637106150389E-003;-1.907912432216108E-003;
2.400500000000000E+009;1.555312871932983E-001;1.012814119458199E-001;5.262054968625307E-003;-2.151189371943474E-003;
2.400666666666667E+009;1.553977429866791E-001;9.880859404802322E-002;5.338448565453291E-003;-2.378665143623948E-003;
2.400833333333334E+009;1.554284542798996E-001;9.594953060150147E-002;5.196902900934219E-003;-2.690861700102687E-003;
2.401000000000000E+009;1.552866548299789E-001;9.298034012317658E-002;5.011184606701136E-003;-2.855352591723204E-003;
2.401166666666667E+009;1.553699523210526E-001;9.029355645179749E-002;4.960990976542234E-003;-3.061355324462056E-003;
2.401333333333334E+009;1.554080247879028E-001;8.729974180459976E-002;4.899726249277592E-003;-3.294958267360926E-003;
2.401500000000000E+009;1.560472846031189E-001;8.431106805801392E-002;4.686450585722923E-003;-3.537782002240419E-003;
2.401666666666667E+009;1.560415625572205E-001;8.147587627172470E-002;4.573804326355457E-003;-3.883958561345935E-003;
2.401833333333334E+009;1.564992517232895E-001;7.870086282491684E-002;4.363240208476782E-003;-4.253759980201721E-003;
2.402000000000000E+009;1.574508398771286E-001;7.576669752597809E-002;4.097365308552980E-003;-4.316371865570545E-003;
2.402166666666667E+009;1.578991413116455E-001;7.294051349163055E-002;4.065232351422310E-003;-4.674115683883429E-003;
2.402333333333334E+009;1.587486416101456E-001;7.012441009283066E-002;3.914128057658672E-003;-4.881216213107109E-003;
2.402500000000000E+009;1.597616225481033E-001;6.770355999469757E-002;3.520558588206768E-003;-5.120305810123682E-003;
2.402666666666667E+009;1.608137786388397E-001;6.516159325838089E-002;3.319302340969443E-003;-5.364863667637110E-003;
2.402833333333334E+009;1.620113998651505E-001;6.253548711538315E-002;2.841976936906576E-003;-5.586945451796055E-003;
2.403000000000000E+009;1.636613309383392E-001;6.007394194602966E-002;2.584150293841958E-003;-5.719824228435755E-003;
2.403166666666667E+009;1.651985943317413E-001;5.778254568576813E-002;2.209199825301766E-003;-5.779464729130268E-003;
2.403333333333334E+009;1.665437817573547E-001;5.536691844463348E-002;1.832526293583214E-003;-5.925827194005251E-003;
2.403500000000000E+009;1.681775301694870E-001;5.324298888444901E-002;1.452754950150847E-003;-5.822821054607630E-003;
2.403666666666667E+009;1.697695255279541E-001;5.109420418739319E-002;1.159978331997991E-003;-5.967779085040093E-003;
2.403833333333334E+009;1.716852039098740E-001;4.921657964587212E-002;5.726997042074800E-004;-5.881577264517546E-003;
2.404000000000000E+009;1.729783713817596E-001;4.725496470928192E-002;3.885940532200038E-004;-5.928342696279287E-003;
2.404166666666667E+009;1.747727245092392E-001;4.579445347189903E-002;-8.492217602906749E-006;-5.663579795509577E-003;
2.404333333333334E+009;1.763641387224197E-001;4.418531060218811E-002;-4.622116684913635E-004;-5.475589074194431E-003;
2.404500000000000E+009;1.782854795455933E-001;4.268488287925720E-002;-5.428604781627655E-004;-5.281851161271334E-003;
2.404666666666667E+009;1.797743588685989E-001;4.160468652844429E-002;-8.619610453024507E-004;-5.128161050379276E-003;
2.404833333333334E+009;1.814788281917572E-001;4.043512418866158E-002;-9.569237590767443E-004;-4.822647664695978E-003;
2.405000000000000E+009;1.827979087829590E-001;3.967479243874550E-002;-1.064402749761939E-003;-4.745321813970804E-003;
2.405166666666667E+009;1.843553185462952E-001;3.890284523367882E-002;-1.228036708198488E-003;-4.708825144916773E-003;
2.405333333333334E+009;1.857950389385223E-001;3.851563856005669E-002;-1.314335269853473E-003;-4.293769132345915E-003;
2.405500000000000E+009;1.873738616704941E-001;3.806626796722412E-002;-1.462022308260202E-003;-4.204400815069675E-003;
2.405666666666667E+009;1.886810213327408E-001;3.758043795824051E-002;-1.627617399208248E-003;-4.099185112863779E-003;
2.405833333333334E+009;1.899230480194092E-001;3.733950480818749E-002;-1.742896740324795E-003;-3.830538596957922E-003;
2.406000000000000E+009;1.910626888275147E-001;3.726522997021675E-002;-1.770707429386675E-003;-3.748503513634205E-003;
2.406166666666667E+009;1.919850260019302E-001;3.725221753120422E-002;-1.747156376950443E-003;-3.453070763498545E-003;
2.406333333333334E+009;1.930125653743744E-001;3.726578876376152E-002;-1.946767559275031E-003;-3.402328817173839E-003;
2.406500000000000E+009;1.940353661775589E-001;3.746074065566063E-002;-1.991997938603163E-003;-3.247400978580117E-003;
2.406666666666667E+009;1.946481317281723E-001;3.761848062276840E-002;-1.870501437224448E-003;-3.045510733500123E-003;
2.406833333333334E+009;1.951641142368317E-001;3.783087804913521E-002;-2.064063679426909E-003;-2.864495851099491E-003;
2.407000000000000E+009;1.956624090671539E-001;3.809932619333267E-002;-1.939268549904227E-003;-2.904651220887899E-003;
2.407166666666667E+009;1.960975825786591E-001;3.828308731317520E-002;-2.035752870142460E-003;-2.638394478708506E-003;
2.407333333333334E+009;1.959673166275024E-001;3.841758146882057E-002;-1.984021859243512E-003;-2.519269241020083E-003;
2.407500000000000E+009;1.962241828441620E-001;3.882047533988953E-002;-1.927024452015758E-003;-2.447684295475483E-003;
2.407666666666667E+009;1.962862163782120E-001;3.888220340013504E-002;-2.002921421080828E-003;-2.398763317614794E-003;
2.407833333333334E+009;1.958941519260407E-001;3.898692503571510E-002;-1.852368470281363E-003;-2.284027636051178E-003;
2.408000000000000E+009;1.958089470863342E-001;3.908122330904007E-002;-1.826745574362576E-003;-2.131881657987833E-003;
2.408166666666667E+009;1.953273564577103E-001;3.900796175003052E-002;-1.904656062833965E-003;-2.045150380581617E-003;
2.408333333333334E+009;1.950065493583679E-001;3.867198154330254E-002;-1.632231404073536E-003;-1.929874299094081E-003;
2.408500000000000E+009;1.944478750228882E-001;3.847860544919968E-002;-1.737173995934427E-003;-1.949410187080503E-003;
2.408666666666667E+009;1.938888877630234E-001;3.825018927454948E-002;-1.539270160719752E-003;-1.789116300642490E-003;
2.408833333333334E+009;1.932263076305389E-001;3.766298294067383E-002;-1.524608698673546E-003;-1.834508148021996E-003;
2.409000000000000E+009;1.923567354679108E-001;3.702858835458756E-002;-1.624940545298159E-003;-1.774353906512260E-003;
2.409166666666667E+009;1.912605017423630E-001;3.614849224686623E-002;-1.447309856303036E-003;-1.701956614851952E-003;
2.409333333333334E+009;1.905186623334885E-001;3.531417995691299E-002;-1.408697804436088E-003;-1.742170308716595E-003;
2.409500000000000E+009;1.893432736396790E-001;3.430413454771042E-002;-1.188442460261285E-003;-1.813035225495696E-003;
2.409666666666667E+009;1.884603798389435E-001;3.295836597681046E-002;-1.203161780722439E-003;-1.915414002723992E-003;
2.409833333333334E+009;1.873350590467453E-001;3.169918432831764E-002;-1.147651346400380E-003;-1.871137414127588E-003;
2.410000000000000E+009;1.862835735082626E-001;3.018002398312092E-002;-9.903752943500876E-004;-2.030619187280536E-003;
2.410166666666667E+009;1.852618902921677E-001;2.863277308642864E-002;-1.123070716857910E-003;-2.088284352794290E-003;
2.410333333333334E+009;1.842338144779205E-001;2.682399004697800E-002;-9.901978773996234E-004;-2.222853479906917E-003;
2.410500000000000E+009;1.831495016813278E-001;2.489027194678783E-002;-1.198605285026133E-003;-2.502899151295424E-003;
2.410666666666667E+009;1.822711974382401E-001;2.268120273947716E-002;-1.241110148839653E-003;-2.457227325066924E-003;
2.410833333333334E+009;1.814052164554596E-001;2.082468941807747E-002;-1.213426585309207E-003;-2.531197387725115E-003;
2.411000000000000E+009;1.808707416057587E-001;1.853353902697563E-002;-1.320401672273874E-003;-2.669280627742410E-003;
2.411166666666667E+009;1.799350529909134E-001;1.643306389451027E-002;-1.352797495201230E-003;-2.630644245073199E-003;
2.411333333333334E+009;1.795068830251694E-001;1.390526257455349E-002;-1.458813785575330E-003;-2.706657163798809E-003;
2.411500000000000E+009;1.790225952863693E-001;1.165456790477037E-002;-1.599428942427039E-003;-2.852799836546183E-003;
2.411666666666667E+009;1.788268834352493E-001;9.334468282759190E-003;-1.715671503916383E-003;-2.887018024921417E-003;
2.411833333333334E+009;1.783585101366043E-001;6.821571849286556E-003;-1.824991893954575E-003;-2.903443761169910E-003;
2.412000000000000E+009;1.784612685441971E-001;4.088606685400009E-003;-2.032568911090493E-003;-2.844899659976363E-003;
2.412166666666667E+009;1.785977184772492E-001;1.952439080923796E-003;-2.202308038249612E-003;-3.122590249404311E-003;
2.412333333333334E+009;1.786507964134216E-001;-7.761780289001763E-004;-2.304987283423543E-003;-3.141979454085231E-003;
2.412500000000000E+009;1.792151033878326E-001;-3.201147774234414E-003;-2.454035449773073E-003;-3.166225971654058E-003;
2.412666666666667E+009;1.795775592327118E-001;-5.700569599866867E-003;-2.597700338810682E-003;-3.113314043730497E-003;
2.412833333333334E+009;1.801589727401733E-001;-8.325719274580479E-003;-2.846179530024529E-003;-3.156969556584954E-003;
2.413000000000000E+009;1.809671521186829E-001;-1.063403394073248E-002;-3.048710525035858E-003;-3.095617750659585E-003;
2.413166666666667E+009;1.817302405834198E-001;-1.296819653362036E-002;-3.366746241226792E-003;-2.970477566123009E-003;
2.413333333333334E+009;1.827906221151352E-001;-1.554455887526274E-002;-3.567860927432776E-003;-3.024425823241472E-003;
2.413500000000000E+009;1.837320029735565E-001;-1.798929832875729E-002;-3.797566518187523E-003;-2.937406767159700E-003;
2.413666666666667E+009;1.848175972700119E-001;-2.027495205402374E-002;-4.004108253866434E-003;-2.787542529404163E-003;
2.413833333333334E+009;1.859482377767563E-001;-2.232389897108078E-002;-4.157627932727337E-003;-2.514849184080958E-003;
2.414000000000000E+009;1.870504319667816E-001;-2.449344098567963E-002;-4.520636517554522E-003;-2.357575111091137E-003;
2.414166666666667E+009;1.884979009628296E-001;-2.633703872561455E-002;-4.693411756306887E-003;-2.120307879522443E-003;
2.414333333333334E+009;1.895857304334641E-001;-2.839084900915623E-002;-4.899146035313606E-003;-1.943736453540623E-003;
2.414500000000000E+009;1.908680051565170E-001;-3.000368922948837E-002;-4.849402233958244E-003;-1.660741516388953E-003;
2.414666666666667E+009;1.921638846397400E-001;-3.164228796958923E-002;-4.989475011825562E-003;-1.388431293889880E-003;
2.414833333333334E+009;1.935223937034607E-001;-3.315341472625732E-002;-4.995694849640131E-003;-9.769635507836938E-004;
2.415000000000000E+009;1.946990936994553E-001;-3.447878733277321E-002;-5.003356374800205E-003;-8.926253067329526E-004;
2.415166666666667E+009;1.959805637598038E-001;-3.582528606057167E-002;-5.222278181463480E-003;-6.266618729569018E-004;
2.415333333333334E+009;1.971870809793472E-001;-3.683762997388840E-002;-5.062292329967022E-003;-3.614223678596318E-004;
2.415500000000000E+009;1.984192281961441E-001;-3.770347684621811E-002;-5.182098131626844E-003;-2.046286099357531E-004;
2.415666666666667E+009;1.995505541563034E-001;-3.862792253494263E-002;-5.169701762497425E-003;-1.103996692108922E-004;
2.415833333333334E+009;2.005729675292969E-001;-3.925908729434013E-002;-5.153091158717871E-003;1.252085785381496E-004;
2.416000000000000E+009;2.014544159173966E-001;-4.007169604301453E-002;-5.089967045933008E-003;5.123111186549068E-004;
2.416166666666667E+009;2.022297382354736E-001;-4.070532321929932E-002;-5.158408544957638E-003;7.625417783856392E-004;
2.416333333333334E+009;2.030297666788101E-001;-4.086720198392868E-002;-5.146588198840618E-003;1.075915526598692E-003;
2.416500000000000E+009;2.036311626434326E-001;-4.123297333717346E-002;-5.011847242712975E-003;1.159773208200932E-003;
2.416666666666667E+009;2.039880901575089E-001;-4.158213362097740E-002;-5.303871352225542E-003;1.361852744594216E-003;
2.416833333333334E+009;2.042771577835083E-001;-4.161188006401062E-002;-4.925764165818691E-003;1.558451331220567E-003;
2.417000000000000E+009;2.045025974512100E-001;-4.168043658137322E-002;-4.900570493191481E-003;1.736659323796630E-003;
2.417166666666667E+009;2.043557912111282E-001;-4.153191298246384E-002;-4.782193806022406E-003;1.861281925812364E-003;
2.417333333333334E+009;2.042487859725952E-001;-4.136841371655464E-002;-4.701242782175541E-003;2.094124676659703E-003;
2.417500000000000E+009;2.040673941373825E-001;-4.144238680601120E-002;-4.570627119392157E-003;2.420736011117697E-003;
2.417666666666667E+009;2.036676257848740E-001;-4.111770167946816E-002;-4.422128200531006E-003;2.603139728307724E-003;
2.417833333333334E+009;2.032955735921860E-001;-4.083241522312164E-002;-4.511631093919277E-003;2.722704084590077E-003;
2.418000000000000E+009;2.028040885925293E-001;-4.056162014603615E-002;-4.207353573292494E-003;2.769421320408583E-003;
2.418166666666667E+009;2.020446062088013E-001;-4.038574174046516E-002;-4.145205486565828E-003;2.994946669787169E-003;
2.418333333333334E+009;2.011452019214630E-001;-4.016377031803131E-002;-4.012680146843195E-003;3.053292864933610E-003;
2.418500000000000E+009;2.002235502004623E-001;-4.002749547362328E-002;-3.814705181866884E-003;3.484128974378109E-003;
2.418666666666667E+009;1.994516551494598E-001;-3.987457230687141E-002;-3.698180662468076E-003;3.467312548309565E-003;
2.418833333333334E+009;1.980941593647003E-001;-3.994750976562500E-002;-3.550503868609667E-003;3.728301730006933E-003;
2.419000000000000E+009;1.968425363302231E-001;-4.008250311017036E-002;-3.524757456034422E-003;3.778405021876097E-003;
2.419166666666667E+009;1.955952793359757E-001;-4.029047861695290E-002;-3.176941769197583E-003;3.685145871713758E-003;
2.419333333333334E+009;1.941414624452591E-001;-4.082943126559258E-002;-2.970389323309064E-003;4.045549314469099E-003;
2.419500000000000E+009;1.927604824304581E-001;-4.125072807073593E-002;-2.697824267670512E-003;3.970881458371878E-003;
2.419666666666667E+009;1.910507082939148E-001;-4.185631871223450E-002;-2.599515719339252E-003;4.277557600289583E-003;
2.419833333333334E+009;1.895018070936203E-001;-4.254204779863358E-002;-2.367394044995308E-003;4.263859242200851E-003;
2.420000000000000E+009;1.877364814281464E-001;-4.339951276779175E-002;-2.086201915517449E-003;4.224987700581551E-003;
2.420166666666667E+009;1.861978769302368E-001;-4.423947259783745E-002;-1.910689170472324E-003;4.322864115238190E-003;
2.420333333333334E+009;1.844770312309265E-001;-4.539038985967636E-002;-1.684179995208979E-003;4.274049308151007E-003;
2.420500000000000E+009;1.826408803462982E-001;-4.670915380120277E-002;-1.536500756628811E-003;4.068729002028704E-003;
2.420666666666667E+009;1.807759106159210E-001;-4.758085682988167E-002;-1.435281708836556E-003;4.317320417612791E-003;
2.420833333333334E+009;1.791106909513474E-001;-4.910553991794586E-002;-1.258098403923214E-003;4.056181292980909E-003;
2.421000000000000E+009;1.775214225053787E-001;-5.079742148518562E-002;-1.166940666735172E-003;4.116411786526442E-003;
2.421166666666667E+009;1.761356592178345E-001;-5.234671384096146E-002;-1.070157042704523E-003;3.897347254678607E-003;
2.421333333333334E+009;1.742552220821381E-001;-5.405258014798164E-002;-8.475307258777320E-004;3.861452918499708E-003;
2.421500000000000E+009;1.729769557714462E-001;-5.587615445256233E-002;-8.342122309841216E-004;3.903798060491681E-003;
2.421666666666667E+009;1.716332286596298E-001;-5.760590732097626E-002;-7.072133012115955E-004;3.893642453476787E-003;
2.421833333333334E+009;1.703373193740845E-001;-5.963969603180885E-002;-4.985902342014015E-004;3.867613151669502E-003;
2.422000000000000E+009;1.690500974655151E-001;-6.136959418654442E-002;-4.035004531033337E-004;3.873889101669192E-003;
2.422166666666667E+009;1.682562977075577E-001;-6.361835449934006E-002;-5.229286616668105E-004;3.785869106650353E-003;
2.422333333333334E+009;1.671618074178696E-001;-6.566201150417328E-002;-3.769723116420209E-004;3.814827650785446E-003;
2.422500000000000E+009;1.663293242454529E-001;-6.772950291633606E-002;-2.117769472533837E-004;3.772211959585547E-003;
2.422666666666667E+009;1.653473228216171E-001;-6.982699036598206E-002;-2.948976180050522E-005;3.772661788389087E-003;
2.422833333333334E+009;1.650886386632919E-001;-7.200055569410324E-002;1.040425340761431E-004;3.653741674497724E-003;
2.423000000000000E+009;1.644200086593628E-001;-7.427629083395004E-002;2.323938242625445E-004;3.666009986773133E-003;
2.423166666666667E+009;1.640365421772003E-001;-7.618203759193420E-002;1.823162310756743E-004;3.534665796905756E-003;
2.423333333333334E+009;1.636674106121063E-001;-7.844849675893784E-002;5.049278261139989E-004;3.575839800760150E-003;
2.423500000000000E+009;1.635888516902924E-001;-8.020334690809250E-002;4.229705082252622E-004;3.450850956141949E-003;
2.423666666666667E+009;1.635178327560425E-001;-8.231332898139954E-002;5.397051572799683E-004;3.411607118323445E-003;
2.423833333333334E+009;1.635667979717255E-001;-8.412604033946991E-002;6.578227039426565E-004;3.291051136329770E-003;
2.424000000000000E+009;1.635965704917908E-001;-8.607221394777298E-002;5.364152602851391E-004;3.174461890012026E-003;
2.424166666666667E+009;1.637624353170395E-001;-8.789092302322388E-002;6.565155345015228E-004;3.188067115843296E-003;
2.424333333333334E+009;1.639951467514038E-001;-8.947756141424179E-002;6.141925696283579E-004;3.085945034399629E-003;
2.424500000000000E+009;1.644338220357895E-001;-9.137717634439468E-002;7.430408732034266E-004;2.891603624448180E-003;
2.424666666666667E+009;1.647224575281143E-001;-9.285340458154678E-002;7.790260715410113E-004;2.868858864530921E-003;
2.424833333333334E+009;1.653057634830475E-001;-9.417764097452164E-002;7.933704764582217E-004;2.742841141298413E-003;
2.425000000000000E+009;1.657628566026688E-001;-9.549999982118607E-002;8.840147638693452E-004;2.614033175632358E-003;
2.425166666666667E+009;1.662077009677887E-001;-9.673697501420975E-002;8.020121022127569E-004;2.692595357075334E-003;
2.425333333333334E+009;1.666226685047150E-001;-9.775740653276444E-002;8.366390247829258E-004;2.701954916119576E-003;
2.425500000000000E+009;1.671250909566879E-001;-9.890752285718918E-002;7.866203086450696E-004;2.708950312808156E-003;
2.425666666666667E+009;1.676215231418610E-001;-9.959430247545242E-002;7.311544613912702E-004;2.732257591560483E-003;
2.425833333333334E+009;1.680527180433273E-001;-1.005273684859276E-001;7.797901052981615E-004;2.792971907183528E-003;
2.426000000000000E+009;1.685866564512253E-001;-1.011188179254532E-001;7.730158395133913E-004;2.728379331529141E-003;
2.426166666666667E+009;1.690981984138489E-001;-1.017661914229393E-001;7.836767472326756E-004;2.867277245968580E-003;
2.426333333333334E+009;1.693552583456039E-001;-1.022758930921555E-001;8.371134754270315E-004;2.934360411018133E-003;
2.426500000000000E+009;1.698030829429627E-001;-1.026491820812225E-001;8.685978827998042E-004;2.857618732377887E-003;
2.426666666666667E+009;1.703051030635834E-001;-1.028392612934113E-001;7.926224498078227E-004;2.945235464721918E-003;
2.426833333333334E+009;1.705154329538345E-001;-1.032662317156792E-001;1.020732801407576E-003;3.071455750614405E-003;
2.427000000000000E+009;1.707710772752762E-001;-1.034430637955666E-001;9.059127187356353E-004;2.987535204738379E-003;
2.427166666666667E+009;1.708952039480209E-001;-1.035608127713203E-001;1.167551265098155E-003;3.200784092769027E-003;
2.427333333333334E+009;1.709466129541397E-001;-1.038535758852959E-001;1.297999755479395E-003;3.097710432484746E-003;
2.427500000000000E+009;1.708725392818451E-001;-1.039681956171989E-001;1.427607261575759E-003;3.117764834314585E-003;
2.427666666666667E+009;1.707150787115097E-001;-1.039998978376389E-001;1.423770561814308E-003;3.250232897698879E-003;
