# Version 1.00
#
freq[Hz];re:Trc1_S11;im:Trc1_S11;re:Trc2_S21;im:Trc2_S21;
2.400000000000000E+009;1.557305008172989E-001;1.092505306005478E-001;5.367218516767025E-003;-1.553198671899736E-003;
2.400166666666667E+009;1.554228365421295E-001;1.069730222225189E-001;5.232952535152435E-003;-1.703704940155149E-003;
2.400333333333334E+009;1.553892493247986E-001;1.046625152230263E-001;5.249337293207645E-003;-1.877935137599707E-003;
2.400500000000000E+009;1.552171558141708E-001;1.019023135304451E-001;5.207143258303404E-003;-2.254216000437737E-003;
2.400666666666667E+009;1.551671028137207E-001;9.945375472307205E-002;4.986797925084829E-003;-2.436403417959809E-003;
2.400833333333334E+009;1.552307158708572E-001;9.654024243354797E-002;5.159765016287565E-003;-2.656307304278016E-003;
2.401000000000000E+009;1.551715135574341E-001;9.361636638641357E-002;5.016673821955919E-003;-2.959234872832894E-003;
2.401166666666667E+009;1.551678031682968E-001;9.087870270013809E-002;4.843959119170904E-003;-3.268954809755087E-003;
2.401333333333334E+009;1.556603014469147E-001;8.801489323377609E-002;4.603420849889517E-003;-3.337927861139178E-003;
2.401500000000000E+009;1.557542830705643E-001;8.485081791877747E-002;4.605693742632866E-003;-3.647566540166736E-003;
2.401666666666667E+009;1.561044305562973E-001;8.207318186759949E-002;4.433298017829657E-003;-3.950770944356918E-003;
2.401833333333334E+009;1.564712077379227E-001;7.927338033914566E-002;4.333930090069771E-003;-4.165930207818747E-003;
2.402000000000000E+009;1.572254747152329E-001;7.627112418413162E-002;4.106997046619654E-003;-4.240654874593020E-003;
2.402166666666667E+009;1.582107096910477E-001;7.358081638813019E-002;3.968877717852593E-003;-4.652566276490688E-003;
2.402333333333334E+009;1.587565839290619E-001;7.082502543926239E-002;3.624970559030771E-003;-4.912199452519417E-003;
2.402500000000000E+009;1.600309908390045E-001;6.816010922193527E-002;3.429371630772948E-003;-5.002503748983145E-003;
2.402666666666667E+009;1.609456241130829E-001;6.569367647171021E-002;3.265792969614267E-003;-5.280544515699148E-003;
2.402833333333334E+009;1.623877733945847E-001;6.322694569826126E-002;2.734427573159337E-003;-5.385501775890589E-003;
2.403000000000000E+009;1.636463552713394E-001;6.050631031394005E-002;2.458408474922180E-003;-5.658640060573816E-003;
2.403166666666667E+009;1.654418110847473E-001;5.827579647302628E-002;2.140848897397518E-003;-5.699377041310072E-003;
2.403333333333334E+009;1.667269319295883E-001;5.588886886835098E-002;1.873872824944556E-003;-5.676270462572575E-003;
2.403500000000000E+009;1.684116572141647E-001;5.363848432898521E-002;1.356765045784414E-003;-5.743248388171196E-003;
2.403666666666667E+009;1.699632257223129E-001;5.156992748379707E-002;8.491649641655386E-004;-5.716218147426844E-003;
2.403833333333334E+009;1.716638058423996E-001;4.967885091900826E-002;6.375518278218806E-004;-5.823523271828890E-003;
2.404000000000000E+009;1.731206029653549E-001;4.781539738178253E-002;1.051033541443758E-004;-5.610225722193718E-003;
2.404166666666667E+009;1.752049326896668E-001;4.627818241715431E-002;-7.730720244580880E-005;-5.359655246138573E-003;
2.404333333333334E+009;1.767112910747528E-001;4.464484751224518E-002;-3.348806640133262E-004;-5.296634975820780E-003;
2.404500000000000E+009;1.782483011484146E-001;4.318567737936974E-002;-6.678723730146885E-004;-4.993377719074488E-003;
2.404666666666667E+009;1.801980435848236E-001;4.216540604829788E-002;-7.850530673749745E-004;-5.085465963929892E-003;
2.404833333333334E+009;1.816460192203522E-001;4.090940207242966E-002;-1.041708514094353E-003;-4.708854947239161E-003;
2.405000000000000E+009;1.830778419971466E-001;4.026308655738831E-002;-1.160377054475248E-003;-4.511477891355753E-003;
2.405166666666667E+009;1.847791522741318E-001;3.948611766099930E-002;-1.180560910142958E-003;-4.325092770159245E-003;
2.405333333333334E+009;1.861024051904678E-001;3.906211256980896E-002;-1.392813981510699E-003;-4.055649507790804E-003;
2.405500000000000E+009;1.876705586910248E-001;3.851202130317688E-002;-1.515395822934806E-003;-3.936955239623785E-003;
2.405666666666667E+009;1.889520287513733E-001;3.817488253116608E-002;-1.562203513458371E-003;-3.784486558288336E-003;
2.405833333333334E+009;1.902467161417007E-001;3.786387294530869E-002;-1.702439039945602E-003;-3.743331879377365E-003;
2.406000000000000E+009;1.913789361715317E-001;3.774454444646835E-002;-1.696369610726833E-003;-3.408740041777492E-003;
2.406166666666667E+009;1.923715323209763E-001;3.773447498679161E-002;-1.776617369614542E-003;-3.418706357479096E-003;
2.406333333333334E+009;1.935342252254486E-001;3.777060285210609E-002;-1.757010933943093E-003;-3.206888679414988E-003;
2.406500000000000E+009;1.944648474454880E-001;3.795059025287628E-002;-1.944369520060718E-003;-3.044313052669168E-003;
2.406666666666667E+009;1.950802356004715E-001;3.802628442645073E-002;-1.803185907192528E-003;-2.911624033004046E-003;
2.406833333333334E+009;1.957715302705765E-001;3.821685910224915E-002;-1.836590352468193E-003;-2.610443625599146E-003;
2.407000000000000E+009;1.960907578468323E-001;3.858419507741928E-002;-1.817636308260262E-003;-2.623027190566063E-003;
2.407166666666667E+009;1.966347694396973E-001;3.846819326281548E-002;-1.780566177330911E-003;-2.369569148868322E-003;
2.407333333333334E+009;1.966923177242279E-001;3.883812576532364E-002;-1.919795759022236E-003;-2.398748649284244E-003;
2.407500000000000E+009;1.967378109693527E-001;3.911449015140533E-002;-1.588379265740514E-003;-2.382077276706696E-003;
2.407666666666667E+009;1.969258785247803E-001;3.924407437443733E-002;-1.730940421111882E-003;-2.056626835837960E-003;
2.407833333333334E+009;1.965347528457642E-001;3.927956521511078E-002;-1.832543523050845E-003;-2.010420197620988E-003;
2.408000000000000E+009;1.965581923723221E-001;3.921749442815781E-002;-1.739973551593721E-003;-2.218983368948102E-003;
2.408166666666667E+009;1.960759311914444E-001;3.907958418130875E-002;-1.604171353392303E-003;-2.022459637373686E-003;
2.408333333333334E+009;1.957237273454666E-001;3.880345448851585E-002;-1.527086831629276E-003;-1.915037166327238E-003;
2.408500000000000E+009;1.951710283756256E-001;3.870384767651558E-002;-1.578182913362980E-003;-1.938282861374319E-003;
2.408666666666667E+009;1.945258229970932E-001;3.841384872794151E-002;-1.540044555440545E-003;-1.830971450544894E-003;
2.408833333333334E+009;1.938809603452683E-001;3.771565109491348E-002;-1.314759021624923E-003;-1.852719462476671E-003;
2.409000000000000E+009;1.930339932441711E-001;3.713547065854073E-002;-1.184189342893660E-003;-1.799423131160438E-003;
2.409166666666667E+009;1.921204030513763E-001;3.624749928712845E-002;-1.249817432835698E-003;-1.869971747510135E-003;
2.409333333333334E+009;1.912975460290909E-001;3.543455153703690E-002;-1.149472314864397E-003;-1.647914526984096E-003;
2.409500000000000E+009;1.900186836719513E-001;3.430470824241638E-002;-1.013565692119300E-003;-1.964419614523649E-003;
2.409666666666667E+009;1.890715956687927E-001;3.298712521791458E-002;-1.008378108963370E-003;-2.002122579142451E-003;
2.409833333333334E+009;1.880504339933395E-001;3.164336085319519E-002;-8.236204157583416E-004;-1.964588649570942E-003;
2.410000000000000E+009;1.870801746845245E-001;3.008187748491764E-002;-8.509919280186296E-004;-2.018208848312497E-003;
2.410166666666667E+009;1.859225332736969E-001;2.829344756901264E-002;-8.500992553308606E-004;-2.159409224987030E-003;
2.410333333333334E+009;1.850137710571289E-001;2.665790542960167E-002;-9.437850094400346E-004;-2.405024832114577E-003;
2.410500000000000E+009;1.839170008897781E-001;2.486877888441086E-002;-1.022515702061355E-003;-2.360855927690864E-003;
2.410666666666667E+009;1.829640567302704E-001;2.251437865197659E-002;-1.018239650875330E-003;-2.588367089629173E-003;
2.410833333333334E+009;1.822896599769592E-001;2.042876742780209E-002;-9.663633536547422E-004;-2.694180002436042E-003;
2.411000000000000E+009;1.813697963953018E-001;1.811591908335686E-002;-1.088087330572307E-003;-2.750891260802746E-003;
2.411166666666667E+009;1.807031482458115E-001;1.591677218675613E-002;-1.199842081405222E-003;-2.772006206214428E-003;
2.411333333333334E+009;1.801678985357285E-001;1.371495984494686E-002;-1.341137918643653E-003;-2.868165262043476E-003;
2.411500000000000E+009;1.794511675834656E-001;1.109209656715393E-002;-1.475306460633874E-003;-2.971711568534374E-003;
2.411666666666667E+009;1.794191598892212E-001;8.884617127478123E-003;-1.509592751972377E-003;-2.970059169456363E-003;
2.411833333333334E+009;1.788776367902756E-001;6.439341232180595E-003;-1.682400004938245E-003;-3.007530933246017E-003;
2.412000000000000E+009;1.789133399724960E-001;3.898068331182003E-003;-1.865832600742579E-003;-3.115755971521139E-003;
2.412166666666667E+009;1.790110915899277E-001;1.333509571850300E-003;-2.104864688590169E-003;-3.033251967281103E-003;
2.412333333333334E+009;1.789134591817856E-001;-1.190402428619564E-003;-2.257379936054349E-003;-3.133905120193958E-003;
2.412500000000000E+009;1.793981045484543E-001;-3.694695653393865E-003;-2.358739962801337E-003;-3.221703227609396E-003;
2.412666666666667E+009;1.799424737691879E-001;-6.454888731241226E-003;-2.481092466041446E-003;-3.151647513732314E-003;
2.412833333333334E+009;1.804709732532501E-001;-8.781791664659977E-003;-2.704144688323140E-003;-2.995200455188751E-003;
2.413000000000000E+009;1.812383532524109E-001;-1.125787757337093E-002;-2.968078246340156E-003;-3.016635775566101E-003;
2.413166666666667E+009;1.820311844348908E-001;-1.347215659916401E-002;-3.019877243787050E-003;-3.022944787517190E-003;
2.413333333333334E+009;1.831871271133423E-001;-1.608424820005894E-002;-3.275745781138539E-003;-2.971428446471691E-003;
2.413500000000000E+009;1.838040351867676E-001;-1.846789568662643E-002;-3.541063517332077E-003;-2.739372663199902E-003;
2.413666666666667E+009;1.850471645593643E-001;-2.068110741674900E-002;-3.799588186666369E-003;-2.718555508181453E-003;
2.413833333333334E+009;1.861723363399506E-001;-2.290373295545578E-002;-4.066585563123226E-003;-2.545066410675645E-003;
2.414000000000000E+009;1.872395426034927E-001;-2.488432265818119E-002;-4.193023312836886E-003;-2.378043252974749E-003;
2.414166666666667E+009;1.886580735445023E-001;-2.689279988408089E-002;-4.456612747162581E-003;-2.105751074850559E-003;
2.414333333333334E+009;1.898601055145264E-001;-2.897466346621513E-002;-4.532491788268089E-003;-2.034649951383472E-003;
2.414500000000000E+009;1.911513656377792E-001;-3.060261160135269E-002;-4.593305755406618E-003;-1.588244689628482E-003;
2.414666666666667E+009;1.922186613082886E-001;-3.203047811985016E-002;-4.761150572448969E-003;-1.457450562156737E-003;
2.414833333333334E+009;1.934968680143356E-001;-3.362513333559036E-002;-4.856362938880920E-003;-1.178387203253806E-003;
2.415000000000000E+009;1.947222501039505E-001;-3.499292582273483E-002;-4.744293168187141E-003;-1.004657824523747E-003;
2.415166666666667E+009;1.960712075233460E-001;-3.618549183011055E-002;-4.958446137607098E-003;-7.492949953302741E-004;
2.415333333333334E+009;1.973990201950073E-001;-3.717614337801933E-002;-4.872966557741165E-003;-5.696080042980611E-004;
2.415500000000000E+009;1.983994096517563E-001;-3.801160305738449E-002;-4.910999443382025E-003;-3.022881573997438E-004;
2.415666666666667E+009;1.996579468250275E-001;-3.900225460529327E-002;-4.913050215691328E-003;-1.737283164402470E-004;
2.415833333333334E+009;2.006242722272873E-001;-3.973434492945671E-002;-4.774107132107019E-003;2.571741424617358E-005;
2.416000000000000E+009;2.015598565340042E-001;-4.033850133419037E-002;-4.846333991736174E-003;2.436053473502398E-004;
2.416166666666667E+009;2.022701203823090E-001;-4.089177027344704E-002;-5.035650450736284E-003;4.704292514361441E-004;
2.416333333333334E+009;2.029155492782593E-001;-4.124089330434799E-002;-4.937305115163326E-003;6.944177439436317E-004;
2.416500000000000E+009;2.036991119384766E-001;-4.162986949086189E-002;-5.092432256788015E-003;7.794774719513953E-004;
2.416666666666667E+009;2.040499895811081E-001;-4.188872501254082E-002;-4.791993647813797E-003;1.182952197268605E-003;
2.416833333333334E+009;2.044033408164978E-001;-4.186129942536354E-002;-4.729017615318298E-003;1.286632497794926E-003;
2.417000000000000E+009;2.045054435729981E-001;-4.212899506092072E-002;-4.924571141600609E-003;1.682208036072552E-003;
2.417166666666667E+009;2.044081836938858E-001;-4.191357269883156E-002;-4.707227461040020E-003;1.698655774816871E-003;
2.417333333333334E+009;2.042703032493591E-001;-4.175512492656708E-002;-4.573042038828135E-003;1.876585651189089E-003;
2.417500000000000E+009;2.041373699903488E-001;-4.162161424756050E-002;-4.476134665310383E-003;2.199606737121940E-003;
2.417666666666667E+009;2.036733627319336E-001;-4.143005982041359E-002;-4.325833171606064E-003;2.306574257090688E-003;
2.417833333333334E+009;2.033851444721222E-001;-4.115199297666550E-002;-4.294337239116430E-003;2.446114085614681E-003;
2.418000000000000E+009;2.028203308582306E-001;-4.098882153630257E-002;-4.336342681199312E-003;2.634867792949081E-003;
2.418166666666667E+009;2.019049674272537E-001;-4.069686308503151E-002;-4.016697406768799E-003;2.812189050018787E-003;
2.418333333333334E+009;2.013465613126755E-001;-4.044641554355621E-002;-3.983909264206886E-003;2.854655263945460E-003;
2.418500000000000E+009;2.002907544374466E-001;-4.042499512434006E-002;-3.878982737660408E-003;2.921616658568382E-003;
2.418666666666667E+009;1.993525624275208E-001;-4.030669853091240E-002;-3.798005869612098E-003;3.139094915241003E-003;
2.418833333333334E+009;1.981033086776733E-001;-4.043442383408546E-002;-3.635770175606012E-003;3.247882472351193E-003;
2.419000000000000E+009;1.969111412763596E-001;-4.053435474634171E-002;-3.461760701611638E-003;3.454323858022690E-003;
2.419166666666667E+009;1.955485045909882E-001;-4.079908505082130E-002;-3.180476604029536E-003;3.666192060336471E-003;
2.419333333333334E+009;1.941043734550476E-001;-4.122493788599968E-002;-3.087847726419568E-003;3.790471469983459E-003;
2.419500000000000E+009;1.927034407854080E-001;-4.159691929817200E-002;-2.907219110056758E-003;3.821846330538392E-003;
2.419666666666667E+009;1.909476518630981E-001;-4.239604994654656E-002;-2.556942170485854E-003;3.713138168677688E-003;
2.419833333333334E+009;1.893798559904099E-001;-4.299269989132881E-002;-2.356786979362369E-003;3.845058381557465E-003;
2.420000000000000E+009;1.875914186239243E-001;-4.379161447286606E-002;-2.179541159421206E-003;3.946220036596060E-003;
2.420166666666667E+009;1.860066056251526E-001;-4.460177943110466E-002;-2.047921763733029E-003;3.891218220815063E-003;
2.420333333333334E+009;1.841652989387512E-001;-4.567426070570946E-002;-1.816850039176643E-003;4.014235455542803E-003;
2.420500000000000E+009;1.825070083141327E-001;-4.697457700967789E-002;-1.491669914685190E-003;3.690159181132913E-003;
2.420666666666667E+009;1.807675510644913E-001;-4.805314168334007E-002;-1.536558731459081E-003;3.735544160008431E-003;
2.420833333333334E+009;1.789910942316055E-001;-4.952086135745049E-002;-1.386763411574066E-003;3.706723218783736E-003;
2.421000000000000E+009;1.774210184812546E-001;-5.091543123126030E-002;-1.187898684293032E-003;3.546546446159482E-003;
2.421166666666667E+009;1.760503649711609E-001;-5.264947935938835E-002;-1.146466820500791E-003;3.620029194280505E-003;
2.421333333333334E+009;1.742459535598755E-001;-5.411129072308540E-002;-1.224907115101814E-003;3.614624263718724E-003;
2.421500000000000E+009;1.728697270154953E-001;-5.600121617317200E-002;-1.118929707445204E-003;3.604140598326922E-003;
2.421666666666667E+009;1.716031879186630E-001;-5.777356773614883E-002;-8.975228993222117E-004;3.529175184667110E-003;
2.421833333333334E+009;1.702572554349899E-001;-5.972889438271523E-002;-9.453170350752771E-004;3.476628568023443E-003;
2.422000000000000E+009;1.689960658550263E-001;-6.171869114041328E-002;-8.741386700421572E-004;3.574816742911935E-003;
2.422166666666667E+009;1.680681407451630E-001;-6.391365081071854E-002;-6.360304541885853E-004;3.503008279949427E-003;
2.422333333333334E+009;1.668756604194641E-001;-6.602408736944199E-002;-5.754106678068638E-004;3.515074262395501E-003;
2.422500000000000E+009;1.660137623548508E-001;-6.797993928194046E-002;-4.640475381165743E-004;3.488230518996716E-003;
2.422666666666667E+009;1.654766052961350E-001;-7.006271928548813E-002;-5.169067298993468E-004;3.499042009934783E-003;
2.422833333333334E+009;1.648258268833160E-001;-7.221239060163498E-002;-4.732457455247641E-004;3.288597799837589E-003;
2.423000000000000E+009;1.641911864280701E-001;-7.421422749757767E-002;-2.383863320574164E-004;3.407973796129227E-003;
2.423166666666667E+009;1.638637781143189E-001;-7.650564610958099E-002;-2.425774000585079E-004;3.473432036116719E-003;
2.423333333333334E+009;1.637021452188492E-001;-7.851817458868027E-002;2.784438038361259E-005;3.309589112177491E-003;
2.423500000000000E+009;1.634729355573654E-001;-8.033160865306854E-002;-2.650358146638610E-005;3.293048823252320E-003;
2.423666666666667E+009;1.634037643671036E-001;-8.242972195148468E-002;1.061231960193254E-004;3.273375099524856E-003;
2.423833333333334E+009;1.634394377470017E-001;-8.432783186435700E-002;1.885465317172930E-004;3.141478169709444E-003;
2.424000000000000E+009;1.635115146636963E-001;-8.628465235233307E-002;1.691086654318497E-004;3.038748167455196E-003;
2.424166666666667E+009;1.637856662273407E-001;-8.799790591001511E-002;1.367212098557502E-004;3.082134760916233E-003;
2.424333333333334E+009;1.641106456518173E-001;-8.971010893583298E-002;2.011239266721532E-004;3.119997447356582E-003;
2.424500000000000E+009;1.643167138099670E-001;-9.148791432380676E-002;1.857752504292876E-004;3.106266492977738E-003;
2.424666666666667E+009;1.647258400917053E-001;-9.299707412719727E-002;1.011672648019157E-004;2.885882277041674E-003;
2.424833333333334E+009;1.653892844915390E-001;-9.445250779390335E-002;2.700341283343732E-004;2.965182997286320E-003;
2.425000000000000E+009;1.657434403896332E-001;-9.578595310449600E-002;3.211550938431174E-004;2.934316871687770E-003;
2.425166666666667E+009;1.661792844533920E-001;-9.701290726661682E-002;3.497819416224957E-004;2.978231990709901E-003;
2.425333333333334E+009;1.665758043527603E-001;-9.812670201063156E-002;3.594884183257818E-004;2.793162362650037E-003;
2.425500000000000E+009;1.670529842376709E-001;-9.924855083227158E-002;2.866310533136129E-004;3.133273916319013E-003;
2.425666666666667E+009;1.676055639982224E-001;-9.997589886188507E-002;3.605562378652394E-004;3.092070110142231E-003;
2.425833333333334E+009;1.680469512939453E-001;-1.010321080684662E-001;3.863807942252606E-004;3.063208889216185E-003;
2.426000000000000E+009;1.684970706701279E-001;-1.015646159648895E-001;3.572819405235350E-004;3.039560280740261E-003;
2.426166666666667E+009;1.690901964902878E-001;-1.021001115441322E-001;3.881451848428696E-004;3.174046054482460E-003;
2.426333333333334E+009;1.692391186952591E-001;-1.027094721794128E-001;3.940646420232952E-004;3.181681968271732E-003;
2.426500000000000E+009;1.698712408542633E-001;-1.029716730117798E-001;3.770312468986958E-004;3.475570352748036E-003;
2.426666666666667E+009;1.701604276895523E-001;-1.033469513058662E-001;5.883662379346788E-004;3.440533531829715E-003;
2.426833333333334E+009;1.704593300819397E-001;-1.036622598767281E-001;7.471143035218120E-004;3.492278512567282E-003;
2.427000000000000E+009;1.705361157655716E-001;-1.038778349757195E-001;8.035161881707609E-004;3.625445067882538E-003;
2.427166666666667E+009;1.706975996494293E-001;-1.040558516979218E-001;1.123082940466702E-003;3.464988665655255E-003;
2.427333333333334E+009;1.708096265792847E-001;-1.043193489313126E-001;1.166611094959080E-003;3.548684064298868E-003;
2.427500000000000E+009;1.705063730478287E-001;-1.044031605124474E-001;1.235879608429968E-003;3.709276672452688E-003;
2.427666666666667E+009;1.704412400722504E-001;-1.044511273503304E-001;1.449370058253408E-003;3.580364864319563E-003;
