# Version 1.00
#
freq[Hz];re:Trc1_S11;im:Trc1_S11;re:Trc2_S21;im:Trc2_S21;
2.400000000000000E+009;1.558925807476044E-001;1.089825630187988E-001;5.251637194305658E-003;-1.430166885256767E-003;
2.400166666666667E+009;1.554666757583618E-001;1.065304577350617E-001;5.019127391278744E-003;-1.584707992151380E-003;
2.400333333333334E+009;1.554406434297562E-001;1.043897271156311E-001;5.017567891627550E-003;-1.802438986487687E-003;
2.400500000000000E+009;1.550719887018204E-001;1.016531512141228E-001;5.133367609232664E-003;-2.043011831119657E-003;
2.400666666666667E+009;1.551544815301895E-001;9.908223897218704E-002;5.060694180428982E-003;-2.238911576569080E-003;
2.400833333333334E+009;1.549937129020691E-001;9.607239812612534E-002;5.002872087061405E-003;-2.554197330027819E-003;
2.401000000000000E+009;1.550681442022324E-001;9.340751171112061E-002;4.860862623900175E-003;-2.854944439604878E-003;
2.401166666666667E+009;1.551902890205383E-001;9.057038277387619E-002;4.811787512153387E-003;-2.963119186460972E-003;
2.401333333333334E+009;1.553270071744919E-001;8.762253820896149E-002;4.608705639839172E-003;-3.153444733470678E-003;
2.401500000000000E+009;1.556322723627091E-001;8.474875241518021E-002;4.563044756650925E-003;-3.444291651248932E-003;
2.401666666666667E+009;1.558262258768082E-001;8.185609430074692E-002;4.541646223515272E-003;-3.564365673810244E-003;
2.401833333333334E+009;1.562407165765762E-001;7.903293520212174E-002;4.270354751497507E-003;-3.888516454026103E-003;
2.402000000000000E+009;1.568781882524490E-001;7.604940235614777E-002;4.246633965522051E-003;-4.278943408280611E-003;
2.402166666666667E+009;1.575435101985931E-001;7.348904758691788E-002;4.000129178166390E-003;-4.268424119800329E-003;
2.402333333333334E+009;1.584740281105042E-001;7.057885080575943E-002;3.780126804485917E-003;-4.569355864077807E-003;
2.402500000000000E+009;1.594917774200440E-001;6.813440471887589E-002;3.508828813210130E-003;-4.832140170037746E-003;
2.402666666666667E+009;1.606310755014420E-001;6.556885689496994E-002;3.325964091345668E-003;-5.041981115937233E-003;
2.402833333333334E+009;1.618085056543350E-001;6.293401122093201E-002;3.153221448883414E-003;-5.200686398893595E-003;
2.403000000000000E+009;1.631910204887390E-001;6.048807129263878E-002;2.605229383334518E-003;-5.564404185861349E-003;
2.403166666666667E+009;1.648332476615906E-001;5.809136852622032E-002;2.427659463137388E-003;-5.601896904408932E-003;
2.403333333333334E+009;1.661034822463989E-001;5.572447180747986E-002;1.874570501968265E-003;-5.754354875534773E-003;
2.403500000000000E+009;1.679000407457352E-001;5.368075892329216E-002;1.444837776944041E-003;-5.685933865606785E-003;
2.403666666666667E+009;1.697160154581070E-001;5.164669454097748E-002;1.111943973228335E-003;-5.741569679230452E-003;
2.403833333333334E+009;1.713256835937500E-001;4.958602413535118E-002;6.178313633427024E-004;-5.751488730311394E-003;
2.404000000000000E+009;1.727454215288162E-001;4.787239804863930E-002;4.661146376747638E-004;-5.612097680568695E-003;
2.404166666666667E+009;1.746424585580826E-001;4.648326337337494E-002;8.324319423991256E-006;-5.436141509562731E-003;
2.404333333333334E+009;1.761000007390976E-001;4.479288309812546E-002;-3.284021804574877E-004;-5.316540133208036E-003;
2.404500000000000E+009;1.777513474225998E-001;4.316343739628792E-002;-5.567605257965624E-004;-5.266037303954363E-003;
2.404666666666667E+009;1.796009540557861E-001;4.211885482072830E-002;-7.548524299636483E-004;-4.930509254336357E-003;
2.404833333333334E+009;1.812390089035034E-001;4.093080013990402E-002;-8.668185910210013E-004;-4.707533400505781E-003;
2.405000000000000E+009;1.825713068246841E-001;4.036093130707741E-002;-8.289089309982956E-004;-4.574884660542011E-003;
2.405166666666667E+009;1.841903626918793E-001;3.953581303358078E-002;-1.017721602693200E-003;-4.401486832648516E-003;
2.405333333333334E+009;1.856721043586731E-001;3.907060250639916E-002;-1.287242863327265E-003;-4.071241710335016E-003;
2.405500000000000E+009;1.871391832828522E-001;3.845058009028435E-002;-1.268901629373431E-003;-4.021037369966507E-003;
2.405666666666667E+009;1.884622871875763E-001;3.830948844552040E-002;-1.489526010118425E-003;-3.913056571036577E-003;
2.405833333333334E+009;1.898733675479889E-001;3.806507214903832E-002;-1.569665968418121E-003;-3.758746432140470E-003;
2.406000000000000E+009;1.907683759927750E-001;3.785211592912674E-002;-1.501445309258997E-003;-3.692994825541973E-003;
2.406166666666667E+009;1.920769661664963E-001;3.770782053470612E-002;-1.428144751116633E-003;-3.594237612560391E-003;
2.406333333333334E+009;1.930692642927170E-001;3.796412423253059E-002;-1.744699780829251E-003;-3.341111121699214E-003;
2.406500000000000E+009;1.938769519329071E-001;3.810347616672516E-002;-1.796541619114578E-003;-3.132558660581708E-003;
2.406666666666667E+009;1.946353465318680E-001;3.836270794272423E-002;-1.815035240724683E-003;-3.012795234099031E-003;
2.406833333333334E+009;1.952976137399674E-001;3.850474581122398E-002;-1.864358317106962E-003;-2.899719169363380E-003;
2.407000000000000E+009;1.957632154226303E-001;3.883978351950645E-002;-1.930790953338146E-003;-2.742412732914090E-003;
2.407166666666667E+009;1.961073130369186E-001;3.883181884884834E-002;-1.936558168381453E-003;-2.638739766553044E-003;
2.407333333333334E+009;1.962748020887375E-001;3.918399289250374E-002;-1.847245963290334E-003;-2.528348471969366E-003;
2.407500000000000E+009;1.963269710540772E-001;3.933037072420120E-002;-1.863667392171919E-003;-2.301163738593459E-003;
2.407666666666667E+009;1.965113133192062E-001;3.957786783576012E-002;-1.819831901229918E-003;-2.383866347372532E-003;
2.407833333333334E+009;1.961384266614914E-001;3.951502591371536E-002;-1.816451083868742E-003;-2.287557814270258E-003;
2.408000000000000E+009;1.961618214845657E-001;3.954509273171425E-002;-1.807140884920955E-003;-2.170652849599719E-003;
2.408166666666667E+009;1.956504285335541E-001;3.948682174086571E-002;-1.627039979211986E-003;-1.916539506055415E-003;
2.408333333333334E+009;1.952670067548752E-001;3.926246240735054E-002;-1.596071408130229E-003;-1.811784226447344E-003;
2.408500000000000E+009;1.946105211973190E-001;3.922177851200104E-002;-1.653518294915557E-003;-1.874466077424586E-003;
2.408666666666667E+009;1.940402835607529E-001;3.873404115438461E-002;-1.507762470282614E-003;-1.748979790136218E-003;
2.408833333333334E+009;1.933867037296295E-001;3.830553218722343E-002;-1.425270223990083E-003;-1.723450841382146E-003;
2.409000000000000E+009;1.926127076148987E-001;3.746193274855614E-002;-1.245980034582317E-003;-1.675356063060463E-003;
2.409166666666667E+009;1.916589587926865E-001;3.679741173982620E-002;-1.177442492917180E-003;-1.662996481172741E-003;
2.409333333333334E+009;1.908163428306580E-001;3.596833348274231E-002;-1.160244224593043E-003;-1.640746952034533E-003;
2.409500000000000E+009;1.896782219409943E-001;3.481500595808029E-002;-1.032329979352653E-003;-1.642342074774206E-003;
2.409666666666667E+009;1.887390315532684E-001;3.341544046998024E-002;-8.138190023601055E-004;-1.788601628504694E-003;
2.409833333333334E+009;1.877555400133133E-001;3.211015835404396E-002;-8.227235521189869E-004;-1.947165117599070E-003;
2.410000000000000E+009;1.867368668317795E-001;3.063448518514633E-002;-6.813002983108163E-004;-1.942291390150785E-003;
2.410166666666667E+009;1.857285201549530E-001;2.891255356371403E-002;-8.563001756556332E-004;-2.173949498683214E-003;
2.410333333333334E+009;1.847125291824341E-001;2.725728042423725E-002;-7.842054474167526E-004;-2.151462715119124E-003;
2.410500000000000E+009;1.838687807321549E-001;2.538337744772434E-002;-8.514494402334094E-004;-2.428950974717736E-003;
2.410666666666667E+009;1.828551143407822E-001;2.314198389649391E-002;-1.027834834530950E-003;-2.261914545670152E-003;
2.410833333333334E+009;1.821299940347672E-001;2.099848538637161E-002;-9.047182393260300E-004;-2.580214291810989E-003;
2.411000000000000E+009;1.812886297702789E-001;1.883917488157749E-002;-1.017865608446300E-003;-2.572539029642940E-003;
2.411166666666667E+009;1.806314438581467E-001;1.665341481566429E-002;-1.257303636521101E-003;-2.770450431853533E-003;
2.411333333333334E+009;1.800224334001541E-001;1.431704033166170E-002;-1.224140985868871E-003;-2.833678154274821E-003;
2.411500000000000E+009;1.794853210449219E-001;1.168808806687594E-002;-1.424793037585914E-003;-2.915256191045046E-003;
2.411666666666667E+009;1.793069839477539E-001;9.501346386969090E-003;-1.491583534516394E-003;-2.973089460283518E-003;
2.411833333333334E+009;1.788049340248108E-001;7.030560635030270E-003;-1.662683323957026E-003;-2.908773720264435E-003;
2.412000000000000E+009;1.789896637201309E-001;4.296257626265287E-003;-1.756365178152919E-003;-2.955348929390311E-003;
2.412166666666667E+009;1.790238618850708E-001;1.974868355318904E-003;-1.964371185749769E-003;-2.970940433442593E-003;
2.412333333333334E+009;1.792484223842621E-001;-7.037496543489397E-004;-2.042188309133053E-003;-3.162885783240199E-003;
2.412500000000000E+009;1.796674281358719E-001;-3.080546623095870E-003;-2.251670230180025E-003;-3.142358735203743E-003;
2.412666666666667E+009;1.799425184726715E-001;-5.744919646531344E-003;-2.450997941195965E-003;-3.081539412960410E-003;
2.412833333333334E+009;1.808867156505585E-001;-8.163107559084892E-003;-2.556472783908248E-003;-3.124546492472291E-003;
2.413000000000000E+009;1.814759969711304E-001;-1.065247878432274E-002;-2.782425377517939E-003;-3.114280523732305E-003;
2.413166666666667E+009;1.824323982000351E-001;-1.292943302541971E-002;-3.120275912806392E-003;-3.068532794713974E-003;
2.413333333333334E+009;1.833190917968750E-001;-1.557431276887655E-002;-3.169936826452613E-003;-2.958253957331181E-003;
2.413500000000000E+009;1.841293573379517E-001;-1.779115572571755E-002;-3.501483704894781E-003;-2.821385394781828E-003;
2.413666666666667E+009;1.854574233293533E-001;-2.020347118377686E-002;-3.760630264878273E-003;-2.821811707690358E-003;
2.413833333333334E+009;1.864028275012970E-001;-2.238339558243752E-002;-3.915944602340460E-003;-2.750170417129993E-003;
2.414000000000000E+009;1.877113580703735E-001;-2.450623922049999E-002;-4.227008670568466E-003;-2.361537888646126E-003;
2.414166666666667E+009;1.891255974769592E-001;-2.643657103180885E-002;-4.401543177664280E-003;-2.170681720599532E-003;
2.414333333333334E+009;1.900177448987961E-001;-2.852199226617813E-002;-4.618445411324501E-003;-1.948556862771511E-003;
2.414500000000000E+009;1.914381980895996E-001;-3.011690452694893E-002;-4.750133492052555E-003;-1.563722849823535E-003;
2.414666666666667E+009;1.926661580801010E-001;-3.175866603851318E-002;-4.799409303814173E-003;-1.433931640349329E-003;
2.414833333333334E+009;1.940019577741623E-001;-3.316619619727135E-002;-4.798814654350281E-003;-1.261014142073691E-003;
2.415000000000000E+009;1.950823217630386E-001;-3.461356088519096E-002;-4.806117154657841E-003;-1.067698234692216E-003;
2.415166666666667E+009;1.964407116174698E-001;-3.581878915429115E-002;-4.845778457820416E-003;-8.468606392852962E-004;
2.415333333333334E+009;1.976618021726608E-001;-3.687471896409988E-002;-4.894686397165060E-003;-6.286053685471416E-004;
2.415500000000000E+009;1.988727301359177E-001;-3.779700398445129E-002;-4.946180619299412E-003;-4.894791636615992E-004;
2.415666666666667E+009;2.000434696674347E-001;-3.871947526931763E-002;-4.826238378882408E-003;-2.282600908074528E-004;
2.415833333333334E+009;2.009597420692444E-001;-3.941648080945015E-002;-5.057346075773239E-003;-1.054634703905322E-004;
2.416000000000000E+009;2.019119709730148E-001;-4.009028151631355E-002;-5.008153151720762E-003;1.407536328770220E-004;
2.416166666666667E+009;2.027115225791931E-001;-4.059457033872604E-002;-5.093719810247421E-003;2.911417977884412E-004;
2.416333333333334E+009;2.034285962581635E-001;-4.094967618584633E-002;-5.125465802848339E-003;5.391174927353859E-004;
2.416500000000000E+009;2.039219290018082E-001;-4.131449759006500E-002;-5.086264107376337E-003;7.208226597867906E-004;
2.416666666666667E+009;2.044080197811127E-001;-4.167122021317482E-002;-5.098477005958557E-003;9.579905308783054E-004;
2.416833333333334E+009;2.046460062265396E-001;-4.162560403347015E-002;-5.060094408690929E-003;1.195022487081587E-003;
2.417000000000000E+009;2.049330174922943E-001;-4.179400950670242E-002;-4.845141433179379E-003;1.384731032885611E-003;
2.417166666666667E+009;2.048272341489792E-001;-4.185764864087105E-002;-4.762695170938969E-003;1.646454213187099E-003;
2.417333333333334E+009;2.046393752098084E-001;-4.151538014411926E-002;-4.750706721097231E-003;1.826947554945946E-003;
2.417500000000000E+009;2.044461220502853E-001;-4.151714965701103E-002;-4.546116571873426E-003;1.974134007468820E-003;
2.417666666666667E+009;2.038951814174652E-001;-4.127690568566322E-002;-4.452804569154978E-003;2.156642731279135E-003;
2.417833333333334E+009;2.036545127630234E-001;-4.095160961151123E-002;-4.529336001724005E-003;2.619032049551606E-003;
2.418000000000000E+009;2.030591815710068E-001;-4.063095524907112E-002;-4.273891914635897E-003;2.602383960038424E-003;
2.418166666666667E+009;2.022994011640549E-001;-4.059540480375290E-002;-4.145997576415539E-003;2.708522370085120E-003;
2.418333333333334E+009;2.014434039592743E-001;-4.037405177950859E-002;-4.175543319433928E-003;2.950229682028294E-003;
2.418500000000000E+009;2.005312740802765E-001;-4.025896638631821E-002;-3.940650727599859E-003;3.115348517894745E-003;
2.418666666666667E+009;1.996955126523972E-001;-4.014100134372711E-002;-3.823191625997424E-003;3.261982463300228E-003;
2.418833333333334E+009;1.984158307313919E-001;-4.025232419371605E-002;-3.616909496486187E-003;3.436795435845852E-003;
2.419000000000000E+009;1.971306800842285E-001;-4.030388221144676E-002;-3.549718530848622E-003;3.610321786254644E-003;
2.419166666666667E+009;1.959322690963745E-001;-4.069430008530617E-002;-3.253855742514134E-003;3.692311001941562E-003;
2.419333333333334E+009;1.944272220134735E-001;-4.097456857562065E-002;-3.073445521295071E-003;3.890072228386998E-003;
2.419500000000000E+009;1.929628401994705E-001;-4.135354980826378E-002;-2.784758107736707E-003;3.867751453071833E-003;
2.419666666666667E+009;1.913076192140579E-001;-4.208195954561234E-002;-2.495291177183390E-003;3.974944353103638E-003;
2.419833333333334E+009;1.897969394922257E-001;-4.288070648908615E-002;-2.513547660782933E-003;3.965381067246199E-003;
2.420000000000000E+009;1.881490200757980E-001;-4.345965012907982E-002;-2.172739012166858E-003;3.978209104388952E-003;
2.420166666666667E+009;1.864665448665619E-001;-4.444880038499832E-002;-1.915329834446311E-003;4.129559732973576E-003;
2.420333333333334E+009;1.846824139356613E-001;-4.559158533811569E-002;-1.787319546565414E-003;3.909511491656303E-003;
2.420500000000000E+009;1.830289214849472E-001;-4.685286805033684E-002;-1.629155012778938E-003;3.871370339766145E-003;
2.420666666666667E+009;1.812152564525604E-001;-4.799252003431320E-002;-1.480405102483928E-003;3.692840458825231E-003;
2.420833333333334E+009;1.794858723878861E-001;-4.931955412030220E-002;-1.191916759125888E-003;3.696562489494681E-003;
2.421000000000000E+009;1.778696775436401E-001;-5.101298540830612E-002;-1.226875698193908E-003;3.589724889025092E-003;
2.421166666666667E+009;1.763071864843369E-001;-5.264556407928467E-002;-1.267200568690896E-003;3.640141105279326E-003;
2.421333333333334E+009;1.744876652956009E-001;-5.415989086031914E-002;-1.068077515810728E-003;3.581535536795855E-003;
2.421500000000000E+009;1.732057183980942E-001;-5.619124323129654E-002;-1.020868308842182E-003;3.565337508916855E-003;
2.421666666666667E+009;1.718332171440125E-001;-5.806082487106323E-002;-8.245945209637284E-004;3.542413003742695E-003;
2.421833333333334E+009;1.705173701047897E-001;-5.988251790404320E-002;-8.885314455255866E-004;3.653619438409805E-003;
2.422000000000000E+009;1.692821830511093E-001;-6.169300898909569E-002;-7.910330896265805E-004;3.588134655728936E-003;
2.422166666666667E+009;1.683573126792908E-001;-6.400933861732483E-002;-6.739620002917945E-004;3.633823478594422E-003;
2.422333333333334E+009;1.671928167343140E-001;-6.600754708051682E-002;-5.242626066319645E-004;3.515699179843068E-003;
2.422500000000000E+009;1.663894653320313E-001;-6.817242503166199E-002;-4.078400961589068E-004;3.587687853723764E-003;
2.422666666666667E+009;1.657716482877731E-001;-7.020515948534012E-002;-4.201971751172096E-004;3.533154726028442E-003;
2.422833333333334E+009;1.651220172643662E-001;-7.240370661020279E-002;-1.214241565321572E-004;3.577704774215818E-003;
2.423000000000000E+009;1.645230948925018E-001;-7.445835322141647E-002;-3.768305468838662E-004;3.508541500195861E-003;
2.423166666666667E+009;1.639646142721176E-001;-7.642734050750732E-002;-5.407051503425464E-005;3.510823706164956E-003;
2.423333333333334E+009;1.638534069061279E-001;-7.864854484796524E-002;1.355735876131803E-004;3.454219084233046E-003;
2.423500000000000E+009;1.637150943279266E-001;-8.048215508460999E-002;1.757699064910412E-004;3.439372638240457E-003;
2.423666666666667E+009;1.636526435613632E-001;-8.255711942911148E-002;1.896731264423579E-004;3.292467677965760E-003;
2.423833333333334E+009;1.636756658554077E-001;-8.457969874143601E-002;1.913276792038232E-004;3.136799670755863E-003;
2.424000000000000E+009;1.637244224548340E-001;-8.647803962230682E-002;3.826031752396375E-004;3.198238089680672E-003;
2.424166666666667E+009;1.638034433126450E-001;-8.800607919692993E-002;3.692406462505460E-004;3.011940978467464E-003;
2.424333333333334E+009;1.640552282333374E-001;-8.966291695833206E-002;4.023929941467941E-004;3.030122956261039E-003;
2.424500000000000E+009;1.646211594343185E-001;-9.168612211942673E-002;3.358563408255577E-004;2.992744091898203E-003;
2.424666666666667E+009;1.648670136928558E-001;-9.308812767267227E-002;3.812643990386277E-004;2.824769122526050E-003;
2.424833333333334E+009;1.655362248420715E-001;-9.450990706682205E-002;3.230171569157392E-004;2.919486723840237E-003;
2.425000000000000E+009;1.658391505479813E-001;-9.586670994758606E-002;3.375994856469333E-004;2.768006874248385E-003;
2.425166666666667E+009;1.662406176328659E-001;-9.701303392648697E-002;3.506309003569186E-004;2.939410973340273E-003;
2.425333333333334E+009;1.666508913040161E-001;-9.816796332597733E-002;2.467160520609468E-004;2.764259232208133E-003;
2.425500000000000E+009;1.671597659587860E-001;-9.924831241369247E-002;3.840948047582060E-004;2.794154221192002E-003;
2.425666666666667E+009;1.677964180707932E-001;-1.000573411583901E-001;3.531381080392748E-004;2.764558186754584E-003;
2.425833333333334E+009;1.681636422872543E-001;-1.009931191802025E-001;3.720633103512228E-004;3.006575396284461E-003;
2.426000000000000E+009;1.687420010566711E-001;-1.014762818813324E-001;3.882622113451362E-004;2.870632335543633E-003;
2.426166666666667E+009;1.693236678838730E-001;-1.020831093192101E-001;2.260348119307309E-004;2.863618778064847E-003;
2.426333333333334E+009;1.695225089788437E-001;-1.026585325598717E-001;6.034358520992100E-004;3.017904004082084E-003;
2.426500000000000E+009;1.700882464647293E-001;-1.030010432004929E-001;4.061112995259464E-004;3.099196357652545E-003;
2.426666666666667E+009;1.703585088253021E-001;-1.034519448876381E-001;4.162990080658346E-004;3.224137937650085E-003;
2.426833333333334E+009;1.707513183355331E-001;-1.036334857344627E-001;5.072868079878390E-004;3.183519700542092E-003;
2.427000000000000E+009;1.708943396806717E-001;-1.039031073451042E-001;7.171312463469803E-004;3.415027400478721E-003;
2.427166666666667E+009;1.710982918739319E-001;-1.038975566625595E-001;8.986503235064447E-004;3.275624476373196E-003;
2.427333333333334E+009;1.710847765207291E-001;-1.042680442333221E-001;9.590538684278727E-004;3.527957946062088E-003;
2.427500000000000E+009;1.709498316049576E-001;-1.044285446405411E-001;1.037729554809630E-003;3.471133532002568E-003;
2.427666666666667E+009;1.708211004734039E-001;-1.044110730290413E-001;1.157070393674076E-003;3.478346858173609E-003;
