# Version 1.00
#
freq[Hz];re:Trc1_S11;im:Trc1_S11;re:Trc2_S21;im:Trc2_S21;
2.400000000000000E+009;1.552045643329620E-001;1.064559593796730E-001;1.179515616968274E-003;1.771878800354898E-003;
2.400166666666667E+009;1.549018770456314E-001;1.041665747761726E-001;1.158670755103231E-003;1.914312480948865E-003;
2.400333333333334E+009;1.550698429346085E-001;1.018412187695503E-001;1.182239735499024E-003;2.005383372306824E-003;
2.400500000000000E+009;1.550607681274414E-001;9.913005679845810E-002;1.188599271699786E-003;2.107082167640328E-003;
2.400666666666667E+009;1.552073508501053E-001;9.671586751937866E-002;1.387382275424898E-003;2.099704695865512E-003;
2.400833333333334E+009;1.552044302225113E-001;9.388411790132523E-002;1.346655888482928E-003;2.019010484218597E-003;
2.401000000000000E+009;1.554074138402939E-001;9.108368307352066E-002;1.520215882919729E-003;2.008743118494749E-003;
2.401166666666667E+009;1.556610912084580E-001;8.811867237091065E-002;1.640561153180897E-003;2.138938289135695E-003;
2.401333333333334E+009;1.560127139091492E-001;8.538611978292465E-002;1.705725095234811E-003;2.228468423709273E-003;
2.401500000000000E+009;1.564693599939346E-001;8.264920115470886E-002;1.924440148286521E-003;2.171990927308798E-003;
2.401666666666667E+009;1.567110866308212E-001;7.970160990953445E-002;2.014550147578120E-003;1.984097063541412E-003;
2.401833333333334E+009;1.573242843151093E-001;7.723287492990494E-002;2.042579231783748E-003;2.012934302911162E-003;
2.402000000000000E+009;1.581075340509415E-001;7.438338547945023E-002;2.199447015300393E-003;1.861089724116027E-003;
2.402166666666667E+009;1.589742153882980E-001;7.184479385614395E-002;2.209758618846536E-003;1.914666616357863E-003;
2.402333333333334E+009;1.598967313766480E-001;6.932011246681213E-002;2.340415958315134E-003;1.642041723243892E-003;
2.402500000000000E+009;1.610934436321259E-001;6.661090999841690E-002;2.450950909405947E-003;1.513364259153605E-003;
2.402666666666667E+009;1.623215377330780E-001;6.446948647499085E-002;2.401354257017374E-003;1.404554350301623E-003;
2.402833333333334E+009;1.636181175708771E-001;6.184533238410950E-002;2.286117291077972E-003;1.443949411623180E-003;
2.403000000000000E+009;1.651576012372971E-001;5.963633954524994E-002;2.405111910775304E-003;1.386238844133914E-003;
2.403166666666667E+009;1.667451709508896E-001;5.758181959390640E-002;2.395692747086287E-003;1.135904109105468E-003;
2.403333333333334E+009;1.682712435722351E-001;5.519688129425049E-002;2.170367864891887E-003;1.527809072285891E-003;
2.403500000000000E+009;1.699677407741547E-001;5.331462994217873E-002;2.230382058769465E-003;1.388881821185350E-003;
2.403666666666667E+009;1.717370152473450E-001;5.137947946786881E-002;2.397661330178380E-003;1.205239677801728E-003;
2.403833333333334E+009;1.733291596174240E-001;4.946891590952873E-002;2.260783920064569E-003;1.439376384951174E-003;
2.404000000000000E+009;1.747707128524780E-001;4.790284112095833E-002;2.516771666705608E-003;1.588998013176024E-003;
2.404166666666667E+009;1.766194105148315E-001;4.631172865629196E-002;2.635300159454346E-003;1.502724247984588E-003;
2.404333333333334E+009;1.782592982053757E-001;4.477242380380631E-002;2.896006219089031E-003;1.550783286802471E-003;
2.404500000000000E+009;1.796926707029343E-001;4.343129694461823E-002;3.108665579929948E-003;1.486302819103003E-003;
2.404666666666667E+009;1.814591735601425E-001;4.225331544876099E-002;3.256768686696887E-003;1.475235912948847E-003;
2.404833333333334E+009;1.831274479627609E-001;4.119251668453217E-002;3.495902288705111E-003;1.312003238126636E-003;
2.405000000000000E+009;1.843990683555603E-001;4.049534723162651E-002;3.534158691763878E-003;1.095152110792697E-003;
2.405166666666667E+009;1.859986186027527E-001;3.975750878453255E-002;3.719915868714452E-003;9.663203381933272E-004;
2.405333333333334E+009;1.873045116662979E-001;3.923460468649864E-002;3.850377397611737E-003;8.479247335344553E-004;
2.405500000000000E+009;1.886563450098038E-001;3.889142349362373E-002;3.896414302289486E-003;5.147207994014025E-004;
2.405666666666667E+009;1.898408532142639E-001;3.835824131965637E-002;3.806549124419689E-003;3.679047804325819E-004;
2.405833333333334E+009;1.910372972488403E-001;3.809459507465363E-002;3.992471378296614E-003;1.490715076215565E-004;
2.406000000000000E+009;1.919203251600266E-001;3.799723833799362E-002;3.995852544903755E-003;1.767125650076196E-004;
2.406166666666667E+009;1.929315328598023E-001;3.770110756158829E-002;3.893316490575671E-003;-2.090474736178294E-004;
2.406333333333334E+009;1.938075274229050E-001;3.772565722465515E-002;3.786653280258179E-003;-2.617214631754905E-004;
2.406500000000000E+009;1.945571303367615E-001;3.776532039046288E-002;3.933689091354609E-003;-4.870094999205321E-004;
2.406666666666667E+009;1.951735466718674E-001;3.773722052574158E-002;3.801803337410092E-003;-6.522645708173513E-004;
2.406833333333334E+009;1.956653743982315E-001;3.777177259325981E-002;4.046283662319183E-003;-7.424242212437093E-004;
2.407000000000000E+009;1.958112716674805E-001;3.798094764351845E-002;3.857592353597283E-003;-8.600719738751650E-004;
2.407166666666667E+009;1.962308585643768E-001;3.780446201562882E-002;3.969276789575815E-003;-9.675823384895921E-004;
2.407333333333334E+009;1.960855424404144E-001;3.789700195193291E-002;4.016019869595766E-003;-1.098327455110848E-003;
2.407500000000000E+009;1.959800124168396E-001;3.788577020168304E-002;4.099356941878796E-003;-1.335596549324691E-003;
2.407666666666667E+009;1.959161162376404E-001;3.779169917106628E-002;4.126680549234152E-003;-1.486804219894111E-003;
2.407833333333334E+009;1.954336017370224E-001;3.771063312888145E-002;4.146280698478222E-003;-1.765398308634758E-003;
2.408000000000000E+009;1.954758465290070E-001;3.752459958195686E-002;3.959572874009609E-003;-1.762979780323803E-003;
2.408166666666667E+009;1.947715282440186E-001;3.705579414963722E-002;4.001921042799950E-003;-2.149583771824837E-003;
2.408333333333334E+009;1.943998932838440E-001;3.665203601121903E-002;3.993302583694458E-003;-2.205074066296220E-003;
2.408500000000000E+009;1.936285048723221E-001;3.614909946918488E-002;3.960339352488518E-003;-2.562252106145024E-003;
2.408666666666667E+009;1.930301487445831E-001;3.562550246715546E-002;3.710357006639242E-003;-2.773154294118285E-003;
2.408833333333334E+009;1.923753917217255E-001;3.481169417500496E-002;3.790031420066953E-003;-3.003003541380167E-003;
2.409000000000000E+009;1.913801282644272E-001;3.384424373507500E-002;3.652672749012709E-003;-3.258994081988931E-003;
2.409166666666667E+009;1.904762387275696E-001;3.286318853497505E-002;3.361932467669249E-003;-3.367324126884341E-003;
2.409333333333334E+009;1.894370466470718E-001;3.185864165425301E-002;3.184227738529444E-003;-3.644269425421953E-003;
2.409500000000000E+009;1.884926706552506E-001;3.056430816650391E-002;2.988442080095410E-003;-3.835077397525311E-003;
2.409666666666667E+009;1.875037103891373E-001;2.913406863808632E-002;2.785358345136046E-003;-3.973684273660183E-003;
2.409833333333334E+009;1.863538473844528E-001;2.761789783835411E-002;2.536121290177107E-003;-4.049392882734537E-003;
2.410000000000000E+009;1.855358928442001E-001;2.601784467697144E-002;2.313018776476383E-003;-4.170138854533434E-003;
2.410166666666667E+009;1.845196485519409E-001;2.421861514449120E-002;2.095343545079231E-003;-4.241598770022392E-003;
2.410333333333334E+009;1.836917847394943E-001;2.243731729686260E-002;1.783367712050676E-003;-4.323209170252085E-003;
2.410500000000000E+009;1.825522780418396E-001;2.040876448154450E-002;1.799302175641060E-003;-4.438885953277350E-003;
2.410666666666667E+009;1.816001236438751E-001;1.833258941769600E-002;1.436005579307675E-003;-4.320414271205664E-003;
2.410833333333334E+009;1.811811029911041E-001;1.606251113116741E-002;1.221034210175276E-003;-4.405723419040442E-003;
2.411000000000000E+009;1.804069876670837E-001;1.375244930386543E-002;9.548921952955425E-004;-4.450337961316109E-003;
2.411166666666667E+009;1.797339916229248E-001;1.170245371758938E-002;8.152240770868957E-004;-4.302738234400749E-003;
2.411333333333334E+009;1.791963726282120E-001;9.147428907454014E-003;6.308600422926247E-004;-4.471895284950733E-003;
2.411500000000000E+009;1.788051575422287E-001;6.767585407942534E-003;4.154749622102827E-004;-4.532325081527233E-003;
2.411666666666667E+009;1.787496656179428E-001;4.345816094428301E-003;2.023147244472057E-004;-4.411637317389250E-003;
2.411833333333334E+009;1.783373057842255E-001;2.107010921463370E-003;5.477887316374108E-005;-4.371424671262503E-003;
2.412000000000000E+009;1.785648912191391E-001;-4.743506724480540E-004;-1.392732956446707E-004;-4.360525403171778E-003;
2.412166666666667E+009;1.786308437585831E-001;-2.798595698550344E-003;-3.109347017016262E-004;-4.329730756580830E-003;
2.412333333333334E+009;1.787980496883392E-001;-5.352494306862354E-003;-4.418230673763901E-004;-4.351379815489054E-003;
2.412500000000000E+009;1.793028861284256E-001;-7.759251631796360E-003;-9.031387162394822E-004;-4.233977291733027E-003;
2.412666666666667E+009;1.797174215316773E-001;-1.018749084323645E-002;-1.131742727011442E-003;-4.340014420449734E-003;
2.412833333333334E+009;1.803379356861115E-001;-1.264601852744818E-002;-1.361610251478851E-003;-4.090338014066219E-003;
2.413000000000000E+009;1.811815947294235E-001;-1.487463340163231E-002;-1.554582850076258E-003;-4.206629004329443E-003;
2.413166666666667E+009;1.818973869085312E-001;-1.703277416527271E-002;-1.911364845000207E-003;-3.944937605410814E-003;
2.413333333333334E+009;1.827482581138611E-001;-1.939273811876774E-002;-2.106990898028016E-003;-3.760806517675519E-003;
2.413500000000000E+009;1.839036792516708E-001;-2.160874567925930E-002;-2.299313433468342E-003;-3.703071502968669E-003;
2.413666666666667E+009;1.848142594099045E-001;-2.386455982923508E-002;-2.545443596318364E-003;-3.320560092106462E-003;
2.413833333333334E+009;1.860003024339676E-001;-2.553519047796726E-002;-2.715725917369127E-003;-2.910812152549624E-003;
2.414000000000000E+009;1.869960874319077E-001;-2.771049179136753E-002;-2.739822724834085E-003;-2.677096286788583E-003;
2.414166666666667E+009;1.882406920194626E-001;-2.920241281390190E-002;-2.920878352597356E-003;-2.224050695076585E-003;
2.414333333333334E+009;1.893761008977890E-001;-3.123644366860390E-002;-2.938937861472368E-003;-2.008462557569146E-003;
2.414500000000000E+009;1.905936151742935E-001;-3.262832760810852E-002;-2.886918140575290E-003;-1.703537069261074E-003;
2.414666666666667E+009;1.917771100997925E-001;-3.395868465304375E-002;-3.013581736013293E-003;-1.521304831840098E-003;
2.414833333333334E+009;1.927920579910278E-001;-3.537931293249130E-002;-2.630252391099930E-003;-1.246512867510319E-003;
2.415000000000000E+009;1.938756257295609E-001;-3.665512055158615E-002;-2.637122524902225E-003;-1.097207074053586E-003;
2.415166666666667E+009;1.951045840978622E-001;-3.769730776548386E-002;-2.712108427658677E-003;-8.402190869674087E-004;
2.415333333333334E+009;1.961622536182404E-001;-3.860523924231529E-002;-2.587141003459692E-003;-6.840497371740639E-004;
2.415500000000000E+009;1.972591429948807E-001;-3.921372815966606E-002;-2.333908108994365E-003;-3.920949820894748E-004;
2.415666666666667E+009;1.982594281435013E-001;-4.008434340357781E-002;-2.342451363801956E-003;-3.093018312938511E-004;
2.415833333333334E+009;1.990604251623154E-001;-4.071574658155441E-002;-2.044098684564233E-003;-1.711412769509479E-004;
2.416000000000000E+009;1.998358517885208E-001;-4.134050011634827E-002;-1.870361389592290E-003;-5.444132693810388E-005;
2.416166666666667E+009;2.004972696304321E-001;-4.177697747945786E-002;-1.638597343116999E-003;-7.477477629436180E-005;
2.416333333333334E+009;2.010890394449234E-001;-4.195475950837135E-002;-1.705185975879431E-003;-1.469092330808053E-005;
2.416500000000000E+009;2.015358507633209E-001;-4.234017059206963E-002;-1.210749614983797E-003;2.223935734946281E-004;
2.416666666666667E+009;2.018407732248306E-001;-4.263883829116821E-002;-1.371661084704101E-003;1.753720425767824E-004;
2.416833333333334E+009;2.019701004028320E-001;-4.269253090023994E-002;-1.073141698725522E-003;1.735459663905203E-004;
2.417000000000000E+009;2.020419687032700E-001;-4.273927211761475E-002;-9.319724631495774E-004;1.136361897806637E-004;
2.417166666666667E+009;2.017173022031784E-001;-4.277005046606064E-002;-6.723263068124652E-004;1.928726123878732E-004;
2.417333333333334E+009;2.016239911317825E-001;-4.249770566821098E-002;-5.607208586297929E-004;-5.045915531809442E-005;
2.417500000000000E+009;2.012721598148346E-001;-4.261216893792152E-002;-4.016248858533800E-004;-6.252131697692676E-006;
2.417666666666667E+009;2.007431685924530E-001;-4.237890243530273E-002;-6.514931010315195E-005;5.240402515482856E-006;
2.417833333333334E+009;2.002509832382202E-001;-4.218814149498940E-002;-1.134335107053630E-004;-2.986968320328742E-004;
2.418000000000000E+009;1.995657682418823E-001;-4.188767075538635E-002;-1.305326622969005E-005;-3.703388792928308E-004;
2.418166666666667E+009;1.988650560379028E-001;-4.181660711765289E-002;1.053474770742469E-004;-5.618361174128950E-004;
2.418333333333334E+009;1.978150755167007E-001;-4.180349782109261E-002;6.918669532751665E-005;-8.160992292687297E-004;
2.418500000000000E+009;1.968671381473541E-001;-4.177594557404518E-002;6.696569471387193E-005;-8.780572679825127E-004;
2.418666666666667E+009;1.958533078432083E-001;-4.169519990682602E-002;9.124137432081625E-005;-1.048923586495221E-003;
2.418833333333334E+009;1.946825236082077E-001;-4.192790761590004E-002;3.249819565098733E-005;-1.416259910911322E-003;
2.419000000000000E+009;1.934320628643036E-001;-4.219404608011246E-002;2.063787860606681E-006;-1.371699036099017E-003;
2.419166666666667E+009;1.922398954629898E-001;-4.241757467389107E-002;-1.224381267093122E-004;-1.580849871970713E-003;
2.419333333333334E+009;1.908014565706253E-001;-4.289240017533302E-002;-1.121938257711008E-004;-1.675203558988869E-003;
2.419500000000000E+009;1.892002224922180E-001;-4.347313567996025E-002;-2.297723840456456E-004;-1.883709570392966E-003;
2.419666666666667E+009;1.878013163805008E-001;-4.402374476194382E-002;-2.735056914389134E-004;-2.043761545792222E-003;
2.419833333333334E+009;1.861799806356430E-001;-4.497534036636353E-002;-5.580191500484943E-004;-2.192233456298709E-003;
2.420000000000000E+009;1.847718209028244E-001;-4.587190598249435E-002;-7.103346870280802E-004;-2.194751519709826E-003;
2.420166666666667E+009;1.831352710723877E-001;-4.673208668828011E-002;-6.758528761565685E-004;-2.245658077299595E-003;
2.420333333333334E+009;1.815088540315628E-001;-4.792174324393272E-002;-1.076425891369581E-003;-2.223059069365263E-003;
2.420500000000000E+009;1.798200160264969E-001;-4.919702559709549E-002;-1.124070724472404E-003;-2.363177016377449E-003;
2.420666666666667E+009;1.784036010503769E-001;-5.046762153506279E-002;-1.318448921665549E-003;-2.431021537631750E-003;
2.420833333333334E+009;1.767984926700592E-001;-5.200985819101334E-002;-1.504893880337477E-003;-2.323710126802325E-003;
2.421000000000000E+009;1.753444522619247E-001;-5.345955491065979E-002;-1.711533521302044E-003;-2.386361826211214E-003;
2.421166666666667E+009;1.739877313375473E-001;-5.522859469056130E-002;-2.000821521505714E-003;-2.380965976044536E-003;
2.421333333333334E+009;1.724372506141663E-001;-5.666395649313927E-002;-2.155837137252092E-003;-2.302927430719137E-003;
2.421500000000000E+009;1.710046380758286E-001;-5.868944525718689E-002;-2.354901982471347E-003;-2.105722436681390E-003;
2.421666666666667E+009;1.698838621377945E-001;-6.032833084464073E-002;-2.333725802600384E-003;-2.072954550385475E-003;
2.421833333333334E+009;1.689361333847046E-001;-6.225644052028656E-002;-2.564056077972055E-003;-2.009554998949170E-003;
2.422000000000000E+009;1.677283942699432E-001;-6.404824554920197E-002;-2.709305845201016E-003;-1.881457283161581E-003;
2.422166666666667E+009;1.669593751430512E-001;-6.618808209896088E-002;-2.905367640778422E-003;-1.738310325890780E-003;
2.422333333333334E+009;1.658317893743515E-001;-6.828778237104416E-002;-3.007710445672274E-003;-1.593067427165806E-003;
2.422500000000000E+009;1.653872877359390E-001;-7.012785226106644E-002;-2.985590370371938E-003;-1.557019888423383E-003;
2.422666666666667E+009;1.645742952823639E-001;-7.215810567140579E-002;-3.246664069592953E-003;-1.325072837062180E-003;
2.422833333333334E+009;1.640563458204269E-001;-7.421947270631790E-002;-3.302417928352952E-003;-1.195679302327335E-003;
2.423000000000000E+009;1.635602712631226E-001;-7.620038092136383E-002;-3.132760990411043E-003;-1.127246534451842E-003;
2.423166666666667E+009;1.632137447595596E-001;-7.811366021633148E-002;-3.353226697072387E-003;-1.043771859258413E-003;
2.423333333333334E+009;1.627939045429230E-001;-8.002080768346787E-002;-3.523348364979029E-003;-8.712015114724636E-004;
2.423500000000000E+009;1.629386544227600E-001;-8.181919157505035E-002;-3.657463006675243E-003;-7.362127653323114E-004;
2.423666666666667E+009;1.628598719835281E-001;-8.362805843353272E-002;-3.699502442032099E-003;-5.814248579554260E-004;
2.423833333333334E+009;1.628539115190506E-001;-8.538890630006790E-002;-3.788615809753537E-003;-2.011722390307114E-004;
2.424000000000000E+009;1.630047708749771E-001;-8.712361007928848E-002;-3.874671412631869E-003;-1.501012739026919E-004;
2.424166666666667E+009;1.630528420209885E-001;-8.864496648311615E-002;-4.034392070025206E-003;1.137520375777967E-004;
2.424333333333334E+009;1.632547080516815E-001;-9.017658233642578E-002;-4.151627421379089E-003;4.161180986557156E-004;
2.424500000000000E+009;1.637495011091232E-001;-9.178674966096878E-002;-4.056123550981283E-003;5.365834222175181E-004;
2.424666666666667E+009;1.639193296432495E-001;-9.313675761222839E-002;-4.018174484372139E-003;9.734266786836088E-004;
2.424833333333334E+009;1.643638163805008E-001;-9.426955878734589E-002;-3.861389122903347E-003;1.143996138125658E-003;
2.425000000000000E+009;1.646565049886704E-001;-9.551848471164703E-002;-3.834651783108711E-003;1.457860926166177E-003;
2.425166666666667E+009;1.651713848114014E-001;-9.654766321182251E-002;-3.571666777133942E-003;1.629690988920629E-003;
2.425333333333334E+009;1.654601991176605E-001;-9.744465351104736E-002;-3.526910208165646E-003;1.865790109150112E-003;
2.425500000000000E+009;1.658269464969635E-001;-9.851548820734024E-002;-3.405150491744280E-003;2.128316322341561E-003;
2.425666666666667E+009;1.661959439516068E-001;-9.905084222555161E-002;-3.177863545715809E-003;2.213658299297094E-003;
2.425833333333334E+009;1.665605902671814E-001;-9.986183047294617E-002;-2.930683782324195E-003;2.376756863668561E-003;
2.426000000000000E+009;1.669769287109375E-001;-1.003643646836281E-001;-2.782557858154178E-003;2.651273738592863E-003;
2.426166666666667E+009;1.673087179660797E-001;-1.008319482207298E-001;-2.652948955073953E-003;2.507789991796017E-003;
2.426333333333334E+009;1.675935238599777E-001;-1.013524755835533E-001;-2.297341590747237E-003;2.752267057076097E-003;
2.426500000000000E+009;1.679161638021469E-001;-1.015835404396057E-001;-2.068841829895973E-003;2.665309701114893E-003;
2.426666666666667E+009;1.680286526679993E-001;-1.019187495112419E-001;-2.091273898258805E-003;2.855701139196754E-003;
2.426833333333334E+009;1.683093011379242E-001;-1.020939573645592E-001;-1.983222318813205E-003;2.616552403196693E-003;
2.427000000000000E+009;1.682772338390350E-001;-1.023912057280541E-001;-1.679560751654208E-003;2.641068072989583E-003;
2.427166666666667E+009;1.682504564523697E-001;-1.024843454360962E-001;-1.724210102111101E-003;2.629711758345366E-003;
2.427333333333334E+009;1.681978702545166E-001;-1.028200834989548E-001;-1.612648600712419E-003;2.714332658797503E-003;
2.427500000000000E+009;1.678867340087891E-001;-1.028976142406464E-001;-1.445813453756273E-003;2.760684583336115E-003;
2.427666666666667E+009;1.675569266080856E-001;-1.030177101492882E-001;-1.364238560199738E-003;2.577453851699829E-003;
