# Version 1.00
#
freq[Hz];re:Trc1_S11;im:Trc1_S11;re:Trc2_S21;im:Trc2_S21;
2.400000000000000E+009;1.553194224834442E-001;1.065267324447632E-001;9.544627973809838E-004;1.703714486211538E-003;
2.400166666666667E+009;1.550256013870239E-001;1.040236726403236E-001;1.141532557085156E-003;1.844178419560194E-003;
2.400333333333334E+009;1.550890207290649E-001;1.017258092761040E-001;1.140688778832555E-003;1.823663013055921E-003;
2.400500000000000E+009;1.550001502037048E-001;9.904114156961441E-002;1.284939586184919E-003;1.837324583902955E-003;
2.400666666666667E+009;1.550815403461456E-001;9.652993083000183E-002;1.463125459849834E-003;1.987361581996083E-003;
2.400833333333334E+009;1.551046222448349E-001;9.378318488597870E-002;1.411453122273088E-003;1.981338020414114E-003;
2.401000000000000E+009;1.554052829742432E-001;9.089404344558716E-002;1.377035514451563E-003;2.107497770339251E-003;
2.401166666666667E+009;1.554357409477234E-001;8.817371726036072E-002;1.697866711765528E-003;2.021103864535689E-003;
2.401333333333334E+009;1.558743119239807E-001;8.548367023468018E-002;1.700232853181660E-003;1.940029789693654E-003;
2.401500000000000E+009;1.564807891845703E-001;8.262383192777634E-002;1.839545788243413E-003;1.982795307412744E-003;
2.401666666666667E+009;1.566830128431320E-001;7.978968322277069E-002;1.890638028271496E-003;1.892496715299785E-003;
2.401833333333334E+009;1.573079526424408E-001;7.707051932811737E-002;2.026117639616132E-003;1.885833335109055E-003;
2.402000000000000E+009;1.581740230321884E-001;7.424119859933853E-002;2.174800960347056E-003;1.782715204171836E-003;
2.402166666666667E+009;1.588868200778961E-001;7.178457826375961E-002;2.267330884933472E-003;1.697650994174182E-003;
2.402333333333334E+009;1.598475128412247E-001;6.910797208547592E-002;2.296075923368335E-003;1.730737043544650E-003;
2.402500000000000E+009;1.610535979270935E-001;6.667894124984741E-002;2.363332081586123E-003;1.511256676167250E-003;
2.402666666666667E+009;1.622595340013504E-001;6.437908858060837E-002;2.303055254742503E-003;1.582875498570502E-003;
2.402833333333334E+009;1.637467741966248E-001;6.201738119125366E-002;2.386402338743210E-003;1.445089350454509E-003;
2.403000000000000E+009;1.648381799459457E-001;5.960769578814507E-002;2.326689427718520E-003;1.281494041904807E-003;
2.403166666666667E+009;1.666419208049774E-001;5.748717859387398E-002;2.328138565644622E-003;1.320105628110468E-003;
2.403333333333334E+009;1.682275682687759E-001;5.529288202524185E-002;2.299674553796649E-003;1.328116049990058E-003;
2.403500000000000E+009;1.700720936059952E-001;5.334698408842087E-002;2.413764130324125E-003;1.384844188578427E-003;
2.403666666666667E+009;1.716290414333344E-001;5.137754231691361E-002;2.264271955937147E-003;1.261709607206285E-003;
2.403833333333334E+009;1.733061224222183E-001;4.942945763468742E-002;2.502800431102514E-003;1.377804437652230E-003;
2.404000000000000E+009;1.748138666152954E-001;4.772674292325974E-002;2.523995935916901E-003;1.484752749092877E-003;
2.404166666666667E+009;1.766593307256699E-001;4.640810191631317E-002;2.488675992935896E-003;1.435145968571305E-003;
2.404333333333334E+009;1.782573163509369E-001;4.477101191878319E-002;2.708224114030600E-003;1.471618539653719E-003;
2.404500000000000E+009;1.798528134822846E-001;4.338871315121651E-002;2.870411379262805E-003;1.604530494660139E-003;
2.404666666666667E+009;1.813234239816666E-001;4.218579828739166E-002;3.013179637491703E-003;1.413473626598716E-003;
2.404833333333334E+009;1.830867528915405E-001;4.118851572275162E-002;3.289972199127078E-003;1.237025251612067E-003;
2.405000000000000E+009;1.842710673809052E-001;4.050961136817932E-002;3.544482169672847E-003;1.199465827085078E-003;
2.405166666666667E+009;1.858137249946594E-001;3.986712545156479E-002;3.599414834752679E-003;9.683127282187343E-004;
2.405333333333334E+009;1.871838569641113E-001;3.922839090228081E-002;3.673896891996265E-003;8.715701987966895E-004;
2.405500000000000E+009;1.885760277509689E-001;3.886515274643898E-002;3.753402503207326E-003;6.613754667341709E-004;
2.405666666666667E+009;1.897271573543549E-001;3.847299888730049E-002;3.834252012893558E-003;4.244722076691687E-004;
2.405833333333334E+009;1.908718347549439E-001;3.815982490777969E-002;3.804807551205158E-003;2.643529151100665E-004;
2.406000000000000E+009;1.919442713260651E-001;3.792730346322060E-002;3.882560646161437E-003;-1.124156278820010E-005;
2.406166666666667E+009;1.929540038108826E-001;3.778815641999245E-002;3.933003172278404E-003;-3.310659667477012E-005;
2.406333333333334E+009;1.937844008207321E-001;3.773839399218559E-002;3.760647727176547E-003;-1.774603442754597E-004;
2.406500000000000E+009;1.944965869188309E-001;3.783692046999931E-002;3.859732998535037E-003;-3.462038002908230E-004;
2.406666666666667E+009;1.950920969247818E-001;3.784109279513359E-002;3.728504059836268E-003;-4.824045754503459E-004;
2.406833333333334E+009;1.955072879791260E-001;3.769072517752647E-002;3.928663209080696E-003;-7.053750450722873E-004;
2.407000000000000E+009;1.958625912666321E-001;3.785858675837517E-002;3.763221902772784E-003;-8.496420923620462E-004;
2.407166666666667E+009;1.961732804775238E-001;3.764270618557930E-002;3.867150051519275E-003;-8.241218165494502E-004;
2.407333333333334E+009;1.960434764623642E-001;3.784905746579170E-002;3.861521137878299E-003;-1.012572087347508E-003;
2.407500000000000E+009;1.959636509418488E-001;3.783572837710381E-002;3.878648160025477E-003;-1.190549810416997E-003;
2.407666666666667E+009;1.960106045007706E-001;3.774144500494003E-002;4.066101275384426E-003;-1.378682907670736E-003;
2.407833333333334E+009;1.953870505094528E-001;3.759314119815826E-002;4.067868925631046E-003;-1.634325366467238E-003;
2.408000000000000E+009;1.953916996717453E-001;3.738669306039810E-002;3.999066539108753E-003;-1.683364855125547E-003;
2.408166666666667E+009;1.947976052761078E-001;3.708023950457573E-002;4.074130672961474E-003;-1.951618702150881E-003;
2.408333333333334E+009;1.943401396274567E-001;3.649891540408135E-002;3.929077181965113E-003;-2.267765114083886E-003;
2.408500000000000E+009;1.935502141714096E-001;3.614193573594093E-002;3.935545217245817E-003;-2.637618454173207E-003;
2.408666666666667E+009;1.930756419897080E-001;3.557338193058968E-002;3.798369318246841E-003;-2.715219045057893E-003;
2.408833333333334E+009;1.922971755266190E-001;3.486117348074913E-002;3.846033010631800E-003;-2.985527971759439E-003;
2.409000000000000E+009;1.913355737924576E-001;3.392581641674042E-002;3.640902927145362E-003;-3.254114184528589E-003;
2.409166666666667E+009;1.905162930488586E-001;3.277145326137543E-002;3.456149017438293E-003;-3.343530464917421E-003;
2.409333333333334E+009;1.895491927862167E-001;3.189044073224068E-002;3.264119382947683E-003;-3.633991582319140E-003;
2.409500000000000E+009;1.884355098009110E-001;3.059880062937737E-002;3.034842433407903E-003;-3.836183343082666E-003;
2.409666666666667E+009;1.874252855777741E-001;2.905977144837380E-002;2.733220811933279E-003;-3.904826939105988E-003;
2.409833333333334E+009;1.865482479333878E-001;2.751986868679524E-002;2.622547093778849E-003;-3.878182265907526E-003;
2.410000000000000E+009;1.853566914796829E-001;2.606004662811756E-002;2.336513483896852E-003;-4.098976496607065E-003;
2.410166666666667E+009;1.843987703323364E-001;2.409108541905880E-002;2.025266410782933E-003;-4.230496939271689E-003;
2.410333333333334E+009;1.835734844207764E-001;2.224850468337536E-002;1.817997195757926E-003;-4.259397275745869E-003;
2.410500000000000E+009;1.824634522199631E-001;2.036434039473534E-002;1.648193458095193E-003;-4.257370252162218E-003;
2.410666666666667E+009;1.817579120397568E-001;1.818799786269665E-002;1.372918603010476E-003;-4.436983261257410E-003;
2.410833333333334E+009;1.811290681362152E-001;1.601526513695717E-002;1.294688787311316E-003;-4.207622725516558E-003;
2.411000000000000E+009;1.803684383630753E-001;1.384220831096172E-002;1.063869916833937E-003;-4.289602860808373E-003;
2.411166666666667E+009;1.797690838575363E-001;1.160914264619350E-002;7.967852288857102E-004;-4.418388940393925E-003;
2.411333333333334E+009;1.793087571859360E-001;9.114543907344341E-003;8.292989223264158E-004;-4.276277963072062E-003;
2.411500000000000E+009;1.789225339889526E-001;6.770851090550423E-003;4.644165455829352E-004;-4.299838095903397E-003;
2.411666666666667E+009;1.787697821855545E-001;4.311166703701019E-003;4.259850247763097E-004;-4.403653088957071E-003;
2.411833333333334E+009;1.783925592899323E-001;1.940854126587510E-003;8.182627061614767E-005;-4.272663965821266E-003;
2.412000000000000E+009;1.786096394062042E-001;-6.630200659856200E-004;-1.297976996283978E-004;-4.419861361384392E-003;
2.412166666666667E+009;1.787090301513672E-001;-2.844839356839657E-003;-1.808600500226021E-004;-4.252019803971052E-003;
2.412333333333334E+009;1.786877512931824E-001;-5.391789134591818E-003;-5.166740738786757E-004;-4.240883514285088E-003;
2.412500000000000E+009;1.793961971998215E-001;-7.710407953709364E-003;-7.147457217797637E-004;-4.318261053413153E-003;
2.412666666666667E+009;1.798545569181442E-001;-1.018220279365778E-002;-1.050941064022481E-003;-4.237477201968432E-003;
2.412833333333334E+009;1.803316473960877E-001;-1.279783714562655E-002;-1.319127622991800E-003;-4.094274714589119E-003;
2.413000000000000E+009;1.811466664075851E-001;-1.496929489076138E-002;-1.579826930537820E-003;-3.943655174225569E-003;
2.413166666666667E+009;1.818677335977554E-001;-1.704007759690285E-002;-1.863059238530695E-003;-3.878389718011022E-003;
2.413333333333334E+009;1.828655898571014E-001;-1.947017200291157E-002;-2.012560144066811E-003;-3.653100691735745E-003;
2.413500000000000E+009;1.837542653083801E-001;-2.163031138479710E-002;-2.314784098416567E-003;-3.459450090304017E-003;
2.413666666666667E+009;1.849536150693893E-001;-2.379844710230827E-002;-2.493492327630520E-003;-3.198482096195221E-003;
2.413833333333334E+009;1.859462559223175E-001;-2.552530169487000E-002;-2.814691979438067E-003;-2.898410893976688E-003;
2.414000000000000E+009;1.870974898338318E-001;-2.759338915348053E-002;-2.687981817871332E-003;-2.677451353520155E-003;
2.414166666666667E+009;1.883706003427506E-001;-2.928994409739971E-002;-2.970163710415363E-003;-2.317578997462988E-003;
2.414333333333334E+009;1.893962025642395E-001;-3.112710081040859E-002;-2.990776440128684E-003;-1.947864540852606E-003;
2.414500000000000E+009;1.905109286308289E-001;-3.264569863677025E-002;-2.865746151655912E-003;-1.844857120886445E-003;
2.414666666666667E+009;1.916160732507706E-001;-3.401133790612221E-002;-2.789191901683807E-003;-1.538721146062017E-003;
2.414833333333334E+009;1.928298324346542E-001;-3.532097116112709E-002;-2.762424992397428E-003;-1.287381164729595E-003;
2.415000000000000E+009;1.938644945621491E-001;-3.672755137085915E-002;-2.650766866281629E-003;-9.225837420672178E-004;
2.415166666666667E+009;1.951645314693451E-001;-3.770239278674126E-002;-2.440878888592124E-003;-7.708717021159828E-004;
2.415333333333334E+009;1.961026787757874E-001;-3.857098519802094E-002;-2.321567852050066E-003;-7.717835833318532E-004;
2.415500000000000E+009;1.972624063491821E-001;-3.929434344172478E-002;-2.216627821326256E-003;-4.297055129427463E-004;
2.415666666666667E+009;1.983093172311783E-001;-4.002368450164795E-002;-2.129551954567432E-003;-2.978637057822198E-004;
2.415833333333334E+009;1.990412771701813E-001;-4.064795747399330E-002;-2.140428638085723E-003;-1.992911711568013E-004;
2.416000000000000E+009;1.997840106487274E-001;-4.118792340159416E-002;-1.942094997502863E-003;-1.573716144775972E-005;
2.416166666666667E+009;2.006080150604248E-001;-4.188719764351845E-002;-1.781419035978615E-003;5.436539504444227E-005;
2.416333333333334E+009;2.012154608964920E-001;-4.210217297077179E-002;-1.686141826212406E-003;1.282212760997936E-004;
2.416500000000000E+009;2.016088217496872E-001;-4.220550879836083E-002;-1.531782210804522E-003;2.079416590277106E-004;
2.416666666666667E+009;2.018763571977615E-001;-4.260344803333283E-002;-1.124265487305820E-003;1.639882102608681E-004;
2.416833333333334E+009;2.020385563373566E-001;-4.264010861515999E-002;-1.047136262059212E-003;2.538027765695006E-004;
2.417000000000000E+009;2.020505964756012E-001;-4.272159561514854E-002;-8.336116443388164E-004;2.561497676651925E-004;
2.417166666666667E+009;2.017902135848999E-001;-4.256328940391541E-002;-5.249988753348589E-004;1.619224640307948E-004;
2.417333333333334E+009;2.016505300998688E-001;-4.232515767216682E-002;-4.637793172150850E-004;2.712924615480006E-004;
2.417500000000000E+009;2.012114673852921E-001;-4.253924638032913E-002;-3.859609423670918E-004;-5.058363603893668E-005;
2.417666666666667E+009;2.007512003183365E-001;-4.228318482637405E-002;-2.006193681154400E-004;-8.728354441700503E-005;
2.417833333333334E+009;2.003182023763657E-001;-4.200923070311546E-002;-1.084468531189486E-004;-2.583165769465268E-004;
2.418000000000000E+009;1.996547281742096E-001;-4.187472909688950E-002;-2.815430889313575E-005;-3.706335846800357E-004;
2.418166666666667E+009;1.986973136663437E-001;-4.181263223290443E-002;1.027399775921367E-004;-5.644250777550042E-004;
2.418333333333334E+009;1.980007588863373E-001;-4.171765595674515E-002;1.250644272658974E-004;-7.571928435936570E-004;
2.418500000000000E+009;1.968707889318466E-001;-4.168997332453728E-002;2.512256323825568E-004;-8.627081988379359E-004;
2.418666666666667E+009;1.960161179304123E-001;-4.163626953959465E-002;1.650696212891489E-004;-1.043994911015034E-003;
2.418833333333334E+009;1.947480589151382E-001;-4.183010011911392E-002;6.800253322580829E-005;-1.167273381724954E-003;
2.419000000000000E+009;1.934590935707092E-001;-4.202711954712868E-002;3.720467429957353E-005;-1.348801422864199E-003;
2.419166666666667E+009;1.922533810138702E-001;-4.230703413486481E-002;-2.171700998587767E-006;-1.607720274478197E-003;
2.419333333333334E+009;1.907801628112793E-001;-4.297398775815964E-002;-1.289573119720444E-004;-1.707782736048102E-003;
2.419500000000000E+009;1.893679946660996E-001;-4.329169169068337E-002;-2.199236332671717E-004;-1.752474578097463E-003;
2.419666666666667E+009;1.877648830413818E-001;-4.426009207963944E-002;-3.101854526903480E-004;-1.816189032979310E-003;
2.419833333333334E+009;1.861373633146286E-001;-4.476261883974075E-002;-3.836470423266292E-004;-2.022616332396865E-003;
2.420000000000000E+009;1.847016811370850E-001;-4.575868695974350E-002;-5.552069051191211E-004;-2.159157767891884E-003;
2.420166666666667E+009;1.831139475107193E-001;-4.684380814433098E-002;-8.172123343683779E-004;-2.257945248857141E-003;
2.420333333333334E+009;1.815605610609055E-001;-4.779438301920891E-002;-9.780758991837502E-004;-2.300939522683621E-003;
2.420500000000000E+009;1.799555867910385E-001;-4.923481121659279E-002;-1.063402974978089E-003;-2.327355556190014E-003;
2.420666666666667E+009;1.783433258533478E-001;-5.037574842572212E-002;-1.440292573533952E-003;-2.330209594219923E-003;
2.420833333333334E+009;1.767547428607941E-001;-5.184127762913704E-002;-1.536812167614698E-003;-2.346754306927323E-003;
2.421000000000000E+009;1.752528846263886E-001;-5.337493121623993E-002;-1.649341545999050E-003;-2.275382867082954E-003;
2.421166666666667E+009;1.739132106304169E-001;-5.510379001498222E-002;-1.748621230944991E-003;-2.311213174834848E-003;
2.421333333333334E+009;1.723772585391998E-001;-5.659170448780060E-002;-1.965655246749520E-003;-2.240698784589768E-003;
2.421500000000000E+009;1.711905449628830E-001;-5.858370661735535E-002;-2.086619613692164E-003;-2.085393061861396E-003;
2.421666666666667E+009;1.699222326278687E-001;-6.035406515002251E-002;-2.314260927960277E-003;-2.133044879883528E-003;
2.421833333333334E+009;1.689160019159317E-001;-6.218209490180016E-002;-2.560439053922892E-003;-1.964156981557608E-003;
2.422000000000000E+009;1.676524132490158E-001;-6.400464475154877E-002;-2.425584709271789E-003;-1.939216512255371E-003;
2.422166666666667E+009;1.669330596923828E-001;-6.622554361820221E-002;-2.615191508084536E-003;-1.848815591074526E-003;
2.422333333333334E+009;1.658600419759750E-001;-6.824027746915817E-002;-2.854343038052321E-003;-1.720801694318652E-003;
2.422500000000000E+009;1.650953888893127E-001;-7.012496143579483E-002;-2.900240710005164E-003;-1.485217246226966E-003;
2.422666666666667E+009;1.644398272037506E-001;-7.215967029333115E-002;-3.136218991130590E-003;-1.480203005485237E-003;
2.422833333333334E+009;1.640060693025589E-001;-7.408382743597031E-002;-3.133443184196949E-003;-1.277985167689621E-003;
2.423000000000000E+009;1.635309308767319E-001;-7.608104497194290E-002;-3.229901194572449E-003;-1.190252369269729E-003;
2.423166666666667E+009;1.632010489702225E-001;-7.805752754211426E-002;-3.381366143003106E-003;-1.069094752892852E-003;
2.423333333333334E+009;1.629941761493683E-001;-8.016512542963028E-002;-3.562428988516331E-003;-9.408070473000407E-004;
2.423500000000000E+009;1.629541963338852E-001;-8.169757574796677E-002;-3.536891657859087E-003;-7.515312172472477E-004;
2.423666666666667E+009;1.629152595996857E-001;-8.364638686180115E-002;-3.689752193167806E-003;-6.792552885599434E-004;
2.423833333333334E+009;1.629302650690079E-001;-8.542803674936295E-002;-3.812035312876105E-003;-4.814754938706756E-004;
2.424000000000000E+009;1.631025820970535E-001;-8.725828677415848E-002;-3.770087612792850E-003;-3.357049718033522E-004;
2.424166666666667E+009;1.630879044532776E-001;-8.860211819410324E-002;-3.801469225436449E-003;7.576164352940396E-005;
2.424333333333334E+009;1.633363664150238E-001;-9.019234776496887E-002;-3.854063805192709E-003;3.143092326354235E-004;
2.424500000000000E+009;1.636370569467545E-001;-9.187400341033936E-002;-3.896829904988408E-003;5.830891313962638E-004;
2.424666666666667E+009;1.638482958078384E-001;-9.310218691825867E-002;-4.001573659479618E-003;7.146630086936057E-004;
2.424833333333334E+009;1.645041704177856E-001;-9.436005353927612E-002;-3.771995659917593E-003;1.077997265383601E-003;
2.425000000000000E+009;1.648019403219223E-001;-9.549006819725037E-002;-3.712725359946489E-003;1.394171034917235E-003;
2.425166666666667E+009;1.650941073894501E-001;-9.660612046718597E-002;-3.630548715591431E-003;1.638268702663481E-003;
2.425333333333334E+009;1.654701977968216E-001;-9.750112891197205E-002;-3.554624971002340E-003;1.821932964958251E-003;
2.425500000000000E+009;1.659558713436127E-001;-9.837268292903900E-002;-3.349252743646503E-003;2.022905973717570E-003;
2.425666666666667E+009;1.663545221090317E-001;-9.910684823989868E-002;-3.154233563691378E-003;2.237330423668027E-003;
2.425833333333334E+009;1.665934026241303E-001;-9.993623942136765E-002;-3.061528084799647E-003;2.321755979210138E-003;
2.426000000000000E+009;1.669342070817947E-001;-1.003311499953270E-001;-2.786875236779451E-003;2.334729535505176E-003;
2.426166666666667E+009;1.674298495054245E-001;-1.008198186755180E-001;-2.480816096067429E-003;2.481704577803612E-003;
2.426333333333334E+009;1.675073504447937E-001;-1.013184189796448E-001;-2.292275428771973E-003;2.381845843046904E-003;
2.426500000000000E+009;1.679029911756516E-001;-1.015049964189529E-001;-2.152560511603952E-003;2.545283408835530E-003;
2.426666666666667E+009;1.679893732070923E-001;-1.018953174352646E-001;-1.997436163946986E-003;2.456736285239458E-003;
2.426833333333334E+009;1.683669239282608E-001;-1.021686941385269E-001;-1.928540761582553E-003;2.479714807122946E-003;
2.427000000000000E+009;1.683245152235031E-001;-1.024613752961159E-001;-1.736247562803328E-003;2.481938339769840E-003;
2.427166666666667E+009;1.682863533496857E-001;-1.025392040610313E-001;-1.587971812114120E-003;2.568403258919716E-003;
2.427333333333334E+009;1.682411432266235E-001;-1.028002500534058E-001;-1.537146745249629E-003;2.565931994467974E-003;
2.427500000000000E+009;1.678194105625153E-001;-1.029602140188217E-001;-1.331280451267958E-003;2.451285719871521E-003;
2.427666666666667E+009;1.676222831010819E-001;-1.031307578086853E-001;-1.188140711747110E-003;2.587104216217995E-003;
