# Version 1.00
#
freq[Hz];re:Trc1_S11;im:Trc1_S11;re:Trc2_S21;im:Trc2_S21;
2.400000000000000E+009;1.552750766277313E-001;1.065153926610947E-001;9.959231829270721E-004;1.865041442215443E-003;
2.400166666666667E+009;1.551001369953156E-001;1.040926650166512E-001;1.112957368604839E-003;2.104776678606868E-003;
2.400333333333334E+009;1.552381068468094E-001;1.017292588949204E-001;1.208684057928622E-003;2.085280837491155E-003;
2.400500000000000E+009;1.550939381122589E-001;9.898456931114197E-002;1.246597617864609E-003;2.180490177124739E-003;
2.400666666666667E+009;1.551348865032196E-001;9.656170755624771E-002;1.394612481817603E-003;2.054182812571526E-003;
2.400833333333334E+009;1.552522480487824E-001;9.360112249851227E-002;1.430853269994259E-003;2.245245967060328E-003;
2.401000000000000E+009;1.555466204881668E-001;9.076826274394989E-002;1.462644431740046E-003;2.292115474119782E-003;
2.401166666666667E+009;1.557023525238037E-001;8.817462623119354E-002;1.760441460646689E-003;2.113771857693791E-003;
2.401333333333334E+009;1.560205221176148E-001;8.522858470678330E-002;1.892665750347078E-003;2.179487608373165E-003;
2.401500000000000E+009;1.565561443567276E-001;8.250549435615540E-002;1.842848025262356E-003;2.242371439933777E-003;
2.401666666666667E+009;1.568504571914673E-001;7.951220870018005E-002;1.901563256978989E-003;2.111759502440691E-003;
2.401833333333334E+009;1.573410779237747E-001;7.717433571815491E-002;2.129518426954746E-003;2.025151159614325E-003;
2.402000000000000E+009;1.581912487745285E-001;7.433221489191055E-002;2.199654001742601E-003;1.846948638558388E-003;
2.402166666666667E+009;1.590465754270554E-001;7.167311012744904E-002;2.276631304994226E-003;1.874997396953404E-003;
2.402333333333334E+009;1.599788069725037E-001;6.915458291769028E-002;2.293404890224338E-003;1.672591664828360E-003;
2.402500000000000E+009;1.611967831850052E-001;6.661029160022736E-002;2.324361586943269E-003;1.625992124900222E-003;
2.402666666666667E+009;1.624320894479752E-001;6.408427655696869E-002;2.555144717916846E-003;1.638154149986804E-003;
2.402833333333334E+009;1.637509614229202E-001;6.181115657091141E-002;2.376201096922159E-003;1.392006524838507E-003;
2.403000000000000E+009;1.650665104389191E-001;5.948647111654282E-002;2.307403367012739E-003;1.434966921806335E-003;
2.403166666666667E+009;1.668861508369446E-001;5.730859562754631E-002;2.324489876627922E-003;1.445838366635144E-003;
2.403333333333334E+009;1.682977676391602E-001;5.531647428870201E-002;2.160995500162244E-003;1.327464357018471E-003;
2.403500000000000E+009;1.700545549392700E-001;5.311025306582451E-002;2.298123668879271E-003;1.379876746796072E-003;
2.403666666666667E+009;1.716978847980499E-001;5.128551647067070E-002;2.388449851423502E-003;1.506007509306073E-003;
2.403833333333334E+009;1.734952032566071E-001;4.953717067837715E-002;2.310520969331265E-003;1.584787387400866E-003;
2.404000000000000E+009;1.750015914440155E-001;4.767724871635437E-002;2.526000840589404E-003;1.532833091914654E-003;
2.404166666666667E+009;1.767087429761887E-001;4.607799649238586E-002;2.578390063717961E-003;1.612489344552159E-003;
2.404333333333334E+009;1.784580051898956E-001;4.460328072309494E-002;2.797385444864631E-003;1.586672035045922E-003;
2.404500000000000E+009;1.799959242343903E-001;4.325967654585838E-002;3.065284341573715E-003;1.607671729288995E-003;
2.404666666666667E+009;1.814293414354324E-001;4.212313517928124E-002;3.153716446831822E-003;1.502900384366512E-003;
2.404833333333334E+009;1.831939220428467E-001;4.099056124687195E-002;3.384197130799294E-003;1.447358634322882E-003;
2.405000000000000E+009;1.843211948871613E-001;4.034331440925598E-002;3.591634798794985E-003;1.367665245197713E-003;
2.405166666666667E+009;1.857784390449524E-001;3.956684097647667E-002;3.722801338881254E-003;1.102979760617018E-003;
2.405333333333334E+009;1.872181147336960E-001;3.909821808338165E-002;3.844051854684949E-003;8.781524375081062E-004;
2.405500000000000E+009;1.886053532361984E-001;3.868427127599716E-002;3.875892143696547E-003;6.755698705092073E-004;
2.405666666666667E+009;1.899248957633972E-001;3.825647383928299E-002;3.892672713845968E-003;4.788667138200253E-004;
2.405833333333334E+009;1.909674108028412E-001;3.819529712200165E-002;3.900641808286309E-003;3.165941743645817E-004;
2.406000000000000E+009;1.919225156307221E-001;3.779366612434387E-002;3.966752905398607E-003;-3.218216806999408E-005;
2.406166666666667E+009;1.929227560758591E-001;3.764186426997185E-002;3.972395788878202E-003;-2.902833875850774E-005;
2.406333333333334E+009;1.938005834817886E-001;3.769556060433388E-002;3.928869962692261E-003;-3.388128825463355E-004;
2.406500000000000E+009;1.945448219776154E-001;3.767961263656616E-002;3.956783097237349E-003;-4.997222567908466E-004;
2.406666666666667E+009;1.950405836105347E-001;3.771672397851944E-002;3.926036413758993E-003;-5.155971739441156E-004;
2.406833333333334E+009;1.955915093421936E-001;3.765082731842995E-002;4.074785392731428E-003;-5.663806805387139E-004;
2.407000000000000E+009;1.957180798053742E-001;3.776796162128449E-002;3.996680490672588E-003;-8.555618114769459E-004;
2.407166666666667E+009;1.960604190826416E-001;3.764704614877701E-002;3.954492509365082E-003;-8.108101901598275E-004;
2.407333333333334E+009;1.961584091186523E-001;3.773396462202072E-002;4.152712412178516E-003;-9.831580100581050E-004;
2.407500000000000E+009;1.959837228059769E-001;3.779573366045952E-002;3.985828254371882E-003;-1.048972364515066E-003;
2.407666666666667E+009;1.960151344537735E-001;3.765831515192986E-002;4.051465541124344E-003;-1.416240935213864E-003;
2.407833333333334E+009;1.954922229051590E-001;3.757352381944656E-002;4.137071315199137E-003;-1.697883708402515E-003;
2.408000000000000E+009;1.953927874565125E-001;3.725251555442810E-002;3.999443724751473E-003;-1.692896476015449E-003;
2.408166666666667E+009;1.946809440851212E-001;3.696701675653458E-002;4.116526339203119E-003;-1.933788647875190E-003;
2.408333333333334E+009;1.943355798721314E-001;3.653966635465622E-002;3.975464496761560E-003;-2.231451682746410E-003;
2.408500000000000E+009;1.936483681201935E-001;3.604499995708466E-002;3.862398909404874E-003;-2.394776325672865E-003;
2.408666666666667E+009;1.930203139781952E-001;3.540042787790299E-002;3.954550717025995E-003;-2.841268666088581E-003;
2.408833333333334E+009;1.922537386417389E-001;3.470624983310700E-002;3.764126449823380E-003;-2.978802658617497E-003;
2.409000000000000E+009;1.914142817258835E-001;3.375772014260292E-002;3.613935085013509E-003;-3.145261434838176E-003;
2.409166666666667E+009;1.904668062925339E-001;3.273589909076691E-002;3.454909892752767E-003;-3.390057710930705E-003;
2.409333333333334E+009;1.895154118537903E-001;3.179125860333443E-002;3.239515470340848E-003;-3.700268454849720E-003;
2.409500000000000E+009;1.884727925062180E-001;3.040690533816814E-002;3.063582815229893E-003;-3.790398361161351E-003;
2.409666666666667E+009;1.873337030410767E-001;2.888844348490238E-002;2.908038906753063E-003;-3.872454632073641E-003;
2.409833333333334E+009;1.863699406385422E-001;2.745165489614010E-002;2.543663606047630E-003;-3.964052069932222E-003;
2.410000000000000E+009;1.853994429111481E-001;2.580177970230579E-002;2.478505950421095E-003;-4.184114746749401E-003;
2.410166666666667E+009;1.844963729381561E-001;2.405965887010098E-002;2.237681997939944E-003;-4.160097334533930E-003;
2.410333333333334E+009;1.834634691476822E-001;2.221235074102879E-002;1.937616616487503E-003;-4.094359464943409E-003;
2.410500000000000E+009;1.826025098562241E-001;2.035274915397167E-002;1.799083198420703E-003;-4.354051314294338E-003;
2.410666666666667E+009;1.817069351673126E-001;1.800628751516342E-002;1.616444671526551E-003;-4.291379824280739E-003;
2.410833333333334E+009;1.811254471540451E-001;1.584941521286964E-002;1.344464602880180E-003;-4.461121745407581E-003;
2.411000000000000E+009;1.801221072673798E-001;1.361311692744494E-002;1.117415609769523E-003;-4.398300312459469E-003;
2.411166666666667E+009;1.797008067369461E-001;1.138438098132610E-002;8.928093593567610E-004;-4.284597467631102E-003;
2.411333333333334E+009;1.791751235723496E-001;9.006701409816742E-003;6.941608153283596E-004;-4.418065305799246E-003;
2.411500000000000E+009;1.787551641464233E-001;6.679146550595760E-003;5.961938877590001E-004;-4.471118096262217E-003;
2.411666666666667E+009;1.786382198333740E-001;4.297073930501938E-003;4.341969906818122E-004;-4.416675306856632E-003;
2.411833333333334E+009;1.782790571451187E-001;1.908645266667008E-003;2.068550238618627E-004;-4.406271036714315E-003;
2.412000000000000E+009;1.784948408603668E-001;-7.114463369362056E-004;6.139313336461783E-005;-4.372220020741224E-003;
2.412166666666667E+009;1.785898953676224E-001;-2.955656265839934E-003;-1.508851564722136E-004;-4.500998649746180E-003;
2.412333333333334E+009;1.786495894193649E-001;-5.482221022248268E-003;-4.817226435989142E-004;-4.392576403915882E-003;
2.412500000000000E+009;1.790976077318192E-001;-7.860309444367886E-003;-7.375804707407951E-004;-4.385551903396845E-003;
2.412666666666667E+009;1.795784533023834E-001;-1.026914734393358E-002;-8.800445357337594E-004;-4.301887471228838E-003;
2.412833333333334E+009;1.802323460578919E-001;-1.274683885276318E-002;-1.247923355549574E-003;-4.199663642793894E-003;
2.413000000000000E+009;1.808166354894638E-001;-1.495047751814127E-002;-1.461435924284160E-003;-4.071909468621016E-003;
2.413166666666667E+009;1.819123625755310E-001;-1.710397191345692E-002;-1.723710796795785E-003;-4.161342978477478E-003;
2.413333333333334E+009;1.828024834394455E-001;-1.942163705825806E-002;-1.991793513298035E-003;-3.768134629353881E-003;
2.413500000000000E+009;1.836316883563995E-001;-2.170353569090366E-002;-2.242050366476178E-003;-3.551009576767683E-003;
2.413666666666667E+009;1.846656203269959E-001;-2.379025705158711E-002;-2.509126206859946E-003;-3.312200540676713E-003;
2.413833333333334E+009;1.858233660459518E-001;-2.579946070909500E-002;-2.581867855042219E-003;-3.062190720811486E-003;
2.414000000000000E+009;1.868607252836227E-001;-2.755372226238251E-002;-2.825791481882334E-003;-2.761866664513946E-003;
2.414166666666667E+009;1.881182640790939E-001;-2.940354123711586E-002;-2.901792060583830E-003;-2.434811554849148E-003;
2.414333333333334E+009;1.891461014747620E-001;-3.119163960218430E-002;-2.870152471587062E-003;-2.120316494256258E-003;
2.414500000000000E+009;1.904363781213760E-001;-3.260304033756256E-002;-2.891759620979428E-003;-1.843469101004303E-003;
2.414666666666667E+009;1.914076805114746E-001;-3.405202180147171E-002;-2.897170372307301E-003;-1.657387125305831E-003;
2.414833333333334E+009;1.927832067012787E-001;-3.543860092759132E-002;-2.858441555872560E-003;-1.281343516893685E-003;
2.415000000000000E+009;1.936678141355515E-001;-3.661637008190155E-002;-2.773639513179660E-003;-1.042477902956307E-003;
2.415166666666667E+009;1.950072348117828E-001;-3.772400319576263E-002;-2.639438956975937E-003;-9.545417851768434E-004;
2.415333333333334E+009;1.961555778980255E-001;-3.867583721876144E-002;-2.482364652678371E-003;-6.419162382371724E-004;
2.415500000000000E+009;1.971126794815064E-001;-3.933800011873245E-002;-2.085785148665309E-003;-6.218260969035327E-004;
2.415666666666667E+009;1.981074810028076E-001;-4.009213298559189E-002;-2.218093955889344E-003;-6.042543682269752E-004;
2.415833333333334E+009;1.989396065473557E-001;-4.075875133275986E-002;-2.150829182937741E-003;-4.372936091385782E-004;
2.416000000000000E+009;1.996472328901291E-001;-4.126842319965363E-002;-2.005576854571700E-003;-1.690416538622230E-004;
2.416166666666667E+009;2.003773003816605E-001;-4.179292172193527E-002;-1.730479882098734E-003;-2.328397240489721E-004;
2.416333333333334E+009;2.009095400571823E-001;-4.201582446694374E-002;-1.636929227970541E-003;1.011134372674860E-004;
2.416500000000000E+009;2.014507800340653E-001;-4.225805029273033E-002;-1.448610448278487E-003;1.460850180592388E-004;
2.416666666666667E+009;2.018155306577683E-001;-4.265302047133446E-002;-1.331993844360113E-003;2.813460014294833E-004;
2.416833333333334E+009;2.017976045608521E-001;-4.256900399923325E-002;-1.218491350300610E-003;1.281095755985007E-004;
2.417000000000000E+009;2.019773721694946E-001;-4.275596141815186E-002;-8.721171179786325E-004;2.664686471689493E-004;
2.417166666666667E+009;2.015905678272247E-001;-4.273174703121185E-002;-6.693885661661625E-004;1.721581938909367E-004;
2.417333333333334E+009;2.014472037553787E-001;-4.254123941063881E-002;-4.978677607141435E-004;1.451425050618127E-004;
2.417500000000000E+009;2.012103796005249E-001;-4.248252883553505E-002;-4.139255906920880E-004;7.491916039725766E-005;
2.417666666666667E+009;2.005820721387863E-001;-4.228499531745911E-002;-2.337810728931800E-004;-1.637255481909961E-004;
2.417833333333334E+009;2.000824809074402E-001;-4.212858155369759E-002;-2.439883537590504E-004;-3.124806971754879E-004;
2.418000000000000E+009;1.994923651218414E-001;-4.185546562075615E-002;-1.003362376650330E-005;-4.348768561612815E-004;
2.418166666666667E+009;1.986410021781921E-001;-4.192226380109787E-002;-3.928107616957277E-005;-6.459107389673591E-004;
2.418333333333334E+009;1.978302597999573E-001;-4.173557087779045E-002;6.256749475141987E-005;-7.302868179976940E-004;
2.418500000000000E+009;1.968305259943008E-001;-4.184770211577416E-002;1.572234941704664E-005;-9.422852890565991E-004;
2.418666666666667E+009;1.957904696464539E-001;-4.160733893513680E-002;9.018944547278807E-005;-1.116679632104933E-003;
2.418833333333334E+009;1.945599317550659E-001;-4.184596985578537E-002;1.842035999288783E-005;-1.305419951677322E-003;
2.419000000000000E+009;1.933442503213882E-001;-4.213578999042511E-002;5.334104571375065E-005;-1.372238504700363E-003;
2.419166666666667E+009;1.920913904905319E-001;-4.241829738020897E-002;-4.784188149642432E-006;-1.688019256107509E-003;
2.419333333333334E+009;1.907341480255127E-001;-4.293316230177879E-002;-2.392849273746833E-004;-1.691511250101030E-003;
2.419500000000000E+009;1.892655938863754E-001;-4.326589778065682E-002;-2.616960264276713E-004;-1.791111775673926E-003;
2.419666666666667E+009;1.877045929431915E-001;-4.425180703401566E-002;-2.944032312370837E-004;-1.959357876330614E-003;
2.419833333333334E+009;1.862685531377792E-001;-4.485682398080826E-002;-3.996596788056195E-004;-2.087188186123967E-003;
2.420000000000000E+009;1.847273409366608E-001;-4.565260559320450E-002;-5.695238360203803E-004;-2.174868714064360E-003;
2.420166666666667E+009;1.828744858503342E-001;-4.665213450789452E-002;-7.629100000485778E-004;-2.358236582949758E-003;
2.420333333333334E+009;1.814737170934677E-001;-4.788782447576523E-002;-9.642882505431771E-004;-2.398724202066660E-003;
2.420500000000000E+009;1.798469424247742E-001;-4.915982484817505E-002;-1.269012340344489E-003;-2.309456700459123E-003;
2.420666666666667E+009;1.783375144004822E-001;-5.027672275900841E-002;-1.396349631249905E-003;-2.295116661116481E-003;
2.420833333333334E+009;1.767222434282303E-001;-5.189382284879684E-002;-1.590344472788274E-003;-2.266834955662489E-003;
2.421000000000000E+009;1.753976345062256E-001;-5.341259390115738E-002;-1.743789063766599E-003;-2.440566197037697E-003;
2.421166666666667E+009;1.739284396171570E-001;-5.511409789323807E-002;-1.918732770718634E-003;-2.326882211491466E-003;
2.421333333333334E+009;1.721615344285965E-001;-5.670213699340820E-002;-2.115609589964151E-003;-2.315778052434325E-003;
2.421500000000000E+009;1.710246652364731E-001;-5.859153345227242E-002;-2.226128475740552E-003;-2.132260939106345E-003;
2.421666666666667E+009;1.699811071157455E-001;-6.038998812437058E-002;-2.315455581992865E-003;-1.962852431461215E-003;
2.421833333333334E+009;1.687024384737015E-001;-6.219952926039696E-002;-2.666323212906718E-003;-2.005805727094412E-003;
2.422000000000000E+009;1.678049713373184E-001;-6.406278163194656E-002;-2.686278894543648E-003;-1.962958835065365E-003;
2.422166666666667E+009;1.668651551008225E-001;-6.619318574666977E-002;-2.787540899589658E-003;-1.664257375523448E-003;
2.422333333333334E+009;1.657667458057404E-001;-6.807638704776764E-002;-2.795063192024827E-003;-1.572016393765807E-003;
2.422500000000000E+009;1.651419252157211E-001;-7.013819366693497E-002;-2.985315164551139E-003;-1.492763170972467E-003;
2.422666666666667E+009;1.644235551357269E-001;-7.206863164901733E-002;-3.158633830025792E-003;-1.448599039576948E-003;
2.422833333333334E+009;1.640623062849045E-001;-7.407882064580917E-002;-3.199541475623846E-003;-1.371971797198057E-003;
2.423000000000000E+009;1.635528802871704E-001;-7.614772021770477E-002;-3.214713884517551E-003;-1.149050658568740E-003;
2.423166666666667E+009;1.630583256483078E-001;-7.800762355327606E-002;-3.364826086908579E-003;-1.068894518539310E-003;
2.423333333333334E+009;1.628898680210114E-001;-8.017291873693466E-002;-3.481218824163079E-003;-8.804644457995892E-004;
2.423500000000000E+009;1.629103422164917E-001;-8.167836815118790E-002;-3.565127495676279E-003;-6.613263976760209E-004;
2.423666666666667E+009;1.627104133367539E-001;-8.352154493331909E-002;-3.652160754427314E-003;-5.655759596265853E-004;
2.423833333333334E+009;1.628965586423874E-001;-8.532707393169403E-002;-3.879629541188479E-003;-4.278016276657581E-004;
2.424000000000000E+009;1.630214303731918E-001;-8.712738007307053E-002;-3.954000771045685E-003;-1.627226447453722E-004;
2.424166666666667E+009;1.630040407180786E-001;-8.862564712762833E-002;-3.797035431489348E-003;-8.154306124197319E-005;
2.424333333333334E+009;1.632325351238251E-001;-9.023192524909973E-002;-3.968366887420416E-003;3.261190722696483E-004;
2.424500000000000E+009;1.636552512645721E-001;-9.177136421203613E-002;-4.027119372040033E-003;5.387704004533589E-004;
2.424666666666667E+009;1.637152433395386E-001;-9.306667745113373E-002;-3.906675148755312E-003;9.986757067963481E-004;
2.424833333333334E+009;1.643814891576767E-001;-9.429054707288742E-002;-3.920606803148985E-003;1.012149383313954E-003;
2.425000000000000E+009;1.647619158029556E-001;-9.536533057689667E-002;-3.923809621483088E-003;1.473319716751576E-003;
2.425166666666667E+009;1.650386601686478E-001;-9.645729511976242E-002;-3.816143143922091E-003;1.637804554775357E-003;
2.425333333333334E+009;1.654173731803894E-001;-9.747766703367233E-002;-3.544319188222289E-003;1.888436963781714E-003;
2.425500000000000E+009;1.658616662025452E-001;-9.833998978137970E-002;-3.303776727989316E-003;2.160675590857863E-003;
2.425666666666667E+009;1.662818938493729E-001;-9.900379180908203E-002;-3.228024346753955E-003;2.246462972834706E-003;
2.425833333333334E+009;1.664845049381256E-001;-9.995643794536591E-002;-3.055513370782137E-003;2.398322802037001E-003;
2.426000000000000E+009;1.669209301471710E-001;-1.002755388617516E-001;-2.789982361719012E-003;2.512165112420917E-003;
2.426166666666667E+009;1.673890948295593E-001;-1.006928756833077E-001;-2.545509720221162E-003;2.564766677096486E-003;
2.426333333333334E+009;1.674415618181229E-001;-1.013000756502152E-001;-2.451097359880805E-003;2.562036970630288E-003;
2.426500000000000E+009;1.677827686071396E-001;-1.015242263674736E-001;-2.263738308101893E-003;2.774676075205207E-003;
2.426666666666667E+009;1.679929047822952E-001;-1.019063293933868E-001;-2.097509335726500E-003;2.425290644168854E-003;
2.426833333333334E+009;1.683395355939865E-001;-1.021639257669449E-001;-1.811511814594269E-003;2.691654255613685E-003;
2.427000000000000E+009;1.682353764772415E-001;-1.023540571331978E-001;-1.815043855458498E-003;2.653851872310042E-003;
2.427166666666667E+009;1.682366430759430E-001;-1.025142520666122E-001;-1.542358775623143E-003;2.687004860490561E-003;
2.427333333333334E+009;1.681995391845703E-001;-1.027487814426422E-001;-1.464156317524612E-003;2.600756706669927E-003;
2.427500000000000E+009;1.678878068923950E-001;-1.029446944594383E-001;-1.318325521424413E-003;2.765090670436621E-003;
2.427666666666667E+009;1.675445139408112E-001;-1.029252335429192E-001;-1.282649929635227E-003;2.804286312311888E-003;
