# Version 1.00
#
freq[Hz];re:Trc1_S11;im:Trc1_S11;re:Trc2_S21;im:Trc2_S21;
2.400000000000000E+009;1.551909595727921E-001;1.066400036215782E-001;1.148120500147343E-003;1.861768425442278E-003;
2.400166666666667E+009;1.550101786851883E-001;1.042374968528748E-001;1.135977683588862E-003;1.795918098650873E-003;
2.400333333333334E+009;1.550988852977753E-001;1.019425541162491E-001;1.337097957730293E-003;1.890025218017399E-003;
2.400500000000000E+009;1.549581289291382E-001;9.902860969305039E-002;1.345075550489128E-003;1.940756803378463E-003;
2.400666666666667E+009;1.552275866270065E-001;9.676961600780487E-002;1.294985879212618E-003;1.866403501480818E-003;
2.400833333333334E+009;1.551803946495056E-001;9.373224526643753E-002;1.538540818728507E-003;2.099235542118549E-003;
2.401000000000000E+009;1.554534882307053E-001;9.111058712005615E-002;1.497769728302956E-003;2.075562952086330E-003;
2.401166666666667E+009;1.554168760776520E-001;8.822113275527954E-002;1.637701643630862E-003;2.075504278764129E-003;
2.401333333333334E+009;1.558799594640732E-001;8.558012545108795E-002;1.683208975009620E-003;1.980771543458104E-003;
2.401500000000000E+009;1.564010977745056E-001;8.256109803915024E-002;1.858140924014151E-003;2.037618309259415E-003;
2.401666666666667E+009;1.567415595054627E-001;7.977846264839172E-002;1.901503070257604E-003;2.013369463384152E-003;
2.401833333333334E+009;1.574162393808365E-001;7.693487405776978E-002;2.110724337399006E-003;1.976515166461468E-003;
2.402000000000000E+009;1.581421941518784E-001;7.437493652105331E-002;2.185734221711755E-003;1.890274812467396E-003;
2.402166666666667E+009;1.588106602430344E-001;7.194281369447708E-002;2.304219873622060E-003;1.735533354803920E-003;
2.402333333333334E+009;1.597130000591278E-001;6.918908655643463E-002;2.201913390308619E-003;1.574300578795373E-003;
2.402500000000000E+009;1.611158549785614E-001;6.681993603706360E-002;2.174585359171033E-003;1.596842659637332E-003;
2.402666666666667E+009;1.620493382215500E-001;6.437420099973679E-002;2.300201682373881E-003;1.490060822106898E-003;
2.402833333333334E+009;1.635908186435700E-001;6.218371167778969E-002;2.379495650529862E-003;1.409747288562357E-003;
2.403000000000000E+009;1.650654375553131E-001;5.975249037146568E-002;2.284677000716329E-003;1.366311567835510E-003;
2.403166666666667E+009;1.666886806488037E-001;5.751924216747284E-002;2.384533174335957E-003;1.177262049168348E-003;
2.403333333333334E+009;1.681397259235382E-001;5.530297756195068E-002;2.423068741336465E-003;1.337781781330705E-003;
2.403500000000000E+009;1.699383854866028E-001;5.344659462571144E-002;2.278780099004507E-003;1.254338887520134E-003;
2.403666666666667E+009;1.717291921377182E-001;5.135686695575714E-002;2.287930110469461E-003;1.460918458178639E-003;
2.403833333333334E+009;1.732770949602127E-001;4.949738085269928E-002;2.451112959533930E-003;1.449619303457439E-003;
2.404000000000000E+009;1.748720854520798E-001;4.773889854550362E-002;2.439195290207863E-003;1.521891914308071E-003;
2.404166666666667E+009;1.766209006309509E-001;4.632216319441795E-002;2.604435896500945E-003;1.526347128674388E-003;
2.404333333333334E+009;1.781231313943863E-001;4.475982859730721E-002;2.796822227537632E-003;1.487973029725254E-003;
2.404500000000000E+009;1.797828227281570E-001;4.340052977204323E-002;2.954775933176279E-003;1.415470964275301E-003;
2.404666666666667E+009;1.813778877258301E-001;4.223359748721123E-002;3.135095583274961E-003;1.510071451775730E-003;
2.404833333333334E+009;1.831127256155014E-001;4.115957766771317E-002;3.474713303148747E-003;1.395627856254578E-003;
2.405000000000000E+009;1.844466179609299E-001;4.057421535253525E-002;3.483192995190620E-003;1.266234437935054E-003;
2.405166666666667E+009;1.859448254108429E-001;3.988217562437058E-002;3.561374265700579E-003;9.813667275011540E-004;
2.405333333333334E+009;1.871157735586166E-001;3.934923186898232E-002;3.925006370991468E-003;8.231292595155537E-004;
2.405500000000000E+009;1.885051280260086E-001;3.884230554103851E-002;3.985367715358734E-003;6.619428168050945E-004;
2.405666666666667E+009;1.898211836814880E-001;3.845924139022827E-002;3.930933307856321E-003;4.923414089716971E-004;
2.405833333333334E+009;1.909456104040146E-001;3.813855722546578E-002;4.012950230389834E-003;-2.270789764224901E-006;
2.406000000000000E+009;1.919386237859726E-001;3.799413889646530E-002;3.670931560918689E-003;2.131283399648964E-004;
2.406166666666667E+009;1.929633915424347E-001;3.769255056977272E-002;3.783243708312511E-003;-1.274599053431302E-004;
2.406333333333334E+009;1.938635408878326E-001;3.786827996373177E-002;3.942241892218590E-003;-1.972635654965416E-004;
2.406500000000000E+009;1.945142298936844E-001;3.767913952469826E-002;3.910387400537729E-003;-4.443539364729077E-004;
2.406666666666667E+009;1.950279027223587E-001;3.789192810654640E-002;3.840084187686443E-003;-5.057321395725012E-004;
2.406833333333334E+009;1.956411749124527E-001;3.771930932998657E-002;3.884268924593926E-003;-6.168730906210840E-004;
2.407000000000000E+009;1.957519054412842E-001;3.785975649952889E-002;3.878385061398149E-003;-6.760868127457798E-004;
2.407166666666667E+009;1.962314546108246E-001;3.769143298268318E-002;3.955610562115908E-003;-1.062929048202932E-003;
2.407333333333334E+009;1.960454583168030E-001;3.788322582840920E-002;3.890187712386251E-003;-1.009890926070511E-003;
2.407500000000000E+009;1.960587352514267E-001;3.781346231698990E-002;3.880920354276896E-003;-1.252039684914053E-003;
2.407666666666667E+009;1.958639621734619E-001;3.772839903831482E-002;4.029669333249331E-003;-1.511929789558053E-003;
2.407833333333334E+009;1.954614520072937E-001;3.765591233968735E-002;4.002805799245834E-003;-1.563635072670877E-003;
2.408000000000000E+009;1.954543739557266E-001;3.745698183774948E-002;4.106226842850447E-003;-1.769872033037245E-003;
2.408166666666667E+009;1.948288083076477E-001;3.710564225912094E-002;4.060202278196812E-003;-1.947409706190229E-003;
2.408333333333334E+009;1.943650543689728E-001;3.661451488733292E-002;3.952307160943747E-003;-2.165289130061865E-003;
2.408500000000000E+009;1.936102658510208E-001;3.628556802868843E-002;3.806172404438257E-003;-2.324159257113934E-003;
2.408666666666667E+009;1.929910182952881E-001;3.565172478556633E-002;3.863463411107659E-003;-2.644596388563514E-003;
2.408833333333334E+009;1.923917829990387E-001;3.495468199253082E-002;3.633004613220692E-003;-2.838252112269402E-003;
2.409000000000000E+009;1.914235204458237E-001;3.395094349980354E-002;3.579891752451658E-003;-3.246911335736513E-003;
2.409166666666667E+009;1.904926747083664E-001;3.300631418824196E-002;3.339094342663884E-003;-3.401315305382013E-003;
2.409333333333334E+009;1.895746141672134E-001;3.181310370564461E-002;2.987258136272430E-003;-3.647161880508065E-003;
2.409500000000000E+009;1.885189563035965E-001;3.052602522075176E-002;2.892457647249103E-003;-3.742537228390575E-003;
2.409666666666667E+009;1.873762756586075E-001;2.909419313073158E-002;2.602913649752736E-003;-3.863191232085228E-003;
2.409833333333334E+009;1.863579899072647E-001;2.764575742185116E-002;2.449685707688332E-003;-3.917495720088482E-003;
2.410000000000000E+009;1.855830848217011E-001;2.604458481073380E-002;2.311124699190259E-003;-4.079336766153574E-003;
2.410166666666667E+009;1.846413165330887E-001;2.418719977140427E-002;2.067098859697580E-003;-4.315378144383431E-003;
2.410333333333334E+009;1.836611628532410E-001;2.237709052860737E-002;1.775439013727009E-003;-4.069786518812180E-003;
2.410500000000000E+009;1.825587749481201E-001;2.031748183071613E-002;1.554757938720286E-003;-4.284582100808621E-003;
2.410666666666667E+009;1.818965673446655E-001;1.826604269444943E-002;1.462180400267243E-003;-4.251139238476753E-003;
2.410833333333334E+009;1.811009794473648E-001;1.597047410905361E-002;1.163234235718846E-003;-4.344009328633547E-003;
2.411000000000000E+009;1.802946031093597E-001;1.382527686655521E-002;1.132196746766567E-003;-4.310340154916048E-003;
2.411166666666667E+009;1.797900199890137E-001;1.152449753135443E-002;8.498710813000798E-004;-4.355160053819418E-003;
2.411333333333334E+009;1.793288290500641E-001;9.055903181433678E-003;7.816082215867937E-004;-4.506784491240978E-003;
2.411500000000000E+009;1.788421273231506E-001;6.662122439593077E-003;3.421572037041187E-004;-4.365497268736363E-003;
2.411666666666667E+009;1.787102818489075E-001;4.449116997420788E-003;3.181538486387581E-004;-4.321531858295202E-003;
2.411833333333334E+009;1.783381700515747E-001;2.068579196929932E-003;2.254831779282540E-004;-4.440101794898510E-003;
2.412000000000000E+009;1.784863620996475E-001;-5.791942239739001E-004;-7.545681728515774E-005;-4.427985288202763E-003;
2.412166666666667E+009;1.787367761135101E-001;-2.837559208273888E-003;-3.553389105945826E-004;-4.264584742486477E-003;
2.412333333333334E+009;1.788627654314041E-001;-5.241052247583866E-003;-7.031798013485968E-004;-4.310627933591604E-003;
2.412500000000000E+009;1.792499572038651E-001;-7.737452164292336E-003;-6.682715611532331E-004;-4.216234665364027E-003;
2.412666666666667E+009;1.798504590988159E-001;-1.024080440402031E-002;-9.930153610184789E-004;-4.227968864142895E-003;
2.412833333333334E+009;1.803227663040161E-001;-1.256125327199698E-002;-1.350946258753538E-003;-4.110321402549744E-003;
2.413000000000000E+009;1.811970472335815E-001;-1.497473102062941E-002;-1.544415950775147E-003;-3.974328748881817E-003;
2.413166666666667E+009;1.817836463451386E-001;-1.718640141189098E-002;-1.853832858614624E-003;-3.796875476837158E-003;
2.413333333333334E+009;1.830711066722870E-001;-1.938889361917973E-002;-2.056102268397808E-003;-3.795810975134373E-003;
2.413500000000000E+009;1.837190985679627E-001;-2.151654288172722E-002;-2.215319080278277E-003;-3.548838663846254E-003;
2.413666666666667E+009;1.849513649940491E-001;-2.381335943937302E-002;-2.445700811222196E-003;-3.317017806693912E-003;
2.413833333333334E+009;1.860139816999435E-001;-2.554180473089218E-002;-2.692167647182941E-003;-3.055952955037355E-003;
2.414000000000000E+009;1.870036423206329E-001;-2.765786089003086E-002;-2.732351189479232E-003;-2.647859975695610E-003;
2.414166666666667E+009;1.880685985088348E-001;-2.934055216610432E-002;-2.875787671655417E-003;-2.282782457768917E-003;
2.414333333333334E+009;1.892428547143936E-001;-3.121786378324032E-002;-2.886705799028277E-003;-1.972451107576489E-003;
2.414500000000000E+009;1.904041171073914E-001;-3.255935385823250E-002;-2.665672218427062E-003;-1.573444576933980E-003;
2.414666666666667E+009;1.917209327220917E-001;-3.408489748835564E-002;-2.749159699305892E-003;-1.492053153924644E-003;
2.414833333333334E+009;1.928006112575531E-001;-3.536674007773399E-002;-2.773317741230130E-003;-1.175068900920451E-003;
2.415000000000000E+009;1.938567459583283E-001;-3.659761697053909E-002;-2.683819970116019E-003;-9.621270583011210E-004;
2.415166666666667E+009;1.950610429048538E-001;-3.759033977985382E-002;-2.557534724473953E-003;-7.748057832941413E-004;
2.415333333333334E+009;1.962618976831436E-001;-3.858790174126625E-002;-2.398711862042546E-003;-6.972879054956138E-004;
2.415500000000000E+009;1.972563564777374E-001;-3.920296207070351E-002;-2.286312635987997E-003;-4.529310972429812E-004;
2.415666666666667E+009;1.982489675283432E-001;-4.003132134675980E-002;-2.297962550073862E-003;-2.300125634064898E-004;
2.415833333333334E+009;1.991164237260819E-001;-4.072022438049316E-002;-2.044351305812597E-003;-1.390862744301558E-004;
2.416000000000000E+009;1.997394710779190E-001;-4.128276929259300E-002;-2.011074917390943E-003;-9.772110934136435E-005;
2.416166666666667E+009;2.005534768104553E-001;-4.179311171174049E-002;-1.724252360872924E-003;-8.025799616007134E-006;
2.416333333333334E+009;2.011433541774750E-001;-4.192907363176346E-002;-1.490822178311646E-003;1.796813012333587E-004;
2.416500000000000E+009;2.015952169895172E-001;-4.227254912257195E-002;-1.473819022066891E-003;2.363739331485704E-004;
2.416666666666667E+009;2.018642872571945E-001;-4.257975891232491E-002;-1.224667648784816E-003;7.870987610658631E-005;
2.416833333333334E+009;2.020187526941299E-001;-4.266796633601189E-002;-9.835903765633702E-004;3.238430945202708E-004;
2.417000000000000E+009;2.021539509296417E-001;-4.282231256365776E-002;-7.506256806664169E-004;1.985215785680339E-004;
2.417166666666667E+009;2.017966359853745E-001;-4.263204336166382E-002;-6.917483988218010E-004;2.167556376662105E-004;
2.417333333333334E+009;2.015552669763565E-001;-4.251072928309441E-002;-5.059218965470791E-004;2.782739757094532E-004;
2.417500000000000E+009;2.012721151113510E-001;-4.247476905584335E-002;-3.220548387616873E-004;-6.582682544831187E-006;
2.417666666666667E+009;2.007212340831757E-001;-4.232059419155121E-002;-5.573404268943705E-005;-7.301066216314212E-005;
2.417833333333334E+009;2.002980113029480E-001;-4.216742143034935E-002;-6.991350528551266E-005;-2.488935424480587E-004;
2.418000000000000E+009;1.995528042316437E-001;-4.189445078372955E-002;-4.014136357000098E-005;-3.789473557844758E-004;
2.418166666666667E+009;1.987718045711517E-001;-4.185329005122185E-002;2.547750773373991E-004;-4.438645264599472E-004;
2.418333333333334E+009;1.978974640369415E-001;-4.172280430793762E-002;1.520540972705931E-004;-7.507334812544286E-004;
2.418500000000000E+009;1.969994902610779E-001;-4.175988212227821E-002;7.162004476413131E-005;-9.053960093297064E-004;
2.418666666666667E+009;1.959943771362305E-001;-4.175217077136040E-002;3.453720419202000E-004;-9.887514170259237E-004;
2.418833333333334E+009;1.946890056133270E-001;-4.192470386624336E-002;2.420408272882924E-004;-1.186610083095729E-003;
2.419000000000000E+009;1.934009194374085E-001;-4.211762174963951E-002;2.223692717961967E-004;-1.324687618762255E-003;
2.419166666666667E+009;1.922326833009720E-001;-4.245587438344955E-002;2.826724085025489E-005;-1.528354827314615E-003;
2.419333333333334E+009;1.908217668533325E-001;-4.298910871148109E-002;1.802483529900201E-005;-1.709727570414543E-003;
2.419500000000000E+009;1.892960667610169E-001;-4.332652688026428E-002;-1.149125891970471E-004;-1.893681590445340E-003;
2.419666666666667E+009;1.877318173646927E-001;-4.429288953542709E-002;-1.400903565809131E-004;-1.879845280200243E-003;
2.419833333333334E+009;1.861957609653473E-001;-4.485562443733215E-002;-4.027615359518677E-004;-2.146682702004910E-003;
2.420000000000000E+009;1.847212761640549E-001;-4.576987028121948E-002;-5.210930248722434E-004;-2.233619336038828E-003;
2.420166666666667E+009;1.831138581037521E-001;-4.674739390611649E-002;-7.355666602961719E-004;-2.250781981274486E-003;
2.420333333333334E+009;1.815579682588577E-001;-4.790097847580910E-002;-8.954756194725633E-004;-2.231998369097710E-003;
2.420500000000000E+009;1.798911541700363E-001;-4.928464442491531E-002;-1.077035674825311E-003;-2.328442409634590E-003;
2.420666666666667E+009;1.783029735088348E-001;-5.032888799905777E-002;-1.293874927796423E-003;-2.320035826414824E-003;
2.420833333333334E+009;1.767451167106628E-001;-5.185699462890625E-002;-1.497669960372150E-003;-2.500742441043258E-003;
2.421000000000000E+009;1.752194166183472E-001;-5.352575331926346E-002;-1.605158904567361E-003;-2.348545938730240E-003;
2.421166666666667E+009;1.739805787801743E-001;-5.513283610343933E-002;-1.784870401024818E-003;-2.301055705174804E-003;
2.421333333333334E+009;1.722695827484131E-001;-5.672110244631767E-002;-1.933060353621841E-003;-2.161351963877678E-003;
2.421500000000000E+009;1.711815595626831E-001;-5.855591595172882E-002;-2.076173434033990E-003;-2.465540077537298E-003;
2.421666666666667E+009;1.698797047138214E-001;-6.021085008978844E-002;-2.242509042844176E-003;-2.122983103618026E-003;
2.421833333333334E+009;1.688368916511536E-001;-6.228417903184891E-002;-2.483427524566650E-003;-1.996772363781929E-003;
2.422000000000000E+009;1.675905436277390E-001;-6.429808586835861E-002;-2.549742115661502E-003;-2.014943631365895E-003;
2.422166666666667E+009;1.669615060091019E-001;-6.621794402599335E-002;-2.651566173881292E-003;-1.863003592006862E-003;
2.422333333333334E+009;1.659601181745529E-001;-6.815250962972641E-002;-2.724282443523407E-003;-1.608463702723384E-003;
2.422500000000000E+009;1.650294512510300E-001;-7.008896768093109E-002;-2.935619559139013E-003;-1.421929686330259E-003;
2.422666666666667E+009;1.645715236663818E-001;-7.210834324359894E-002;-3.150597913190723E-003;-1.407952047884464E-003;
2.422833333333334E+009;1.640469431877136E-001;-7.413470745086670E-002;-3.127662232145667E-003;-1.326041878201067E-003;
2.423000000000000E+009;1.635695844888687E-001;-7.616216689348221E-002;-3.261470235884190E-003;-1.242414466105402E-003;
2.423166666666667E+009;1.632022112607956E-001;-7.805128395557404E-002;-3.307053120806813E-003;-9.602018399164081E-004;
2.423333333333334E+009;1.628177762031555E-001;-8.004259318113327E-002;-3.550549270585179E-003;-9.065623744390905E-004;
2.423500000000000E+009;1.629140526056290E-001;-8.187914639711380E-002;-3.472133073955774E-003;-7.762635941617191E-004;
2.423666666666667E+009;1.629222631454468E-001;-8.365969359874725E-002;-3.612864529713988E-003;-5.287223029881716E-004;
2.423833333333334E+009;1.628822684288025E-001;-8.541969954967499E-002;-3.675270592793822E-003;-4.929825081489980E-004;
2.424000000000000E+009;1.629537642002106E-001;-8.722621947526932E-002;-3.665876807644963E-003;-1.637869863770902E-004;
2.424166666666667E+009;1.630473583936691E-001;-8.869816362857819E-002;-3.915550652891398E-003;-8.649237133795396E-005;
2.424333333333334E+009;1.631503999233246E-001;-9.010505676269531E-002;-3.928483463823795E-003;1.631367485970259E-004;
2.424500000000000E+009;1.635865271091461E-001;-9.191468358039856E-002;-4.035293124616146E-003;5.562875885516405E-004;
2.424666666666667E+009;1.639007478952408E-001;-9.316282719373703E-002;-4.001673310995102E-003;6.897833663970232E-004;
2.424833333333334E+009;1.643130332231522E-001;-9.437295794487000E-002;-3.910232800990343E-003;9.829195914790034E-004;
2.425000000000000E+009;1.647762954235077E-001;-9.556985646486282E-002;-3.833529539406300E-003;1.347831916064024E-003;
2.425166666666667E+009;1.650456190109253E-001;-9.669736772775650E-002;-3.550291061401367E-003;1.526969252154231E-003;
2.425333333333334E+009;1.655041128396988E-001;-9.755393117666245E-002;-3.500567283481360E-003;1.817967742681503E-003;
2.425500000000000E+009;1.658629924058914E-001;-9.845278412103653E-002;-3.299533156678081E-003;1.945454278029501E-003;
2.425666666666667E+009;1.662120819091797E-001;-9.905902296304703E-002;-3.010059008374810E-003;2.278247848153114E-003;
2.425833333333334E+009;1.665994971990585E-001;-9.998379647731781E-002;-2.897194121032953E-003;2.291697543114424E-003;
2.426000000000000E+009;1.669903397560120E-001;-1.002927646040916E-001;-2.641903469339013E-003;2.340568695217371E-003;
2.426166666666667E+009;1.673326343297958E-001;-1.008600145578384E-001;-2.525403629988432E-003;2.315705642104149E-003;
2.426333333333334E+009;1.674606353044510E-001;-1.013871356844902E-001;-2.333073643967509E-003;2.525696298107505E-003;
2.426500000000000E+009;1.679104715585709E-001;-1.015858575701714E-001;-2.175696892663837E-003;2.505997428670526E-003;
2.426666666666667E+009;1.680789291858673E-001;-1.019012480974197E-001;-2.080910606309772E-003;2.541860565543175E-003;
2.426833333333334E+009;1.683005690574646E-001;-1.021984592080116E-001;-1.868242397904396E-003;2.531529637053609E-003;
2.427000000000000E+009;1.682453900575638E-001;-1.024702638387680E-001;-1.713767880573869E-003;2.533860271796584E-003;
2.427166666666667E+009;1.683633178472519E-001;-1.025340110063553E-001;-1.594280591234565E-003;2.596498234197497E-003;
2.427333333333334E+009;1.681956946849823E-001;-1.027276664972305E-001;-1.445510191842914E-003;2.558285137638450E-003;
2.427500000000000E+009;1.679432392120361E-001;-1.030096337199211E-001;-1.299272174946964E-003;2.459197305142880E-003;
2.427666666666667E+009;1.675798147916794E-001;-1.030222922563553E-001;-1.198864658363164E-003;2.510431921109557E-003;
