# Version 1.00
#
freq[Hz];re:Trc1_S11;im:Trc1_S11;re:Trc2_S21;im:Trc2_S21;
2.400000000000000E+009;1.580905020236969E-001;6.270772963762283E-002;-3.638014663010836E-003;7.216823723865673E-005;
2.400166666666667E+009;1.580992490053177E-001;6.119861826300621E-002;-3.438491839915514E-003;3.461999003775418E-004;
2.400333333333334E+009;1.579389125108719E-001;5.925284698605537E-002;-3.543609520420432E-003;4.102970997337252E-004;
2.400500000000000E+009;1.577906757593155E-001;5.728895217180252E-002;-3.510746406391263E-003;6.780268158763647E-004;
2.400666666666667E+009;1.577988713979721E-001;5.531845614314079E-002;-3.429500851780176E-003;6.308796582743526E-004;
2.400833333333334E+009;1.578674912452698E-001;5.331764742732048E-002;-3.257134929299355E-003;7.798455771990120E-004;
2.401000000000000E+009;1.579512506723404E-001;5.136400088667870E-002;-3.098702058196068E-003;9.042170713655651E-004;
2.401166666666667E+009;1.582981050014496E-001;4.911821335554123E-002;-3.064042888581753E-003;1.036850269883871E-003;
2.401333333333334E+009;1.582821011543274E-001;4.692983999848366E-002;-2.958055818453431E-003;1.073657418601215E-003;
2.401500000000000E+009;1.586387902498245E-001;4.488959908485413E-002;-2.684960141777992E-003;1.130950404331088E-003;
2.401666666666667E+009;1.589693874120712E-001;4.299489408731461E-002;-2.659083111211658E-003;1.319579430855811E-003;
2.401833333333334E+009;1.593038588762283E-001;4.097465798258781E-002;-2.522313036024571E-003;1.294408575631678E-003;
2.402000000000000E+009;1.596550494432449E-001;3.886589407920837E-002;-2.428579609841108E-003;1.550682471133769E-003;
2.402166666666667E+009;1.602016240358353E-001;3.685012832283974E-002;-2.212251769378781E-003;1.576990238390863E-003;
2.402333333333334E+009;1.605360805988312E-001;3.501865267753601E-002;-2.187571255490184E-003;1.630545943044126E-003;
2.402500000000000E+009;1.614389568567276E-001;3.319036960601807E-002;-2.184194512665272E-003;1.632040599361062E-003;
2.402666666666667E+009;1.621792912483215E-001;3.132188692688942E-002;-1.974960090592504E-003;1.347542856819928E-003;
2.402833333333334E+009;1.628654152154923E-001;2.958365529775620E-002;-1.691866549663246E-003;1.455942634493113E-003;
2.403000000000000E+009;1.636523455381393E-001;2.808046154677868E-002;-1.709469594061375E-003;1.376398489810526E-003;
2.403166666666667E+009;1.646261960268021E-001;2.629936672747135E-002;-1.420620828866959E-003;1.613786327652633E-003;
2.403333333333334E+009;1.656099557876587E-001;2.498069778084755E-002;-1.547075458802283E-003;1.590465428307653E-003;
2.403500000000000E+009;1.663333177566528E-001;2.359179779887199E-002;-1.343615585938096E-003;1.553957234136760E-003;
2.403666666666667E+009;1.672197729349136E-001;2.188798785209656E-002;-1.162888132967055E-003;1.540594734251499E-003;
2.403833333333334E+009;1.683931350708008E-001;2.068184129893780E-002;-1.147912000305951E-003;1.326486468315125E-003;
2.404000000000000E+009;1.691729128360748E-001;1.940718293190002E-002;-1.174357486888766E-003;1.347754616290331E-003;
2.404166666666667E+009;1.701439917087555E-001;1.845237612724304E-002;-1.058570807799697E-003;1.275062561035156E-003;
2.404333333333334E+009;1.710304021835327E-001;1.733252778649330E-002;-9.582462953403592E-004;1.355589367449284E-003;
2.404500000000000E+009;1.719305068254471E-001;1.637624204158783E-002;-1.040364266373217E-003;1.272623892873526E-003;
2.404666666666667E+009;1.730905920267105E-001;1.553917117416859E-002;-9.515550918877125E-004;1.169238821603358E-003;
2.404833333333334E+009;1.739257872104645E-001;1.469595544040203E-002;-9.528953232802451E-004;1.257767784409225E-003;
2.405000000000000E+009;1.749190390110016E-001;1.394072826951742E-002;-8.847472490742803E-004;1.269795815460384E-003;
2.405166666666667E+009;1.756882369518280E-001;1.343348436057568E-002;-9.257278870791197E-004;1.219700439833105E-003;
2.405333333333334E+009;1.763773411512375E-001;1.265747286379337E-002;-7.405884680338204E-004;1.172017306089401E-003;
2.405500000000000E+009;1.772047281265259E-001;1.227947510778904E-002;-7.977690547704697E-004;1.096048625186086E-003;
2.405666666666667E+009;1.778627485036850E-001;1.174014713615179E-002;-8.262688643299043E-004;1.100268214941025E-003;
2.405833333333334E+009;1.783906370401382E-001;1.154142245650291E-002;-7.500369101762772E-004;1.011972432024777E-003;
2.406000000000000E+009;1.790840029716492E-001;1.109596062451601E-002;-6.333298515528441E-004;1.003049314022064E-003;
2.406166666666667E+009;1.793858706951141E-001;1.083012111485004E-002;-5.068896571174264E-004;1.106836949475110E-003;
2.406333333333334E+009;1.800516545772553E-001;1.042871363461018E-002;-6.037235143594444E-004;9.797362145036459E-004;
2.406500000000000E+009;1.801885068416596E-001;1.022693980485201E-002;-4.874207370448858E-004;1.065829303115606E-003;
2.406666666666667E+009;1.803770065307617E-001;9.838175959885120E-003;-4.158706287853420E-004;1.015305053442717E-003;
2.406833333333334E+009;1.806215047836304E-001;9.726339951157570E-003;-4.637599049601704E-004;9.234856697730720E-004;
2.407000000000000E+009;1.806853115558624E-001;9.302611462771893E-003;-5.009956657886505E-004;9.378218092024326E-004;
2.407166666666667E+009;1.809125095605850E-001;9.008414112031460E-003;-4.707831540144980E-004;8.633029647171497E-004;
2.407333333333334E+009;1.806539297103882E-001;8.574712090194225E-003;-3.169845149386674E-004;8.821038063615561E-004;
2.407500000000000E+009;1.804677695035934E-001;8.285201154649258E-003;-3.290587919764221E-004;8.808663114905357E-004;
2.407666666666667E+009;1.803351044654846E-001;7.779178209602833E-003;-3.843288868665695E-004;7.389198872260749E-004;
2.407833333333334E+009;1.800416707992554E-001;7.253675721585751E-003;-4.418392200022936E-004;7.346659549511969E-004;
2.408000000000000E+009;1.795987933874130E-001;6.527846213430166E-003;-3.459832223597914E-004;8.949188049882650E-004;
2.408166666666667E+009;1.790991723537445E-001;5.943417549133301E-003;-3.348993486724794E-004;6.430398789234459E-004;
2.408333333333334E+009;1.788120418787003E-001;5.344074685126543E-003;-4.542739770840854E-004;5.460587562993169E-004;
2.408500000000000E+009;1.781029254198074E-001;4.506821744143963E-003;-2.555537212174386E-004;7.018728065304458E-004;
2.408666666666667E+009;1.775839924812317E-001;3.610315732657909E-003;-4.237955727148801E-004;7.602170226164162E-004;
2.408833333333334E+009;1.767756938934326E-001;2.672896254807711E-003;-4.143664555158466E-004;6.383186555467546E-004;
2.409000000000000E+009;1.761032044887543E-001;1.688922289758921E-003;-4.544972616713494E-004;5.140603170730174E-004;
2.409166666666667E+009;1.754287928342819E-001;6.463556783273816E-004;-4.135464259888977E-004;5.338048213161528E-004;
2.409333333333334E+009;1.749641597270966E-001;-6.381398998200893E-004;-4.704620223492384E-004;4.466711252462119E-004;
2.409500000000000E+009;1.742274612188339E-001;-1.932156854309142E-003;-5.808811984024942E-004;5.862801335752010E-004;
2.409666666666667E+009;1.734633594751358E-001;-3.292111447080970E-003;-4.701597208622843E-004;4.009282565675676E-004;
2.409833333333334E+009;1.727531701326370E-001;-4.634742625057697E-003;-4.716286202892661E-004;3.326672594994307E-004;
2.410000000000000E+009;1.721882671117783E-001;-6.186655722558498E-003;-5.008655716665089E-004;4.151701286900789E-004;
2.410166666666667E+009;1.715632379055023E-001;-7.657977286726236E-003;-5.887813167646527E-004;4.513107996899635E-004;
2.410333333333334E+009;1.708340197801590E-001;-9.256479330360889E-003;-6.044040201231837E-004;2.786293625831604E-004;
2.410500000000000E+009;1.704768985509872E-001;-1.110611855983734E-002;-6.215394823811948E-004;2.830250887200236E-004;
2.410666666666667E+009;1.698044389486313E-001;-1.300650928169489E-002;-6.109362584538758E-004;3.285503771621734E-004;
2.410833333333334E+009;1.694044619798660E-001;-1.452436577528715E-002;-7.083526579663158E-004;3.502338659018278E-004;
2.411000000000000E+009;1.688233911991119E-001;-1.648511551320553E-002;-6.759235984645784E-004;3.642143565230072E-004;
2.411166666666667E+009;1.686476767063141E-001;-1.827382855117321E-002;-7.170884637162089E-004;3.174251178279519E-004;
2.411333333333334E+009;1.683024764060974E-001;-2.010796777904034E-002;-6.564849172718823E-004;4.290175274945796E-004;
2.411500000000000E+009;1.681565344333649E-001;-2.233035303652287E-002;-8.603119640611112E-004;2.769843267742544E-004;
2.411666666666667E+009;1.680751144886017E-001;-2.428923733532429E-002;-9.560592588968575E-004;4.489892744459212E-004;
2.411833333333334E+009;1.681077629327774E-001;-2.611267194151878E-002;-8.172311936505139E-004;3.025536134373397E-004;
2.412000000000000E+009;1.680976748466492E-001;-2.825539372861385E-002;-9.199653868563473E-004;5.532805807888508E-004;
2.412166666666667E+009;1.681911349296570E-001;-2.996291033923626E-002;-1.022548065520823E-003;5.682688788510859E-004;
2.412333333333334E+009;1.684857010841370E-001;-3.179180249571800E-002;-1.036792644299567E-003;4.777967405971140E-004;
2.412500000000000E+009;1.686813235282898E-001;-3.382460400462151E-002;-1.063431962393224E-003;4.968105931766331E-004;
2.412666666666667E+009;1.690039336681366E-001;-3.598558902740479E-002;-1.178039470687509E-003;5.209608352743089E-004;
2.412833333333334E+009;1.692694723606110E-001;-3.764234110713005E-002;-1.118466840125620E-003;5.499842227436602E-004;
2.413000000000000E+009;1.696611493825913E-001;-3.936155140399933E-002;-1.184901339001954E-003;6.644196109846234E-004;
2.413166666666667E+009;1.700128018856049E-001;-4.126035049557686E-002;-1.297804992645979E-003;7.294095121324062E-004;
2.413333333333334E+009;1.704386770725250E-001;-4.290126264095306E-002;-1.450111973099411E-003;8.432346512563527E-004;
2.413500000000000E+009;1.710879951715469E-001;-4.459845274686813E-002;-1.407322357408702E-003;8.462941623292863E-004;
2.413666666666667E+009;1.716999858617783E-001;-4.613153263926506E-002;-1.360075897537172E-003;1.081518246792257E-003;
2.413833333333334E+009;1.720940172672272E-001;-4.763644933700562E-002;-1.378402463160455E-003;9.797910461202264E-004;
2.414000000000000E+009;1.725795120000839E-001;-4.910144582390785E-002;-1.240753103047609E-003;9.447741904295981E-004;
2.414166666666667E+009;1.733113080263138E-001;-5.046442151069641E-002;-1.402385300025344E-003;1.084139687009156E-003;
2.414333333333334E+009;1.738193780183792E-001;-5.168506130576134E-002;-1.466668210923672E-003;1.180379418656230E-003;
2.414500000000000E+009;1.746098697185516E-001;-5.282862856984139E-002;-1.371080172248185E-003;1.308591803535819E-003;
2.414666666666667E+009;1.749146729707718E-001;-5.388908833265305E-002;-1.248206826858223E-003;1.382817979902029E-003;
2.414833333333334E+009;1.754307746887207E-001;-5.490282550454140E-002;-1.366097130812705E-003;1.446480164304376E-003;
2.415000000000000E+009;1.758509278297424E-001;-5.573288723826408E-002;-1.323542324826121E-003;1.572019886225462E-003;
2.415166666666667E+009;1.763596832752228E-001;-5.651181563735008E-002;-1.188417663797736E-003;1.727169030345976E-003;
2.415333333333334E+009;1.768527477979660E-001;-5.738039687275887E-002;-1.232283306308091E-003;1.673701917752624E-003;
2.415500000000000E+009;1.770598739385605E-001;-5.792164802551270E-002;-1.019936520606279E-003;1.896473579108715E-003;
2.415666666666667E+009;1.774360984563828E-001;-5.854605138301849E-002;-1.010750536806881E-003;1.733154756948352E-003;
2.415833333333334E+009;1.775187999010086E-001;-5.901011079549789E-002;-9.698654175736010E-004;1.926877186633647E-003;
2.416000000000000E+009;1.774684190750122E-001;-5.948095023632050E-002;-9.056268027052283E-004;2.011967590078712E-003;
2.416166666666667E+009;1.778626143932343E-001;-5.992738902568817E-002;-8.831986342556775E-004;2.172690583392978E-003;
2.416333333333334E+009;1.777917444705963E-001;-6.010007858276367E-002;-8.610939257778227E-004;2.286914270371199E-003;
2.416500000000000E+009;1.776618212461472E-001;-6.056161597371101E-002;-7.925834506750107E-004;2.427425468340516E-003;
2.416666666666667E+009;1.774110645055771E-001;-6.066643819212914E-002;-7.359601440839469E-004;2.265989780426025E-003;
2.416833333333334E+009;1.772618293762207E-001;-6.100210919976234E-002;-7.009232649579644E-004;2.333491342142224E-003;
2.417000000000000E+009;1.767624318599701E-001;-6.126671656966209E-002;-4.409187240526080E-004;2.474368782714009E-003;
2.417166666666667E+009;1.763060986995697E-001;-6.140289083123207E-002;-5.292017012834549E-004;2.372027607634664E-003;
2.417333333333334E+009;1.758363097906113E-001;-6.151066347956657E-002;-5.025096470490098E-004;2.392254536971450E-003;
2.417500000000000E+009;1.751661151647568E-001;-6.185997650027275E-002;-2.101032150676474E-004;2.480301307514310E-003;
2.417666666666667E+009;1.746236532926559E-001;-6.199923157691956E-002;-2.977619587909430E-004;2.460499061271548E-003;
2.417833333333334E+009;1.737519651651382E-001;-6.225177645683289E-002;-1.378929155180231E-004;2.473188564181328E-003;
2.418000000000000E+009;1.728598475456238E-001;-6.271091103553772E-002;5.810049515275750E-006;2.536552026867867E-003;
2.418166666666667E+009;1.719069033861160E-001;-6.283786892890930E-002;8.491516382491682E-006;2.636029850691557E-003;
2.418333333333334E+009;1.711453497409821E-001;-6.329155713319778E-002;6.287266296567395E-005;2.557493746280670E-003;
2.418500000000000E+009;1.699472814798355E-001;-6.361728161573410E-002;2.308067923877388E-004;2.459302777424455E-003;
2.418666666666667E+009;1.690199226140976E-001;-6.411358714103699E-002;1.407282252330333E-004;2.524688839912415E-003;
2.418833333333334E+009;1.677135676145554E-001;-6.468891352415085E-002;2.376385527895764E-004;2.555601764470339E-003;
2.419000000000000E+009;1.664604097604752E-001;-6.525139510631561E-002;4.511900478973985E-004;2.631547860801220E-003;
2.419166666666667E+009;1.652880162000656E-001;-6.601762026548386E-002;4.512074519880116E-004;2.588489791378379E-003;
2.419333333333334E+009;1.640716344118118E-001;-6.648266315460205E-002;3.715958446264267E-004;2.595185767859221E-003;
2.419500000000000E+009;1.629422903060913E-001;-6.761904805898666E-002;5.325183155946434E-004;2.595309400931001E-003;
2.419666666666667E+009;1.616850048303604E-001;-6.839621067047119E-002;6.325602880679071E-004;2.611641306430101E-003;
2.419833333333334E+009;1.605639606714249E-001;-6.921809166669846E-002;6.217606132850051E-004;2.540068468078971E-003;
2.420000000000000E+009;1.594064831733704E-001;-7.023179531097412E-002;8.564615854993463E-004;2.597110345959663E-003;
2.420166666666667E+009;1.582614183425903E-001;-7.153389602899551E-002;7.940361392684281E-004;2.809377619996667E-003;
2.420333333333334E+009;1.571446806192398E-001;-7.261710613965988E-002;9.717665961943567E-004;2.722539240494371E-003;
2.420500000000000E+009;1.561934798955917E-001;-7.361843436956406E-002;1.018333365209401E-003;2.826960757374764E-003;
2.420666666666667E+009;1.552450060844421E-001;-7.498659938573837E-002;1.140729291364551E-003;2.856933278962970E-003;
2.420833333333334E+009;1.541980057954788E-001;-7.663188129663467E-002;1.135860569775105E-003;2.700617071241140E-003;
2.421000000000000E+009;1.533443033695221E-001;-7.799895852804184E-002;1.474751275964081E-003;2.770930295810103E-003;
2.421166666666667E+009;1.525498777627945E-001;-7.951485365629196E-002;1.410383614711464E-003;2.658484270796180E-003;
2.421333333333334E+009;1.519028842449188E-001;-8.109437674283981E-002;1.516600139439106E-003;2.621270017698407E-003;
2.421500000000000E+009;1.511723399162293E-001;-8.264783769845963E-002;1.606344012543559E-003;2.778944326564670E-003;
2.421666666666667E+009;1.507250219583511E-001;-8.431776612997055E-002;1.827101223170757E-003;2.744707278907299E-003;
2.421833333333334E+009;1.501819640398026E-001;-8.587501943111420E-002;1.919933129101992E-003;2.511262428015471E-003;
2.422000000000000E+009;1.497926414012909E-001;-8.767158538103104E-002;1.985552953556180E-003;2.513654297217727E-003;
2.422166666666667E+009;1.495440304279327E-001;-8.943495154380798E-002;2.067432738840580E-003;2.496042056009173E-003;
2.422333333333334E+009;1.493292748928070E-001;-9.103165566921234E-002;2.157418522983789E-003;2.453878056257963E-003;
2.422500000000000E+009;1.492613554000855E-001;-9.258204698562622E-002;2.340159378945828E-003;2.347623230889440E-003;
2.422666666666667E+009;1.490045338869095E-001;-9.449250996112824E-002;2.378495410084724E-003;2.337886719033122E-003;
2.422833333333334E+009;1.492887884378433E-001;-9.613846242427826E-002;2.508132718503475E-003;2.158693503588438E-003;
2.423000000000000E+009;1.492254436016083E-001;-9.761755168437958E-002;2.599826781079173E-003;2.112969756126404E-003;
2.423166666666667E+009;1.495308279991150E-001;-9.947674721479416E-002;2.653144067153335E-003;2.247728640213609E-003;
2.423333333333334E+009;1.498204320669174E-001;-1.007837951183319E-001;2.832375001162291E-003;2.060536993667483E-003;
2.423500000000000E+009;1.500742435455322E-001;-1.023318096995354E-001;2.857747487723827E-003;1.868400373496115E-003;
2.423666666666667E+009;1.502981930971146E-001;-1.040522828698158E-001;2.974577946588397E-003;1.944861724041402E-003;
2.423833333333334E+009;1.509308964014053E-001;-1.055519953370094E-001;2.990366425365210E-003;1.721951412037015E-003;
2.424000000000000E+009;1.511276811361313E-001;-1.066546216607094E-001;3.064025193452835E-003;1.555921160615981E-003;
2.424166666666667E+009;1.518265604972839E-001;-1.079907119274139E-001;3.210987430065870E-003;1.534753246232867E-003;
2.424333333333334E+009;1.523438245058060E-001;-1.093401759862900E-001;3.228384535759687E-003;1.314147142693400E-003;
2.424500000000000E+009;1.527293026447296E-001;-1.104974299669266E-001;3.200509352609515E-003;1.209514448419213E-003;
2.424666666666667E+009;1.534033715724945E-001;-1.113043054938316E-001;3.512445604428649E-003;1.045262673869729E-003;
2.424833333333334E+009;1.537527292966843E-001;-1.125390306115151E-001;3.365842392668128E-003;9.965167846530676E-004;
2.425000000000000E+009;1.544511318206787E-001;-1.133397668600082E-001;3.356087952852249E-003;8.543675648979843E-004;
2.425166666666667E+009;1.545859277248383E-001;-1.141496300697327E-001;3.516130847856402E-003;7.885830709710717E-004;
2.425333333333334E+009;1.550798863172531E-001;-1.148752048611641E-001;3.451122669503093E-003;6.365345907397568E-004;
2.425500000000000E+009;1.555117368698120E-001;-1.156326457858086E-001;3.506838111206889E-003;4.792014369741082E-004;
2.425666666666667E+009;1.556568741798401E-001;-1.162852719426155E-001;3.434257581830025E-003;3.306919534225017E-004;
2.425833333333334E+009;1.560395509004593E-001;-1.167599409818649E-001;3.470254363492131E-003;3.598215989768505E-004;
2.426000000000000E+009;1.561451405286789E-001;-1.173391118645668E-001;3.512558992952108E-003;1.076542612281628E-004;
2.426166666666667E+009;1.565097123384476E-001;-1.177097558975220E-001;3.483300562947989E-003;8.886647265171632E-005;
2.426333333333334E+009;1.564428508281708E-001;-1.179807260632515E-001;3.618885762989521E-003;-8.323376096086577E-005;
2.426500000000000E+009;1.565729379653931E-001;-1.182429641485214E-001;3.578353207558394E-003;-2.349966671317816E-004;
2.426666666666667E+009;1.565127670764923E-001;-1.183794960379601E-001;3.482433268800378E-003;-3.416816180106252E-004;
2.426833333333334E+009;1.563288420438767E-001;-1.185239702463150E-001;3.392318496480584E-003;-3.467102651484311E-004;
2.427000000000000E+009;1.560515016317368E-001;-1.188065037131310E-001;3.371254308149219E-003;-4.738963616546243E-004;
2.427166666666667E+009;1.556569635868073E-001;-1.187969148159027E-001;3.339330200105906E-003;-4.701978468801826E-004;
2.427333333333334E+009;1.551487147808075E-001;-1.190079748630524E-001;3.290249500423670E-003;-6.721584359183908E-004;
2.427500000000000E+009;1.547264307737351E-001;-1.190609484910965E-001;3.340834286063910E-003;-6.123750936239958E-004;
2.427666666666667E+009;1.539568305015564E-001;-1.192754432559013E-001;3.364854259416461E-003;-7.089242571964860E-004;
2.427833333333334E+009;1.531049311161041E-001;-1.192435324192047E-001;3.178372047841549E-003;-9.446010808460414E-004;
