# Version 1.00
#
freq[Hz];re:Trc1_S11;im:Trc1_S11;re:Trc2_S21;im:Trc2_S21;
2.400000000000000E+009;1.582660973072052E-001;6.279216706752777E-002;-3.650443162769079E-003;7.281386933755130E-005;
2.400166666666667E+009;1.580366045236588E-001;6.121489033102989E-002;-3.579896176233888E-003;2.693622082006186E-004;
2.400333333333334E+009;1.577365249395371E-001;5.909541621804237E-002;-3.471203381195664E-003;3.222665400244296E-004;
2.400500000000000E+009;1.579114645719528E-001;5.744086205959320E-002;-3.429456148296595E-003;5.374610191211104E-004;
2.400666666666667E+009;1.578796505928040E-001;5.520092323422432E-002;-3.403946757316589E-003;6.146929226815701E-004;
2.400833333333334E+009;1.580038815736771E-001;5.333366990089417E-002;-3.369442652910948E-003;9.065168560482562E-004;
2.401000000000000E+009;1.580670326948166E-001;5.132209509611130E-002;-3.143457230180502E-003;9.677523630671203E-004;
2.401166666666667E+009;1.581467390060425E-001;4.917276278138161E-002;-2.979282988235354E-003;9.632798028178513E-004;
2.401333333333334E+009;1.582178622484207E-001;4.712950810790062E-002;-3.147214418277144E-003;1.000939635559917E-003;
2.401500000000000E+009;1.586998254060745E-001;4.501656442880631E-002;-2.900292398408055E-003;1.234893104992807E-003;
2.401666666666667E+009;1.589481681585312E-001;4.307209700345993E-002;-2.563147805631161E-003;1.292981440201402E-003;
2.401833333333334E+009;1.592902541160584E-001;4.089534655213356E-002;-2.316890051588416E-003;1.271168119274080E-003;
2.402000000000000E+009;1.596554219722748E-001;3.885566070675850E-002;-2.372649032622576E-003;1.448866445571184E-003;
2.402166666666667E+009;1.600395441055298E-001;3.667352721095085E-002;-2.207257784903050E-003;1.556544448249042E-003;
2.402333333333334E+009;1.607103645801544E-001;3.490936383605003E-002;-2.094469498842955E-003;1.563130179420114E-003;
2.402500000000000E+009;1.615399569272995E-001;3.317023813724518E-002;-1.964811002835631E-003;1.471988623961806E-003;
2.402666666666667E+009;1.620889157056809E-001;3.132478520274162E-002;-1.904107281006873E-003;1.608259044587612E-003;
2.402833333333334E+009;1.629087477922440E-001;2.954310923814774E-002;-1.782892504706979E-003;1.482372870668769E-003;
2.403000000000000E+009;1.636776924133301E-001;2.790421061217785E-002;-1.807885360904038E-003;1.501961029134691E-003;
2.403166666666667E+009;1.644692122936249E-001;2.635971270501614E-002;-1.558898482471705E-003;1.404551207087934E-003;
2.403333333333334E+009;1.654313206672669E-001;2.492418698966503E-002;-1.450362615287304E-003;1.377929118461907E-003;
2.403500000000000E+009;1.663136035203934E-001;2.339963056147099E-002;-1.217640121467412E-003;1.524315797723830E-003;
2.403666666666667E+009;1.671835184097290E-001;2.198596857488155E-002;-1.203441061079502E-003;1.531508751213551E-003;
2.403833333333334E+009;1.683342307806015E-001;2.064164169132710E-002;-1.327020232565701E-003;1.481070998124778E-003;
2.404000000000000E+009;1.692560166120529E-001;1.974086090922356E-002;-1.228963839821518E-003;1.436313730664551E-003;
2.404166666666667E+009;1.702579557895660E-001;1.822262257337570E-002;-1.197964767925441E-003;1.329800114035606E-003;
2.404333333333334E+009;1.711878180503845E-001;1.737110503017902E-002;-1.091742422431707E-003;1.341309631243348E-003;
2.404500000000000E+009;1.722424626350403E-001;1.631335541605949E-002;-9.337330120615661E-004;1.164326327852905E-003;
2.404666666666667E+009;1.731214374303818E-001;1.547220814973116E-002;-1.020226860418916E-003;1.307205879129469E-003;
2.404833333333334E+009;1.739264428615570E-001;1.481690909713507E-002;-8.560004644095898E-004;1.246882253326476E-003;
2.405000000000000E+009;1.748238503932953E-001;1.408002804964781E-002;-7.450287230312824E-004;1.166332978755236E-003;
2.405166666666667E+009;1.755868494510651E-001;1.336850225925446E-002;-9.584826184436679E-004;1.043484429828823E-003;
2.405333333333334E+009;1.765104830265045E-001;1.257979404181242E-002;-8.172937086783350E-004;1.294507994316518E-003;
2.405500000000000E+009;1.771551966667175E-001;1.222770288586617E-002;-7.126192213036120E-004;1.205459469929338E-003;
2.405666666666667E+009;1.779368817806244E-001;1.185175124555826E-002;-6.944586639292538E-004;1.121562439948320E-003;
2.405833333333334E+009;1.784057617187500E-001;1.155417598783970E-002;-6.928371149115264E-004;1.111879595555365E-003;
2.406000000000000E+009;1.790711283683777E-001;1.102689281105995E-002;-6.331168697215617E-004;1.135619822889566E-003;
2.406166666666667E+009;1.795242130756378E-001;1.090003736317158E-002;-5.796615150757134E-004;1.167879207059741E-003;
2.406333333333334E+009;1.800884455442429E-001;1.050247065722942E-002;-5.084192380309105E-004;1.178203034214675E-003;
2.406500000000000E+009;1.803741902112961E-001;1.013231463730335E-002;-7.066496764309704E-004;1.196669298224151E-003;
2.406666666666667E+009;1.804118901491165E-001;9.904517792165279E-003;-4.874006262980402E-004;8.817089837975800E-004;
2.406833333333334E+009;1.807113289833069E-001;9.496769867837429E-003;-4.580644308589399E-004;1.032386091537774E-003;
2.407000000000000E+009;1.808494478464127E-001;9.306427091360092E-003;-4.774947592522949E-004;9.642468066886067E-004;
2.407166666666667E+009;1.809490025043488E-001;9.005622006952763E-003;-3.754351055249572E-004;8.653142140246928E-004;
2.407333333333334E+009;1.806450784206390E-001;8.599827997386456E-003;-4.208378668408841E-004;9.127572411671281E-004;
2.407500000000000E+009;1.805671155452728E-001;8.103517815470696E-003;-2.394152979832143E-004;9.056943817995489E-004;
2.407666666666667E+009;1.803441941738129E-001;7.772954180836678E-003;-1.431803102605045E-004;9.190351120196283E-004;
2.407833333333334E+009;1.798094660043716E-001;7.048107683658600E-003;-2.231782418675721E-004;7.196035585366190E-004;
2.408000000000000E+009;1.797276139259338E-001;6.529717240482569E-003;-3.351641062181443E-004;7.053698645904660E-004;
2.408166666666667E+009;1.792419254779816E-001;5.891008302569389E-003;-3.345547302160412E-004;6.730061140842736E-004;
2.408333333333334E+009;1.789031773805618E-001;5.234524141997099E-003;-2.879812673199922E-004;6.983375060372055E-004;
2.408500000000000E+009;1.782168447971344E-001;4.509014543145895E-003;-2.328891423530877E-004;6.827639299444854E-004;
2.408666666666667E+009;1.776926070451737E-001;3.570149419829249E-003;-5.322007345966995E-004;6.839123670943081E-004;
2.408833333333334E+009;1.769675910472870E-001;2.613160060718656E-003;-2.961152349598706E-004;5.950710619799793E-004;
2.409000000000000E+009;1.762306094169617E-001;1.631183899007738E-003;-4.563940165098757E-004;5.643817712552846E-004;
2.409166666666667E+009;1.754661202430725E-001;3.831429639831185E-004;-3.984766080975533E-004;6.386187160387635E-004;
2.409333333333334E+009;1.749096810817719E-001;-7.670389022678137E-004;-2.857275831047446E-004;5.454300553537905E-004;
2.409500000000000E+009;1.742524504661560E-001;-2.118451287969947E-003;-4.758753930218518E-004;4.676245443988591E-004;
2.409666666666667E+009;1.734444350004196E-001;-3.393037244677544E-003;-4.951494047418237E-004;5.623917095363140E-004;
2.409833333333334E+009;1.725878268480301E-001;-4.790129140019417E-003;-4.966072738170624E-004;3.489610389806330E-004;
2.410000000000000E+009;1.719622611999512E-001;-6.091709714382887E-003;-4.712123190984130E-004;4.739650466945022E-004;
2.410166666666667E+009;1.714552044868469E-001;-7.973101921379566E-003;-5.411006277427077E-004;4.387108783703297E-004;
2.410333333333334E+009;1.707612723112106E-001;-9.473963640630245E-003;-4.614330246113241E-004;3.955486754421145E-004;
2.410500000000000E+009;1.703280806541443E-001;-1.108259614557028E-002;-4.792661056853831E-004;3.905824269168079E-004;
2.410666666666667E+009;1.696520149707794E-001;-1.291366294026375E-002;-5.517230601981282E-004;3.118583408650011E-004;
2.410833333333334E+009;1.693251281976700E-001;-1.464071869850159E-002;-6.535741849802434E-004;4.376832221169025E-004;
2.411000000000000E+009;1.688601523637772E-001;-1.651068218052387E-002;-6.950392271392047E-004;4.156669310759753E-004;
2.411166666666667E+009;1.685288846492767E-001;-1.851096935570240E-002;-8.249726379290223E-004;3.580803750082851E-004;
2.411333333333334E+009;1.682809740304947E-001;-2.030924521386623E-002;-7.313777459785342E-004;3.480408922769129E-004;
2.411500000000000E+009;1.678817868232727E-001;-2.220660448074341E-002;-9.024582104757428E-004;3.925916680600494E-004;
2.411666666666667E+009;1.679857224225998E-001;-2.419105358421803E-002;-8.973369258455932E-004;1.939345238497481E-004;
2.411833333333334E+009;1.680510789155960E-001;-2.620660699903965E-002;-8.433733601123095E-004;2.504615113139153E-004;
2.412000000000000E+009;1.680877357721329E-001;-2.828804031014442E-002;-1.020304742269218E-003;3.539960598573089E-004;
2.412166666666667E+009;1.680189520120621E-001;-3.020432405173779E-002;-1.062326598912478E-003;3.759528917726129E-004;
2.412333333333334E+009;1.684965193271637E-001;-3.188475966453552E-002;-1.139088184572756E-003;3.772116033360362E-004;
2.412500000000000E+009;1.685592681169510E-001;-3.370060399174690E-002;-1.068441197276115E-003;3.604865050874651E-004;
2.412666666666667E+009;1.690459549427033E-001;-3.582898154854775E-002;-1.196824596263468E-003;5.823197425343096E-004;
2.412833333333334E+009;1.694199144840241E-001;-3.779093921184540E-002;-1.168718910776079E-003;5.675553693436086E-004;
2.413000000000000E+009;1.696678549051285E-001;-3.950276225805283E-002;-1.361459610052407E-003;5.269107641652226E-004;
2.413166666666667E+009;1.701079457998276E-001;-4.114932194352150E-002;-1.379034947603941E-003;6.358578684739769E-004;
2.413333333333334E+009;1.703644841909409E-001;-4.302851855754852E-002;-1.193383126519620E-003;8.187189814634621E-004;
2.413500000000000E+009;1.710216253995895E-001;-4.465138912200928E-002;-1.325191813521087E-003;8.988853660412133E-004;
2.413666666666667E+009;1.716524958610535E-001;-4.625627771019936E-002;-1.221383805386722E-003;7.749293581582606E-004;
2.413833333333334E+009;1.721191704273224E-001;-4.768004268407822E-002;-1.292537548579276E-003;9.659794741310179E-004;
2.414000000000000E+009;1.724711805582047E-001;-4.920371621847153E-002;-1.336472458206117E-003;9.979251772165299E-004;
2.414166666666667E+009;1.731682270765305E-001;-5.052245035767555E-002;-1.392966951243579E-003;1.132161589339376E-003;
2.414333333333334E+009;1.738812774419785E-001;-5.180755257606506E-002;-1.360383699648082E-003;1.319910399615765E-003;
2.414500000000000E+009;1.746008247137070E-001;-5.273476988077164E-002;-1.443825312890112E-003;1.165390713140369E-003;
2.414666666666667E+009;1.749897897243500E-001;-5.386425927281380E-002;-1.232008100487292E-003;1.553044188767672E-003;
2.414833333333334E+009;1.753612607717514E-001;-5.499436706304550E-002;-1.342738629318774E-003;1.528702094219625E-003;
2.415000000000000E+009;1.758813112974167E-001;-5.577371641993523E-002;-1.346183591522276E-003;1.641491777263582E-003;
2.415166666666667E+009;1.762354522943497E-001;-5.655796080827713E-002;-1.261289813555777E-003;1.691697165369988E-003;
2.415333333333334E+009;1.766917407512665E-001;-5.730814486742020E-002;-1.216930104419589E-003;1.880352851003408E-003;
2.415500000000000E+009;1.770358234643936E-001;-5.804947391152382E-002;-1.050116028636694E-003;1.939014880917966E-003;
2.415666666666667E+009;1.773987263441086E-001;-5.853823944926262E-002;-1.046366989612579E-003;2.025743015110493E-003;
2.415833333333334E+009;1.775632649660111E-001;-5.907829478383064E-002;-9.876622352749109E-004;2.204856369644404E-003;
2.416000000000000E+009;1.775990426540375E-001;-5.941670760512352E-002;-9.969673119485378E-004;2.153606154024601E-003;
2.416166666666667E+009;1.779567748308182E-001;-5.986362695693970E-002;-8.322772337123752E-004;2.171623054891825E-003;
2.416333333333334E+009;1.776770502328873E-001;-6.017400324344635E-002;-7.988699362613261E-004;2.319897990673780E-003;
2.416500000000000E+009;1.776849776506424E-001;-6.048711016774178E-002;-6.401776918210089E-004;2.210725797340274E-003;
2.416666666666667E+009;1.774747669696808E-001;-6.064023077487946E-002;-6.368475151248276E-004;2.282235771417618E-003;
2.416833333333334E+009;1.772737503051758E-001;-6.110176816582680E-002;-5.852652247995138E-004;2.395893214270473E-003;
2.417000000000000E+009;1.767228394746780E-001;-6.126735359430313E-002;-5.593224777840078E-004;2.432622713968158E-003;
2.417166666666667E+009;1.762884259223938E-001;-6.134803965687752E-002;-4.636610974557698E-004;2.366228727623820E-003;
2.417333333333334E+009;1.759039759635925E-001;-6.151458993554115E-002;-2.453508204780519E-004;2.401710022240877E-003;
2.417500000000000E+009;1.751720458269119E-001;-6.196428462862968E-002;-4.011522978544235E-004;2.428973093628883E-003;
2.417666666666667E+009;1.745122224092484E-001;-6.189715117216110E-002;-1.270285865757614E-004;2.481833798810840E-003;
2.417833333333334E+009;1.738137304782867E-001;-6.210091337561607E-002;-1.310336519964039E-004;2.567004412412643E-003;
2.418000000000000E+009;1.728022545576096E-001;-6.274607777595520E-002;1.424523270543432E-005;2.384818391874433E-003;
2.418166666666667E+009;1.719039231538773E-001;-6.276141107082367E-002;-3.609619307098910E-005;2.499036490917206E-003;
2.418333333333334E+009;1.711317598819733E-001;-6.325221061706543E-002;-5.417222723735904E-007;2.431993838399649E-003;
2.418500000000000E+009;1.700862795114517E-001;-6.372503936290741E-002;2.184174518333748E-004;2.658510580658913E-003;
2.418666666666667E+009;1.689991056919098E-001;-6.427616626024246E-002;1.407531963195652E-004;2.523036208003759E-003;
2.418833333333334E+009;1.676514297723770E-001;-6.478157639503479E-002;2.783803502097726E-004;2.503484254702926E-003;
2.419000000000000E+009;1.664365082979202E-001;-6.527916342020035E-002;2.331290015717968E-004;2.515805419534445E-003;
2.419166666666667E+009;1.654292792081833E-001;-6.591366976499558E-002;3.719826054293662E-004;2.444837009534240E-003;
2.419333333333334E+009;1.640614271163940E-001;-6.656774878501892E-002;5.210858071222901E-004;2.558920532464981E-003;
2.419500000000000E+009;1.629266738891602E-001;-6.760238856077194E-002;5.779743660241365E-004;2.656874479725957E-003;
2.419666666666667E+009;1.617825031280518E-001;-6.839488446712494E-002;5.269817775115371E-004;2.752256812527776E-003;
2.419833333333334E+009;1.604919582605362E-001;-6.921969354152679E-002;5.465411813929677E-004;2.675760071724653E-003;
2.420000000000000E+009;1.594776362180710E-001;-7.042612880468369E-002;9.165515075437725E-004;2.691278001293540E-003;
2.420166666666667E+009;1.581767648458481E-001;-7.145538181066513E-002;7.902643992565572E-004;2.643826417624950E-003;
2.420333333333334E+009;1.571263223886490E-001;-7.270724326372147E-002;1.059418777003884E-003;2.795831765979528E-003;
2.420500000000000E+009;1.562224328517914E-001;-7.367889583110809E-002;1.087287440896034E-003;2.596337581053376E-003;
2.420666666666667E+009;1.550519764423370E-001;-7.504142820835114E-002;1.181117841042578E-003;2.776960842311382E-003;
2.420833333333334E+009;1.542093306779862E-001;-7.657977193593979E-002;1.253999653272331E-003;2.744342898949981E-003;
2.421000000000000E+009;1.532622873783112E-001;-7.801713049411774E-002;1.254031551070511E-003;2.672128612175584E-003;
2.421166666666667E+009;1.524137258529663E-001;-7.946268469095230E-002;1.415702747181058E-003;2.746353857219219E-003;
2.421333333333334E+009;1.519518196582794E-001;-8.123621344566345E-002;1.475645578466356E-003;2.789668971672654E-003;
2.421500000000000E+009;1.511927843093872E-001;-8.258084207773209E-002;1.727173570543528E-003;2.594012534245849E-003;
2.421666666666667E+009;1.507093608379364E-001;-8.428029716014862E-002;1.791365444660187E-003;2.635239623486996E-003;
2.421833333333334E+009;1.502347588539124E-001;-8.590061217546463E-002;1.813907641917467E-003;2.749419305473566E-003;
2.422000000000000E+009;1.497213691473007E-001;-8.759226649999619E-002;2.156238770112395E-003;2.538701985031366E-003;
2.422166666666667E+009;1.495644450187683E-001;-8.952379226684570E-002;2.177827060222626E-003;2.445652848109603E-003;
2.422333333333334E+009;1.493843942880631E-001;-9.109003096818924E-002;2.175851957872510E-003;2.522754250094295E-003;
2.422500000000000E+009;1.492165327072144E-001;-9.272762387990952E-002;2.403406193479896E-003;2.348545705899596E-003;
2.422666666666667E+009;1.491192430257797E-001;-9.449920058250427E-002;2.330839401111007E-003;2.327260328456760E-003;
2.422833333333334E+009;1.493051499128342E-001;-9.615814685821533E-002;2.578326500952244E-003;2.356614684686065E-003;
2.423000000000000E+009;1.493772864341736E-001;-9.782474488019943E-002;2.479867776855826E-003;2.238781889900565E-003;
2.423166666666667E+009;1.496136188507080E-001;-9.940366446971893E-002;2.603165106847882E-003;2.026533009484410E-003;
2.423333333333334E+009;1.498624086380005E-001;-1.007954180240631E-001;2.730752807110548E-003;2.103398786857724E-003;
2.423500000000000E+009;1.502652615308762E-001;-1.024906933307648E-001;2.967552049085498E-003;1.816916279494762E-003;
2.423666666666667E+009;1.503352373838425E-001;-1.040149182081223E-001;2.860628534108400E-003;1.921489834785461E-003;
2.423833333333334E+009;1.508915424346924E-001;-1.054668426513672E-001;3.087845630943775E-003;1.839097007177770E-003;
2.424000000000000E+009;1.513267010450363E-001;-1.067409291863442E-001;3.086881944909692E-003;1.477209967561066E-003;
2.424166666666667E+009;1.516420841217041E-001;-1.080901622772217E-001;3.173769917339087E-003;1.389293116517365E-003;
2.424333333333334E+009;1.522705405950546E-001;-1.092898175120354E-001;3.320971736684442E-003;1.434277743101120E-003;
2.424500000000000E+009;1.527326107025147E-001;-1.104487776756287E-001;3.408706281334162E-003;1.270776847377420E-003;
2.424666666666667E+009;1.533155143260956E-001;-1.113312765955925E-001;3.310805885121226E-003;1.037058886140585E-003;
2.424833333333334E+009;1.537976264953613E-001;-1.124551370739937E-001;3.603546880185604E-003;1.003705430775881E-003;
2.425000000000000E+009;1.542307883501053E-001;-1.133818700909615E-001;3.517024451866746E-003;8.538092370145023E-004;
2.425166666666667E+009;1.545236259698868E-001;-1.142527312040329E-001;3.734852420166135E-003;9.006276959553361E-004;
2.425333333333334E+009;1.550654470920563E-001;-1.150262653827667E-001;3.555600997060537E-003;6.604468799196184E-004;
2.425500000000000E+009;1.555600017309189E-001;-1.156420409679413E-001;3.583881305530667E-003;5.587932537309825E-004;
2.425666666666667E+009;1.556379497051239E-001;-1.163504198193550E-001;3.532380098477006E-003;4.880639899056405E-004;
2.425833333333334E+009;1.559241563081741E-001;-1.167465746402741E-001;3.693454200401902E-003;2.271918201586232E-004;
2.426000000000000E+009;1.561919003725052E-001;-1.173641905188561E-001;3.758439794182777E-003;2.355013712076470E-004;
2.426166666666667E+009;1.563818901777268E-001;-1.176729723811150E-001;3.727472852915525E-003;1.015922098304145E-004;
2.426333333333334E+009;1.564277410507202E-001;-1.180697381496429E-001;3.445455571636558E-003;-9.561368642607704E-005;
2.426500000000000E+009;1.565124243497849E-001;-1.183540597558022E-001;3.679723711684346E-003;-1.200432016048580E-004;
2.426666666666667E+009;1.566117703914642E-001;-1.183445602655411E-001;3.596326336264610E-003;-4.235732776578516E-004;
2.426833333333334E+009;1.562178730964661E-001;-1.185811907052994E-001;3.459478029981256E-003;-4.215349617879838E-004;
2.427000000000000E+009;1.559375822544098E-001;-1.187585219740868E-001;3.570078173652291E-003;-5.367185804061592E-004;
2.427166666666667E+009;1.555093824863434E-001;-1.187263578176498E-001;3.429033327847719E-003;-6.768134189769626E-004;
2.427333333333334E+009;1.550651490688324E-001;-1.190280392765999E-001;3.381946822628379E-003;-7.488434785045683E-004;
2.427500000000000E+009;1.546780467033386E-001;-1.190726459026337E-001;3.453339915722609E-003;-7.591235917061567E-004;
2.427666666666667E+009;1.539751142263413E-001;-1.191477105021477E-001;3.269749460741878E-003;-8.414189214818180E-004;
2.427833333333334E+009;1.531160324811935E-001;-1.192713901400566E-001;3.375102765858173E-003;-9.433015948161483E-004;
