# Version 1.00
#
freq[Hz];re:Trc1_S11;im:Trc1_S11;re:Trc2_S21;im:Trc2_S21;
2.400000000000000E+009;1.557780057191849E-001;1.073442250490189E-001;-2.266388852149248E-003;-4.888693336397409E-003;
2.400166666666667E+009;1.553673595190048E-001;1.050200536847115E-001;-2.488458529114723E-003;-4.978906828910112E-003;
2.400333333333334E+009;1.555643081665039E-001;1.025474146008492E-001;-2.746799495071173E-003;-5.007553845643997E-003;
2.400500000000000E+009;1.554200202226639E-001;9.982892870903015E-002;-2.844000468030572E-003;-5.126581061631441E-003;
2.400666666666667E+009;1.554042100906372E-001;9.730508923530579E-002;-3.005277831107378E-003;-5.023104604333639E-003;
2.400833333333334E+009;1.554885357618332E-001;9.440169483423233E-002;-3.117458894848824E-003;-5.015423055738211E-003;
2.401000000000000E+009;1.556061655282974E-001;9.152296930551529E-002;-3.419054904952645E-003;-4.891191143542528E-003;
2.401166666666667E+009;1.556808799505234E-001;8.880113065242767E-002;-3.460998879745603E-003;-4.968996625393629E-003;
2.401333333333334E+009;1.559861749410629E-001;8.582113683223724E-002;-3.775528399273753E-003;-4.852148704230785E-003;
2.401500000000000E+009;1.565723866224289E-001;8.289804309606552E-002;-3.828605869784951E-003;-4.831286612898111E-003;
2.401666666666667E+009;1.568314135074616E-001;8.009228855371475E-002;-4.145306535065174E-003;-4.687265027314425E-003;
2.401833333333334E+009;1.572802364826202E-001;7.715821266174316E-002;-4.291311837732792E-003;-4.599902313202620E-003;
2.402000000000000E+009;1.579373776912689E-001;7.451806217432022E-002;-4.490021150559187E-003;-4.397129639983177E-003;
2.402166666666667E+009;1.588778495788574E-001;7.180918753147125E-002;-4.766182508319616E-003;-4.448401741683483E-003;
2.402333333333334E+009;1.597754657268524E-001;6.906031817197800E-002;-4.938303027302027E-003;-4.463475663214922E-003;
2.402500000000000E+009;1.609982550144196E-001;6.656241416931152E-002;-5.224639549851418E-003;-4.275845829397440E-003;
2.402666666666667E+009;1.620638519525528E-001;6.410211324691773E-002;-5.418787710368633E-003;-4.015325102955103E-003;
2.402833333333334E+009;1.634822487831116E-001;6.163485720753670E-002;-5.603245459496975E-003;-3.780921921133995E-003;
2.403000000000000E+009;1.649152487516403E-001;5.921877548098564E-002;-5.695257335901260E-003;-3.809884423390031E-003;
2.403166666666667E+009;1.667896062135696E-001;5.714651197195053E-002;-5.923403892666102E-003;-3.547610249370337E-003;
2.403333333333334E+009;1.682452857494354E-001;5.486240983009338E-002;-6.359050981700420E-003;-3.087748773396015E-003;
2.403500000000000E+009;1.697464138269424E-001;5.276549980044365E-002;-6.334117148071528E-003;-2.926377113908529E-003;
2.403666666666667E+009;1.716487705707550E-001;5.092349275946617E-002;-6.570079363882542E-003;-2.707313047721982E-003;
2.403833333333334E+009;1.733204573392868E-001;4.891297221183777E-002;-6.697609554976225E-003;-2.155958442017436E-003;
2.404000000000000E+009;1.747222393751144E-001;4.730279371142387E-002;-6.816351320594549E-003;-2.052636584267020E-003;
2.404166666666667E+009;1.765711754560471E-001;4.558202996850014E-002;-6.738841999322176E-003;-1.667047850787640E-003;
2.404333333333334E+009;1.781988143920898E-001;4.403314366936684E-002;-6.828298792243004E-003;-1.311067724600434E-003;
2.404500000000000E+009;1.797771304845810E-001;4.260161519050598E-002;-6.744281388819218E-003;-1.054834225215018E-003;
2.404666666666667E+009;1.815118640661240E-001;4.157568886876106E-002;-6.883411668241024E-003;-7.645548903383315E-004;
2.404833333333334E+009;1.831848025321960E-001;4.038690403103828E-002;-6.753574125468731E-003;-5.480765830725431E-004;
2.405000000000000E+009;1.845041662454605E-001;3.978127241134644E-002;-6.865030154585838E-003;-1.534434122731909E-004;
2.405166666666667E+009;1.860413998365402E-001;3.912232071161270E-002;-6.711006630212069E-003;8.388076093979180E-005;
2.405333333333334E+009;1.874968558549881E-001;3.865140676498413E-002;-6.643178407102823E-003;2.164015168091282E-004;
2.405500000000000E+009;1.889375150203705E-001;3.801037743687630E-002;-6.762495730072260E-003;5.958302062936127E-004;
2.405666666666667E+009;1.899036169052124E-001;3.776063024997711E-002;-6.678914185613394E-003;8.236178546212614E-004;
2.405833333333334E+009;1.914507001638413E-001;3.748764097690582E-002;-6.638676393777132E-003;9.988474193960428E-004;
2.406000000000000E+009;1.922588199377060E-001;3.726875036954880E-002;-6.516086868941784E-003;1.291350228711963E-003;
2.406166666666667E+009;1.933938115835190E-001;3.722087293863297E-002;-6.393072661012411E-003;1.671089557930827E-003;
2.406333333333334E+009;1.942174285650253E-001;3.708834946155548E-002;-6.262149661779404E-003;1.827002270147204E-003;
2.406500000000000E+009;1.949851363897324E-001;3.729295730590820E-002;-6.274042651057243E-003;2.151189371943474E-003;
2.406666666666667E+009;1.956136673688889E-001;3.736297041177750E-002;-6.007836665958166E-003;2.238812856376171E-003;
2.406833333333334E+009;1.960331499576569E-001;3.733046725392342E-002;-6.061230320483446E-003;2.633308060467243E-003;
2.407000000000000E+009;1.964382529258728E-001;3.753709420561791E-002;-5.777677521109581E-003;2.787738805636764E-003;
2.407166666666667E+009;1.966682225465775E-001;3.736696764826775E-002;-5.592097993940115E-003;2.794793806970120E-003;
2.407333333333334E+009;1.965968161821365E-001;3.761323168873787E-002;-5.519356112927198E-003;3.127337899059057E-003;
2.407500000000000E+009;1.964939087629318E-001;3.768566250801086E-002;-5.234042182564735E-003;3.227071603760123E-003;
2.407666666666667E+009;1.966347396373749E-001;3.772209212183952E-002;-5.142172332853079E-003;3.480874700471759E-003;
2.407833333333334E+009;1.960435062646866E-001;3.752345591783524E-002;-4.872668068856001E-003;3.589139319956303E-003;
2.408000000000000E+009;1.960245370864868E-001;3.724110871553421E-002;-4.699037875980139E-003;3.596007823944092E-003;
2.408166666666667E+009;1.954063177108765E-001;3.707046061754227E-002;-4.491179250180721E-003;3.790254704654217E-003;
2.408333333333334E+009;1.949969381093979E-001;3.665598854422569E-002;-4.309263546019793E-003;3.786182031035423E-003;
2.408500000000000E+009;1.942716836929321E-001;3.630738705396652E-002;-4.054384771734476E-003;3.946512006223202E-003;
2.408666666666667E+009;1.935691684484482E-001;3.584131598472595E-002;-3.858003299683332E-003;3.978292923420668E-003;
2.408833333333334E+009;1.928488761186600E-001;3.500228375196457E-002;-3.826015861704946E-003;4.075723234564066E-003;
2.409000000000000E+009;1.918846070766449E-001;3.413015976548195E-002;-3.371306462213397E-003;4.133859183639288E-003;
2.409166666666667E+009;1.908589452505112E-001;3.312237933278084E-002;-3.352280240505934E-003;4.310273565351963E-003;
2.409333333333334E+009;1.898816227912903E-001;3.213484957814217E-002;-3.096661297604442E-003;4.169509280472994E-003;
2.409500000000000E+009;1.888722330331802E-001;3.086455911397934E-002;-3.069313475862145E-003;4.283238667994738E-003;
2.409666666666667E+009;1.876304596662521E-001;2.944252081215382E-002;-2.938689896836877E-003;4.191207699477673E-003;
2.409833333333334E+009;1.867008507251740E-001;2.794843353331089E-002;-2.642570761963725E-003;4.301329143345356E-003;
2.410000000000000E+009;1.856603622436523E-001;2.640681527554989E-002;-2.439228119328618E-003;4.148214589804411E-003;
2.410166666666667E+009;1.846276670694351E-001;2.451809681952000E-002;-2.324285684153438E-003;4.285607952624559E-003;
2.410333333333334E+009;1.836476475000382E-001;2.283807285130024E-002;-2.328349044546485E-003;4.275470040738583E-003;
2.410500000000000E+009;1.825792938470841E-001;2.074672654271126E-002;-2.194681437686086E-003;4.237552639096975E-003;
2.410666666666667E+009;1.816494464874268E-001;1.850272528827190E-002;-1.957989763468504E-003;4.216357599943876E-003;
2.410833333333334E+009;1.810090392827988E-001;1.626633666455746E-002;-1.868936698883772E-003;4.191847518086433E-003;
2.411000000000000E+009;1.802080571651459E-001;1.431444380432367E-002;-1.748687005601823E-003;4.125883802771568E-003;
2.411166666666667E+009;1.795628517866135E-001;1.206612959504128E-002;-1.623067306354642E-003;4.246735479682684E-003;
2.411333333333334E+009;1.789609789848328E-001;9.562839753925800E-003;-1.250585657544434E-003;4.109174478799105E-003;
2.411500000000000E+009;1.785055398941040E-001;7.137531414628029E-003;-1.243813312612474E-003;4.141766577959061E-003;
2.411666666666667E+009;1.783363521099091E-001;4.709239583462477E-003;-1.105226576328278E-003;4.138402175158262E-003;
2.411833333333334E+009;1.779668182134628E-001;2.391378860920668E-003;-9.426142205484211E-004;4.046595189720392E-003;
2.412000000000000E+009;1.781888306140900E-001;-2.624819753691554E-004;-8.918585954234004E-004;4.017861094325781E-003;
2.412166666666667E+009;1.781037896871567E-001;-2.606837078928947E-003;-7.802261388860643E-004;3.855404211208224E-003;
2.412333333333334E+009;1.784373223781586E-001;-5.216317251324654E-003;-7.687507313676179E-004;3.713037818670273E-003;
2.412500000000000E+009;1.787792146205902E-001;-7.399026770144701E-003;-6.966197397559881E-004;3.698346670717001E-003;
2.412666666666667E+009;1.793467402458191E-001;-1.013938244432211E-002;-7.471478311344981E-004;3.569507040083408E-003;
2.412833333333334E+009;1.800009608268738E-001;-1.241291128098965E-002;-6.621626671403647E-004;3.496092045679689E-003;
2.413000000000000E+009;1.807789504528046E-001;-1.485296338796616E-002;-6.255580810829997E-004;3.478279570117593E-003;
2.413166666666667E+009;1.814619302749634E-001;-1.691991463303566E-002;-6.539839087054133E-004;3.559571458026767E-003;
2.413333333333334E+009;1.826106160879135E-001;-1.933062449097633E-002;-5.905821453779936E-004;3.557015908882022E-003;
2.413500000000000E+009;1.834083050489426E-001;-2.164780162274838E-002;-6.975096184760332E-004;3.484778339043260E-003;
2.413666666666667E+009;1.847668588161469E-001;-2.366030029952526E-002;-7.020230987109244E-004;3.649608697742224E-003;
2.413833333333334E+009;1.856831014156342E-001;-2.577835507690907E-002;-5.135015235282481E-004;3.630770603194833E-003;
2.414000000000000E+009;1.867721229791641E-001;-2.786282822489739E-002;-4.538900102488697E-004;3.703210735693574E-003;
2.414166666666667E+009;1.880389451980591E-001;-2.951507829129696E-002;-3.758940438274294E-004;3.910643979907036E-003;
2.414333333333334E+009;1.890156269073486E-001;-3.157578781247139E-002;-3.420722205191851E-004;3.862602170556784E-003;
2.414500000000000E+009;1.903505921363831E-001;-3.289894014596939E-002;-1.919168862514198E-004;3.874630434438586E-003;
2.414666666666667E+009;1.914836168289185E-001;-3.445885702967644E-002;-9.015472460305318E-005;3.995284903794527E-003;
2.414833333333334E+009;1.927408427000046E-001;-3.586266189813614E-002;1.491502043791115E-004;3.899812232702971E-003;
2.415000000000000E+009;1.938622146844864E-001;-3.703362494707108E-002;2.879959647543728E-004;3.785306820645928E-003;
2.415166666666667E+009;1.950304806232452E-001;-3.808635473251343E-002;3.216069308109582E-004;3.687995485961437E-003;
2.415333333333334E+009;1.962024122476578E-001;-3.898158296942711E-002;4.942046944051981E-004;3.568640444427729E-003;
2.415500000000000E+009;1.972290128469467E-001;-3.969047591090202E-002;4.680995480157435E-004;3.585956990718842E-003;
2.415666666666667E+009;1.982964128255844E-001;-4.060726612806320E-002;5.809753201901913E-004;3.632833017036319E-003;
2.415833333333334E+009;1.992501467466354E-001;-4.110512882471085E-002;5.826756241731346E-004;3.424088237807155E-003;
2.416000000000000E+009;1.999354660511017E-001;-4.155860841274262E-002;5.745727103203535E-004;3.380720037966967E-003;
2.416166666666667E+009;2.007477730512619E-001;-4.223030060529709E-002;7.183523848652840E-004;3.297370392829180E-003;
2.416333333333334E+009;2.013244032859802E-001;-4.242888465523720E-002;6.126052467152476E-004;3.365705022588372E-003;
2.416500000000000E+009;2.018324732780457E-001;-4.258089140057564E-002;5.453248741105199E-004;3.561532124876976E-003;
2.416666666666667E+009;2.021877169609070E-001;-4.294138401746750E-002;5.814912146888673E-004;3.446651855483651E-003;
2.416833333333334E+009;2.023397833108902E-001;-4.289362952113152E-002;8.303401991724968E-004;3.533509094268084E-003;
2.417000000000000E+009;2.025649547576904E-001;-4.298922792077065E-002;7.477625040337443E-004;3.623450640588999E-003;
2.417166666666667E+009;2.023057490587235E-001;-4.285568743944168E-002;8.806087425909936E-004;3.656957997009158E-003;
2.417333333333334E+009;2.021204978227615E-001;-4.274577274918556E-002;9.924843907356262E-004;3.741490887477994E-003;
2.417500000000000E+009;2.018498927354813E-001;-4.257709160447121E-002;1.083896495401859E-003;3.877328708767891E-003;
2.417666666666667E+009;2.013265937566757E-001;-4.236617311835289E-002;1.036979607306421E-003;3.759068669751287E-003;
2.417833333333334E+009;2.008497267961502E-001;-4.223822802305222E-002;1.231521484442055E-003;3.869823180139065E-003;
2.418000000000000E+009;2.001577317714691E-001;-4.189722985029221E-002;1.377517473883927E-003;3.869068808853626E-003;
2.418166666666667E+009;1.992794126272202E-001;-4.185705259442329E-002;1.575984759256244E-003;3.901145420968533E-003;
2.418333333333334E+009;1.984363347291946E-001;-4.176685214042664E-002;1.776147400960326E-003;3.832207527011633E-003;
2.418500000000000E+009;1.975474059581757E-001;-4.164978116750717E-002;1.889865030534565E-003;3.844600636512041E-003;
2.418666666666667E+009;1.964727044105530E-001;-4.163503646850586E-002;2.145581180229783E-003;3.682968905195594E-003;
2.418833333333334E+009;1.953234076499939E-001;-4.185234755277634E-002;2.168308245018125E-003;3.683427814394236E-003;
2.419000000000000E+009;1.938321590423584E-001;-4.203571379184723E-002;2.350925235077739E-003;3.681644797325134E-003;
2.419166666666667E+009;1.926605105400085E-001;-4.226875305175781E-002;2.630497794598341E-003;3.631865372881293E-003;
2.419333333333334E+009;1.912935972213745E-001;-4.279714450240135E-002;2.685892628505826E-003;3.511730115860701E-003;
2.419500000000000E+009;1.898536086082459E-001;-4.317402839660645E-002;2.737815957516432E-003;3.366473130881786E-003;
2.419666666666667E+009;1.881785243749619E-001;-4.396426305174828E-002;2.921368228271604E-003;3.222592175006867E-003;
2.419833333333334E+009;1.864917874336243E-001;-4.452230036258698E-002;3.085380187258124E-003;3.102127229794860E-003;
2.420000000000000E+009;1.849763840436935E-001;-4.549550265073776E-002;3.177606500685215E-003;2.991928486153483E-003;
2.420166666666667E+009;1.834131926298142E-001;-4.637496173381805E-002;3.273109672591090E-003;2.895953832194209E-003;
2.420333333333334E+009;1.818222254514694E-001;-4.752404615283012E-002;3.320573596283793E-003;2.709822263568640E-003;
2.420500000000000E+009;1.799353957176209E-001;-4.882332310080528E-002;3.487840993329883E-003;2.668233821168542E-003;
2.420666666666667E+009;1.783962696790695E-001;-5.003320798277855E-002;3.517695004120469E-003;2.562720794230700E-003;
2.420833333333334E+009;1.767568737268448E-001;-5.156828835606575E-002;3.657939843833447E-003;2.398306969553232E-003;
2.421000000000000E+009;1.753820776939392E-001;-5.311155319213867E-002;3.587630344554782E-003;2.305603818967938E-003;
2.421166666666667E+009;1.739857792854309E-001;-5.473253130912781E-002;3.761421190574765E-003;1.984847709536552E-003;
2.421333333333334E+009;1.722568571567535E-001;-5.619478598237038E-002;3.879975993186235E-003;1.840941607952118E-003;
2.421500000000000E+009;1.710088849067688E-001;-5.829606950283051E-002;3.803294850513339E-003;1.893312437459827E-003;
2.421666666666667E+009;1.699177920818329E-001;-6.016469374299049E-002;3.794877091422677E-003;1.625925186090171E-003;
2.421833333333334E+009;1.686016619205475E-001;-6.201192736625671E-002;3.880704753100872E-003;1.353836618363857E-003;
2.422000000000000E+009;1.674066036939621E-001;-6.384781002998352E-002;3.919441252946854E-003;1.216302160173655E-003;
2.422166666666667E+009;1.665156036615372E-001;-6.596137583255768E-002;3.901346120983362E-003;1.240827958099544E-003;
2.422333333333334E+009;1.655987650156021E-001;-6.795298308134079E-002;3.810516325756908E-003;1.105347066186369E-003;
2.422500000000000E+009;1.648246645927429E-001;-7.001941651105881E-002;3.825702704489231E-003;6.807810859754682E-004;
2.422666666666667E+009;1.640814095735550E-001;-7.204404473304749E-002;3.782068612053990E-003;8.313381695188582E-004;
2.422833333333334E+009;1.638709753751755E-001;-7.418051362037659E-002;3.734559752047062E-003;4.955997574143112E-004;
2.423000000000000E+009;1.631743311882019E-001;-7.621645182371140E-002;3.796402830630541E-003;4.519525682553649E-004;
2.423166666666667E+009;1.628939658403397E-001;-7.815960794687271E-002;3.590256907045841E-003;3.095332940574735E-004;
2.423333333333334E+009;1.626057177782059E-001;-8.021874725818634E-002;3.629938699305058E-003;3.107684606220573E-004;
2.423500000000000E+009;1.626253575086594E-001;-8.197161555290222E-002;3.478773869574070E-003;-2.004357611440355E-006;
2.423666666666667E+009;1.625748723745346E-001;-8.390194922685623E-002;3.579548327252269E-003;-3.822578219114803E-005;
2.423833333333334E+009;1.625127792358398E-001;-8.557371050119400E-002;3.353984095156193E-003;-9.868486085906625E-005;
2.424000000000000E+009;1.627029478549957E-001;-8.738131076097488E-002;3.330191597342491E-003;-2.232963743153960E-004;
2.424166666666667E+009;1.628550142049789E-001;-8.899009227752686E-002;3.357834415510297E-003;-2.087493630824611E-004;
2.424333333333334E+009;1.630230098962784E-001;-9.066186100244522E-002;3.183340886607766E-003;-2.134716341970488E-004;
2.424500000000000E+009;1.634042859077454E-001;-9.225266426801682E-002;3.126518568024039E-003;-2.492390631232411E-004;
2.424666666666667E+009;1.637038737535477E-001;-9.347457438707352E-002;3.166657872498035E-003;-4.509896680247039E-004;
2.424833333333334E+009;1.642544865608215E-001;-9.485621750354767E-002;3.096669446676970E-003;-5.378739442676306E-004;
2.425000000000000E+009;1.646127700805664E-001;-9.601656347513199E-002;3.198674414306879E-003;-5.397685454227030E-004;
2.425166666666667E+009;1.650281846523285E-001;-9.725011885166168E-002;3.120369510725141E-003;-7.053540321066976E-004;
2.425333333333334E+009;1.653385609388351E-001;-9.798828512430191E-002;2.880030311644077E-003;-7.945669931359589E-004;
2.425500000000000E+009;1.658521890640259E-001;-9.910250455141068E-002;2.981086028739810E-003;-8.171375375241041E-004;
2.425666666666667E+009;1.662303060293198E-001;-9.966674447059631E-002;2.927595516666770E-003;-8.749642292968929E-004;
2.425833333333334E+009;1.666117310523987E-001;-1.004839912056923E-001;2.954297931864858E-003;-8.915520738810301E-004;
2.426000000000000E+009;1.669634729623795E-001;-1.009508818387985E-001;2.605269895866513E-003;-9.492777171544731E-004;
2.426166666666667E+009;1.674364507198334E-001;-1.015105545520783E-001;2.529581310227513E-003;-1.089487574063242E-003;
2.426333333333334E+009;1.674868613481522E-001;-1.019108369946480E-001;2.577891573309898E-003;-9.716828353703022E-004;
2.426500000000000E+009;1.678848266601563E-001;-1.021738201379776E-001;2.505451440811157E-003;-1.066667959094048E-003;
2.426666666666667E+009;1.682682484388351E-001;-1.024593710899353E-001;2.431036904454231E-003;-9.914244292303920E-004;
2.426833333333334E+009;1.684490293264389E-001;-1.027407944202423E-001;2.442034427076578E-003;-7.822784245945513E-004;
2.427000000000000E+009;1.684406250715256E-001;-1.029770299792290E-001;2.267079893499613E-003;-9.199708583764732E-004;
2.427166666666667E+009;1.684862226247788E-001;-1.029757112264633E-001;2.255208324640989E-003;-8.717129821889103E-004;
2.427333333333334E+009;1.684175282716751E-001;-1.031802371144295E-001;2.425677841529250E-003;-1.016719383187592E-003;
2.427500000000000E+009;1.681284606456757E-001;-1.033417284488678E-001;2.312008524313569E-003;-1.074879779480398E-003;
2.427666666666667E+009;1.678749769926071E-001;-1.033622100949287E-001;2.143936697393656E-003;-1.027654390782118E-003;
2.427833333333334E+009;1.674207895994186E-001;-1.034803614020348E-001;2.324599539861083E-003;-9.692296735011041E-004;
