# Version 1.00
#
freq[Hz];re:Trc1_S11;im:Trc1_S11;re:Trc2_S21;im:Trc2_S21;
2.400000000000000E+009;1.557224690914154E-001;1.071501299738884E-001;-2.436466282233596E-003;-4.935892764478922E-003;
2.400166666666667E+009;1.555355787277222E-001;1.047781333327293E-001;-2.568480791524053E-003;-5.035612732172012E-003;
2.400333333333334E+009;1.554766148328781E-001;1.023218482732773E-001;-2.635212847962976E-003;-4.995254799723625E-003;
2.400500000000000E+009;1.553391665220261E-001;9.949330985546112E-002;-2.954538911581039E-003;-5.063433200120926E-003;
2.400666666666667E+009;1.552845388650894E-001;9.701758623123169E-002;-3.142052097246051E-003;-4.990624263882637E-003;
2.400833333333334E+009;1.554423719644547E-001;9.396453946828842E-002;-3.297030227258802E-003;-4.869566764682531E-003;
2.401000000000000E+009;1.556233465671539E-001;9.124035388231278E-002;-3.455396974459291E-003;-5.046461243182421E-003;
2.401166666666667E+009;1.556093245744705E-001;8.845119178295136E-002;-3.585607977584004E-003;-4.874661564826965E-003;
2.401333333333334E+009;1.560287326574326E-001;8.559323102235794E-002;-3.777020610868931E-003;-4.737365525215864E-003;
2.401500000000000E+009;1.563982665538788E-001;8.270824700593948E-002;-4.004826769232750E-003;-4.686654079705477E-003;
2.401666666666667E+009;1.568282693624497E-001;7.968248426914215E-002;-4.059354774653912E-003;-4.743820056319237E-003;
2.401833333333334E+009;1.573705524206162E-001;7.692289352416992E-002;-4.356881137937307E-003;-4.564084112644196E-003;
2.402000000000000E+009;1.581163704395294E-001;7.415140420198441E-002;-4.577585961669684E-003;-4.541923291981220E-003;
2.402166666666667E+009;1.590139716863632E-001;7.166798412799835E-002;-4.817166365683079E-003;-4.374602809548378E-003;
2.402333333333334E+009;1.598577648401260E-001;6.881094723939896E-002;-4.918673075735569E-003;-4.332562908530235E-003;
2.402500000000000E+009;1.610510200262070E-001;6.634806841611862E-002;-5.176594015210867E-003;-4.152564331889153E-003;
2.402666666666667E+009;1.621844470500946E-001;6.405419111251831E-002;-5.504830274730921E-003;-4.064349923282862E-003;
2.402833333333334E+009;1.634433567523956E-001;6.146288663148880E-002;-5.732535384595394E-003;-3.697662381455302E-003;
2.403000000000000E+009;1.648993492126465E-001;5.908345803618431E-002;-5.913348868489265E-003;-3.668499179184437E-003;
2.403166666666667E+009;1.665782630443573E-001;5.681810528039932E-002;-6.050116848200560E-003;-3.451586235314608E-003;
2.403333333333334E+009;1.680265814065933E-001;5.469533428549767E-002;-6.329699419438839E-003;-3.041930031031370E-003;
2.403500000000000E+009;1.698042303323746E-001;5.250952765345573E-002;-6.520641967654228E-003;-2.985989907756448E-003;
2.403666666666667E+009;1.714315265417099E-001;5.066176503896713E-002;-6.598197389394045E-003;-2.437605755403638E-003;
2.403833333333334E+009;1.731931865215302E-001;4.881336539983749E-002;-6.662971340119839E-003;-2.225055824965239E-003;
2.404000000000000E+009;1.747265458106995E-001;4.693476483225822E-002;-6.679045036435127E-003;-1.768991583958268E-003;
2.404166666666667E+009;1.766616255044937E-001;4.537184163928032E-002;-6.818453315645456E-003;-1.608836464583874E-003;
2.404333333333334E+009;1.780939400196075E-001;4.399452358484268E-002;-7.028835825622082E-003;-1.194815034978092E-003;
2.404500000000000E+009;1.797792762517929E-001;4.226561263203621E-002;-6.883946713060141E-003;-9.777672821655870E-004;
2.404666666666667E+009;1.814823597669601E-001;4.147732257843018E-002;-6.869210395962000E-003;-6.185557576827705E-004;
2.404833333333334E+009;1.832019090652466E-001;4.021502286195755E-002;-6.621123757213354E-003;-2.297053579241037E-004;
2.405000000000000E+009;1.845254451036453E-001;3.955022990703583E-002;-6.892704404890537E-003;-2.447454971843399E-005;
2.405166666666667E+009;1.859335005283356E-001;3.887252882122994E-002;-6.847552489489317E-003;1.945656986208633E-004;
2.405333333333334E+009;1.873778551816940E-001;3.854792565107346E-002;-6.920095067471266E-003;4.551589081529528E-004;
2.405500000000000E+009;1.886310428380966E-001;3.800941258668900E-002;-6.648349575698376E-003;7.301443256437779E-004;
2.405666666666667E+009;1.899988502264023E-001;3.755000233650208E-002;-6.632725708186626E-003;7.880385383032262E-004;
2.405833333333334E+009;1.912468820810318E-001;3.733870014548302E-002;-6.364549044519663E-003;1.058260560967028E-003;
2.406000000000000E+009;1.922797262668610E-001;3.731347247958183E-002;-6.640619598329067E-003;1.493204385042191E-003;
2.406166666666667E+009;1.931708306074143E-001;3.713646531105042E-002;-6.403368897736073E-003;1.668491167947650E-003;
2.406333333333334E+009;1.941665560007095E-001;3.713743761181831E-002;-6.241002120077610E-003;2.006859052926302E-003;
2.406500000000000E+009;1.947454661130905E-001;3.709518164396286E-002;-6.294570397585630E-003;2.102209255099297E-003;
2.406666666666667E+009;1.953746676445007E-001;3.730916604399681E-002;-6.087666843086481E-003;2.368342597037554E-003;
2.406833333333334E+009;1.958437561988831E-001;3.727203980088234E-002;-5.904231220483780E-003;2.555938903242350E-003;
2.407000000000000E+009;1.963307112455368E-001;3.749580681324005E-002;-5.663335323333740E-003;2.821401460096240E-003;
2.407166666666667E+009;1.965253055095673E-001;3.740676119923592E-002;-5.609847139567137E-003;3.024128265678883E-003;
2.407333333333334E+009;1.965244859457016E-001;3.762664645910263E-002;-5.339283496141434E-003;3.265796462073922E-003;
2.407500000000000E+009;1.964622884988785E-001;3.767062351107597E-002;-5.210146307945252E-003;3.368555568158627E-003;
2.407666666666667E+009;1.964941322803497E-001;3.763100504875183E-002;-5.148929543793201E-003;3.571021370589733E-003;
2.407833333333334E+009;1.959462165832520E-001;3.750162199139595E-002;-4.806413315236569E-003;3.660748945549130E-003;
2.408000000000000E+009;1.958224624395371E-001;3.740704804658890E-002;-4.690598230808973E-003;3.740681335330010E-003;
2.408166666666667E+009;1.952775716781616E-001;3.716626018285751E-002;-4.410023801028729E-003;3.893008222803474E-003;
2.408333333333334E+009;1.948716789484024E-001;3.654802963137627E-002;-4.292379599064589E-003;3.947192803025246E-003;
2.408500000000000E+009;1.940619945526123E-001;3.643900901079178E-002;-3.994270227849484E-003;4.047557245939970E-003;
2.408666666666667E+009;1.934532225131989E-001;3.585835173726082E-002;-3.801287384703755E-003;4.148939158767462E-003;
2.408833333333334E+009;1.927261650562286E-001;3.513653203845024E-002;-3.551555098965764E-003;4.096175543963909E-003;
2.409000000000000E+009;1.917285472154617E-001;3.427281230688095E-002;-3.414492588490248E-003;4.269312601536512E-003;
2.409166666666667E+009;1.907776743173599E-001;3.335333615541458E-002;-3.215295495465398E-003;4.307623486965895E-003;
2.409333333333334E+009;1.897636950016022E-001;3.229995071887970E-002;-3.015279537066817E-003;4.459649790078402E-003;
2.409500000000000E+009;1.886775195598602E-001;3.094493597745895E-002;-2.826961455866695E-003;4.318098071962595E-003;
2.409666666666667E+009;1.876034289598465E-001;2.977466210722923E-002;-2.656464697793126E-003;4.315569531172514E-003;
2.409833333333334E+009;1.865479499101639E-001;2.812683396041393E-002;-2.590587828308344E-003;4.315334837883711E-003;
2.410000000000000E+009;1.856378465890884E-001;2.667286247014999E-002;-2.446647500619292E-003;4.164410289376974E-003;
2.410166666666667E+009;1.844786852598190E-001;2.452492713928223E-002;-2.162950579077005E-003;4.350363276898861E-003;
2.410333333333334E+009;1.836909800767899E-001;2.292006649076939E-002;-2.126228529959917E-003;4.289200063794851E-003;
2.410500000000000E+009;1.824322938919067E-001;2.106509730219841E-002;-1.968367025256157E-003;4.203326534479857E-003;
2.410666666666667E+009;1.816679239273071E-001;1.866616867482662E-002;-1.807084772735834E-003;4.218277987092733E-003;
2.410833333333334E+009;1.808994710445404E-001;1.651508919894695E-002;-1.903952332213521E-003;4.155611619353294E-003;
2.411000000000000E+009;1.802031099796295E-001;1.434411667287350E-002;-1.698764157481492E-003;4.228783771395683E-003;
2.411166666666667E+009;1.794270724058151E-001;1.206652354449034E-002;-1.490248949266970E-003;4.070237278938294E-003;
2.411333333333334E+009;1.789582520723343E-001;9.539524093270302E-003;-1.301058451645076E-003;4.121394362300634E-003;
2.411500000000000E+009;1.784201115369797E-001;7.173389196395874E-003;-1.188565511256456E-003;4.207150544971228E-003;
2.411666666666667E+009;1.784292459487915E-001;4.826340824365616E-003;-1.229102257639170E-003;4.044283647090197E-003;
2.411833333333334E+009;1.779382377862930E-001;2.355861244723201E-003;-9.182171197608113E-004;4.044457338750362E-003;
2.412000000000000E+009;1.780886650085449E-001;-2.676920848898590E-004;-8.356146281585097E-004;3.870181040838361E-003;
2.412166666666667E+009;1.780339628458023E-001;-2.500204136595130E-003;-8.072542841546238E-004;3.816791577264667E-003;
2.412333333333334E+009;1.783693581819534E-001;-5.041926633566618E-003;-8.700588950887322E-004;3.870923072099686E-003;
2.412500000000000E+009;1.788289546966553E-001;-7.579842116683722E-003;-6.860510911792517E-004;3.655232023447752E-003;
2.412666666666667E+009;1.792216449975967E-001;-1.002230402082205E-002;-6.362897693179548E-004;3.732707584276795E-003;
2.412833333333334E+009;1.800107359886169E-001;-1.228758413344622E-002;-5.116573884151876E-004;3.531808499246836E-003;
2.413000000000000E+009;1.807368695735931E-001;-1.465929206460714E-002;-7.217443780973554E-004;3.505496075376868E-003;
2.413166666666667E+009;1.815818846225739E-001;-1.701378449797630E-002;-5.666134529747069E-004;3.322058357298374E-003;
2.413333333333334E+009;1.825777590274811E-001;-1.930421404540539E-002;-5.425957497209311E-004;3.606297541409731E-003;
2.413500000000000E+009;1.833328455686569E-001;-2.162256278097630E-002;-6.966332439333201E-004;3.494063392281532E-003;
2.413666666666667E+009;1.845831125974655E-001;-2.373670414090157E-002;-5.797112826257944E-004;3.609969513490796E-003;
2.413833333333334E+009;1.854810267686844E-001;-2.562998421490192E-002;-5.276185111142695E-004;3.601439297199249E-003;
2.414000000000000E+009;1.868113130331039E-001;-2.766802720725536E-002;-4.126946441829205E-004;3.729487536475062E-003;
2.414166666666667E+009;1.880368739366531E-001;-2.953464724123478E-002;-3.411713987588882E-004;3.761443542316556E-003;
2.414333333333334E+009;1.891974806785584E-001;-3.141639381647110E-002;-1.268860069103539E-004;3.808525158092380E-003;
2.414500000000000E+009;1.903854012489319E-001;-3.292258456349373E-002;-1.677170985203702E-005;3.804782638326287E-003;
2.414666666666667E+009;1.915805935859680E-001;-3.439074754714966E-002;3.971734986407682E-005;3.806200809776783E-003;
2.414833333333334E+009;1.927318423986435E-001;-3.572358936071396E-002;1.468865521019325E-004;3.947192803025246E-003;
2.415000000000000E+009;1.939287036657333E-001;-3.704873844981194E-002;3.906612109858543E-004;3.810844151303172E-003;
2.415166666666667E+009;1.951357573270798E-001;-3.800297155976296E-002;4.472561122383922E-004;3.564335405826569E-003;
2.415333333333334E+009;1.962629854679108E-001;-3.898566961288452E-002;4.066588007844985E-004;3.604307537898421E-003;
2.415500000000000E+009;1.973377615213394E-001;-3.964463248848915E-002;6.545030046254396E-004;3.523481544107199E-003;
2.415666666666667E+009;1.985247731208801E-001;-4.049714282155037E-002;6.034788093529642E-004;3.423706628382206E-003;
2.415833333333334E+009;1.993115544319153E-001;-4.104431718587875E-002;6.892113597132266E-004;3.349522128701210E-003;
2.416000000000000E+009;2.001231610774994E-001;-4.152085632085800E-002;6.448134081438184E-004;3.370238468050957E-003;
2.416166666666667E+009;2.008360773324966E-001;-4.211895540356636E-002;5.898078088648617E-004;3.285566577687860E-003;
2.416333333333334E+009;2.014783173799515E-001;-4.239547625184059E-002;5.931302439421415E-004;3.286029910668731E-003;
2.416500000000000E+009;2.019983381032944E-001;-4.248348623514175E-002;6.512968102470040E-004;3.332315245643258E-003;
2.416666666666667E+009;2.023485004901886E-001;-4.279540106654167E-002;8.036042563617230E-004;3.464573994278908E-003;
2.416833333333334E+009;2.024927735328674E-001;-4.284135252237320E-002;7.087725098244846E-004;3.569961758330464E-003;
2.417000000000000E+009;2.026794552803040E-001;-4.305286332964897E-002;8.107750909402967E-004;3.500891383737326E-003;
2.417166666666667E+009;2.023816406726837E-001;-4.288974404335022E-002;7.618102827109397E-004;3.691492835059762E-003;
2.417333333333334E+009;2.021617889404297E-001;-4.265413433313370E-002;9.439581190235913E-004;3.716707462444902E-003;
2.417500000000000E+009;2.018668353557587E-001;-4.264601320028305E-002;1.210670452564955E-003;3.646294353529811E-003;
2.417666666666667E+009;2.014339864253998E-001;-4.241320490837097E-002;1.144338399171829E-003;3.685646690428257E-003;
2.417833333333334E+009;2.009510844945908E-001;-4.226450249552727E-002;1.378322485834360E-003;3.696948522701860E-003;
2.418000000000000E+009;2.003210335969925E-001;-4.195576533675194E-002;1.516788033768535E-003;3.819100558757782E-003;
2.418166666666667E+009;1.995507925748825E-001;-4.183013737201691E-002;1.643390394747257E-003;3.751461859792471E-003;
2.418333333333334E+009;1.985972672700882E-001;-4.180805012583733E-002;1.807381166145206E-003;3.754871198907495E-003;
2.418500000000000E+009;1.976074874401093E-001;-4.175930470228195E-002;1.985206268727779E-003;3.754672128707171E-003;
2.418666666666667E+009;1.966355293989182E-001;-4.169743880629540E-002;2.244980772957206E-003;3.720166627317667E-003;
2.418833333333334E+009;1.954360902309418E-001;-4.182671755552292E-002;2.313657198101282E-003;3.606548067182303E-003;
2.419000000000000E+009;1.941233575344086E-001;-4.193064197897911E-002;2.445899881422520E-003;3.509942209348083E-003;
2.419166666666667E+009;1.927372962236404E-001;-4.224910214543343E-002;2.603424014523625E-003;3.411799902096391E-003;
2.419333333333334E+009;1.914026737213135E-001;-4.271446540951729E-002;2.700062468647957E-003;3.421884030103684E-003;
2.419500000000000E+009;1.899208873510361E-001;-4.310571029782295E-002;2.791916253045201E-003;3.397136926651001E-003;
2.419666666666667E+009;1.882886737585068E-001;-4.396370053291321E-002;3.072951221838594E-003;3.144660033285618E-003;
2.419833333333334E+009;1.865917444229126E-001;-4.468397423624992E-002;3.177563194185495E-003;3.027781378477812E-003;
2.420000000000000E+009;1.850985586643219E-001;-4.554958269000053E-002;3.253514412790537E-003;2.968696178868413E-003;
2.420166666666667E+009;1.835652887821198E-001;-4.654032737016678E-002;3.306737402454019E-003;2.800063928589225E-003;
2.420333333333334E+009;1.819262802600861E-001;-4.762603342533112E-002;3.420451888814569E-003;2.694201190024614E-003;
2.420500000000000E+009;1.799469590187073E-001;-4.907447472214699E-002;3.530974499881268E-003;2.670905087143183E-003;
2.420666666666667E+009;1.784913390874863E-001;-5.018194019794464E-002;3.548751585185528E-003;2.446213271468878E-003;
2.420833333333334E+009;1.767553985118866E-001;-5.158128961920738E-002;3.729818621650338E-003;2.319232095032930E-003;
2.421000000000000E+009;1.754937916994095E-001;-5.319400876760483E-002;3.684915602207184E-003;2.138715004548430E-003;
2.421166666666667E+009;1.739193797111511E-001;-5.494154617190361E-002;3.772260621190071E-003;2.019729698076844E-003;
2.421333333333334E+009;1.722880750894547E-001;-5.635329335927963E-002;3.802591934800148E-003;1.762278494425118E-003;
2.421500000000000E+009;1.710739284753799E-001;-5.852162465453148E-002;3.849621629342437E-003;1.768225687555969E-003;
2.421666666666667E+009;1.698368340730667E-001;-6.030697375535965E-002;3.847714047878981E-003;1.510390662588179E-003;
2.421833333333334E+009;1.686351299285889E-001;-6.201627105474472E-002;3.779461607336998E-003;1.473926939070225E-003;
2.422000000000000E+009;1.675850898027420E-001;-6.397730112075806E-002;3.948444966226816E-003;1.128167496062815E-003;
2.422166666666667E+009;1.668318361043930E-001;-6.604643166065216E-002;3.782292362302542E-003;1.077806809917092E-003;
2.422333333333334E+009;1.656130403280258E-001;-6.829686462879181E-002;3.741048742085695E-003;9.640140342526138E-004;
2.422500000000000E+009;1.650289148092270E-001;-7.005158811807632E-002;3.779503749683499E-003;7.533709867857397E-004;
2.422666666666667E+009;1.642459630966187E-001;-7.221177220344544E-002;3.692330326884985E-003;6.075354758650065E-004;
2.422833333333334E+009;1.638605147600174E-001;-7.424284517765045E-002;3.716431092470884E-003;6.088193622417748E-004;
2.423000000000000E+009;1.632401347160339E-001;-7.645709812641144E-002;3.713408019393683E-003;2.733600267674774E-004;
2.423166666666667E+009;1.629462242126465E-001;-7.816807180643082E-002;3.582162316888571E-003;1.690491189947352E-004;
2.423333333333334E+009;1.627407371997833E-001;-8.033699542284012E-002;3.539684228599072E-003;6.888931966386735E-005;
2.423500000000000E+009;1.625581085681915E-001;-8.206350356340408E-002;3.487879876047373E-003;8.223048644140363E-005;
2.423666666666667E+009;1.626511812210083E-001;-8.401486277580261E-002;3.323632758110762E-003;-6.928772199898958E-005;
2.423833333333334E+009;1.626258194446564E-001;-8.587324619293213E-002;3.281001234427095E-003;-3.131862104055472E-005;
2.424000000000000E+009;1.627902686595917E-001;-8.756158500909805E-002;3.297541057690978E-003;-2.861904504243285E-004;
2.424166666666667E+009;1.628794521093369E-001;-8.916769921779633E-002;3.104203613474965E-003;-2.427504223305732E-004;
2.424333333333334E+009;1.630143076181412E-001;-9.072250872850418E-002;3.178582061082125E-003;-2.700687036849558E-004;
2.424500000000000E+009;1.634035557508469E-001;-9.244715422391892E-002;3.178493352606893E-003;-4.501143703237176E-004;
2.424666666666667E+009;1.636372357606888E-001;-9.378894418478012E-002;3.352010156959295E-003;-3.208217676728964E-004;
2.424833333333334E+009;1.642216145992279E-001;-9.505400806665421E-002;3.112692153081298E-003;-4.561714886222035E-004;
2.425000000000000E+009;1.645576357841492E-001;-9.631280601024628E-002;3.061489667743444E-003;-4.084839893039316E-004;
2.425166666666667E+009;1.649047732353210E-001;-9.732826799154282E-002;2.908989554271102E-003;-6.101456820033491E-004;
2.425333333333334E+009;1.652349978685379E-001;-9.832514077425003E-002;2.880954416468740E-003;-6.247509154491127E-004;
2.425500000000000E+009;1.657636463642120E-001;-9.921556711196899E-002;2.845678711310029E-003;-6.735739298164845E-004;
2.425666666666667E+009;1.660827100276947E-001;-9.991312772035599E-002;2.857726998627186E-003;-7.217238890007138E-004;
2.425833333333334E+009;1.664814352989197E-001;-1.007835119962692E-001;2.646612003445625E-003;-1.034584827721119E-003;
2.426000000000000E+009;1.668948233127594E-001;-1.011881828308106E-001;2.655095886439085E-003;-1.017946284264326E-003;
2.426166666666667E+009;1.672276109457016E-001;-1.016567572951317E-001;2.546014031395316E-003;-9.615619783289731E-004;
2.426333333333334E+009;1.673361808061600E-001;-1.021357476711273E-001;2.536136656999588E-003;-1.009045285172761E-003;
2.426500000000000E+009;1.678076088428497E-001;-1.023647412657738E-001;2.484337193891406E-003;-9.962208569049835E-004;
2.426666666666667E+009;1.680775284767151E-001;-1.026638150215149E-001;2.361248014494777E-003;-8.726515225134790E-004;
2.426833333333334E+009;1.682607978582382E-001;-1.028682366013527E-001;2.459004288539290E-003;-1.032648491673172E-003;
2.427000000000000E+009;1.682915240526199E-001;-1.031816974282265E-001;2.352138981223106E-003;-1.015662681311369E-003;
2.427166666666667E+009;1.682984530925751E-001;-1.031624525785446E-001;2.404861385002732E-003;-8.991113281808794E-004;
2.427333333333334E+009;1.682326793670654E-001;-1.033667400479317E-001;2.293486148118973E-003;-1.081169932149351E-003;
2.427500000000000E+009;1.679580211639404E-001;-1.034882664680481E-001;2.257186220958829E-003;-1.079591573216021E-003;
2.427666666666667E+009;1.676812767982483E-001;-1.035150289535523E-001;2.342041581869125E-003;-1.113559235818684E-003;
2.427833333333334E+009;1.672410964965820E-001;-1.036287099123001E-001;2.236694330349565E-003;-1.142944674938917E-003;
