# Version 1.00
#
freq[Hz];re:Trc1_S11;im:Trc1_S11;re:Trc2_S21;im:Trc2_S21;
2.400000000000000E+009;1.558675169944763E-001;1.072255969047546E-001;-2.338668098673224E-003;-4.928270354866982E-003;
2.400166666666667E+009;1.554533392190933E-001;1.046659350395203E-001;-2.544855000451207E-003;-4.955432377755642E-003;
2.400333333333334E+009;1.555067449808121E-001;1.024247705936432E-001;-2.767809666693211E-003;-4.999471828341484E-003;
2.400500000000000E+009;1.554876416921616E-001;9.957530349493027E-002;-2.618292579427362E-003;-5.101515911519527E-003;
2.400666666666667E+009;1.555240750312805E-001;9.699749201536179E-002;-2.965966239571571E-003;-5.001335404813290E-003;
2.400833333333334E+009;1.555605679750443E-001;9.402290731668472E-002;-3.318146802484989E-003;-5.001218989491463E-003;
2.401000000000000E+009;1.556938290596008E-001;9.121469408273697E-002;-3.369429614394903E-003;-4.900931846350431E-003;
2.401166666666667E+009;1.558710038661957E-001;8.838737010955811E-002;-3.463393775746226E-003;-4.773929715156555E-003;
2.401333333333334E+009;1.560409516096115E-001;8.565717935562134E-002;-3.617124399170280E-003;-4.828862845897675E-003;
2.401500000000000E+009;1.566657423973084E-001;8.262611180543900E-002;-3.894072026014328E-003;-4.746785853058100E-003;
2.401666666666667E+009;1.569668203592300E-001;7.984717935323715E-002;-4.181405995041132E-003;-4.705015569925308E-003;
2.401833333333334E+009;1.574057340621948E-001;7.709268480539322E-002;-4.394607618451119E-003;-4.618226084858179E-003;
2.402000000000000E+009;1.582797020673752E-001;7.421991974115372E-002;-4.573252517729998E-003;-4.681700374931097E-003;
2.402166666666667E+009;1.590164750814438E-001;7.142041623592377E-002;-4.754003603011370E-003;-4.341253545135260E-003;
2.402333333333334E+009;1.600746214389801E-001;6.876500695943832E-002;-4.827584605664015E-003;-4.240231588482857E-003;
2.402500000000000E+009;1.610687673091888E-001;6.638220697641373E-002;-5.133139900863171E-003;-4.107021261006594E-003;
2.402666666666667E+009;1.622610837221146E-001;6.392769515514374E-002;-5.359915085136890E-003;-4.128964152187109E-003;
2.402833333333334E+009;1.635344773530960E-001;6.136551871895790E-002;-5.497176200151444E-003;-3.694626502692699E-003;
2.403000000000000E+009;1.650364249944687E-001;5.904495343565941E-002;-5.929617211222649E-003;-3.755201585590839E-003;
2.403166666666667E+009;1.666822731494904E-001;5.695239454507828E-002;-5.957093555480242E-003;-3.365344600751996E-003;
2.403333333333334E+009;1.682363003492355E-001;5.462730303406715E-002;-6.243420764803886E-003;-3.126062685623765E-003;
2.403500000000000E+009;1.699350625276566E-001;5.264009907841682E-002;-6.499574054032564E-003;-2.860605716705322E-003;
2.403666666666667E+009;1.714205443859100E-001;5.048994347453117E-002;-6.578021217137575E-003;-2.562117995694280E-003;
2.403833333333334E+009;1.733035594224930E-001;4.872355610132217E-002;-6.693804636597633E-003;-2.249421784654260E-003;
2.404000000000000E+009;1.746370792388916E-001;4.701146483421326E-002;-6.794050335884094E-003;-1.935436157509685E-003;
2.404166666666667E+009;1.764371991157532E-001;4.536942392587662E-002;-6.673928815871477E-003;-1.574367866851389E-003;
2.404333333333334E+009;1.780411005020142E-001;4.406195506453514E-002;-6.815759465098381E-003;-1.237620366737247E-003;
2.404500000000000E+009;1.798845082521439E-001;4.250220581889153E-002;-6.921573076397181E-003;-1.085163210518658E-003;
2.404666666666667E+009;1.813670694828033E-001;4.145921394228935E-002;-6.768975872546434E-003;-7.585884304717183E-004;
2.404833333333334E+009;1.829556524753571E-001;4.026598855853081E-002;-6.853491067886353E-003;-2.877454098779708E-004;
2.405000000000000E+009;1.844801604747772E-001;3.959175199270248E-002;-6.765922997146845E-003;-2.035071374848485E-004;
2.405166666666667E+009;1.859410405158997E-001;3.889440372586250E-002;-6.721522659063339E-003;-7.149249995563878E-006;
2.405333333333334E+009;1.873203963041306E-001;3.835721313953400E-002;-6.640631239861250E-003;3.411197976674885E-004;
2.405500000000000E+009;1.888457834720612E-001;3.792529553174973E-002;-6.831709761172533E-003;7.130856392905116E-004;
2.405666666666667E+009;1.898636519908905E-001;3.768294677138329E-002;-6.633732467889786E-003;7.787462673150003E-004;
2.405833333333334E+009;1.912299543619156E-001;3.729730844497681E-002;-6.608961150050163E-003;1.061116112396121E-003;
2.406000000000000E+009;1.921698898077011E-001;3.724483773112297E-002;-6.483165547251701E-003;1.351973158307374E-003;
2.406166666666667E+009;1.932266801595688E-001;3.700647503137589E-002;-6.391954608261585E-003;1.667412579990923E-003;
2.406333333333334E+009;1.940887272357941E-001;3.702766820788384E-002;-6.271015387028456E-003;1.874312409199774E-003;
2.406500000000000E+009;1.948511451482773E-001;3.719556704163551E-002;-6.150924134999514E-003;2.188161015510559E-003;
2.406666666666667E+009;1.955280154943466E-001;3.717761114239693E-002;-6.104463711380959E-003;2.397878328338265E-003;
2.406833333333334E+009;1.959979236125946E-001;3.728302568197250E-002;-5.877195857465267E-003;2.424929058179259E-003;
2.407000000000000E+009;1.961839199066162E-001;3.745203837752342E-002;-5.717198830097914E-003;2.707646926864982E-003;
2.407166666666667E+009;1.965835392475128E-001;3.746202215552330E-002;-5.633382126688957E-003;3.014009678736329E-003;
2.407333333333334E+009;1.964675486087799E-001;3.749358654022217E-002;-5.433728918433189E-003;3.086076350882649E-003;
2.407500000000000E+009;1.965199112892151E-001;3.764215856790543E-002;-5.419439636170864E-003;3.337159985676408E-003;
2.407666666666667E+009;1.964826434850693E-001;3.753733262419701E-002;-5.006114952266216E-003;3.457855898886919E-003;
2.407833333333334E+009;1.959496140480042E-001;3.761865943670273E-002;-4.787161946296692E-003;3.603066783398390E-003;
2.408000000000000E+009;1.958824247121811E-001;3.735115006566048E-002;-4.661803133785725E-003;3.675010288134217E-003;
2.408166666666667E+009;1.952804774045944E-001;3.707509860396385E-002;-4.399380646646023E-003;3.785651177167893E-003;
2.408333333333334E+009;1.947916299104691E-001;3.655325248837471E-002;-4.224274307489395E-003;3.957619424909353E-003;
2.408500000000000E+009;1.940872967243195E-001;3.640007972717285E-002;-4.133767448365688E-003;4.057794809341431E-003;
2.408666666666667E+009;1.933768540620804E-001;3.581252694129944E-002;-4.080265760421753E-003;4.085157066583633E-003;
2.408833333333334E+009;1.927060335874558E-001;3.497675433754921E-002;-3.692904952913523E-003;4.229680169373751E-003;
2.409000000000000E+009;1.916919052600861E-001;3.424277901649475E-002;-3.371090395376086E-003;4.216957371681929E-003;
2.409166666666667E+009;1.908525973558426E-001;3.318981453776360E-002;-3.339913440868259E-003;4.188126884400845E-003;
2.409333333333334E+009;1.898075193166733E-001;3.213356435298920E-002;-3.212765790522099E-003;4.287100397050381E-003;
2.409500000000000E+009;1.886587589979172E-001;3.098595887422562E-002;-2.810806035995483E-003;4.193686880171299E-003;
2.409666666666667E+009;1.876533180475235E-001;2.945041470229626E-002;-2.780151087790728E-003;4.336185753345490E-003;
2.409833333333334E+009;1.865828186273575E-001;2.809026651084423E-002;-2.618994098156691E-003;4.245936404913664E-003;
2.410000000000000E+009;1.853550076484680E-001;2.645969018340111E-002;-2.554768230766058E-003;4.310934338718653E-003;
2.410166666666667E+009;1.844848543405533E-001;2.452562749385834E-002;-2.355169272050262E-003;4.237602464854717E-003;
2.410333333333334E+009;1.835120767354965E-001;2.280821464955807E-002;-2.136885421350598E-003;4.252776503562927E-003;
2.410500000000000E+009;1.825609058141708E-001;2.080674096941948E-002;-1.899082795716822E-003;4.117663949728012E-003;
2.410666666666667E+009;1.814539432525635E-001;1.856487989425659E-002;-1.866284990683198E-003;4.287591204047203E-003;
2.410833333333334E+009;1.808400154113770E-001;1.644889824092388E-002;-1.732946140691638E-003;4.242562688887119E-003;
2.411000000000000E+009;1.801007837057114E-001;1.419731229543686E-002;-1.644461182877421E-003;4.087734036147595E-003;
2.411166666666667E+009;1.794049143791199E-001;1.189061440527439E-002;-1.623017014935613E-003;4.129384644329548E-003;
2.411333333333334E+009;1.789660155773163E-001;9.510969743132591E-003;-1.458081183955073E-003;4.149654414504767E-003;
2.411500000000000E+009;1.784593462944031E-001;7.230617571622133E-003;-1.245681429281831E-003;4.055835306644440E-003;
2.411666666666667E+009;1.782923340797424E-001;4.902411717921495E-003;-1.085788593627513E-003;4.123825114220381E-003;
2.411833333333334E+009;1.779545545578003E-001;2.467897953465581E-003;-9.467270574532449E-004;4.068571142852306E-003;
2.412000000000000E+009;1.780971288681030E-001;-1.877371250884607E-004;-9.081518510356545E-004;4.046835936605930E-003;
2.412166666666667E+009;1.781280785799027E-001;-2.561315428465605E-003;-7.039352785795927E-004;3.820210462436080E-003;
2.412333333333334E+009;1.783119589090347E-001;-4.965574946254492E-003;-6.887567578814924E-004;3.870231565088034E-003;
2.412500000000000E+009;1.788881272077560E-001;-7.418408524245024E-003;-5.222680629231036E-004;3.671564161777496E-003;
2.412666666666667E+009;1.791741102933884E-001;-9.873713366687298E-003;-6.626386311836541E-004;3.548317588865757E-003;
2.412833333333334E+009;1.799941509962082E-001;-1.228952873498201E-002;-6.186667014844716E-004;3.586414735764265E-003;
2.413000000000000E+009;1.806748658418655E-001;-1.474372670054436E-002;-5.554990493692458E-004;3.522216808050871E-003;
2.413166666666667E+009;1.815093308687210E-001;-1.679150760173798E-002;-6.289352313615382E-004;3.421426285058260E-003;
2.413333333333334E+009;1.824624091386795E-001;-1.926628127694130E-002;-6.672309827990830E-004;3.494143020361662E-003;
2.413500000000000E+009;1.834571063518524E-001;-2.150659821927548E-002;-6.332966149784625E-004;3.566207597032189E-003;
2.413666666666667E+009;1.845580339431763E-001;-2.364591136574745E-002;-5.639322916977108E-004;3.568968968465924E-003;
2.413833333333334E+009;1.856429427862167E-001;-2.572639286518097E-002;-5.323103978298605E-004;3.668839111924171E-003;
2.414000000000000E+009;1.867575496435165E-001;-2.755551226437092E-002;-4.964649560861290E-004;3.667131764814258E-003;
2.414166666666667E+009;1.881262511014938E-001;-2.939959987998009E-002;-3.197073529008776E-004;3.733271965757012E-003;
2.414333333333334E+009;1.891219764947891E-001;-3.143598139286041E-002;-1.914202875923365E-004;3.776561934500933E-003;
2.414500000000000E+009;1.903975456953049E-001;-3.293605148792267E-002;-1.690887584118173E-004;3.925151657313108E-003;
2.414666666666667E+009;1.915820688009262E-001;-3.427968919277191E-002;1.008399704005569E-004;3.797594225034118E-003;
2.414833333333334E+009;1.928880810737610E-001;-3.570808842778206E-002;1.845508086262271E-004;3.655056934803724E-003;
2.415000000000000E+009;1.939505189657211E-001;-3.705153241753578E-002;3.634130407590419E-004;3.704888978973031E-003;
2.415166666666667E+009;1.951979100704193E-001;-3.806962072849274E-002;4.264681483618915E-004;3.661595517769456E-003;
2.415333333333334E+009;1.961988210678101E-001;-3.902122750878334E-002;5.356007022783160E-004;3.465923480689526E-003;
2.415500000000000E+009;1.974466592073441E-001;-3.969030082225800E-002;5.411560996435583E-004;3.548991167917848E-003;
2.415666666666667E+009;1.984685957431793E-001;-4.049834609031677E-002;5.982537404634059E-004;3.475605510175228E-003;
2.415833333333334E+009;1.992856413125992E-001;-4.101710021495819E-002;6.427511107176542E-004;3.434625454246998E-003;
2.416000000000000E+009;2.000589519739151E-001;-4.156636074185371E-002;5.144855822436512E-004;3.488495945930481E-003;
2.416166666666667E+009;2.008008956909180E-001;-4.215207323431969E-002;6.567853270098567E-004;3.235762938857079E-003;
2.416333333333334E+009;2.014408558607101E-001;-4.228330031037331E-002;6.588732358068228E-004;3.357315668836236E-003;
2.416500000000000E+009;2.019828706979752E-001;-4.263523221015930E-002;6.032016244716942E-004;3.298207651823759E-003;
2.416666666666667E+009;2.022202163934708E-001;-4.293679445981979E-002;5.868050502613187E-004;3.480986692011356E-003;
2.416833333333334E+009;2.024850547313690E-001;-4.286061227321625E-002;7.453659782186151E-004;3.436380298808217E-003;
2.417000000000000E+009;2.025923728942871E-001;-4.312268644571304E-002;8.502925047650933E-004;3.551844507455826E-003;
2.417166666666667E+009;2.024057954549789E-001;-4.291514307260513E-002;7.866611704230309E-004;3.527545370161533E-003;
2.417333333333334E+009;2.022297680377960E-001;-4.261763766407967E-002;9.597409516572952E-004;3.602422308176756E-003;
2.417500000000000E+009;2.019084542989731E-001;-4.268956184387207E-002;1.173016731627286E-003;3.750601550564170E-003;
2.417666666666667E+009;2.013941109180450E-001;-4.237528145313263E-002;1.274427748285234E-003;3.814389230683446E-003;
2.417833333333334E+009;2.008581459522247E-001;-4.216918721795082E-002;1.285582431592047E-003;3.754101926460862E-003;
2.418000000000000E+009;2.002299427986145E-001;-4.191622138023377E-002;1.460477942600846E-003;3.853649599477649E-003;
2.418166666666667E+009;1.995041966438294E-001;-4.195810481905937E-002;1.540237572044134E-003;3.763423766940832E-003;
2.418333333333334E+009;1.985384225845337E-001;-4.157011955976486E-002;1.819645171053708E-003;3.782673273235560E-003;
2.418500000000000E+009;1.974975764751434E-001;-4.168213531374931E-002;1.976315630599856E-003;3.789558308199048E-003;
2.418666666666667E+009;1.965834945440292E-001;-4.162828996777535E-002;2.115963492542505E-003;3.655344480648637E-003;
2.418833333333334E+009;1.953302174806595E-001;-4.182614758610725E-002;2.245247829705477E-003;3.684798255562782E-003;
2.419000000000000E+009;1.939656585454941E-001;-4.196454584598541E-002;2.468988997861743E-003;3.553001210093498E-003;
2.419166666666667E+009;1.926001161336899E-001;-4.225370287895203E-002;2.547730691730976E-003;3.528445260599256E-003;
2.419333333333334E+009;1.914265900850296E-001;-4.270322248339653E-002;2.681867685168982E-003;3.490355564281344E-003;
2.419500000000000E+009;1.898335665464401E-001;-4.322531819343567E-002;2.977241994813085E-003;3.337334142997861E-003;
2.419666666666667E+009;1.882416605949402E-001;-4.386319965124130E-002;2.843200694769621E-003;3.302863799035549E-003;
2.419833333333334E+009;1.867140978574753E-001;-4.460194706916809E-002;3.022406483069062E-003;3.007667604833841E-003;
2.420000000000000E+009;1.850696802139282E-001;-4.548891633749008E-002;3.146360395476222E-003;3.032000735402107E-003;
2.420166666666667E+009;1.834755986928940E-001;-4.639021307229996E-002;3.267851890996099E-003;2.764513250440359E-003;
2.420333333333334E+009;1.818032860755920E-001;-4.762754216790199E-002;3.376411506906152E-003;2.745133358985186E-003;
2.420500000000000E+009;1.800523996353149E-001;-4.899209365248680E-002;3.486568108201027E-003;2.543045906350017E-003;
2.420666666666667E+009;1.784256994724274E-001;-5.008440837264061E-002;3.627933794632554E-003;2.507299184799194E-003;
2.420833333333334E+009;1.768440753221512E-001;-5.159889906644821E-002;3.591576358303428E-003;2.262155991047621E-003;
2.421000000000000E+009;1.753916740417481E-001;-5.317940190434456E-002;3.602812066674233E-003;1.990751596167684E-003;
2.421166666666667E+009;1.739504188299179E-001;-5.480727180838585E-002;3.678490873426199E-003;1.949162106029689E-003;
2.421333333333334E+009;1.721955835819244E-001;-5.636789649724960E-002;3.794956952333450E-003;1.769560622051358E-003;
2.421500000000000E+009;1.710470765829086E-001;-5.845595896244049E-002;3.729459596797824E-003;1.613899483345449E-003;
2.421666666666667E+009;1.696874648332596E-001;-5.991111695766449E-002;3.858958836644888E-003;1.431899028830230E-003;
2.421833333333334E+009;1.685626953840256E-001;-6.193123012781143E-002;3.834153758361936E-003;1.305861049331725E-003;
2.422000000000000E+009;1.675362437963486E-001;-6.397087126970291E-002;3.838495584204793E-003;1.312865060754120E-003;
2.422166666666667E+009;1.666941344738007E-001;-6.600420176982880E-002;3.884850535541773E-003;8.975904784165323E-004;
2.422333333333334E+009;1.657876521348953E-001;-6.810169667005539E-002;3.753364551812410E-003;9.030226501636207E-004;
2.422500000000000E+009;1.649419814348221E-001;-7.011582702398300E-002;3.642433090135455E-003;7.280466961674392E-004;
2.422666666666667E+009;1.641132086515427E-001;-7.215002179145813E-002;3.697570413351059E-003;7.494591409340501E-004;
2.422833333333334E+009;1.637843400239945E-001;-7.426653802394867E-002;3.873433219268918E-003;4.321689193602651E-004;
2.423000000000000E+009;1.632735878229141E-001;-7.634441554546356E-002;3.499299054965377E-003;3.625499084591866E-004;
2.423166666666667E+009;1.629506349563599E-001;-7.825209945440292E-002;3.417888190597296E-003;1.704101596260443E-004;
2.423333333333334E+009;1.626258939504623E-001;-8.038251847028732E-002;3.438428277149797E-003;2.010060561588034E-004;
2.423500000000000E+009;1.625797748565674E-001;-8.201353251934052E-002;3.513180185109377E-003;4.330684532760643E-005;
2.423666666666667E+009;1.627542972564697E-001;-8.401869237422943E-002;3.433043835684657E-003;3.728209412656725E-005;
2.423833333333334E+009;1.624327003955841E-001;-8.583161234855652E-002;3.285317448899150E-003;-7.388889935100451E-005;
2.424000000000000E+009;1.626879274845123E-001;-8.748838305473328E-002;3.198703285306692E-003;-2.760893548838794E-004;
2.424166666666667E+009;1.628467291593552E-001;-8.910340070724487E-002;3.145727794617415E-003;-1.790327369235456E-004;
2.424333333333334E+009;1.631091386079788E-001;-9.056430310010910E-002;3.192985197529197E-003;-2.551706274971366E-004;
2.424500000000000E+009;1.633043140172958E-001;-9.240437299013138E-002;3.196355421096087E-003;-1.673208607826382E-004;
2.424666666666667E+009;1.637061983346939E-001;-9.379817545413971E-002;3.167907707393169E-003;-3.541852638591081E-004;
2.424833333333334E+009;1.642502248287201E-001;-9.504497796297073E-002;3.052103798836470E-003;-3.974404826294631E-004;
2.425000000000000E+009;1.646220684051514E-001;-9.626343846321106E-002;3.001722972840071E-003;-5.669425008818507E-004;
2.425166666666667E+009;1.648871302604675E-001;-9.724814444780350E-002;2.993761096149683E-003;-5.931369960308075E-004;
2.425333333333334E+009;1.653392910957336E-001;-9.823885560035706E-002;3.028937149792910E-003;-8.524166187271476E-004;
2.425500000000000E+009;1.657623648643494E-001;-9.922615438699722E-002;2.857000567018986E-003;-9.443709277547896E-004;
2.425666666666667E+009;1.660706102848053E-001;-9.984675794839859E-002;2.807695185765624E-003;-9.121854091063142E-004;
2.425833333333334E+009;1.664769500494003E-001;-1.006920933723450E-001;2.638550009578466E-003;-8.650168892927468E-004;
2.426000000000000E+009;1.669384837150574E-001;-1.011106893420219E-001;2.605445217341185E-003;-9.359766845591366E-004;
2.426166666666667E+009;1.673107594251633E-001;-1.015901416540146E-001;2.512327395379543E-003;-9.364223806187511E-004;
2.426333333333334E+009;1.675105839967728E-001;-1.020218133926392E-001;2.462098142132163E-003;-1.007450278848410E-003;
2.426500000000000E+009;1.677345484495163E-001;-1.023642569780350E-001;2.386518521234393E-003;-1.048119273036718E-003;
2.426666666666667E+009;1.680531352758408E-001;-1.026283353567123E-001;2.274876227602363E-003;-9.274775511585176E-004;
2.426833333333334E+009;1.682771742343903E-001;-1.029013618826866E-001;2.352250972762704E-003;-9.482296300120652E-004;
2.427000000000000E+009;1.683369874954224E-001;-1.030581593513489E-001;2.289511961862445E-003;-9.029843495227397E-004;
2.427166666666667E+009;1.683239489793778E-001;-1.030976027250290E-001;2.309477888047695E-003;-9.969662642106414E-004;
2.427333333333334E+009;1.682501137256622E-001;-1.033577620983124E-001;2.252976875752211E-003;-1.098232227377594E-003;
2.427500000000000E+009;1.680376678705216E-001;-1.034387573599815E-001;2.149158855900168E-003;-1.042065210640431E-003;
2.427666666666667E+009;1.676564067602158E-001;-1.034090518951416E-001;2.339835744351149E-003;-1.054117688909173E-003;
2.427833333333334E+009;1.673143059015274E-001;-1.035508736968041E-001;2.246929332613945E-003;-1.094396575354040E-003;
