# Version 1.00
#
freq[Hz];re:Trc1_S11;im:Trc1_S11;re:Trc2_S21;im:Trc2_S21;
2.400000000000000E+009;1.605758219957352E-001;5.688203126192093E-002;3.849653527140617E-003;2.502099378034473E-003;
2.400166666666667E+009;1.607353091239929E-001;5.552331358194351E-002;4.043018911033869E-003;2.397597767412663E-003;
2.400333333333334E+009;1.606393754482269E-001;5.364824086427689E-002;3.986695315688849E-003;2.374505391344428E-003;
2.400500000000000E+009;1.609229147434235E-001;5.189555883407593E-002;4.077154211699963E-003;2.463868819177151E-003;
2.400666666666667E+009;1.610117256641388E-001;5.002550035715103E-002;4.296126309782267E-003;2.280930988490582E-003;
2.400833333333334E+009;1.613049954175949E-001;4.826145246624947E-002;4.384671803563833E-003;2.229397185146809E-003;
2.401000000000000E+009;1.614655107259750E-001;4.635480046272278E-002;4.589742980897427E-003;2.192016923800111E-003;
2.401166666666667E+009;1.617782711982727E-001;4.436331987380981E-002;4.645853769034147E-003;2.265610499307513E-003;
2.401333333333334E+009;1.620992124080658E-001;4.237815737724304E-002;4.767421167343855E-003;1.962226349860430E-003;
2.401500000000000E+009;1.623997092247009E-001;4.061350598931313E-002;5.008375737816095E-003;1.882669399492443E-003;
2.401666666666667E+009;1.627275794744492E-001;3.892920911312103E-002;5.078007467091084E-003;1.774075208231807E-003;
2.401833333333334E+009;1.631450504064560E-001;3.696347773075104E-002;5.137936677783728E-003;1.517246011644602E-003;
2.402000000000000E+009;1.634599417448044E-001;3.527694940567017E-002;5.290895234793425E-003;1.396470936015248E-003;
2.402166666666667E+009;1.639721244573593E-001;3.331992402672768E-002;5.353646352887154E-003;1.291917753405869E-003;
2.402333333333334E+009;1.645923405885696E-001;3.164529055356979E-002;5.593600682914257E-003;9.267911082133651E-004;
2.402500000000000E+009;1.651865690946579E-001;3.004115633666515E-002;5.404565483331680E-003;8.658645092509687E-004;
2.402666666666667E+009;1.658879667520523E-001;2.848329208791256E-002;5.669969599694014E-003;5.825618864037097E-004;
2.402833333333334E+009;1.665941029787064E-001;2.700096368789673E-002;5.550341214984655E-003;4.040663479827344E-004;
2.403000000000000E+009;1.669840365648270E-001;2.552721276879311E-002;5.615318659693003E-003;4.393025010358542E-004;
2.403166666666667E+009;1.678043156862259E-001;2.399840950965881E-002;5.662920419126749E-003;8.126688771881163E-005;
2.403333333333334E+009;1.687488704919815E-001;2.275888249278069E-002;5.585852079093456E-003;-2.341390500077978E-004;
2.403500000000000E+009;1.692387908697128E-001;2.146279439330101E-002;5.726155359297991E-003;-5.150230717845261E-004;
2.403666666666667E+009;1.698872447013855E-001;2.024460211396217E-002;5.495266057550907E-003;-6.036871927790344E-004;
2.403833333333334E+009;1.708481460809708E-001;1.907241903245449E-002;5.717795342206955E-003;-9.288150467909873E-004;
2.404000000000000E+009;1.714935600757599E-001;1.801048964262009E-002;5.548758897930384E-003;-1.164150889962912E-003;
2.404166666666667E+009;1.723450571298599E-001;1.700277067720890E-002;5.471300799399614E-003;-1.313404995016754E-003;
2.404333333333334E+009;1.727943718433380E-001;1.604941859841347E-002;5.423797760158777E-003;-1.560023869387806E-003;
2.404500000000000E+009;1.734586358070374E-001;1.515751145780087E-002;5.324909929186106E-003;-1.812968170270324E-003;
2.404666666666667E+009;1.741021722555161E-001;1.442109793424606E-002;5.251666996628046E-003;-2.068012487143278E-003;
2.404833333333334E+009;1.748559027910233E-001;1.357067003846169E-002;4.939625971019268E-003;-1.916858367621899E-003;
2.405000000000000E+009;1.753712594509125E-001;1.296158414334059E-002;4.925867542624474E-003;-2.272406592965126E-003;
2.405166666666667E+009;1.761106252670288E-001;1.233324687927961E-002;4.784024320542812E-003;-2.390126697719097E-003;
2.405333333333334E+009;1.764840334653854E-001;1.173733919858933E-002;4.675918258726597E-003;-2.448373707011342E-003;
2.405500000000000E+009;1.769841760396957E-001;1.113287545740604E-002;4.528217017650604E-003;-2.589920768514276E-003;
2.405666666666667E+009;1.774343401193619E-001;1.073922030627728E-002;4.322148393839598E-003;-2.753736451268196E-003;
2.405833333333334E+009;1.775972396135330E-001;1.029077265411615E-002;4.259976092725992E-003;-2.902936656028032E-003;
2.406000000000000E+009;1.781343221664429E-001;9.951555170118809E-003;4.205713048577309E-003;-2.873846562579274E-003;
2.406166666666667E+009;1.781197935342789E-001;9.733975864946842E-003;3.981797955930233E-003;-3.014703746885061E-003;
2.406333333333334E+009;1.785357147455216E-001;9.184620343148708E-003;3.852313384413719E-003;-3.018500749021769E-003;
2.406500000000000E+009;1.784457862377167E-001;8.782359771430492E-003;3.596508409827948E-003;-3.100150730460882E-003;
2.406666666666667E+009;1.783920079469681E-001;8.400173857808113E-003;3.667694283649325E-003;-2.998879645019770E-003;
2.406833333333334E+009;1.784955561161041E-001;7.992865517735481E-003;3.530423389747739E-003;-3.169585717841983E-003;
2.407000000000000E+009;1.784915030002594E-001;7.578899152576923E-003;3.456861712038517E-003;-3.105290932580829E-003;
2.407166666666667E+009;1.784671843051910E-001;7.177844643592835E-003;3.296109149232507E-003;-3.164441557601094E-003;
2.407333333333334E+009;1.781763136386871E-001;6.596383638679981E-003;3.160932799801230E-003;-3.323898650705814E-003;
2.407500000000000E+009;1.779563128948212E-001;6.022750865668058E-003;3.066867822781205E-003;-3.345903940498829E-003;
2.407666666666667E+009;1.776807010173798E-001;5.418481770902872E-003;3.071369137614965E-003;-3.381262999027968E-003;
2.407833333333334E+009;1.772323101758957E-001;4.672713112086058E-003;3.077753121033311E-003;-3.334011882543564E-003;
2.408000000000000E+009;1.768676042556763E-001;3.836800809949637E-003;2.918134443461895E-003;-3.359088441357017E-003;
2.408166666666667E+009;1.763691306114197E-001;3.288871841505170E-003;2.818163949996233E-003;-3.513921750709415E-003;
2.408333333333334E+009;1.760634630918503E-001;2.428181003779173E-003;2.678482793271542E-003;-3.538611112162471E-003;
2.408500000000000E+009;1.755441129207611E-001;1.330490806140006E-003;2.682561054825783E-003;-3.511857939884067E-003;
2.408666666666667E+009;1.749537736177445E-001;2.903560234699398E-004;2.625565510243177E-003;-3.510450711473823E-003;
2.408833333333334E+009;1.742614060640335E-001;-6.659814971499145E-004;2.514865482226014E-003;-3.554648719727993E-003;
2.409000000000000E+009;1.735826283693314E-001;-1.760669401846826E-003;2.479728078469634E-003;-3.556041279807687E-003;
2.409166666666667E+009;1.732024252414703E-001;-3.056656802073121E-003;2.391790505498648E-003;-3.528784960508347E-003;
2.409333333333334E+009;1.726791411638260E-001;-4.489902406930924E-003;2.396504394710064E-003;-3.550020745024085E-003;
2.409500000000000E+009;1.718623489141464E-001;-5.828578025102615E-003;2.265030983835459E-003;-3.596901660785079E-003;
2.409666666666667E+009;1.714163720607758E-001;-7.322859950363636E-003;2.345703775063157E-003;-3.764066146686673E-003;
2.409833333333334E+009;1.707310527563095E-001;-8.732029236853123E-003;2.139281714335084E-003;-3.812371985986829E-003;
2.410000000000000E+009;1.704706698656082E-001;-1.025924831628799E-002;2.137572271749377E-003;-3.727254457771778E-003;
2.410166666666667E+009;1.697975546121597E-001;-1.177039928734303E-002;2.110430505126715E-003;-3.694694256410003E-003;
2.410333333333334E+009;1.693035066127777E-001;-1.344027835875750E-002;2.080706181004643E-003;-3.673774423077703E-003;
2.410500000000000E+009;1.690227389335632E-001;-1.534587796777487E-002;2.076109638437629E-003;-3.853374393656850E-003;
2.410666666666667E+009;1.686581820249558E-001;-1.713472791016102E-002;2.064499538391829E-003;-3.950284793972969E-003;
2.410833333333334E+009;1.683902591466904E-001;-1.882205531001091E-002;1.927360775880516E-003;-3.963512368500233E-003;
2.411000000000000E+009;1.681678146123886E-001;-2.069118805229664E-002;2.039017388597131E-003;-4.053269047290087E-003;
2.411166666666667E+009;1.678291410207748E-001;-2.259157784283161E-002;1.975750084966421E-003;-4.184802994132042E-003;
2.411333333333334E+009;1.678427457809448E-001;-2.445191703736782E-002;1.952084130607545E-003;-4.324962850660086E-003;
2.411500000000000E+009;1.677735596895218E-001;-2.650808729231358E-002;1.826276769861579E-003;-4.317972343415022E-003;
2.411666666666667E+009;1.677646636962891E-001;-2.816516906023026E-002;1.716861035674810E-003;-4.442536272108555E-003;
2.411833333333334E+009;1.678380519151688E-001;-3.007773868739605E-002;1.673348830081523E-003;-4.576756618916988E-003;
2.412000000000000E+009;1.682229936122894E-001;-3.168780729174614E-002;1.530276611447334E-003;-4.657159093767405E-003;
2.412166666666667E+009;1.680913567543030E-001;-3.382620587944984E-002;1.511091715656221E-003;-4.756386857479811E-003;
2.412333333333334E+009;1.684449017047882E-001;-3.553666546940804E-002;1.420930842868984E-003;-4.702409729361534E-003;
2.412500000000000E+009;1.687155067920685E-001;-3.729557991027832E-002;1.323629170656204E-003;-4.953387659043074E-003;
2.412666666666667E+009;1.691100895404816E-001;-3.926609829068184E-002;1.100993948057294E-003;-5.074908025562763E-003;
2.412833333333334E+009;1.695125102996826E-001;-4.101733118295670E-002;8.306965464726090E-004;-5.209145601838827E-003;
2.413000000000000E+009;1.699182838201523E-001;-4.251248016953468E-002;7.606318104080856E-004;-5.336848087608814E-003;
2.413166666666667E+009;1.702235490083695E-001;-4.416798427700996E-002;5.006237188354135E-004;-5.376792047172785E-003;
2.413333333333334E+009;1.707389801740646E-001;-4.572833701968193E-002;4.752022505272180E-004;-5.515636876225472E-003;
2.413500000000000E+009;1.710842400789261E-001;-4.740236699581146E-002;2.590283693280071E-004;-5.545218940824270E-003;
2.413666666666667E+009;1.718972921371460E-001;-4.879197105765343E-002;-1.704325404716656E-005;-5.591076798737049E-003;
2.413833333333334E+009;1.722639352083206E-001;-5.015853792428970E-002;-1.050933351507410E-004;-5.693700164556503E-003;
2.414000000000000E+009;1.727242916822434E-001;-5.147530511021614E-002;-5.786721594631672E-004;-5.721203982830048E-003;
2.414166666666667E+009;1.733031421899796E-001;-5.254025012254715E-002;-6.497807335108519E-004;-5.759744439274073E-003;
2.414333333333334E+009;1.736274361610413E-001;-5.370365828275681E-002;-8.469311287626624E-004;-5.673881620168686E-003;
2.414500000000000E+009;1.742791086435318E-001;-5.471960827708244E-002;-1.046247431077063E-003;-5.654591135680676E-003;
2.414666666666667E+009;1.746519654989243E-001;-5.564714223146439E-002;-1.260903547517955E-003;-5.591832101345062E-003;
2.414833333333334E+009;1.751210540533066E-001;-5.649054050445557E-002;-1.650063786655664E-003;-5.392461083829403E-003;
2.415000000000000E+009;1.755427718162537E-001;-5.732302367687225E-002;-1.701735542155802E-003;-5.549289286136627E-003;
2.415166666666667E+009;1.757476925849915E-001;-5.798731744289398E-002;-2.115909010171890E-003;-5.525279324501753E-003;
2.415333333333334E+009;1.762656569480896E-001;-5.866440385580063E-002;-2.148985164240003E-003;-5.383239593356848E-003;
2.415500000000000E+009;1.764214485883713E-001;-5.923986434936523E-002;-2.354590920731425E-003;-5.276979878544807E-003;
2.415666666666667E+009;1.765555292367935E-001;-5.964018031954765E-002;-2.752801403403282E-003;-5.296443589031696E-003;
2.415833333333334E+009;1.767224222421646E-001;-6.007664650678635E-002;-2.717426279559732E-003;-5.122947506606579E-003;
2.416000000000000E+009;1.765043586492539E-001;-6.046992540359497E-002;-2.887862967327237E-003;-5.176131147891283E-003;
2.416166666666667E+009;1.767341792583466E-001;-6.076968833804131E-002;-3.014202695339918E-003;-5.074686836451292E-003;
2.416333333333334E+009;1.767449378967285E-001;-6.102129444479942E-002;-3.236978081986308E-003;-4.754579160362482E-003;
2.416500000000000E+009;1.765016019344330E-001;-6.134593114256859E-002;-3.334790701046586E-003;-4.627930000424385E-003;
2.416666666666667E+009;1.761737465858460E-001;-6.157138198614121E-002;-3.548424225300551E-003;-4.575124010443687E-003;
2.416833333333334E+009;1.759053170681000E-001;-6.193908676505089E-002;-3.637592075392604E-003;-4.527377896010876E-003;
2.417000000000000E+009;1.752739548683167E-001;-6.213554367423058E-002;-3.795268945395947E-003;-4.413249902427197E-003;
2.417166666666667E+009;1.747701019048691E-001;-6.222208961844444E-002;-3.968944307416678E-003;-4.284401424229145E-003;
2.417333333333334E+009;1.742625087499619E-001;-6.235026568174362E-002;-3.990075550973415E-003;-4.045730922371149E-003;
2.417500000000000E+009;1.734589040279388E-001;-6.278043985366821E-002;-4.159003030508757E-003;-4.027095157653093E-003;
2.417666666666667E+009;1.727679520845413E-001;-6.286966055631638E-002;-4.099061712622643E-003;-3.838604781776667E-003;
2.417833333333334E+009;1.719587594270706E-001;-6.306372582912445E-002;-4.322696477174759E-003;-3.692610654979944E-003;
2.418000000000000E+009;1.709899008274078E-001;-6.358096003532410E-002;-4.529637750238180E-003;-3.571929642930627E-003;
2.418166666666667E+009;1.700464040040970E-001;-6.368230283260346E-002;-4.581986460834742E-003;-3.511891700327396E-003;
2.418333333333334E+009;1.691913455724716E-001;-6.422556936740875E-002;-4.587099421769381E-003;-3.305338323116303E-003;
2.418500000000000E+009;1.680070161819458E-001;-6.476730108261108E-002;-4.804992582648993E-003;-3.223979379981756E-003;
2.418666666666667E+009;1.670855730772018E-001;-6.522877514362335E-002;-4.905672743916512E-003;-3.042721888050437E-003;
2.418833333333334E+009;1.656681299209595E-001;-6.580774486064911E-002;-4.953161347657442E-003;-2.975735114887357E-003;
2.419000000000000E+009;1.644458770751953E-001;-6.624440848827362E-002;-5.050934385508299E-003;-2.731966087594628E-003;
2.419166666666667E+009;1.633122116327286E-001;-6.706193089485169E-002;-5.131658166646957E-003;-2.544355811551213E-003;
2.419333333333334E+009;1.619456857442856E-001;-6.745810806751251E-002;-5.249632522463799E-003;-2.370271366089582E-003;
2.419500000000000E+009;1.609157919883728E-001;-6.857217848300934E-002;-5.286193918436766E-003;-2.393710426986218E-003;
2.419666666666667E+009;1.597449630498886E-001;-6.951086968183518E-002;-5.328061059117317E-003;-2.144360449165106E-003;
2.419833333333334E+009;1.584958732128143E-001;-7.049874961376190E-002;-5.332879256457090E-003;-2.044168999418616E-003;
2.420000000000000E+009;1.573637872934341E-001;-7.153103500604630E-002;-5.505691282451153E-003;-1.743334461934865E-003;
2.420166666666667E+009;1.561011075973511E-001;-7.270855456590653E-002;-5.555927287787199E-003;-1.733996788971126E-003;
2.420333333333334E+009;1.551561057567596E-001;-7.391420006752014E-002;-5.646169651299715E-003;-1.613210071809590E-003;
2.420500000000000E+009;1.541154086589813E-001;-7.515114545822144E-002;-5.668623838573694E-003;-1.465391600504518E-003;
2.420666666666667E+009;1.530091613531113E-001;-7.638598978519440E-002;-5.839032121002674E-003;-1.250512781552970E-003;
2.420833333333334E+009;1.521591246128082E-001;-7.788005471229553E-002;-5.726018454879522E-003;-1.087634242139757E-003;
2.421000000000000E+009;1.513351052999497E-001;-7.922188937664032E-002;-5.924955941736698E-003;-8.069300092756748E-004;
2.421166666666667E+009;1.505123376846314E-001;-8.079992234706879E-002;-6.041902583092451E-003;-6.339200190268457E-004;
2.421333333333334E+009;1.500521153211594E-001;-8.233306556940079E-002;-5.942543968558312E-003;-4.429993568919599E-004;
2.421500000000000E+009;1.490283757448196E-001;-8.387971669435501E-002;-6.036730948835611E-003;-1.623761781957001E-004;
2.421666666666667E+009;1.484825462102890E-001;-8.563667535781860E-002;-6.016896571964026E-003;-1.239500124938786E-004;
2.421833333333334E+009;1.480521410703659E-001;-8.711803704500198E-002;-5.966120865195990E-003;1.267061888938770E-004;
2.422000000000000E+009;1.475753188133240E-001;-8.885896950960159E-002;-6.015735678374767E-003;2.622295869514346E-004;
2.422166666666667E+009;1.473636478185654E-001;-9.082613140344620E-002;-5.932651925832033E-003;5.414499901235104E-004;
2.422333333333334E+009;1.470796763896942E-001;-9.239837527275085E-002;-5.963457282632589E-003;6.321592372842133E-004;
2.422500000000000E+009;1.467361301183701E-001;-9.389273077249527E-002;-5.948323290795088E-003;9.535876451991499E-004;
2.422666666666667E+009;1.466208398342133E-001;-9.567493200302124E-002;-5.894742440432310E-003;1.086929580196738E-003;
2.422833333333334E+009;1.467396765947342E-001;-9.736557304859161E-002;-5.761413369327784E-003;1.375983236357570E-003;
2.423000000000000E+009;1.467914879322052E-001;-9.914918243885040E-002;-5.704844836145639E-003;1.526775420643389E-003;
2.423166666666667E+009;1.469190120697022E-001;-1.007207855582237E-001;-5.626794882118702E-003;1.842877129092813E-003;
2.423333333333334E+009;1.471143364906311E-001;-1.021975204348564E-001;-5.687626078724861E-003;1.954445615410805E-003;
2.423500000000000E+009;1.472003608942032E-001;-1.039627119898796E-001;-5.617341492325068E-003;2.166957128793001E-003;
2.423666666666667E+009;1.473587602376938E-001;-1.054960265755653E-001;-5.431377794593573E-003;2.400855766609311E-003;
2.423833333333334E+009;1.479838788509369E-001;-1.070337444543839E-001;-5.573234520852566E-003;2.536621643230319E-003;
2.424000000000000E+009;1.481089890003204E-001;-1.080562844872475E-001;-5.420123226940632E-003;2.713127061724663E-003;
2.424166666666667E+009;1.483223885297775E-001;-1.094692796468735E-001;-5.115432199090719E-003;2.974486676976085E-003;
2.424333333333334E+009;1.490126699209213E-001;-1.107782796025276E-001;-5.179694853723049E-003;3.438250161707401E-003;
2.424500000000000E+009;1.492736637592316E-001;-1.121990755200386E-001;-4.994994029402733E-003;3.498966339975596E-003;
2.424666666666667E+009;1.496164053678513E-001;-1.129881069064140E-001;-4.817035980522633E-003;3.788061439990997E-003;
2.424833333333334E+009;1.499272435903549E-001;-1.141290888190270E-001;-4.607517272233963E-003;3.825969761237502E-003;
2.425000000000000E+009;1.503036022186279E-001;-1.151070743799210E-001;-4.642726853489876E-003;3.976166248321533E-003;
2.425166666666667E+009;1.505803614854813E-001;-1.159083321690559E-001;-4.360697232186794E-003;4.182813689112663E-003;
2.425333333333334E+009;1.508681178092957E-001;-1.167070716619492E-001;-4.202389623969793E-003;4.348708316683769E-003;
2.425500000000000E+009;1.512479782104492E-001;-1.174720674753189E-001;-3.868351457640529E-003;4.464595112949610E-003;
2.425666666666667E+009;1.513582170009613E-001;-1.180598959326744E-001;-3.651671577244997E-003;4.741101991385222E-003;
2.425833333333334E+009;1.515704095363617E-001;-1.186278462409973E-001;-3.341992385685444E-003;4.775969777256250E-003;
2.426000000000000E+009;1.516484618186951E-001;-1.191833838820458E-001;-3.203260712325573E-003;4.715427756309509E-003;
2.426166666666667E+009;1.519663482904434E-001;-1.195774450898171E-001;-2.845150884240866E-003;4.780864343047142E-003;
2.426333333333334E+009;1.519146263599396E-001;-1.199072003364563E-001;-2.775294473394752E-003;4.886041861027479E-003;
2.426500000000000E+009;1.519364863634110E-001;-1.201114803552628E-001;-2.660880098119378E-003;4.957115277647972E-003;
2.426666666666667E+009;1.519233584403992E-001;-1.204339861869812E-001;-2.335784025490284E-003;4.931581672281027E-003;
2.426833333333334E+009;1.516152024269104E-001;-1.205977797508240E-001;-1.985444920137525E-003;4.956118762493134E-003;
2.427000000000000E+009;1.513610929250717E-001;-1.209451705217362E-001;-1.808421104215086E-003;5.144867114722729E-003;
2.427166666666667E+009;1.509986072778702E-001;-1.210248470306397E-001;-1.541787059977651E-003;4.929454997181892E-003;
2.427333333333334E+009;1.504863798618317E-001;-1.210641711950302E-001;-1.313993707299233E-003;4.953616764396429E-003;
2.427500000000000E+009;1.500222980976105E-001;-1.212040781974793E-001;-1.260941382497549E-003;4.973657894879580E-003;
2.427666666666667E+009;1.493712961673737E-001;-1.213462352752686E-001;-1.108032534830272E-003;4.934592172503471E-003;
