# Version 1.00
#
freq[Hz];re:Trc1_S11;im:Trc1_S11;re:Trc2_S21;im:Trc2_S21;
2.400000000000000E+009;1.606120318174362E-001;5.699285492300987E-002;3.835873445495963E-003;2.535850508138537E-003;
2.400166666666667E+009;1.607808023691177E-001;5.534878000617027E-002;3.923608921468258E-003;2.419986994937062E-003;
2.400333333333334E+009;1.608120799064636E-001;5.342791974544525E-002;4.202117212116718E-003;2.405257895588875E-003;
2.400500000000000E+009;1.609385609626770E-001;5.189686641097069E-002;4.092053044587374E-003;2.379636745899916E-003;
2.400666666666667E+009;1.608041524887085E-001;4.997617378830910E-002;4.278840962797403E-003;2.376634860411286E-003;
2.400833333333334E+009;1.612733006477356E-001;4.817403480410576E-002;4.463966004550457E-003;2.083366736769676E-003;
2.401000000000000E+009;1.613954007625580E-001;4.627354070544243E-002;4.602460656315088E-003;2.071939408779144E-003;
2.401166666666667E+009;1.616898030042648E-001;4.438230022788048E-002;4.707147367298603E-003;2.126855077221990E-003;
2.401333333333334E+009;1.618625819683075E-001;4.236942157149315E-002;4.929485730826855E-003;1.873315428383648E-003;
2.401500000000000E+009;1.623172312974930E-001;4.051979258656502E-002;5.008670501410961E-003;1.751232077367604E-003;
2.401666666666667E+009;1.627118885517120E-001;3.887155652046204E-002;5.103070754557848E-003;1.633236999623478E-003;
2.401833333333334E+009;1.631551235914230E-001;3.692257031798363E-002;5.211093463003635E-003;1.410206779837608E-003;
2.402000000000000E+009;1.634548157453537E-001;3.516947478055954E-002;5.322399549186230E-003;1.285836100578308E-003;
2.402166666666667E+009;1.638117134571075E-001;3.316145762801170E-002;5.402966402471066E-003;1.035290653817356E-003;
2.402333333333334E+009;1.644154638051987E-001;3.169770911335945E-002;5.356340203434229E-003;9.851780487224460E-004;
2.402500000000000E+009;1.651258617639542E-001;3.009880520403385E-002;5.432704929262400E-003;8.354429155588150E-004;
2.402666666666667E+009;1.658064126968384E-001;2.852586284279823E-002;5.577957257628441E-003;5.329614505171776E-004;
2.402833333333334E+009;1.664411127567291E-001;2.696878649294376E-002;5.571450106799603E-003;2.791955485008657E-004;
2.403000000000000E+009;1.671146154403687E-001;2.558399736881256E-002;5.558663513511419E-003;2.165366458939388E-004;
2.403166666666667E+009;1.677734404802322E-001;2.399814128875732E-002;5.531712900847197E-003;-9.366509766550735E-005;
2.403333333333334E+009;1.685393154621124E-001;2.287793159484863E-002;5.708590149879456E-003;-3.498764999676496E-004;
2.403500000000000E+009;1.691763699054718E-001;2.164408750832081E-002;5.565606057643890E-003;-6.097306613810360E-004;
2.403666666666667E+009;1.699586808681488E-001;2.028708346188068E-002;5.464834626764059E-003;-7.963320822454989E-004;
2.403833333333334E+009;1.707620173692703E-001;1.908720657229424E-002;5.524492356926203E-003;-1.137071987614036E-003;
2.404000000000000E+009;1.714449077844620E-001;1.799893006682396E-002;5.489828065037727E-003;-1.297356560826302E-003;
2.404166666666667E+009;1.721797287464142E-001;1.695858500897884E-002;5.247442517429590E-003;-1.463220920413733E-003;
2.404333333333334E+009;1.728165000677109E-001;1.620130054652691E-002;5.435649771243334E-003;-1.634176238439977E-003;
2.404500000000000E+009;1.733301728963852E-001;1.524570211768150E-002;5.256898701190949E-003;-1.770750619471073E-003;
2.404666666666667E+009;1.742345243692398E-001;1.454110164195299E-002;5.097670946270227E-003;-2.046321751549840E-003;
2.404833333333334E+009;1.747519373893738E-001;1.368689443916082E-002;4.972458351403475E-003;-2.150926971808076E-003;
2.405000000000000E+009;1.754234880208969E-001;1.311065815389156E-002;4.837986547499895E-003;-2.266286173835397E-003;
2.405166666666667E+009;1.758479028940201E-001;1.238845195621252E-002;4.762492142617703E-003;-2.368248999118805E-003;
2.405333333333334E+009;1.765630096197128E-001;1.153349410742521E-002;4.412658512592316E-003;-2.629245165735483E-003;
2.405500000000000E+009;1.770870387554169E-001;1.128327101469040E-002;4.347308538854122E-003;-2.708128653466702E-003;
2.405666666666667E+009;1.773600280284882E-001;1.077137328684330E-002;4.213089589029551E-003;-2.702667843550444E-003;
2.405833333333334E+009;1.776114404201508E-001;1.050046738237143E-002;4.048987757414579E-003;-2.793101593852043E-003;
2.406000000000000E+009;1.779811233282089E-001;9.936351329088211E-003;4.018114879727364E-003;-2.776364330202341E-003;
2.406166666666667E+009;1.780450344085693E-001;9.628239087760449E-003;3.914521075785160E-003;-3.038025228306651E-003;
2.406333333333334E+009;1.785377413034439E-001;9.162017144262791E-003;3.852276364341378E-003;-2.964946674183011E-003;
2.406500000000000E+009;1.785671710968018E-001;8.672247640788555E-003;3.807046683505178E-003;-2.858995692804456E-003;
2.406666666666667E+009;1.784224063158035E-001;8.404359221458435E-003;3.555919276550412E-003;-3.046416910365224E-003;
2.406833333333334E+009;1.785384267568588E-001;7.886887528002262E-003;3.431948134675622E-003;-2.939294790849090E-003;
2.407000000000000E+009;1.784976422786713E-001;7.498344872146845E-003;3.423657268285751E-003;-3.088195342570543E-003;
2.407166666666667E+009;1.784767210483551E-001;7.121531292796135E-003;3.157368395477533E-003;-3.191455965861678E-003;
2.407333333333334E+009;1.781798005104065E-001;6.548099685460329E-003;3.188187023624778E-003;-3.254684619605541E-003;
2.407500000000000E+009;1.779515743255615E-001;6.037224084138870E-003;3.197842510417104E-003;-3.305880352854729E-003;
2.407666666666667E+009;1.777469664812088E-001;5.556522868573666E-003;2.981277881190181E-003;-3.205659799277782E-003;
2.407833333333334E+009;1.771042197942734E-001;4.690616391599178E-003;2.853654325008392E-003;-3.336030989885330E-003;
2.408000000000000E+009;1.768433600664139E-001;3.976387437433004E-003;2.896584337577224E-003;-3.481784835457802E-003;
2.408166666666667E+009;1.763643473386765E-001;3.357445355504751E-003;2.784407930448651E-003;-3.488927381113172E-003;
2.408333333333334E+009;1.759439855813980E-001;2.402684185653925E-003;2.685031620785594E-003;-3.556858515366912E-003;
2.408500000000000E+009;1.753975003957748E-001;1.378543674945831E-003;2.640585647895932E-003;-3.420632798224688E-003;
2.408666666666667E+009;1.747349798679352E-001;3.220058861188591E-004;2.401883015409112E-003;-3.432804951444268E-003;
2.408833333333334E+009;1.742205917835236E-001;-6.183023215271533E-004;2.397573553025723E-003;-3.397514577955008E-003;
2.409000000000000E+009;1.736062467098236E-001;-1.768827438354492E-003;2.295261714607477E-003;-3.518976969644427E-003;
2.409166666666667E+009;1.730981320142746E-001;-3.092492930591106E-003;2.138712676241994E-003;-3.450142685323954E-003;
2.409333333333334E+009;1.725532114505768E-001;-4.440361168235540E-003;2.199780894443393E-003;-3.541760612279177E-003;
2.409500000000000E+009;1.718396097421646E-001;-5.826848559081554E-003;2.197148511186242E-003;-3.548729699105024E-003;
2.409666666666667E+009;1.712747365236282E-001;-7.157285697758198E-003;1.910034567117691E-003;-3.607867518439889E-003;
2.409833333333334E+009;1.708111017942429E-001;-8.409932255744934E-003;2.079064026474953E-003;-3.668367862701416E-003;
2.410000000000000E+009;1.703423559665680E-001;-1.022786274552345E-002;2.081602578982711E-003;-3.615866415202618E-003;
2.410166666666667E+009;1.698477566242218E-001;-1.184534002095461E-002;2.094725845381618E-003;-3.657593391835690E-003;
2.410333333333334E+009;1.694563925266266E-001;-1.356532145291567E-002;2.000576118007302E-003;-3.531342372298241E-003;
2.410500000000000E+009;1.689998507499695E-001;-1.517413835972548E-002;1.965214032679796E-003;-3.800133708864451E-003;
2.410666666666667E+009;1.685105562210083E-001;-1.711875759065151E-002;1.867679413408041E-003;-3.870031563565135E-003;
2.410833333333334E+009;1.683418750762940E-001;-1.878606341779232E-002;1.881442847661674E-003;-3.833599854260683E-003;
2.411000000000000E+009;1.680992245674133E-001;-2.054842375218868E-002;1.733978395350277E-003;-3.895408241078258E-003;
2.411166666666667E+009;1.679387837648392E-001;-2.254962548613548E-002;1.854635542258620E-003;-4.064291715621948E-003;
2.411333333333334E+009;1.676178276538849E-001;-2.429691143333912E-002;1.876685768365860E-003;-4.121504724025726E-003;
2.411500000000000E+009;1.676121354103088E-001;-2.625931985676289E-002;1.682006637565792E-003;-4.250584170222282E-003;
2.411666666666667E+009;1.677615195512772E-001;-2.799052186310291E-002;1.807112945243716E-003;-4.246671218425036E-003;
2.411833333333334E+009;1.678337752819061E-001;-3.000355511903763E-002;1.689466414973140E-003;-4.330643918365240E-003;
2.412000000000000E+009;1.680936962366104E-001;-3.175534680485725E-002;1.508154557086527E-003;-4.683953709900379E-003;
2.412166666666667E+009;1.681064963340759E-001;-3.371879085898399E-002;1.322417054325342E-003;-4.731130786240101E-003;
2.412333333333334E+009;1.686421483755112E-001;-3.540776669979096E-002;1.369797275401652E-003;-4.671039991080761E-003;
2.412500000000000E+009;1.685697287321091E-001;-3.728604689240456E-002;1.201964798383415E-003;-4.918549675494432E-003;
2.412666666666667E+009;1.690955758094788E-001;-3.922007232904434E-002;9.716117056086659E-004;-5.069992505013943E-003;
2.412833333333334E+009;1.695671230554581E-001;-4.091626778244972E-002;1.067351317033172E-003;-5.113238003104925E-003;
2.413000000000000E+009;1.698957830667496E-001;-4.250101000070572E-002;7.357930298894644E-004;-5.067051853984594E-003;
2.413166666666667E+009;1.702855676412582E-001;-4.416123777627945E-002;6.186267128214240E-004;-5.404668394476175E-003;
2.413333333333334E+009;1.706112027168274E-001;-4.558061435818672E-002;4.949376452714205E-004;-5.385431926697493E-003;
2.413500000000000E+009;1.714330315589905E-001;-4.721116647124291E-002;1.937429769895971E-004;-5.454359110444784E-003;
2.413666666666667E+009;1.719070822000504E-001;-4.867522791028023E-002;-5.117856562719680E-005;-5.525710526853800E-003;
2.413833333333334E+009;1.720464825630188E-001;-4.997935891151428E-002;-2.396030322415754E-004;-5.667008459568024E-003;
2.414000000000000E+009;1.725558340549469E-001;-5.128259211778641E-002;-4.492801090236753E-004;-5.533413495868444E-003;
2.414166666666667E+009;1.731752753257752E-001;-5.235371366143227E-002;-5.798466154374182E-004;-5.652507301419973E-003;
2.414333333333334E+009;1.737342923879623E-001;-5.355993285775185E-002;-8.589452481828630E-004;-5.499664228409529E-003;
2.414500000000000E+009;1.743272393941879E-001;-5.453195795416832E-002;-1.009342493489385E-003;-5.511829163879156E-003;
2.414666666666667E+009;1.746125370264053E-001;-5.563266947865486E-002;-1.295304391533136E-003;-5.508633330464363E-003;
2.414833333333334E+009;1.751063913106918E-001;-5.641101673245430E-002;-1.440805150195956E-003;-5.541288759559393E-003;
2.415000000000000E+009;1.754910945892334E-001;-5.709737911820412E-002;-1.679924433119595E-003;-5.530085414648056E-003;
2.415166666666667E+009;1.759154647588730E-001;-5.783089250326157E-002;-1.717414241284132E-003;-5.451996810734272E-003;
2.415333333333334E+009;1.762382984161377E-001;-5.847718566656113E-002;-2.058383543044329E-003;-5.290872883051634E-003;
2.415500000000000E+009;1.764897406101227E-001;-5.909960344433785E-002;-2.311694901436567E-003;-5.205210763961077E-003;
2.415666666666667E+009;1.766033470630646E-001;-5.946611985564232E-002;-2.588731935247779E-003;-5.163450725376606E-003;
2.415833333333334E+009;1.768135577440262E-001;-5.991375446319580E-002;-2.695090370252729E-003;-5.189058836549521E-003;
2.416000000000000E+009;1.766580790281296E-001;-6.039255857467651E-002;-2.857365412637591E-003;-5.023050121963024E-003;
2.416166666666667E+009;1.768231242895126E-001;-6.077665835618973E-002;-2.859087428078055E-003;-4.930124618113041E-003;
2.416333333333334E+009;1.766628921031952E-001;-6.099979951977730E-002;-3.141328459605575E-003;-4.847363103181124E-003;
2.416500000000000E+009;1.765260100364685E-001;-6.125244870781899E-002;-3.320902120321989E-003;-4.742390941828489E-003;
2.416666666666667E+009;1.762461811304092E-001;-6.147338449954987E-002;-3.273033304139972E-003;-4.509796854108572E-003;
2.416833333333334E+009;1.759137213230133E-001;-6.184329837560654E-002;-3.590916283428669E-003;-4.380497615784407E-003;
2.417000000000000E+009;1.752147376537323E-001;-6.202821061015129E-002;-3.770265728235245E-003;-4.511107224971056E-003;
2.417166666666667E+009;1.747366189956665E-001;-6.225259974598885E-002;-3.874684218317270E-003;-4.229782149195671E-003;
2.417333333333334E+009;1.742854267358780E-001;-6.229529529809952E-002;-3.948470577597618E-003;-4.147151019424200E-003;
2.417500000000000E+009;1.735219955444336E-001;-6.270851939916611E-002;-4.071501083672047E-003;-4.075144417583942E-003;
2.417666666666667E+009;1.728346794843674E-001;-6.288897246122360E-002;-4.343015607446432E-003;-3.931825980544090E-003;
2.417833333333334E+009;1.719139963388443E-001;-6.302628666162491E-002;-4.342623520642519E-003;-3.660518676042557E-003;
2.418000000000000E+009;1.710287034511566E-001;-6.352415680885315E-002;-4.319999366998673E-003;-3.520413767546415E-003;
2.418166666666667E+009;1.699910163879395E-001;-6.379101425409317E-002;-4.435877315700054E-003;-3.343355376273394E-003;
2.418333333333334E+009;1.693661957979202E-001;-6.426797062158585E-002;-4.621008411049843E-003;-3.376428736373782E-003;
2.418500000000000E+009;1.680731177330017E-001;-6.458127498626709E-002;-4.718078766018152E-003;-3.135997569188476E-003;
2.418666666666667E+009;1.670381873846054E-001;-6.523203104734421E-002;-4.848018288612366E-003;-3.022397635504603E-003;
2.418833333333334E+009;1.657086312770844E-001;-6.573998928070068E-002;-4.787642508745194E-003;-2.785862423479557E-003;
2.419000000000000E+009;1.644899249076843E-001;-6.625527888536453E-002;-4.981604870408773E-003;-2.745466306805611E-003;
2.419166666666667E+009;1.633166074752808E-001;-6.704284250736237E-002;-5.101316608488560E-003;-2.643486252054572E-003;
2.419333333333334E+009;1.620712280273438E-001;-6.750120222568512E-002;-5.178094841539860E-003;-2.512907376512885E-003;
2.419500000000000E+009;1.608644574880600E-001;-6.853100657463074E-002;-5.255903117358685E-003;-2.363728592172265E-003;
2.419666666666667E+009;1.598751544952393E-001;-6.951589882373810E-002;-5.502245854586363E-003;-2.416777191683650E-003;
2.419833333333334E+009;1.584198027849197E-001;-7.023282349109650E-002;-5.537380464375019E-003;-1.978897955268621E-003;
2.420000000000000E+009;1.574540287256241E-001;-7.146481424570084E-002;-5.417520180344582E-003;-1.924963085912168E-003;
2.420166666666667E+009;1.562675535678864E-001;-7.251659780740738E-002;-5.456328857690096E-003;-1.650700345635414E-003;
2.420333333333334E+009;1.552072018384934E-001;-7.385243475437164E-002;-5.669501144438982E-003;-1.629156293347478E-003;
2.420500000000000E+009;1.542763710021973E-001;-7.497718930244446E-002;-5.641672294586897E-003;-1.409944845363498E-003;
2.420666666666667E+009;1.532862484455109E-001;-7.625978440046310E-002;-5.796895362436771E-003;-1.211254391819239E-003;
2.420833333333334E+009;1.524142622947693E-001;-7.767570763826370E-002;-5.818589124828577E-003;-1.067374250851572E-003;
2.421000000000000E+009;1.513122469186783E-001;-7.921872287988663E-002;-5.949192214757204E-003;-9.353608475066721E-004;
2.421166666666667E+009;1.505386531352997E-001;-8.073255419731140E-002;-5.929383449256420E-003;-5.931194173172116E-004;
2.421333333333334E+009;1.499435603618622E-001;-8.241098374128342E-002;-5.938065703958273E-003;-5.549709894694388E-004;
2.421500000000000E+009;1.492608040571213E-001;-8.391848951578140E-002;-5.897017661482096E-003;-3.066711942665279E-004;
2.421666666666667E+009;1.487406045198441E-001;-8.545827865600586E-002;-5.948778707534075E-003;-1.146053473348729E-004;
2.421833333333334E+009;1.481915563344955E-001;-8.721773326396942E-002;-5.886191967874765E-003;5.217122179601574E-006;
2.422000000000000E+009;1.478261649608612E-001;-8.888194710016251E-002;-5.971568636596203E-003;2.975849201902747E-004;
2.422166666666667E+009;1.474401801824570E-001;-9.078951925039291E-002;-5.889862775802612E-003;5.400356603786349E-004;
2.422333333333334E+009;1.472440809011459E-001;-9.240054339170456E-002;-6.032085511833429E-003;6.480925949290395E-004;
2.422500000000000E+009;1.469887942075729E-001;-9.399649500846863E-002;-6.069282069802284E-003;9.010262438096106E-004;
2.422666666666667E+009;1.468049734830856E-001;-9.568781405687332E-002;-5.846627056598663E-003;1.068350393325090E-003;
2.422833333333334E+009;1.468785107135773E-001;-9.744703024625778E-002;-5.841165315359831E-003;1.487532048486173E-003;
2.423000000000000E+009;1.468957662582398E-001;-9.899733960628510E-002;-5.894581321626902E-003;1.528579508885741E-003;
2.423166666666667E+009;1.470654159784317E-001;-1.009073629975319E-001;-5.671275313943625E-003;1.722221728414297E-003;
2.423333333333334E+009;1.470644176006317E-001;-1.022916138172150E-001;-5.531551316380501E-003;1.910011982545257E-003;
2.423500000000000E+009;1.473654657602310E-001;-1.040181815624237E-001;-5.677481647580862E-003;2.235638676211238E-003;
2.423666666666667E+009;1.474635004997253E-001;-1.054984331130981E-001;-5.508533678948879E-003;2.378790872171521E-003;
2.423833333333334E+009;1.479646265506744E-001;-1.068702563643456E-001;-5.480105057358742E-003;2.421132288873196E-003;
2.424000000000000E+009;1.482220441102982E-001;-1.081799194216728E-001;-5.336127709597349E-003;2.804970135912299E-003;
2.424166666666667E+009;1.484594047069550E-001;-1.095686852931976E-001;-5.335422232747078E-003;2.912975614890456E-003;
2.424333333333334E+009;1.489576250314713E-001;-1.107595413923264E-001;-5.311363376677036E-003;3.203418338671327E-003;
2.424500000000000E+009;1.492811888456345E-001;-1.119482293725014E-001;-4.943946376442909E-003;3.398136468604207E-003;
2.424666666666667E+009;1.497101932764053E-001;-1.128511279821396E-001;-4.835903178900480E-003;3.575538517907262E-003;
2.424833333333334E+009;1.500027328729630E-001;-1.140360683202744E-001;-4.630307201296091E-003;3.804320003837347E-003;
2.425000000000000E+009;1.503685414791107E-001;-1.149867549538612E-001;-4.583552479743958E-003;3.961271606385708E-003;
2.425166666666667E+009;1.505710184574127E-001;-1.158881038427353E-001;-4.163661971688271E-003;4.039872903376818E-003;
2.425333333333334E+009;1.510184109210968E-001;-1.166183874011040E-001;-4.095567390322685E-003;4.277994390577078E-003;
2.425500000000000E+009;1.513259261846542E-001;-1.174277514219284E-001;-3.667895682156086E-003;4.458291921764612E-003;
2.425666666666667E+009;1.514361798763275E-001;-1.179811656475067E-001;-3.661873750388622E-003;4.543095827102661E-003;
2.425833333333334E+009;1.516728550195694E-001;-1.185888499021530E-001;-3.372429870069027E-003;4.678579512983561E-003;
2.426000000000000E+009;1.517178416252136E-001;-1.191461160778999E-001;-3.101716516539455E-003;4.689541179686785E-003;
2.426166666666667E+009;1.521114706993103E-001;-1.195835098624229E-001;-2.783455653116107E-003;4.878517705947161E-003;
2.426333333333334E+009;1.519737392663956E-001;-1.198896616697311E-001;-2.732544904574752E-003;4.924154374748468E-003;
2.426500000000000E+009;1.519697606563568E-001;-1.201663687825203E-001;-2.552818274125457E-003;5.079696420580149E-003;
2.426666666666667E+009;1.519992202520371E-001;-1.203182488679886E-001;-2.195326844230294E-003;4.940066486597061E-003;
2.426833333333334E+009;1.516944617033005E-001;-1.206084266304970E-001;-2.029238035902381E-003;4.979915451258421E-003;
2.427000000000000E+009;1.514086425304413E-001;-1.208638027310371E-001;-1.772461808286607E-003;4.901315551251173E-003;
2.427166666666667E+009;1.510510444641113E-001;-1.208805888891220E-001;-1.550078857690096E-003;4.894187673926354E-003;
2.427333333333334E+009;1.505064964294434E-001;-1.209891363978386E-001;-1.515818643383682E-003;4.932257346808910E-003;
2.427500000000000E+009;1.500954329967499E-001;-1.210838481783867E-001;-1.145819784142077E-003;4.784374963492155E-003;
2.427666666666667E+009;1.494566053152084E-001;-1.213330700993538E-001;-9.354719659313560E-004;4.798723384737968E-003;
