# Version 1.00
#
freq[Hz];re:Trc1_S11;im:Trc1_S11;re:Trc2_S21;im:Trc2_S21;
2.400000000000000E+009;1.605165302753449E-001;5.693569034337997E-002;3.830789355561137E-003;2.573888981714845E-003;
2.400166666666667E+009;1.606133580207825E-001;5.551384016871452E-002;3.959258086979389E-003;2.512831473723054E-003;
2.400333333333334E+009;1.607082188129425E-001;5.372198298573494E-002;4.071012139320374E-003;2.497898647561669E-003;
2.400500000000000E+009;1.608550995588303E-001;5.188027769327164E-002;4.285342991352081E-003;2.316650236025453E-003;
2.400666666666667E+009;1.609936803579330E-001;5.014359578490257E-002;4.360852297395468E-003;2.388429827988148E-003;
2.400833333333334E+009;1.612249761819840E-001;4.821328446269035E-002;4.501986317336559E-003;2.145064529031515E-003;
2.401000000000000E+009;1.614399850368500E-001;4.629876092076302E-002;4.279920831322670E-003;2.231065183877945E-003;
2.401166666666667E+009;1.617437154054642E-001;4.437641054391861E-002;4.599998705089092E-003;2.020416082814336E-003;
2.401333333333334E+009;1.619070172309876E-001;4.257173836231232E-002;4.725607577711344E-003;1.949636731296778E-003;
2.401500000000000E+009;1.623452305793762E-001;4.065350815653801E-002;4.815397318452597E-003;1.907419878989458E-003;
2.401666666666667E+009;1.628275662660599E-001;3.896242752671242E-002;4.935240838676691E-003;1.640992355532944E-003;
2.401833333333334E+009;1.631024777889252E-001;3.694053739309311E-002;5.089260172098875E-003;1.495419768616557E-003;
2.402000000000000E+009;1.634667962789536E-001;3.516333922743797E-002;5.168370902538300E-003;1.158898463472724E-003;
2.402166666666667E+009;1.638814657926559E-001;3.337465971708298E-002;5.264637526124716E-003;1.277343137189746E-003;
2.402333333333334E+009;1.643661111593247E-001;3.167010843753815E-002;5.392451770603657E-003;9.601300698705018E-004;
2.402500000000000E+009;1.653013229370117E-001;3.013615496456623E-002;5.711131729185581E-003;7.865662919357419E-004;
2.402666666666667E+009;1.656295359134674E-001;2.846875414252281E-002;5.634136963635683E-003;5.439270753413439E-004;
2.402833333333334E+009;1.664806306362152E-001;2.707657776772976E-002;5.543178413063288E-003;3.552307316567749E-004;
2.403000000000000E+009;1.668424159288406E-001;2.560434304177761E-002;5.686485674232245E-003;4.071570583619177E-005;
2.403166666666667E+009;1.677035838365555E-001;2.410118468105793E-002;5.688139703124762E-003;-1.358721929136664E-004;
2.403333333333334E+009;1.686486005783081E-001;2.293569222092629E-002;5.748822819441557E-003;-3.667076234705746E-004;
2.403500000000000E+009;1.690694689750671E-001;2.153196372091770E-002;5.661280825734139E-003;-5.302276695147157E-004;
2.403666666666667E+009;1.699481606483460E-001;2.036927267909050E-002;5.651388317346573E-003;-6.639932398684323E-004;
2.403833333333334E+009;1.708311438560486E-001;1.909527927637100E-002;5.454946309328079E-003;-1.049185520969331E-003;
2.404000000000000E+009;1.715005487203598E-001;1.808179356157780E-002;5.541183985769749E-003;-1.218839897774160E-003;
2.404166666666667E+009;1.721257716417313E-001;1.702584326267242E-002;5.576132331043482E-003;-1.330545521341264E-003;
2.404333333333334E+009;1.728772521018982E-001;1.611072756350040E-002;5.387015640735626E-003;-1.601331518031657E-003;
2.404500000000000E+009;1.735021322965622E-001;1.522744726389647E-002;5.297278985381126E-003;-1.777710742317140E-003;
2.404666666666667E+009;1.742611378431320E-001;1.446307264268398E-002;5.109278019517660E-003;-2.142512938007712E-003;
2.404833333333334E+009;1.747395694255829E-001;1.366230659186840E-002;5.033993162214756E-003;-1.945330062881112E-003;
2.405000000000000E+009;1.753469705581665E-001;1.301116961985827E-002;4.713936243206263E-003;-2.271808451041579E-003;
2.405166666666667E+009;1.759104728698731E-001;1.245751138776541E-002;4.592692479491234E-003;-2.461667405441403E-003;
2.405333333333334E+009;1.765278279781342E-001;1.172031462192535E-002;4.732401575893164E-003;-2.544501330703497E-003;
2.405500000000000E+009;1.769051402807236E-001;1.134419348090887E-002;4.524179734289646E-003;-2.802760573104024E-003;
2.405666666666667E+009;1.773565858602524E-001;1.080490741878748E-002;4.206710960716009E-003;-2.815627725794911E-003;
2.405833333333334E+009;1.775756776332855E-001;1.042893994599581E-002;4.098913166671991E-003;-2.946886001154780E-003;
2.406000000000000E+009;1.779844611883164E-001;9.858892299234867E-003;4.048825241625309E-003;-2.888886956498027E-003;
2.406166666666667E+009;1.782107949256897E-001;9.762099944055080E-003;3.880587406456471E-003;-2.826375421136618E-003;
2.406333333333334E+009;1.784499883651733E-001;9.160789661109448E-003;3.809794085100293E-003;-3.038609167560935E-003;
2.406500000000000E+009;1.785144358873367E-001;8.765240199863911E-003;3.658758243545890E-003;-3.202223917469382E-003;
2.406666666666667E+009;1.783120483160019E-001;8.483907207846642E-003;3.496437100693584E-003;-3.248876193538308E-003;
2.406833333333334E+009;1.784382611513138E-001;8.024235256016254E-003;3.396907122805715E-003;-3.255630144849420E-003;
2.407000000000000E+009;1.784978210926056E-001;7.502923719584942E-003;3.406156785786152E-003;-3.259284654632211E-003;
2.407166666666667E+009;1.785250604152679E-001;7.245214655995369E-003;3.369890386238694E-003;-3.262566169723868E-003;
2.407333333333334E+009;1.781172752380371E-001;6.483986508101225E-003;3.137749154120684E-003;-3.296605078503490E-003;
2.407500000000000E+009;1.779015958309174E-001;5.951112136244774E-003;3.032232867553830E-003;-3.460123203694820E-003;
2.407666666666667E+009;1.776521950960159E-001;5.420377943664789E-003;3.053339198231697E-003;-3.308549989014864E-003;
2.407833333333334E+009;1.770325452089310E-001;4.674058407545090E-003;2.913198666647077E-003;-3.564362879842520E-003;
2.408000000000000E+009;1.767826378345490E-001;3.926526289433241E-003;2.886831993237138E-003;-3.434503218159080E-003;
2.408166666666667E+009;1.762297302484512E-001;3.315059002488852E-003;2.791852690279484E-003;-3.560399636626244E-003;
2.408333333333334E+009;1.759444177150726E-001;2.264519920572639E-003;2.731687622144818E-003;-3.496093442663550E-003;
2.408500000000000E+009;1.754432022571564E-001;1.377829466946423E-003;2.444473560899496E-003;-3.492099698632956E-003;
2.408666666666667E+009;1.748238354921341E-001;3.823564620688558E-004;2.445713384076953E-003;-3.635591361671686E-003;
2.408833333333334E+009;1.741585135459900E-001;-7.130407611839473E-004;2.274699043482542E-003;-3.619223600253463E-003;
2.409000000000000E+009;1.737047582864761E-001;-1.753546181134880E-003;2.294870791956782E-003;-3.665986703708768E-003;
2.409166666666667E+009;1.730844527482987E-001;-3.091946477070451E-003;2.187580801546574E-003;-3.507065586745739E-003;
2.409333333333334E+009;1.726017445325851E-001;-4.289218224585056E-003;2.276184735819697E-003;-3.587881801649928E-003;
2.409500000000000E+009;1.719854623079300E-001;-5.833635106682777E-003;2.189797582104802E-003;-3.614407265558839E-003;
2.409666666666667E+009;1.713338792324066E-001;-7.308020722121000E-003;2.132117282599211E-003;-3.587944433093071E-003;
2.409833333333334E+009;1.707543581724167E-001;-8.616059087216854E-003;2.184363082051277E-003;-3.746212227270007E-003;
2.410000000000000E+009;1.705053001642227E-001;-1.006241235882044E-002;2.066409215331078E-003;-3.602943615987897E-003;
2.410166666666667E+009;1.697556823492050E-001;-1.178938988596201E-002;2.032527001574636E-003;-3.690302371978760E-003;
2.410333333333334E+009;1.694189012050629E-001;-1.328174397349358E-002;2.020635642111301E-003;-3.706383286044002E-003;
2.410500000000000E+009;1.690718680620194E-001;-1.523287314921618E-002;2.067994326353073E-003;-3.671840531751514E-003;
2.410666666666667E+009;1.686999201774597E-001;-1.710052601993084E-002;1.884385477751494E-003;-3.826544387266040E-003;
2.410833333333334E+009;1.683735400438309E-001;-1.880480535328388E-002;1.860048738308251E-003;-3.902145195752382E-003;
2.411000000000000E+009;1.680505126714706E-001;-2.035000920295715E-002;1.814523129723966E-003;-3.889833809807897E-003;
2.411166666666667E+009;1.677864640951157E-001;-2.237551845610142E-002;1.793203409761190E-003;-4.073034971952438E-003;
2.411333333333334E+009;1.678426414728165E-001;-2.437693439424038E-002;1.755358069203794E-003;-4.182464908808470E-003;
2.411500000000000E+009;1.676455140113831E-001;-2.625918947160244E-002;1.760160899721086E-003;-4.321840126067400E-003;
2.411666666666667E+009;1.676179021596909E-001;-2.816925756633282E-002;1.902897027321160E-003;-4.329658113420010E-003;
2.411833333333334E+009;1.677703410387039E-001;-3.001930378377438E-002;1.777759753167629E-003;-4.436150193214417E-003;
2.412000000000000E+009;1.680231094360352E-001;-3.191572427749634E-002;1.666091149672866E-003;-4.617364145815373E-003;
2.412166666666667E+009;1.680798977613449E-001;-3.379968926310539E-002;1.551923691295087E-003;-4.729298409074545E-003;
2.412333333333334E+009;1.684527397155762E-001;-3.541044890880585E-002;1.522489008493722E-003;-4.757890012115240E-003;
2.412500000000000E+009;1.684809774160385E-001;-3.715694695711136E-002;1.162403612397611E-003;-5.027106963098049E-003;
2.412666666666667E+009;1.688591390848160E-001;-3.922534734010696E-002;1.062023802660406E-003;-5.182681605219841E-003;
2.412833333333334E+009;1.694884300231934E-001;-4.080225154757500E-002;7.646866142749786E-004;-5.202479660511017E-003;
2.413000000000000E+009;1.696868091821671E-001;-4.250460490584374E-002;7.593178888782859E-004;-5.327100399881601E-003;
2.413166666666667E+009;1.699687242507935E-001;-4.414480179548264E-002;6.257577333599329E-004;-5.424189381301403E-003;
2.413333333333334E+009;1.703836470842362E-001;-4.575002565979958E-002;4.399595200084150E-004;-5.519847385585308E-003;
2.413500000000000E+009;1.711820960044861E-001;-4.720266908407211E-002;1.009739280561917E-004;-5.559681914746761E-003;
2.413666666666667E+009;1.717925071716309E-001;-4.877491295337677E-002;3.689041841425933E-005;-5.559801589697599E-003;
2.413833333333334E+009;1.720395088195801E-001;-4.997904598712921E-002;-2.646850480232388E-004;-5.688340403139591E-003;
2.414000000000000E+009;1.726623028516769E-001;-5.132165178656578E-002;-4.417758900672197E-004;-5.677386652678251E-003;
2.414166666666667E+009;1.732250750064850E-001;-5.250392854213715E-002;-7.441081106662750E-004;-5.827684886753559E-003;
2.414333333333334E+009;1.736315786838532E-001;-5.362063273787499E-002;-6.568830576725304E-004;-5.696096457540989E-003;
2.414500000000000E+009;1.743162423372269E-001;-5.469027161598206E-002;-1.046215882524848E-003;-5.697357933968306E-003;
2.414666666666667E+009;1.746812611818314E-001;-5.559873953461647E-002;-1.297935261391103E-003;-5.680211819708347E-003;
2.414833333333334E+009;1.750471591949463E-001;-5.647473037242889E-002;-1.607863814570010E-003;-5.525995045900345E-003;
2.415000000000000E+009;1.754450500011444E-001;-5.709592252969742E-002;-1.845127670094371E-003;-5.558526609092951E-003;
2.415166666666667E+009;1.757966727018356E-001;-5.794374272227287E-002;-1.826620311476290E-003;-5.580632481724024E-003;
2.415333333333334E+009;1.762054264545441E-001;-5.844542011618614E-002;-2.126004546880722E-003;-5.457495339214802E-003;
2.415500000000000E+009;1.764046847820282E-001;-5.907746404409409E-002;-2.245489973574877E-003;-5.338484421372414E-003;
2.415666666666667E+009;1.765217185020447E-001;-5.942229554057121E-002;-2.510578604415059E-003;-5.173445679247379E-003;
2.415833333333334E+009;1.767529100179672E-001;-5.996591225266457E-002;-2.657863078638911E-003;-5.143372807651758E-003;
2.416000000000000E+009;1.766958683729172E-001;-6.044050678610802E-002;-2.855544444173574E-003;-5.070244427770376E-003;
2.416166666666667E+009;1.768098473548889E-001;-6.067542731761932E-002;-3.082222538068891E-003;-4.980423022061586E-003;
2.416333333333334E+009;1.766010820865631E-001;-6.094592064619064E-002;-3.119203494861722E-003;-4.812364932149649E-003;
2.416500000000000E+009;1.764805912971497E-001;-6.128557398915291E-002;-3.557267133146524E-003;-4.772842396050692E-003;
2.416666666666667E+009;1.761290132999420E-001;-6.152427196502686E-002;-3.471931908279657E-003;-4.728931933641434E-003;
2.416833333333334E+009;1.759140044450760E-001;-6.175253912806511E-002;-3.649663645774126E-003;-4.574230406433344E-003;
2.417000000000000E+009;1.753242015838623E-001;-6.201297044754028E-002;-3.885694779455662E-003;-4.361956380307674E-003;
2.417166666666667E+009;1.747321635484695E-001;-6.216561421751976E-002;-3.861518111079931E-003;-4.258213099092245E-003;
2.417333333333334E+009;1.741881817579269E-001;-6.227773800492287E-002;-4.145172890275717E-003;-4.070808645337820E-003;
2.417500000000000E+009;1.734671890735626E-001;-6.279308348894119E-002;-4.163229838013649E-003;-3.839848330244422E-003;
2.417666666666667E+009;1.729509830474854E-001;-6.279250979423523E-002;-4.233184270560741E-003;-3.932363353669643E-003;
2.417833333333334E+009;1.720072031021118E-001;-6.310272216796875E-002;-4.402241669595242E-003;-3.656481858342886E-003;
2.418000000000000E+009;1.709049493074417E-001;-6.348242610692978E-002;-4.500538576394320E-003;-3.627632511779666E-003;
2.418166666666667E+009;1.699822396039963E-001;-6.363816559314728E-002;-4.709214437752962E-003;-3.376699984073639E-003;
2.418333333333334E+009;1.693413257598877E-001;-6.401060521602631E-002;-4.645562730729580E-003;-3.211957868188620E-003;
2.418500000000000E+009;1.680594831705093E-001;-6.453425437211990E-002;-4.600749816745520E-003;-3.189918817952275E-003;
2.418666666666667E+009;1.670701950788498E-001;-6.518508493900299E-002;-4.827404860407114E-003;-3.019267460331321E-003;
2.418833333333334E+009;1.657588630914688E-001;-6.572597473859787E-002;-4.888570867478848E-003;-2.909006783738732E-003;
2.419000000000000E+009;1.644825786352158E-001;-6.627891957759857E-002;-4.879324231296778E-003;-2.745540114119649E-003;
2.419166666666667E+009;1.633055657148361E-001;-6.709595024585724E-002;-5.069106817245483E-003;-2.428481122478843E-003;
2.419333333333334E+009;1.620148420333862E-001;-6.763054430484772E-002;-5.106630735099316E-003;-2.518574940040708E-003;
2.419500000000000E+009;1.608720272779465E-001;-6.856109946966171E-002;-5.059957504272461E-003;-2.368567278608680E-003;
2.419666666666667E+009;1.596683710813522E-001;-6.952185928821564E-002;-5.287967622280121E-003;-2.250653225928545E-003;
2.419833333333334E+009;1.583543568849564E-001;-7.041715830564499E-002;-5.313828121870756E-003;-2.068828092887998E-003;
2.420000000000000E+009;1.573360264301300E-001;-7.162031531333923E-002;-5.356208421289921E-003;-1.981823006644845E-003;
2.420166666666667E+009;1.562383323907852E-001;-7.275172322988510E-002;-5.511802155524492E-003;-1.757238409481943E-003;
2.420333333333334E+009;1.552318632602692E-001;-7.398914545774460E-002;-5.672720726579428E-003;-1.406357041560113E-003;
2.420500000000000E+009;1.541022062301636E-001;-7.487127184867859E-002;-5.622786469757557E-003;-1.442373730242252E-003;
2.420666666666667E+009;1.531460434198380E-001;-7.649524509906769E-002;-5.743158515542746E-003;-1.232374459505081E-003;
2.420833333333334E+009;1.522299647331238E-001;-7.778557389974594E-002;-5.888159386813641E-003;-1.072671846486628E-003;
2.421000000000000E+009;1.512554436922073E-001;-7.930836826562882E-002;-5.761662963777781E-003;-9.382832795381546E-004;
2.421166666666667E+009;1.505241692066193E-001;-8.084195852279663E-002;-5.864153150469065E-003;-6.896769627928734E-004;
2.421333333333334E+009;1.499360203742981E-001;-8.240590244531632E-002;-5.824815481901169E-003;-5.630917148664594E-004;
2.421500000000000E+009;1.490823328495026E-001;-8.389402925968170E-002;-5.836038850247860E-003;-2.546647447161377E-004;
2.421666666666667E+009;1.485423296689987E-001;-8.558381348848343E-002;-5.870326887816191E-003;-2.583096102171112E-005;
2.421833333333334E+009;1.480939686298370E-001;-8.727113157510757E-002;-5.924721248447895E-003;2.359959034947678E-004;
2.422000000000000E+009;1.476564705371857E-001;-8.892912417650223E-002;-5.954009015113115E-003;2.554268576204777E-004;
2.422166666666667E+009;1.472772806882858E-001;-9.084206819534302E-002;-5.998021923005581E-003;5.182888708077371E-004;
2.422333333333334E+009;1.469515413045883E-001;-9.234622120857239E-002;-5.786527413874865E-003;7.705915486440063E-004;
2.422500000000000E+009;1.467193812131882E-001;-9.402401745319367E-002;-5.815748590976000E-003;7.675011875107884E-004;
2.422666666666667E+009;1.466497480869293E-001;-9.583734720945358E-002;-5.777009297162294E-003;1.150034251622856E-003;
2.422833333333334E+009;1.466498672962189E-001;-9.742628782987595E-002;-5.815370008349419E-003;1.309058745391667E-003;
2.423000000000000E+009;1.466489434242249E-001;-9.902550280094147E-002;-5.740341264754534E-003;1.451946445740759E-003;
2.423166666666667E+009;1.467851251363754E-001;-1.006981208920479E-001;-5.644542630761862E-003;1.692272489890456E-003;
2.423333333333334E+009;1.471320241689682E-001;-1.023123115301132E-001;-5.733451806008816E-003;1.933004590682685E-003;
2.423500000000000E+009;1.471893787384033E-001;-1.038006767630577E-001;-5.694801919162273E-003;2.308729337528348E-003;
2.423666666666667E+009;1.473266184329987E-001;-1.054781302809715E-001;-5.489829927682877E-003;2.371467417106032E-003;
2.423833333333334E+009;1.478930115699768E-001;-1.068346798419952E-001;-5.488094408065081E-003;2.653279341757298E-003;
2.424000000000000E+009;1.481093615293503E-001;-1.082298383116722E-001;-5.302145145833492E-003;2.882123226299882E-003;
2.424166666666667E+009;1.482729911804199E-001;-1.094297170639038E-001;-5.174040794372559E-003;2.875161822885275E-003;
2.424333333333334E+009;1.488814353942871E-001;-1.107282862067223E-001;-5.103148985654116E-003;3.373644314706326E-003;
2.424500000000000E+009;1.492247879505158E-001;-1.119620203971863E-001;-4.913923330605030E-003;3.375726053491235E-003;
2.424666666666667E+009;1.497380733489990E-001;-1.127883121371269E-001;-4.744438920170069E-003;3.524992614984512E-003;
2.424833333333334E+009;1.499819308519363E-001;-1.139116063714027E-001;-4.755807109177113E-003;3.816858166828752E-003;
2.425000000000000E+009;1.503705680370331E-001;-1.149382591247559E-001;-4.444712772965431E-003;3.964520990848541E-003;
2.425166666666667E+009;1.505412012338638E-001;-1.157408505678177E-001;-4.316361621022224E-003;4.157874267548323E-003;
2.425333333333334E+009;1.510724276304245E-001;-1.166318356990814E-001;-4.013436380773783E-003;4.352543968707323E-003;
2.425500000000000E+009;1.512826085090637E-001;-1.172987520694733E-001;-3.768131136894226E-003;4.401145968586206E-003;
2.425666666666667E+009;1.514690667390823E-001;-1.178578510880470E-001;-3.669241908937693E-003;4.686070140451193E-003;
2.425833333333334E+009;1.517641544342041E-001;-1.185795068740845E-001;-3.276735311374068E-003;4.607187118381262E-003;
2.426000000000000E+009;1.517998874187470E-001;-1.190980002284050E-001;-3.112464444711804E-003;4.786310251802206E-003;
2.426166666666667E+009;1.521135568618774E-001;-1.195405051112175E-001;-2.964220009744167E-003;4.694459494203329E-003;
2.426333333333334E+009;1.520555317401886E-001;-1.199889183044434E-001;-2.711409470066428E-003;4.751483444124460E-003;
2.426500000000000E+009;1.520462483167648E-001;-1.200939714908600E-001;-2.584574976935983E-003;4.860510583966970E-003;
2.426666666666667E+009;1.520390510559082E-001;-1.203193515539169E-001;-2.056789584457874E-003;4.952754359692335E-003;
2.426833333333334E+009;1.517847180366516E-001;-1.206628456711769E-001;-1.997725106775761E-003;4.951763432472944E-003;
2.427000000000000E+009;1.514459848403931E-001;-1.208886280655861E-001;-1.789192087017000E-003;4.982450976967812E-003;
2.427166666666667E+009;1.510451436042786E-001;-1.209160238504410E-001;-1.731991651467979E-003;4.873550962656736E-003;
2.427333333333334E+009;1.505273580551148E-001;-1.211618334054947E-001;-1.325235702097416E-003;5.133807659149170E-003;
2.427500000000000E+009;1.501418203115463E-001;-1.211556792259216E-001;-1.202504965476692E-003;4.920266102999449E-003;
2.427666666666667E+009;1.493766009807587E-001;-1.213461533188820E-001;-1.095565385185182E-003;4.869003780186176E-003;
