# Version 1.00
#
freq[Hz];re:Trc1_S11;im:Trc1_S11;re:Trc2_S21;im:Trc2_S21;
2.400000000000000E+009;1.574558466672897E-001;6.301022320985794E-002;1.999772153794766E-003;-5.644335178658366E-004;
2.400166666666667E+009;1.574001610279083E-001;6.137102842330933E-002;2.020113402977586E-003;-5.347691476345062E-004;
2.400333333333334E+009;1.571877151727676E-001;5.945723876357079E-002;2.253828337416053E-003;-7.777982391417027E-004;
2.400500000000000E+009;1.571744978427887E-001;5.748754739761353E-002;2.050577430054545E-003;-8.758899057283998E-004;
2.400666666666667E+009;1.569659411907196E-001;5.550544708967209E-002;2.225282834842801E-003;-9.568346431478858E-004;
2.400833333333334E+009;1.573931425809860E-001;5.354701727628708E-002;2.337171928957105E-003;-1.193446456454694E-003;
2.401000000000000E+009;1.573772281408310E-001;5.155469849705696E-002;2.373669994994998E-003;-1.202617771923542E-003;
2.401166666666667E+009;1.575207710266113E-001;4.936305060982704E-002;2.452817279845476E-003;-1.419445383362472E-003;
2.401333333333334E+009;1.576430797576904E-001;4.727244377136231E-002;2.373632276430726E-003;-1.573195680975914E-003;
2.401500000000000E+009;1.581467539072037E-001;4.526277631521225E-002;2.306272042915225E-003;-1.706432201899588E-003;
2.401666666666667E+009;1.584466695785523E-001;4.322122782468796E-002;2.255124272778630E-003;-1.928785350173712E-003;
2.401833333333334E+009;1.587850898504257E-001;4.121248424053192E-002;2.359965816140175E-003;-2.023789100348949E-003;
2.402000000000000E+009;1.592195183038712E-001;3.898576274514198E-002;2.212032908573747E-003;-2.237298060208559E-003;
2.402166666666667E+009;1.597909182310104E-001;3.702486678957939E-002;2.038958715274930E-003;-2.326995600014925E-003;
2.402333333333334E+009;1.604713201522827E-001;3.517666459083557E-002;2.063023857772350E-003;-2.619640668854117E-003;
2.402500000000000E+009;1.613979488611221E-001;3.333848342299461E-002;1.948947901837528E-003;-2.742946147918701E-003;
2.402666666666667E+009;1.618984192609787E-001;3.136401250958443E-002;1.799290999770165E-003;-2.939106198027730E-003;
2.402833333333334E+009;1.629570573568344E-001;2.985468320548534E-002;1.674567698501051E-003;-2.900299383327365E-003;
2.403000000000000E+009;1.635950058698654E-001;2.809423580765724E-002;1.249418826773763E-003;-3.110288642346859E-003;
2.403166666666667E+009;1.645208448171616E-001;2.648085914552212E-002;1.287646475248039E-003;-3.236330347135663E-003;
2.403333333333334E+009;1.654999852180481E-001;2.513287030160427E-002;9.848027257248759E-004;-3.393742954358459E-003;
2.403500000000000E+009;1.664294451475143E-001;2.368770353496075E-002;8.127582841552794E-004;-3.534123534336686E-003;
2.403666666666667E+009;1.673727184534073E-001;2.227218076586723E-002;7.186557631939650E-004;-3.603524761274457E-003;
2.403833333333334E+009;1.685144305229187E-001;2.103628590703011E-002;3.761010884772986E-004;-3.591951448470354E-003;
2.404000000000000E+009;1.695028543472290E-001;1.991133764386177E-002;6.754260539310053E-005;-3.624029923230410E-003;
2.404166666666667E+009;1.705447137355804E-001;1.869523897767067E-002;-1.081980153685436E-004;-3.673384897410870E-003;
2.404333333333334E+009;1.714144051074982E-001;1.770949736237526E-002;-2.804879331961274E-004;-3.612158354371786E-003;
2.404500000000000E+009;1.723051518201828E-001;1.667970046401024E-002;-5.255801952444017E-004;-3.611830994486809E-003;
2.404666666666667E+009;1.735837310552597E-001;1.589996181428433E-002;-6.765985162928700E-004;-3.510435344651341E-003;
2.404833333333334E+009;1.742936819791794E-001;1.506592985242605E-002;-9.716625208966434E-004;-3.429559292271733E-003;
2.405000000000000E+009;1.753126233816147E-001;1.456481777131558E-002;-1.096273306757212E-003;-3.507757792249322E-003;
2.405166666666667E+009;1.760374009609222E-001;1.377433724701405E-002;-1.329741906374693E-003;-3.234989708289504E-003;
2.405333333333334E+009;1.769541501998901E-001;1.321998797357082E-002;-1.416667015291750E-003;-3.149941097944975E-003;
2.405500000000000E+009;1.776057779788971E-001;1.289840415120125E-002;-1.590483705513179E-003;-3.192586125805974E-003;
2.405666666666667E+009;1.782204359769821E-001;1.240179780870676E-002;-1.881343428976834E-003;-3.108053700998426E-003;
2.405833333333334E+009;1.787472814321518E-001;1.212729886174202E-002;-1.877308357506990E-003;-2.985786879435182E-003;
2.406000000000000E+009;1.793987303972244E-001;1.158619578927755E-002;-1.920323120430112E-003;-2.681284910067916E-003;
2.406166666666667E+009;1.797368973493576E-001;1.145790796726942E-002;-1.966947456821799E-003;-2.665027044713497E-003;
2.406333333333334E+009;1.802727878093720E-001;1.107947435230017E-002;-2.272007521241903E-003;-2.554553560912609E-003;
2.406500000000000E+009;1.805539578199387E-001;1.085210032761097E-002;-2.344432985410094E-003;-2.467235550284386E-003;
2.406666666666667E+009;1.804565787315369E-001;1.054086629301310E-002;-2.469244645908475E-003;-2.293015131726861E-003;
2.406833333333334E+009;1.808242797851563E-001;1.021765545010567E-002;-2.381547354161739E-003;-2.250372665002942E-003;
2.407000000000000E+009;1.808692216873169E-001;9.930692613124847E-003;-2.370727248489857E-003;-2.068402245640755E-003;
2.407166666666667E+009;1.809962391853333E-001;9.650367312133312E-003;-2.491204999387264E-003;-1.745683373883367E-003;
2.407333333333334E+009;1.806515455245972E-001;9.263236075639725E-003;-2.803660230711103E-003;-1.685056835412979E-003;
2.407500000000000E+009;1.805672645568848E-001;8.934881538152695E-003;-2.595855388790369E-003;-1.623769523575902E-003;
2.407666666666667E+009;1.803105622529984E-001;8.566134609282017E-003;-2.686268882825971E-003;-1.533186761662364E-003;
2.407833333333334E+009;1.798592805862427E-001;7.871313020586968E-003;-2.736007794737816E-003;-1.397537067532539E-003;
2.408000000000000E+009;1.794312894344330E-001;7.121409289538860E-003;-2.653735922649503E-003;-1.288689090870321E-003;
2.408166666666667E+009;1.788968145847321E-001;6.739920936524868E-003;-2.737947972491384E-003;-1.320731244049966E-003;
2.408333333333334E+009;1.785686016082764E-001;6.011040415614843E-003;-2.781123388558626E-003;-1.138277119025588E-003;
2.408500000000000E+009;1.779598593711853E-001;5.129938945174217E-003;-2.714331261813641E-003;-1.028113067150116E-003;
2.408666666666667E+009;1.773733794689179E-001;4.217580426484346E-003;-2.717747585847974E-003;-8.694276912137866E-004;
2.408833333333334E+009;1.766538172960281E-001;3.109562676399946E-003;-2.679859753698111E-003;-6.453195237554610E-004;
2.409000000000000E+009;1.757574975490570E-001;2.129933331161737E-003;-2.587856492027640E-003;-5.239950260147452E-004;
2.409166666666667E+009;1.751666665077210E-001;9.863019222393632E-004;-2.708229003474116E-003;-6.111620459705591E-004;
2.409333333333334E+009;1.744934767484665E-001;-3.172154247295111E-004;-2.815832383930683E-003;-4.339123552199453E-004;
2.409500000000000E+009;1.737770587205887E-001;-1.553327660076320E-003;-2.676967764273286E-003;-3.919135779142380E-004;
2.409666666666667E+009;1.731013953685761E-001;-2.908207476139069E-003;-2.677256241440773E-003;-2.445910358801484E-004;
2.409833333333334E+009;1.722604930400848E-001;-4.236182197928429E-003;-2.703017788007855E-003;-2.094440715154633E-004;
2.410000000000000E+009;1.716613322496414E-001;-5.799297709017992E-003;-2.606527647003532E-003;-2.999542630277574E-004;
2.410166666666667E+009;1.711418926715851E-001;-7.517213001847267E-003;-2.483591670170426E-003;-2.481896081008017E-004;
2.410333333333334E+009;1.703775078058243E-001;-9.106024168431759E-003;-2.559640910476446E-003;-1.124015034292825E-004;
2.410500000000000E+009;1.698976755142212E-001;-1.087982486933470E-002;-2.476438181474805E-003;-2.064706677629147E-006;
2.410666666666667E+009;1.692342758178711E-001;-1.278440747410059E-002;-2.563063753768802E-003;4.188256571069360E-005;
2.410833333333334E+009;1.689098328351975E-001;-1.444347109645605E-002;-2.483178628608584E-003;6.377475074259564E-005;
2.411000000000000E+009;1.685199439525604E-001;-1.634430512785912E-002;-2.504585543647409E-003;2.511322090867907E-004;
2.411166666666667E+009;1.681865304708481E-001;-1.842055097222328E-002;-2.578040352091193E-003;2.812095626723021E-004;
2.411333333333334E+009;1.678008884191513E-001;-2.022952400147915E-002;-2.392173279076815E-003;3.326911828480661E-004;
2.411500000000000E+009;1.676491349935532E-001;-2.229455299675465E-002;-2.532235113903880E-003;2.596897247713059E-004;
2.411666666666667E+009;1.676658689975739E-001;-2.421241067349911E-002;-2.474479144439101E-003;4.624008433893323E-004;
2.411833333333334E+009;1.676555424928665E-001;-2.595414593815804E-002;-2.413442824035883E-003;3.148670366499573E-004;
2.412000000000000E+009;1.677989214658737E-001;-2.815554104745388E-002;-2.523027826100588E-003;5.501781124621630E-004;
2.412166666666667E+009;1.678025275468826E-001;-2.993759512901306E-002;-2.363331150263548E-003;7.094622706063092E-004;
2.412333333333334E+009;1.681683361530304E-001;-3.197798505425453E-002;-2.563128015026450E-003;6.576221203431487E-004;
2.412500000000000E+009;1.682022362947464E-001;-3.377057239413261E-002;-2.427575644105673E-003;6.033387035131455E-004;
2.412666666666667E+009;1.687317341566086E-001;-3.586276993155479E-002;-2.598960418254137E-003;8.908257586881518E-004;
2.412833333333334E+009;1.691930741071701E-001;-3.769436851143837E-002;-2.514010760933161E-003;1.016104361042380E-003;
2.413000000000000E+009;1.695012599229813E-001;-3.933895006775856E-002;-2.464671386405826E-003;1.031766296364367E-003;
2.413166666666667E+009;1.699263900518417E-001;-4.122171550989151E-002;-2.296918537467718E-003;1.140773529186845E-003;
2.413333333333334E+009;1.704375445842743E-001;-4.292294383049011E-002;-2.374032745137811E-003;1.295766909606755E-003;
2.413500000000000E+009;1.710112839937210E-001;-4.444886744022369E-002;-2.326772781088948E-003;1.388315344229341E-003;
2.413666666666667E+009;1.716664284467697E-001;-4.619413986802101E-002;-2.177878050133586E-003;1.541722333058715E-003;
2.413833333333334E+009;1.721115708351135E-001;-4.751179367303848E-002;-2.192678395658732E-003;1.477464800700545E-003;
2.414000000000000E+009;1.726298779249191E-001;-4.892513155937195E-002;-2.113190712407231E-003;1.794764422811568E-003;
2.414166666666667E+009;1.735164374113083E-001;-5.032351240515709E-002;-1.993182813748717E-003;1.767619163729250E-003;
2.414333333333334E+009;1.739784628152847E-001;-5.140914767980576E-002;-2.061627339571714E-003;1.640650792978704E-003;
2.414500000000000E+009;1.747319847345352E-001;-5.262475088238716E-002;-1.848413259722292E-003;1.809915993362665E-003;
2.414666666666667E+009;1.751308739185333E-001;-5.365947261452675E-002;-2.020203741267324E-003;1.838852767832577E-003;
2.414833333333334E+009;1.755997389554977E-001;-5.466477572917938E-002;-1.790379057638347E-003;1.947340089827776E-003;
2.415000000000000E+009;1.762073785066605E-001;-5.545831099152565E-002;-1.611137879081070E-003;1.960201654583216E-003;
2.415166666666667E+009;1.767070144414902E-001;-5.616600438952446E-002;-1.670346013270319E-003;2.064108615741134E-003;
2.415333333333334E+009;1.771926283836365E-001;-5.694782361388207E-002;-1.471015391871333E-003;2.306419424712658E-003;
2.415500000000000E+009;1.774824708700180E-001;-5.751563236117363E-002;-1.392958336509764E-003;2.109726425260305E-003;
2.415666666666667E+009;1.777361482381821E-001;-5.804223194718361E-002;-1.465934328734875E-003;2.223629038780928E-003;
2.415833333333334E+009;1.780609786510468E-001;-5.860150232911110E-002;-1.161873922683299E-003;2.180194016546011E-003;
2.416000000000000E+009;1.781224906444550E-001;-5.884740874171257E-002;-1.297546084970236E-003;2.342177089303732E-003;
2.416166666666667E+009;1.784077882766724E-001;-5.932431668043137E-002;-1.159798470325768E-003;2.328472677618265E-003;
2.416333333333334E+009;1.783242821693420E-001;-5.952132865786552E-002;-1.066797063685954E-003;2.263255650177598E-003;
2.416500000000000E+009;1.782241910696030E-001;-5.984730273485184E-002;-9.813692886382341E-004;2.335354220122099E-003;
2.416666666666667E+009;1.779376268386841E-001;-6.014265492558479E-002;-9.090286912396550E-004;2.439382253214717E-003;
2.416833333333334E+009;1.779048442840576E-001;-6.042512506246567E-002;-8.620123262517154E-004;2.259634202346206E-003;
2.417000000000000E+009;1.772684156894684E-001;-6.059433147311211E-002;-6.899762665852904E-004;2.323727123439312E-003;
2.417166666666667E+009;1.769347786903381E-001;-6.078965961933136E-002;-6.437541451305151E-004;2.410772489383817E-003;
2.417333333333334E+009;1.763761490583420E-001;-6.087322905659676E-002;-7.177185034379363E-004;2.447143895551562E-003;
2.417500000000000E+009;1.757068485021591E-001;-6.132723391056061E-002;-4.513349849730730E-004;2.403307706117630E-003;
2.417666666666667E+009;1.750699430704117E-001;-6.126186251640320E-002;-4.326524212956429E-004;2.240457339212298E-003;
2.417833333333334E+009;1.742778271436691E-001;-6.157997250556946E-002;-4.252246581017971E-004;2.412899164482951E-003;
2.418000000000000E+009;1.732445657253265E-001;-6.209906563162804E-002;-2.705297665670514E-004;2.419335069134831E-003;
2.418166666666667E+009;1.723646670579910E-001;-6.226662546396256E-002;-2.072887000394985E-004;2.353691030293703E-003;
2.418333333333334E+009;1.714789718389511E-001;-6.275805830955505E-002;1.019309934235935E-006;2.540627960115671E-003;
2.418500000000000E+009;1.703278273344040E-001;-6.307397782802582E-002;-8.284597424790263E-005;2.364180982112885E-003;
2.418666666666667E+009;1.691330373287201E-001;-6.359718739986420E-002;6.248542922548950E-005;2.505296142771840E-003;
2.418833333333334E+009;1.680129021406174E-001;-6.415294855833054E-002;1.829675311455503E-004;2.403807127848268E-003;
2.419000000000000E+009;1.666965633630753E-001;-6.463298201560974E-002;1.927732664626092E-004;2.403850434347987E-003;
2.419166666666667E+009;1.655963063240051E-001;-6.535250693559647E-002;2.511448983568698E-004;2.361501101404429E-003;
2.419333333333334E+009;1.642766147851944E-001;-6.601294875144959E-002;2.297478931723163E-004;2.502528950572014E-003;
2.419500000000000E+009;1.630337536334992E-001;-6.700678169727325E-002;4.790100792888552E-004;2.335336292162538E-003;
2.419666666666667E+009;1.618759036064148E-001;-6.797481328248978E-002;5.234085838310421E-004;2.308268798515201E-003;
2.419833333333334E+009;1.606152504682541E-001;-6.880925595760346E-002;6.466172635555267E-004;2.239841269329190E-003;
2.420000000000000E+009;1.594338268041611E-001;-6.979469954967499E-002;6.232986343093216E-004;2.256445121020079E-003;
2.420166666666667E+009;1.582920551300049E-001;-7.098425179719925E-002;7.038100739009678E-004;2.117226598784328E-003;
2.420333333333334E+009;1.572272926568985E-001;-7.232850790023804E-002;7.619189564138651E-004;2.158605726435781E-003;
2.420500000000000E+009;1.562606096267700E-001;-7.338624447584152E-002;9.541413746774197E-004;1.984511967748404E-003;
2.420666666666667E+009;1.551731228828430E-001;-7.469542324542999E-002;8.772152359597385E-004;2.065559849143028E-003;
2.420833333333334E+009;1.542528420686722E-001;-7.617619633674622E-002;9.205224923789501E-004;1.996682956814766E-003;
2.421000000000000E+009;1.532881706953049E-001;-7.769032567739487E-002;1.070207217708230E-003;1.909184735268354E-003;
2.421166666666667E+009;1.525152772665024E-001;-7.908236235380173E-002;1.002485747449100E-003;1.824592007324100E-003;
2.421333333333334E+009;1.519057005643845E-001;-8.085314184427261E-002;1.164520042948425E-003;1.967712538316846E-003;
2.421500000000000E+009;1.512005329132080E-001;-8.238559961318970E-002;1.128761563450098E-003;1.966927200555801E-003;
2.421666666666667E+009;1.506000012159348E-001;-8.392900973558426E-002;1.173756550997496E-003;1.996349543333054E-003;
2.421833333333334E+009;1.502067446708679E-001;-8.568817377090454E-002;1.124071888625622E-003;1.691346522420645E-003;
2.422000000000000E+009;1.498418748378754E-001;-8.745279908180237E-002;1.171392621472478E-003;1.746810856275260E-003;
2.422166666666667E+009;1.495282500982285E-001;-8.932787925004959E-002;1.280112657696009E-003;1.565588288940489E-003;
2.422333333333334E+009;1.493875533342362E-001;-9.089227765798569E-002;1.211678376421332E-003;1.653770799748600E-003;
2.422500000000000E+009;1.491568386554718E-001;-9.248231351375580E-002;1.285713631659746E-003;1.558026298880577E-003;
2.422666666666667E+009;1.490569710731506E-001;-9.422495961189270E-002;1.268091611564159E-003;1.443430548533797E-003;
2.422833333333334E+009;1.492681801319122E-001;-9.599862247705460E-002;1.334097469225526E-003;1.406657276675105E-003;
2.423000000000000E+009;1.492913812398911E-001;-9.763081371784210E-002;1.441068947315216E-003;1.522468635812402E-003;
2.423166666666667E+009;1.495421975851059E-001;-9.929914772510529E-002;1.343981246463954E-003;1.476246747188270E-003;
2.423333333333334E+009;1.499895155429840E-001;-1.006452739238739E-001;1.302492804825306E-003;1.467754831537604E-003;
2.423500000000000E+009;1.502677202224731E-001;-1.023342311382294E-001;1.468257047235966E-003;1.417344785295427E-003;
2.423666666666667E+009;1.503223478794098E-001;-1.038893163204193E-001;1.455014455132186E-003;1.462974585592747E-003;
2.423833333333334E+009;1.511332094669342E-001;-1.053370609879494E-001;1.657518208958209E-003;1.385394949465990E-003;
2.424000000000000E+009;1.512360870838165E-001;-1.064588874578476E-001;1.548429951071739E-003;1.263087033294141E-003;
2.424166666666667E+009;1.516270041465759E-001;-1.077490448951721E-001;1.602084026671946E-003;1.334714121185243E-003;
2.424333333333334E+009;1.524764150381088E-001;-1.089375764131546E-001;1.774932141415775E-003;1.237357035279274E-003;
2.424500000000000E+009;1.527950614690781E-001;-1.101267263293266E-001;1.661547576077282E-003;1.228565932251513E-003;
2.424666666666667E+009;1.535581052303314E-001;-1.110562235116959E-001;1.827624742873013E-003;9.853177471086383E-004;
2.424833333333334E+009;1.538670510053635E-001;-1.121596917510033E-001;1.758816651999950E-003;1.203153631649911E-003;
2.425000000000000E+009;1.544331461191177E-001;-1.129605472087860E-001;1.799461664631963E-003;9.717855718918145E-004;
2.425166666666667E+009;1.546985059976578E-001;-1.138289719820023E-001;1.999848056584597E-003;1.114273676648736E-003;
2.425333333333334E+009;1.551558226346970E-001;-1.144964098930359E-001;2.123242942616344E-003;1.012088381685317E-003;
2.425500000000000E+009;1.556466370820999E-001;-1.153241619467735E-001;2.000001026317477E-003;1.036806032061577E-003;
2.425666666666667E+009;1.557639092206955E-001;-1.157900243997574E-001;2.214464358985424E-003;8.176613482646644E-004;
2.425833333333334E+009;1.561510711908341E-001;-1.162298247218132E-001;2.287621842697263E-003;7.855888106860220E-004;
2.426000000000000E+009;1.564246863126755E-001;-1.168220266699791E-001;2.197663765400648E-003;7.228240137919784E-004;
2.426166666666667E+009;1.566451936960220E-001;-1.170677766203880E-001;2.329136477783322E-003;4.705513711087406E-004;
2.426333333333334E+009;1.566032469272614E-001;-1.173713207244873E-001;2.326731104403734E-003;3.967167285736650E-004;
2.426500000000000E+009;1.566408127546310E-001;-1.177159622311592E-001;2.323741791769862E-003;5.210702074691653E-004;
2.426666666666667E+009;1.567183136940002E-001;-1.178977862000465E-001;2.309342147782445E-003;2.684703504201025E-004;
2.426833333333334E+009;1.565898954868317E-001;-1.179673597216606E-001;2.283835550770164E-003;5.432310863398016E-004;
2.427000000000000E+009;1.562654078006744E-001;-1.182749718427658E-001;2.335245022550225E-003;1.227238535648212E-004;
2.427166666666667E+009;1.558776199817658E-001;-1.181986555457115E-001;2.270993078127503E-003;8.804629760561511E-005;
2.427333333333334E+009;1.553793996572495E-001;-1.183118298649788E-001;2.173194894567132E-003;1.535803603474051E-004;
2.427500000000000E+009;1.549263000488281E-001;-1.184598132967949E-001;2.188369864597917E-003;-9.215639875037596E-005;
2.427666666666667E+009;1.542138606309891E-001;-1.185938268899918E-001;2.255785511806607E-003;7.037076284177601E-005;
2.427833333333334E+009;1.533199399709702E-001;-1.187334433197975E-001;2.109603723511100E-003;-1.093005412258208E-004;
