# Version 1.00
#
freq[Hz];re:Trc1_S11;im:Trc1_S11;re:Trc2_S21;im:Trc2_S21;
2.400000000000000E+009;1.574707031250000E-001;6.307952105998993E-002;2.000630833208561E-003;-6.074005505070090E-004;
2.400166666666667E+009;1.573245823383331E-001;6.137277930974960E-002;2.064941683784127E-003;-5.221899482421577E-004;
2.400333333333334E+009;1.573415398597717E-001;5.934822559356690E-002;2.110633067786694E-003;-7.792187388986349E-004;
2.400500000000000E+009;1.572070419788361E-001;5.743703618645668E-002;2.244251547381282E-003;-8.414738113060594E-004;
2.400666666666667E+009;1.570215374231339E-001;5.539300292730331E-002;2.101759891957045E-003;-9.688768186606467E-004;
2.400833333333334E+009;1.571628004312515E-001;5.349770933389664E-002;2.344939159229398E-003;-1.078456523828208E-003;
2.401000000000000E+009;1.574865728616715E-001;5.129961296916008E-002;2.194198314100504E-003;-1.165615976788104E-003;
2.401166666666667E+009;1.577331423759460E-001;4.922157153487206E-002;2.008261624723673E-003;-1.454625278711319E-003;
2.401333333333334E+009;1.577012836933136E-001;4.695764929056168E-002;2.320439554750919E-003;-1.371808233670890E-003;
2.401500000000000E+009;1.581745743751526E-001;4.486442729830742E-002;2.231297548860312E-003;-1.657028100453317E-003;
2.401666666666667E+009;1.583544164896011E-001;4.317389056086540E-002;2.361216582357884E-003;-1.796129043214023E-003;
2.401833333333334E+009;1.589667350053787E-001;4.086331650614739E-002;2.196032786741853E-003;-1.962611917406321E-003;
2.402000000000000E+009;1.592362523078919E-001;3.882971778512001E-002;2.037352649495006E-003;-2.259665168821812E-003;
2.402166666666667E+009;1.599265187978745E-001;3.669895604252815E-002;2.128423657268286E-003;-2.555830171331763E-003;
2.402333333333334E+009;1.604431420564652E-001;3.493718430399895E-002;1.955149229615927E-003;-2.541021211072803E-003;
2.402500000000000E+009;1.613638103008270E-001;3.306734934449196E-002;1.851677545346320E-003;-2.749136649072170E-003;
2.402666666666667E+009;1.619604080915451E-001;3.128422424197197E-002;1.594088156707585E-003;-2.910596085712314E-003;
2.402833333333334E+009;1.628909260034561E-001;2.977669797837734E-002;1.560402452014387E-003;-3.029677085578442E-003;
2.403000000000000E+009;1.636063903570175E-001;2.795737795531750E-002;1.300825853832066E-003;-3.128102049231529E-003;
2.403166666666667E+009;1.645932346582413E-001;2.642282098531723E-002;1.034757937304676E-003;-3.349066246300936E-003;
2.403333333333334E+009;1.653880625963211E-001;2.499460428953171E-002;8.647778304293752E-004;-3.451177151873708E-003;
2.403500000000000E+009;1.662028133869171E-001;2.370101585984230E-002;8.965014130808413E-004;-3.486305242404342E-003;
2.403666666666667E+009;1.673889458179474E-001;2.223736792802811E-002;5.243409541435540E-004;-3.524780971929431E-003;
2.403833333333334E+009;1.684371083974838E-001;2.109817601740360E-002;2.605090267024934E-004;-3.565539140254259E-003;
2.404000000000000E+009;1.693913638591766E-001;1.989179849624634E-002;1.053152591339313E-004;-3.614544635638595E-003;
2.404166666666667E+009;1.703108400106430E-001;1.866373792290688E-002;1.265969785890775E-005;-3.676923690363765E-003;
2.404333333333334E+009;1.714720726013184E-001;1.764275878667831E-002;-2.853723417501897E-004;-3.631160361692309E-003;
2.404500000000000E+009;1.724197119474411E-001;1.656002365052700E-002;-4.457467002794147E-004;-3.623228752985597E-003;
2.404666666666667E+009;1.734894216060638E-001;1.603897847235203E-002;-8.318390464410186E-004;-3.491061506792903E-003;
2.404833333333334E+009;1.741455942392349E-001;1.507953647524118E-002;-1.157158287242055E-003;-3.397729247808456E-003;
2.405000000000000E+009;1.751684397459030E-001;1.434082444757223E-002;-1.154316589236260E-003;-3.182260785251856E-003;
2.405166666666667E+009;1.758806407451630E-001;1.378100924193859E-002;-1.377983018755913E-003;-3.217601450160146E-003;
2.405333333333334E+009;1.767785400152206E-001;1.310947351157665E-002;-1.511854352429509E-003;-3.174141282215715E-003;
2.405500000000000E+009;1.774484068155289E-001;1.292761322110891E-002;-1.746735768392682E-003;-2.893265103921294E-003;
2.405666666666667E+009;1.782430857419968E-001;1.243106555193663E-002;-1.807497115805745E-003;-2.977911848574877E-003;
2.405833333333334E+009;1.787302494049072E-001;1.198889035731554E-002;-1.877399045042694E-003;-2.784735988825560E-003;
2.406000000000000E+009;1.794019192457199E-001;1.156226359307766E-002;-1.948638935573399E-003;-2.668998902663589E-003;
2.406166666666667E+009;1.796525120735169E-001;1.153798867017031E-002;-2.031903248280287E-003;-2.573938108980656E-003;
2.406333333333334E+009;1.802045106887817E-001;1.116130873560906E-002;-2.154791262000799E-003;-2.407565712928772E-003;
2.406500000000000E+009;1.804730296134949E-001;1.079263631254435E-002;-2.303661545738578E-003;-2.296892926096916E-003;
2.406666666666667E+009;1.805934607982636E-001;1.061603240668774E-002;-2.120743505656719E-003;-2.124364487826824E-003;
2.406833333333334E+009;1.808451712131500E-001;1.022896356880665E-002;-2.298650797456503E-003;-1.934717642143369E-003;
2.407000000000000E+009;1.808019876480103E-001;9.884592145681381E-003;-2.420014468953013E-003;-1.899202936328948E-003;
2.407166666666667E+009;1.808248758316040E-001;9.778266772627831E-003;-2.502190181985498E-003;-1.898319576866925E-003;
2.407333333333334E+009;1.806847006082535E-001;9.174885228276253E-003;-2.531277947127819E-003;-1.803343882784247E-003;
2.407500000000000E+009;1.806264817714691E-001;8.808032609522343E-003;-2.556427381932735E-003;-1.611247775144875E-003;
2.407666666666667E+009;1.803181469440460E-001;8.430721238255501E-003;-2.617231104522944E-003;-1.375767518766224E-003;
2.407833333333334E+009;1.797979027032852E-001;7.856115698814392E-003;-2.513897139579058E-003;-1.252345857210457E-003;
2.408000000000000E+009;1.795058399438858E-001;7.237176410853863E-003;-2.590130083262920E-003;-1.246269675903022E-003;
2.408166666666667E+009;1.788720190525055E-001;6.641253829002380E-003;-2.598137129098177E-003;-1.035949913784862E-003;
2.408333333333334E+009;1.785805821418762E-001;5.923639517277479E-003;-2.494637155905366E-003;-1.056916895322502E-003;
2.408500000000000E+009;1.779605001211166E-001;5.006802733987570E-003;-2.726990263909102E-003;-9.986012009903789E-004;
2.408666666666667E+009;1.773134618997574E-001;4.146514460444450E-003;-2.543243346735835E-003;-9.046347695402801E-004;
2.408833333333334E+009;1.764708608388901E-001;2.989808563143015E-003;-2.565543632954359E-003;-7.596292998641729E-004;
2.409000000000000E+009;1.759142577648163E-001;2.131266519427300E-003;-2.606210531666875E-003;-6.706305430270731E-004;
2.409166666666667E+009;1.750399023294449E-001;1.029768027365208E-003;-2.496596891433001E-003;-5.874314811080694E-004;
2.409333333333334E+009;1.743793934583664E-001;-2.439717354718596E-004;-2.644031075760722E-003;-4.179704119451344E-004;
2.409500000000000E+009;1.736179739236832E-001;-1.664604176767170E-003;-2.524818060919642E-003;-5.094548105262220E-004;
2.409666666666667E+009;1.728498935699463E-001;-3.008658532053232E-003;-2.553778933361173E-003;-3.832416550721973E-004;
2.409833333333334E+009;1.722363978624344E-001;-4.409631248563528E-003;-2.675793599337339E-003;-2.227969962405041E-004;
2.410000000000000E+009;1.716630607843399E-001;-5.881743039935827E-003;-2.585995709523559E-003;-2.214767300756648E-004;
2.410166666666667E+009;1.708792597055435E-001;-7.314973510801792E-003;-2.333633136004210E-003;-2.899627143051475E-004;
2.410333333333334E+009;1.702748984098434E-001;-9.027999825775623E-003;-2.338065765798092E-003;-1.905316603370011E-004;
2.410500000000000E+009;1.698435544967651E-001;-1.083680335432291E-002;-2.361384453251958E-003;7.426451338687912E-005;
2.410666666666667E+009;1.691529601812363E-001;-1.272206660360098E-002;-2.519637811928988E-003;3.840022691292688E-005;
2.410833333333334E+009;1.688900887966156E-001;-1.442803535610437E-002;-2.392679220065475E-003;1.107878997572698E-004;
2.411000000000000E+009;1.684518754482269E-001;-1.630017906427383E-002;-2.264792332425714E-003;1.496204058639705E-004;
2.411166666666667E+009;1.681056469678879E-001;-1.814536750316620E-002;-2.393493661656976E-003;1.705439499346539E-004;
2.411333333333334E+009;1.679263561964035E-001;-2.011923864483833E-002;-2.455556299537420E-003;2.128755877492949E-004;
2.411500000000000E+009;1.676084995269775E-001;-2.228232473134995E-002;-2.468219259753823E-003;3.665941185317934E-004;
2.411666666666667E+009;1.676914244890213E-001;-2.421088144183159E-002;-2.483465941622853E-003;4.477038746699691E-004;
2.411833333333334E+009;1.675699055194855E-001;-2.609328739345074E-002;-2.482342766597867E-003;3.741364052984864E-004;
2.412000000000000E+009;1.677839756011963E-001;-2.803564071655273E-002;-2.489347243681550E-003;4.706109757535160E-004;
2.412166666666667E+009;1.676659435033798E-001;-2.995443716645241E-002;-2.452580258250237E-003;7.177786319516599E-004;
2.412333333333334E+009;1.683098375797272E-001;-3.183923661708832E-002;-2.487751189619303E-003;7.765043992549181E-004;
2.412500000000000E+009;1.683875769376755E-001;-3.389647603034973E-002;-2.490584505721927E-003;7.750528748147190E-004;
2.412666666666667E+009;1.687158048152924E-001;-3.583871573209763E-002;-2.351774368435144E-003;9.159773471765220E-004;
2.412833333333334E+009;1.689804196357727E-001;-3.765433654189110E-002;-2.486448036506772E-003;9.520055609755218E-004;
2.413000000000000E+009;1.695193648338318E-001;-3.942603990435600E-002;-2.426394727081060E-003;1.101344125345349E-003;
2.413166666666667E+009;1.700609624385834E-001;-4.113864898681641E-002;-2.392266644164920E-003;1.165875699371100E-003;
2.413333333333334E+009;1.705205440521240E-001;-4.282378777861595E-002;-2.203489886596799E-003;1.239837263710797E-003;
2.413500000000000E+009;1.710032671689987E-001;-4.454825446009636E-002;-2.345381304621697E-003;1.421947730705142E-003;
2.413666666666667E+009;1.716384440660477E-001;-4.617799445986748E-002;-2.132948255166411E-003;1.324381912127137E-003;
2.413833333333334E+009;1.721864491701126E-001;-4.727865755558014E-002;-2.204418880864978E-003;1.582770841196179E-003;
2.414000000000000E+009;1.727707386016846E-001;-4.895586520433426E-002;-2.056478988379240E-003;1.682415721006692E-003;
2.414166666666667E+009;1.735776960849762E-001;-5.025917664170265E-002;-1.981300069019198E-003;1.695677638053894E-003;
2.414333333333334E+009;1.741303801536560E-001;-5.154015496373177E-002;-2.094981260597706E-003;1.836227020248771E-003;
2.414500000000000E+009;1.748867034912109E-001;-5.259279161691666E-002;-1.844735699705780E-003;1.966128591448069E-003;
2.414666666666667E+009;1.751987040042877E-001;-5.358061566948891E-002;-1.861494965851307E-003;2.006504684686661E-003;
2.414833333333334E+009;1.757501363754273E-001;-5.450793728232384E-002;-1.683973940089345E-003;2.082066144794226E-003;
2.415000000000000E+009;1.762717217206955E-001;-5.546240508556366E-002;-1.518713310360909E-003;2.060977509245277E-003;
2.415166666666667E+009;1.766492575407028E-001;-5.609797686338425E-002;-1.581744989380240E-003;1.978805987164378E-003;
2.415333333333334E+009;1.772011667490006E-001;-5.695546790957451E-002;-1.475357450544834E-003;2.134707523509860E-003;
2.415500000000000E+009;1.775767952203751E-001;-5.751520767807961E-002;-1.322761760093272E-003;2.205085474997759E-003;
2.415666666666667E+009;1.778570413589478E-001;-5.795555189251900E-002;-1.415948849171400E-003;2.261448418721557E-003;
2.415833333333334E+009;1.782157868146896E-001;-5.869719013571739E-002;-1.299982191994786E-003;2.216654829680920E-003;
2.416000000000000E+009;1.781627386808395E-001;-5.899450927972794E-002;-1.112505677156150E-003;2.254919847473502E-003;
2.416166666666667E+009;1.783711463212967E-001;-5.938991531729698E-002;-9.756087674759328E-004;2.402406884357333E-003;
2.416333333333334E+009;1.783384680747986E-001;-5.960800126194954E-002;-1.020228140987456E-003;2.232686849310994E-003;
2.416500000000000E+009;1.783825904130936E-001;-5.996431410312653E-002;-9.256068151444197E-004;2.301445929333568E-003;
2.416666666666667E+009;1.780080795288086E-001;-6.014909967780113E-002;-7.449648110195994E-004;2.375021809712052E-003;
2.416833333333334E+009;1.778540462255478E-001;-6.049101427197456E-002;-6.625480600632727E-004;2.344633452594280E-003;
2.417000000000000E+009;1.772366911172867E-001;-6.076130643486977E-002;-5.956583190709353E-004;2.374208532273769E-003;
2.417166666666667E+009;1.769674718379974E-001;-6.082555279135704E-002;-5.700990441255271E-004;2.392865950241685E-003;
2.417333333333334E+009;1.764557659626007E-001;-6.096089258790016E-002;-5.525507731363177E-004;2.452760934829712E-003;
2.417500000000000E+009;1.755883842706680E-001;-6.138123199343681E-002;-4.434350703377277E-004;2.440318465232849E-003;
2.417666666666667E+009;1.751034110784531E-001;-6.136025115847588E-002;-3.769593022298068E-004;2.399240387603641E-003;
2.417833333333334E+009;1.741443574428558E-001;-6.175673380494118E-002;-3.436561091803014E-004;2.523358911275864E-003;
2.418000000000000E+009;1.732697933912277E-001;-6.200856715440750E-002;-3.650668950285763E-004;2.446860540658236E-003;
2.418166666666667E+009;1.722306311130524E-001;-6.217497214674950E-002;-6.687694258289412E-005;2.376513555645943E-003;
2.418333333333334E+009;1.713772416114807E-001;-6.272382289171219E-002;7.154249487939524E-006;2.424284582957625E-003;
2.418500000000000E+009;1.702132523059845E-001;-6.311962008476257E-002;1.103425165638328E-004;2.400455065071583E-003;
2.418666666666667E+009;1.692076474428177E-001;-6.357952207326889E-002;1.001124401227571E-004;2.419447991997004E-003;
2.418833333333334E+009;1.679898500442505E-001;-6.425775587558746E-002;1.565457205288112E-004;2.329633105546236E-003;
2.419000000000000E+009;1.667264252901077E-001;-6.472541391849518E-002;3.139095497317612E-004;2.284272341057658E-003;
2.419166666666667E+009;1.656974554061890E-001;-6.540846079587936E-002;4.038148908875883E-004;2.140697324648500E-003;
2.419333333333334E+009;1.642233282327652E-001;-6.603730469942093E-002;4.583795380312949E-004;2.330040559172630E-003;
2.419500000000000E+009;1.630938351154327E-001;-6.709358841180801E-002;5.954331718385220E-004;2.235796535387635E-003;
2.419666666666667E+009;1.619749665260315E-001;-6.794499605894089E-002;6.642320076934993E-004;2.162600168958306E-003;
2.419833333333334E+009;1.606151163578033E-001;-6.876881420612335E-002;5.887765437364578E-004;2.184477867558599E-003;
2.420000000000000E+009;1.594883352518082E-001;-6.996845453977585E-002;8.432394242845476E-004;2.085080137476325E-003;
2.420166666666667E+009;1.583723723888397E-001;-7.109025865793228E-002;7.151757017709315E-004;2.114934381097555E-003;
2.420333333333334E+009;1.571332961320877E-001;-7.224209606647492E-002;9.720462840050459E-004;2.182580763474107E-003;
2.420500000000000E+009;1.562589108943939E-001;-7.342344522476196E-002;9.191522840410471E-004;2.023130888119340E-003;
2.420666666666667E+009;1.551337689161301E-001;-7.465962320566177E-002;1.011926564387977E-003;1.963433111086488E-003;
2.420833333333334E+009;1.541339755058289E-001;-7.605525851249695E-002;1.054744119755924E-003;1.852948800660670E-003;
2.421000000000000E+009;1.532794982194901E-001;-7.788828015327454E-002;9.938937146216631E-004;1.838786643929780E-003;
2.421166666666667E+009;1.526067405939102E-001;-7.918380200862885E-002;9.142449707724154E-004;1.815762137994170E-003;
2.421333333333334E+009;1.520427316427231E-001;-8.086455613374710E-002;1.140020904131234E-003;1.793954405002296E-003;
2.421500000000000E+009;1.511342674493790E-001;-8.241400867700577E-002;1.133190235123038E-003;1.827806001529098E-003;
2.421666666666667E+009;1.507425755262375E-001;-8.400613069534302E-002;1.129489042796195E-003;1.754373311996460E-003;
2.421833333333334E+009;1.502473354339600E-001;-8.566108345985413E-002;1.172080053947866E-003;1.652820501476526E-003;
2.422000000000000E+009;1.498407423496246E-001;-8.729717135429382E-002;1.112967031076551E-003;1.617367612197995E-003;
2.422166666666667E+009;1.495080888271332E-001;-8.914412558078766E-002;1.244055340066552E-003;1.611006329767406E-003;
2.422333333333334E+009;1.493584364652634E-001;-9.085628390312195E-002;1.210306654684246E-003;1.593980472534895E-003;
2.422500000000000E+009;1.492497026920319E-001;-9.254106134176254E-002;1.314570778049529E-003;1.484423875808716E-003;
2.422666666666667E+009;1.491665244102478E-001;-9.424764662981033E-002;1.355453045107424E-003;1.469517708756030E-003;
2.422833333333334E+009;1.493126899003983E-001;-9.607849270105362E-002;1.281477743759751E-003;1.631130347959697E-003;
2.423000000000000E+009;1.494512110948563E-001;-9.757151454687119E-002;1.389477634802461E-003;1.384890405461192E-003;
2.423166666666667E+009;1.497035175561905E-001;-9.926565736532211E-002;1.271972781978548E-003;1.495492877438664E-003;
2.423333333333334E+009;1.500382870435715E-001;-1.007490530610085E-001;1.476370496675372E-003;1.269710017368197E-003;
2.423500000000000E+009;1.501552611589432E-001;-1.024654060602188E-001;1.439414802007377E-003;1.435686484910548E-003;
2.423666666666667E+009;1.504724919795990E-001;-1.039056852459908E-001;1.559794996865094E-003;1.384233939461410E-003;
2.423833333333334E+009;1.510293781757355E-001;-1.053635478019714E-001;1.643756055273116E-003;1.277441158890724E-003;
2.424000000000000E+009;1.514185816049576E-001;-1.064900979399681E-001;1.579499337822199E-003;1.453322824090719E-003;
2.424166666666667E+009;1.518487185239792E-001;-1.079146936535835E-001;1.594265340827406E-003;1.362340641207993E-003;
2.424333333333334E+009;1.523312181234360E-001;-1.089447289705277E-001;1.656035892665386E-003;1.255336217582226E-003;
2.424500000000000E+009;1.528443098068237E-001;-1.102784723043442E-001;1.700588152743876E-003;1.128401956520975E-003;
2.424666666666667E+009;1.534959375858307E-001;-1.111337095499039E-001;1.815881929360330E-003;1.221736660227180E-003;
2.424833333333334E+009;1.538283079862595E-001;-1.121988818049431E-001;1.873320434242487E-003;1.228697947226465E-003;
2.425000000000000E+009;1.543014049530029E-001;-1.131110116839409E-001;1.870194333605468E-003;1.049722195602953E-003;
2.425166666666667E+009;1.547154933214188E-001;-1.138953045010567E-001;1.847933745011687E-003;1.013991888612509E-003;
2.425333333333334E+009;1.551235020160675E-001;-1.145791932940483E-001;2.030618023127317E-003;9.529122035019100E-004;
2.425500000000000E+009;1.556276381015778E-001;-1.152675822377205E-001;2.079436555504799E-003;9.864703752100468E-004;
2.425666666666667E+009;1.558624058961868E-001;-1.159087494015694E-001;2.134238835424185E-003;8.690806571394205E-004;
2.425833333333334E+009;1.560945063829422E-001;-1.163018420338631E-001;2.126629929989576E-003;8.230085950344801E-004;
2.426000000000000E+009;1.563744395971298E-001;-1.168767586350441E-001;2.090425230562687E-003;6.304775015451014E-004;
2.426166666666667E+009;1.567495465278626E-001;-1.172007843852043E-001;2.342220628634095E-003;5.371170700527728E-004;
2.426333333333334E+009;1.566939502954483E-001;-1.175423115491867E-001;2.268600510433316E-003;5.813079187646508E-004;
2.426500000000000E+009;1.566257923841476E-001;-1.176482737064362E-001;2.277615945786238E-003;2.849975717253983E-004;
2.426666666666667E+009;1.567054092884064E-001;-1.177552565932274E-001;2.122475067153573E-003;3.809657646343112E-004;
2.426833333333334E+009;1.565431058406830E-001;-1.180101484060288E-001;2.290287986397743E-003;1.711842487566173E-004;
2.427000000000000E+009;1.562366187572479E-001;-1.183394044637680E-001;2.135672606527805E-003;1.223329018102959E-004;
2.427166666666667E+009;1.558641344308853E-001;-1.182672381401062E-001;2.344600157812238E-003;2.502336656107218E-006;
2.427333333333334E+009;1.553624570369721E-001;-1.183917820453644E-001;2.333591459318996E-003;-1.000665579340421E-004;
2.427500000000000E+009;1.549695730209351E-001;-1.184839084744453E-001;2.263488247990608E-003;5.425900326372357E-006;
2.427666666666667E+009;1.541658192873001E-001;-1.186047047376633E-001;2.237328793853521E-003;-1.266772742383182E-004;
2.427833333333334E+009;1.534017771482468E-001;-1.187208816409111E-001;2.035802695900202E-003;-1.562558027217165E-004;
