# Version 1.00
#
freq[Hz];re:Trc1_S11;im:Trc1_S11;re:Trc2_S21;im:Trc2_S21;
2.400000000000000E+009;1.689664423465729E-001;4.592946544289589E-002;-4.480205010622740E-003;-1.650037826038897E-003;
2.400166666666667E+009;1.698794364929199E-001;4.494926333427429E-002;-4.748747684061527E-003;-1.564620411954820E-003;
2.400333333333334E+009;1.710553914308548E-001;4.367132484912872E-002;-4.837866406887770E-003;-1.285851933062077E-003;
2.400500000000000E+009;1.718798279762268E-001;4.280517250299454E-002;-4.988119006156921E-003;-1.189347705803812E-003;
2.400666666666667E+009;1.727687269449234E-001;4.174893349409103E-002;-5.131571553647518E-003;-1.145348767749965E-003;
2.400833333333334E+009;1.736757904291153E-001;4.107879102230072E-002;-5.428891163319349E-003;-8.844333351589739E-004;
2.401000000000000E+009;1.744782626628876E-001;4.016621038317680E-002;-5.478391889482737E-003;-5.262637860141695E-004;
2.401166666666667E+009;1.752517372369766E-001;3.948318213224411E-002;-5.634965375065804E-003;-3.290671447757632E-004;
2.401333333333334E+009;1.759659051895142E-001;3.886703774333000E-002;-5.842610262334347E-003;-4.460585842025466E-005;
2.401500000000000E+009;1.765500605106354E-001;3.823544830083847E-002;-5.928928963840008E-003;2.838665095623583E-004;
2.401666666666667E+009;1.772600710391998E-001;3.763811290264130E-002;-5.967713426798582E-003;5.307476967573166E-004;
2.401833333333334E+009;1.778518408536911E-001;3.689523786306381E-002;-6.000776775181294E-003;8.128367480821908E-004;
2.402000000000000E+009;1.783023029565811E-001;3.645342960953713E-002;-6.002042908221483E-003;1.110693439841270E-003;
2.402166666666667E+009;1.787163764238358E-001;3.580043837428093E-002;-6.153773050755262E-003;1.415804377757013E-003;
2.402333333333334E+009;1.790588647127152E-001;3.530913591384888E-002;-6.057288963347673E-003;1.782805426046252E-003;
2.402500000000000E+009;1.794545948505402E-001;3.473526984453201E-002;-5.928885657340288E-003;2.234443323686719E-003;
2.402666666666667E+009;1.795343309640884E-001;3.427205979824066E-002;-5.887845531105995E-003;2.418278949335218E-003;
2.402833333333334E+009;1.798222064971924E-001;3.331721946597099E-002;-5.707253701984882E-003;2.875147387385368E-003;
2.403000000000000E+009;1.797226816415787E-001;3.279081359505653E-002;-5.524343810975552E-003;3.183258930221200E-003;
2.403166666666667E+009;1.798767149448395E-001;3.192234784364700E-002;-5.193519871681929E-003;3.235914511606097E-003;
2.403333333333334E+009;1.798902302980423E-001;3.125705942511559E-002;-5.326258949935436E-003;3.727987874299288E-003;
2.403500000000000E+009;1.798287928104401E-001;3.032937832176685E-002;-5.041781812906265E-003;4.003722686320543E-003;
2.403666666666667E+009;1.794556975364685E-001;2.927398122847080E-002;-4.891391843557358E-003;4.099530633538961E-003;
2.403833333333334E+009;1.793000549077988E-001;2.815733291208744E-002;-4.654034506529570E-003;4.476412199437618E-003;
2.404000000000000E+009;1.790395081043243E-001;2.717879042029381E-002;-4.443847108632326E-003;4.688298795372248E-003;
2.404166666666667E+009;1.785330474376679E-001;2.587700448930264E-002;-4.082874860614538E-003;4.828565753996372E-003;
2.404333333333334E+009;1.780353486537933E-001;2.480289526283741E-002;-3.885619342327118E-003;4.842726048082113E-003;
2.404500000000000E+009;1.774667799472809E-001;2.320895344018936E-002;-3.614241955801845E-003;5.102481693029404E-003;
2.404666666666667E+009;1.770336478948593E-001;2.191864885389805E-002;-3.362008603289723E-003;5.193775985389948E-003;
2.404833333333334E+009;1.765702515840530E-001;2.062370441854000E-002;-3.093098523095250E-003;5.401446949690580E-003;
2.405000000000000E+009;1.760572195053101E-001;1.890016533434391E-002;-2.826983109116554E-003;5.418505985289812E-003;
2.405166666666667E+009;1.757104992866516E-001;1.750461570918560E-002;-2.659885212779045E-003;5.568780936300755E-003;
2.405333333333334E+009;1.752637177705765E-001;1.567294076085091E-002;-2.184193814173341E-003;5.585215520113707E-003;
2.405500000000000E+009;1.748474389314652E-001;1.400538999587297E-002;-2.009846502915025E-003;5.657432135194540E-003;
2.405666666666667E+009;1.743800640106201E-001;1.237452123314142E-002;-1.653445418924093E-003;5.580809433013201E-003;
2.405833333333334E+009;1.739886254072189E-001;1.063697412610054E-002;-1.454346464015544E-003;5.584235303103924E-003;
2.406000000000000E+009;1.738827973604202E-001;8.646756410598755E-003;-1.300919102504849E-003;5.614714231342077E-003;
2.406166666666667E+009;1.733216196298599E-001;6.904319860041142E-003;-1.243156497366726E-003;5.610470660030842E-003;
2.406333333333334E+009;1.733729988336563E-001;4.982714541256428E-003;-9.893473470583558E-004;5.528572946786881E-003;
2.406500000000000E+009;1.731182187795639E-001;2.776614623144269E-003;-8.734910516068339E-004;5.382229108363390E-003;
2.406666666666667E+009;1.727849990129471E-001;8.580542635172606E-004;-6.018658168613911E-004;5.566469859331846E-003;
2.406833333333334E+009;1.728144735097885E-001;-1.268565887585282E-003;-4.506312543526292E-004;5.287783220410347E-003;
2.407000000000000E+009;1.728839576244354E-001;-3.272664733231068E-003;-2.730380510911346E-004;5.472194403409958E-003;
2.407166666666667E+009;1.731319576501846E-001;-5.394421517848969E-003;6.501067673525540E-006;5.450289696455002E-003;
2.407333333333334E+009;1.731643527746201E-001;-7.594316266477108E-003;3.181513238814659E-005;5.346130114048719E-003;
2.407500000000000E+009;1.734057068824768E-001;-9.737166576087475E-003;1.602678676135838E-004;5.265113431960344E-003;
2.407666666666667E+009;1.737477332353592E-001;-1.171543728560209E-002;4.197676316834986E-004;5.514478776603937E-003;
2.407833333333334E+009;1.737832576036453E-001;-1.389610022306442E-002;5.185099435038865E-004;5.373050924390554E-003;
2.408000000000000E+009;1.742644608020783E-001;-1.604129001498222E-002;7.345179910771549E-004;5.412526428699493E-003;
2.408166666666667E+009;1.745362430810928E-001;-1.791886612772942E-002;8.809608407318592E-004;5.220991559326649E-003;
2.408333333333334E+009;1.750934869050980E-001;-1.995751634240151E-002;1.014204928651452E-003;5.285830236971378E-003;
2.408500000000000E+009;1.753025203943253E-001;-2.196742966771126E-002;1.222496153786779E-003;5.206067580729723E-003;
2.408666666666667E+009;1.758646219968796E-001;-2.385940216481686E-002;1.420168206095696E-003;5.141910165548325E-003;
2.408833333333334E+009;1.761834174394608E-001;-2.568193525075913E-002;1.537473755888641E-003;5.175390280783176E-003;
2.409000000000000E+009;1.764627695083618E-001;-2.716631628572941E-002;1.426513539627194E-003;5.183301400393248E-003;
2.409166666666667E+009;1.769931912422180E-001;-2.879834361374378E-002;1.657072803936899E-003;5.166145507246256E-003;
2.409333333333334E+009;1.775454133749008E-001;-3.040303289890289E-002;1.923729199916124E-003;5.225463770329952E-003;
2.409500000000000E+009;1.776438057422638E-001;-3.182482346892357E-002;2.256930107250810E-003;5.186071153730154E-003;
2.409666666666667E+009;1.782312840223312E-001;-3.298954665660858E-002;2.444003708660603E-003;5.064984317868948E-003;
2.409833333333334E+009;1.785708963871002E-001;-3.391635045409203E-002;2.555021783336997E-003;5.107641685754061E-003;
2.410000000000000E+009;1.790480017662048E-001;-3.504119813442230E-002;2.771239960566163E-003;5.122314672917128E-003;
2.410166666666667E+009;1.795431822538376E-001;-3.585767373442650E-002;3.059670329093933E-003;5.002006422728300E-003;
2.410333333333334E+009;1.800585985183716E-001;-3.671247884631157E-002;3.371467348188162E-003;5.092316307127476E-003;
2.410500000000000E+009;1.802375167608261E-001;-3.740820661187172E-002;3.632482374086976E-003;4.852407146245241E-003;
2.410666666666667E+009;1.807119846343994E-001;-3.821742907166481E-002;3.964964766055346E-003;4.763188306242228E-003;
2.410833333333334E+009;1.812137812376022E-001;-3.879379108548164E-002;4.220527131110430E-003;4.512279294431210E-003;
2.411000000000000E+009;1.813274025917053E-001;-3.936028480529785E-002;4.686546977609396E-003;4.575002007186413E-003;
2.411166666666667E+009;1.814714968204498E-001;-4.000987857580185E-002;4.645615816116333E-003;4.185636527836323E-003;
2.411333333333334E+009;1.818120777606964E-001;-4.043858498334885E-002;4.940432962030172E-003;3.919070120900869E-003;
2.411500000000000E+009;1.816391497850418E-001;-4.116554930806160E-002;5.141891539096832E-003;3.609113628044725E-003;
2.411666666666667E+009;1.818876117467880E-001;-4.144269973039627E-002;5.245990585535765E-003;3.423189278692007E-003;
2.411833333333334E+009;1.816624999046326E-001;-4.197820276021957E-002;5.482856184244156E-003;3.086065407842398E-003;
2.412000000000000E+009;1.815214902162552E-001;-4.223337024450302E-002;5.731596611440182E-003;2.696555107831955E-003;
2.412166666666667E+009;1.810253858566284E-001;-4.263504594564438E-002;5.685558542609215E-003;2.540441229939461E-003;
2.412333333333334E+009;1.809944212436676E-001;-4.292280972003937E-002;5.823608022183180E-003;2.082287333905697E-003;
2.412500000000000E+009;1.803733855485916E-001;-4.325082525610924E-002;5.979676265269518E-003;1.884893630631268E-003;
2.412666666666667E+009;1.797049939632416E-001;-4.363548383116722E-002;6.090512033551931E-003;1.544315251521766E-003;
2.412833333333334E+009;1.791542321443558E-001;-4.395781084895134E-002;6.066691130399704E-003;1.205879379995167E-003;
2.413000000000000E+009;1.781532913446426E-001;-4.432164505124092E-002;5.979917943477631E-003;8.461112738586962E-004;
2.413166666666667E+009;1.773916035890579E-001;-4.468401893973351E-002;5.947721656411886E-003;6.627020775340498E-004;
2.413333333333334E+009;1.764220893383026E-001;-4.517611488699913E-002;5.823105573654175E-003;2.605025656521320E-004;
2.413500000000000E+009;1.756082624197006E-001;-4.557660967111588E-002;5.806621164083481E-003;-1.721407315926626E-004;
2.413666666666667E+009;1.746154874563217E-001;-4.617176577448845E-002;5.647245328873396E-003;-2.518660039640963E-004;
2.413833333333334E+009;1.735039800405502E-001;-4.671639949083328E-002;5.522948689758778E-003;-6.066828500479460E-004;
2.414000000000000E+009;1.722797751426697E-001;-4.735077545046806E-002;5.379503127187491E-003;-7.432627025991678E-004;
2.414166666666667E+009;1.711503267288208E-001;-4.789990931749344E-002;5.315857939422131E-003;-1.048948499374092E-003;
2.414333333333334E+009;1.700049936771393E-001;-4.866654798388481E-002;5.104711279273033E-003;-1.251655514352024E-003;
2.414500000000000E+009;1.691235750913620E-001;-4.947778210043907E-002;5.130510777235031E-003;-1.332054962404072E-003;
2.414666666666667E+009;1.678075790405273E-001;-5.035813525319099E-002;4.895998630672693E-003;-1.629396225325763E-003;
2.414833333333334E+009;1.665333509445190E-001;-5.137259140610695E-002;4.662926774471998E-003;-1.831588218919933E-003;
2.415000000000000E+009;1.653092056512833E-001;-5.249167233705521E-002;4.474611021578312E-003;-1.937310094945133E-003;
2.415166666666667E+009;1.641253829002380E-001;-5.367871373891830E-002;4.382987041026354E-003;-1.967268530279398E-003;
2.415333333333334E+009;1.629827618598938E-001;-5.498406291007996E-002;4.144299775362015E-003;-2.107604639604688E-003;
2.415500000000000E+009;1.618024408817291E-001;-5.630075559020042E-002;4.082711413502693E-003;-2.274975180625916E-003;
2.415666666666667E+009;1.607038080692291E-001;-5.775750800967217E-002;4.052885342389345E-003;-2.308879978954792E-003;
2.415833333333334E+009;1.596722900867462E-001;-5.934251472353935E-002;3.730390686541796E-003;-2.533100545406342E-003;
2.416000000000000E+009;1.584981232881546E-001;-6.093990057706833E-002;3.720261156558991E-003;-2.523915376514196E-003;
2.416166666666667E+009;1.577135473489761E-001;-6.265841424465179E-002;3.496731398627162E-003;-2.697791671380401E-003;
2.416333333333334E+009;1.566524356603622E-001;-6.432450562715530E-002;3.289370564743877E-003;-2.672781934961677E-003;
2.416500000000000E+009;1.558710783720017E-001;-6.631696224212647E-002;3.106602700427175E-003;-2.754247514531016E-003;
2.416666666666667E+009;1.548881083726883E-001;-6.799277663230896E-002;2.982109785079956E-003;-2.916513010859489E-003;
2.416833333333334E+009;1.541758328676224E-001;-6.997124105691910E-002;2.849705284461379E-003;-3.071532584726811E-003;
2.417000000000000E+009;1.532213538885117E-001;-7.200209796428680E-002;2.704668091610074E-003;-2.966172061860561E-003;
2.417166666666667E+009;1.526692956686020E-001;-7.375104725360870E-002;2.584132365882397E-003;-3.004079684615135E-003;
2.417333333333334E+009;1.521878689527512E-001;-7.569307088851929E-002;2.462820382788777E-003;-3.171767340973020E-003;
2.417500000000000E+009;1.515031307935715E-001;-7.765068113803864E-002;2.267144620418549E-003;-3.129500197246671E-003;
2.417666666666667E+009;1.510315239429474E-001;-7.940527796745300E-002;2.127900253981352E-003;-3.168059512972832E-003;
2.417833333333334E+009;1.507443040609360E-001;-8.123806864023209E-002;1.953200437128544E-003;-3.251698799431324E-003;
2.418000000000000E+009;1.503197997808456E-001;-8.317970484495163E-002;1.739970874041319E-003;-3.110182005912066E-003;
2.418166666666667E+009;1.500620096921921E-001;-8.474968373775482E-002;1.843013335019350E-003;-3.176588099449873E-003;
2.418333333333334E+009;1.500569880008698E-001;-8.664651215076447E-002;1.603559590876102E-003;-3.359949681907892E-003;
2.418500000000000E+009;1.498030275106430E-001;-8.816392719745636E-002;1.337055931799114E-003;-3.308274317532778E-003;
2.418666666666667E+009;1.498634517192841E-001;-8.978751301765442E-002;1.031603547744453E-003;-3.185603534802795E-003;
2.418833333333334E+009;1.497339457273483E-001;-9.129790216684341E-002;1.041614334098995E-003;-3.232833230867982E-003;
2.419000000000000E+009;1.496450603008270E-001;-9.247516095638275E-002;8.308207034133375E-004;-3.064440563321114E-003;
2.419166666666667E+009;1.498138457536697E-001;-9.381724894046783E-002;6.435214891098440E-004;-3.155616577714682E-003;
2.419333333333334E+009;1.499373465776444E-001;-9.478107839822769E-002;6.160581833682954E-004;-3.046135883778334E-003;
2.419500000000000E+009;1.500293016433716E-001;-9.611415863037109E-002;3.040380252059549E-004;-2.938147634267807E-003;
2.419666666666667E+009;1.503418833017349E-001;-9.694400429725647E-002;2.827832358889282E-004;-2.760535804554820E-003;
2.419833333333334E+009;1.502990573644638E-001;-9.767252951860428E-002;1.333123946096748E-004;-2.739249728620052E-003;
2.420000000000000E+009;1.507244706153870E-001;-9.840897470712662E-002;8.203851757571101E-005;-2.561561530455947E-003;
2.420166666666667E+009;1.510327309370041E-001;-9.912095218896866E-002;-9.372274507768452E-005;-2.332665491849184E-003;
2.420333333333334E+009;1.511743515729904E-001;-9.956219792366028E-002;-1.685120078036562E-004;-2.235402353107929E-003;
2.420500000000000E+009;1.515484005212784E-001;-9.985672682523727E-002;-1.464908564230427E-004;-2.116574905812740E-003;
2.420666666666667E+009;1.518496423959732E-001;-1.000299379229546E-001;-2.701833545870613E-005;-2.019079402089119E-003;
2.420833333333334E+009;1.520125716924667E-001;-1.002000197768211E-001;-5.110887286718935E-005;-1.872427645139396E-003;
2.421000000000000E+009;1.521984487771988E-001;-1.003775149583817E-001;-1.607520680408925E-004;-1.753209042362869E-003;
2.421166666666667E+009;1.524919718503952E-001;-1.004967987537384E-001;6.323477282421663E-005;-1.838573836721480E-003;
2.421333333333334E+009;1.526576727628708E-001;-1.003946959972382E-001;2.181451272917911E-004;-1.653996994718909E-003;
2.421500000000000E+009;1.526294946670532E-001;-1.001755222678185E-001;1.846308878157288E-004;-1.612916123121977E-003;
2.421666666666667E+009;1.527078151702881E-001;-1.001615747809410E-001;3.031776577699930E-004;-1.569899730384350E-003;
2.421833333333334E+009;1.526804566383362E-001;-1.000628918409348E-001;3.935168206226081E-004;-1.574279507622123E-003;
2.422000000000000E+009;1.524216383695602E-001;-9.989145398139954E-002;3.068273654207587E-004;-1.552577130496502E-003;
2.422166666666667E+009;1.521725356578827E-001;-9.967862814664841E-002;2.509787736926228E-004;-1.799009623937309E-003;
2.422333333333334E+009;1.518391817808151E-001;-9.930422902107239E-002;4.219743132125586E-004;-1.701696659438312E-003;
2.422500000000000E+009;1.512714624404907E-001;-9.886205196380615E-002;3.615037130657584E-004;-1.683827373199165E-003;
2.422666666666667E+009;1.506445109844208E-001;-9.881971031427383E-002;3.880303411278874E-004;-1.728934934362769E-003;
2.422833333333334E+009;1.500898152589798E-001;-9.860894083976746E-002;3.649300488177687E-004;-1.811766065657139E-003;
2.423000000000000E+009;1.492478102445602E-001;-9.815945476293564E-002;4.549948789644986E-004;-1.879146788269281E-003;
2.423166666666667E+009;1.484209150075913E-001;-9.787489473819733E-002;2.535033854655922E-004;-1.910894643515348E-003;
2.423333333333334E+009;1.475201547145844E-001;-9.730940312147141E-002;4.021546046715230E-004;-1.873566419817507E-003;
2.423500000000000E+009;1.463832557201386E-001;-9.712184965610504E-002;2.415550115983933E-004;-1.904148957692087E-003;
2.423666666666667E+009;1.449489146471024E-001;-9.702000766992569E-002;1.977322972379625E-004;-1.879537943750620E-003;
2.423833333333334E+009;1.438573300838471E-001;-9.680872410535812E-002;2.747516846284270E-004;-1.859348267316818E-003;
2.424000000000000E+009;1.425488442182541E-001;-9.633027017116547E-002;2.329316921532154E-004;-1.989168580621481E-003;
2.424166666666667E+009;1.411352753639221E-001;-9.627794474363327E-002;5.102983777760528E-005;-1.862301025539637E-003;
2.424333333333334E+009;1.397290825843811E-001;-9.616972506046295E-002;2.105569874402136E-004;-1.988088479265571E-003;
2.424500000000000E+009;1.383619010448456E-001;-9.627728164196014E-002;2.159258874598891E-004;-2.033635508269072E-003;
2.424666666666667E+009;1.371675431728363E-001;-9.615079313516617E-002;2.222198527306318E-004;-2.127165673300624E-003;
2.424833333333334E+009;1.355033516883850E-001;-9.639921039342880E-002;2.479960094206035E-004;-2.183554926887155E-003;
2.425000000000000E+009;1.342028230428696E-001;-9.678283333778381E-002;1.624852156965062E-004;-2.082668943330646E-003;
2.425166666666667E+009;1.322857141494751E-001;-9.714750200510025E-002;9.197645704261959E-005;-2.203400479629636E-003;
2.425333333333334E+009;1.310780197381973E-001;-9.768506139516830E-002;9.575146395945922E-005;-2.082497579976916E-003;
2.425500000000000E+009;1.297142803668976E-001;-9.819173812866211E-002;1.414114522049204E-004;-2.251626225188375E-003;
2.425666666666667E+009;1.280608922243118E-001;-9.901650249958038E-002;5.990409772493877E-005;-2.407044405117631E-003;
2.425833333333334E+009;1.266725212335587E-001;-9.996207058429718E-002;-2.196756977355108E-004;-2.311327960342169E-003;
2.426000000000000E+009;1.252609938383102E-001;-1.009969040751457E-001;-1.897393958643079E-004;-2.273958874866366E-003;
2.426166666666667E+009;1.240743026137352E-001;-1.021734923124313E-001;-2.688608365133405E-004;-2.396820345893502E-003;
2.426333333333334E+009;1.226518154144287E-001;-1.032183095812798E-001;-2.977241529151797E-004;-2.355816541239619E-003;
2.426500000000000E+009;1.215506047010422E-001;-1.045212000608444E-001;-4.044381494168192E-004;-2.317812060937285E-003;
2.426666666666667E+009;1.204660981893539E-001;-1.057814359664917E-001;-3.232939925510436E-004;-2.291856566444039E-003;
2.426833333333334E+009;1.193261072039604E-001;-1.072762459516525E-001;-3.461049636825919E-004;-2.468407154083252E-003;
2.427000000000000E+009;1.181370690464973E-001;-1.088737323880196E-001;-3.234993200749159E-004;-2.342568477615714E-003;
2.427166666666667E+009;1.171605512499809E-001;-1.103348582983017E-001;-3.435237740632147E-004;-2.427523024380207E-003;
2.427333333333334E+009;1.162565648555756E-001;-1.120071187615395E-001;-5.109150661155582E-004;-2.502718241885305E-003;
2.427500000000000E+009;1.154721081256867E-001;-1.137067005038261E-001;-5.098087131045759E-004;-2.305164234712720E-003;
2.427666666666667E+009;1.146427392959595E-001;-1.154107302427292E-001;-5.244372296147049E-004;-2.619361272081733E-003;
