# Version 1.00
#
freq[Hz];re:Trc1_S11;im:Trc1_S11;re:Trc2_S21;im:Trc2_S21;
2.400000000000000E+009;1.549161374568939E-001;1.096228212118149E-001;-4.176241345703602E-003;-2.702377969399095E-003;
2.400166666666667E+009;1.544916480779648E-001;1.073755770921707E-001;-4.351896233856678E-003;-2.356819575652480E-003;
2.400333333333334E+009;1.545298248529434E-001;1.050514504313469E-001;-4.319709260016680E-003;-1.943827723152936E-003;
2.400500000000000E+009;1.543188095092773E-001;1.023553907871246E-001;-4.347827751189470E-003;-1.723085879348218E-003;
2.400666666666667E+009;1.542031913995743E-001;9.985676407814026E-002;-4.268377553671598E-003;-1.434005680494010E-003;
2.400833333333334E+009;1.540759503841400E-001;9.697777777910233E-002;-4.304597154259682E-003;-9.192128200083971E-004;
2.401000000000000E+009;1.542377024888992E-001;9.441398084163666E-002;-4.046793095767498E-003;-8.169076172634959E-004;
2.401166666666667E+009;1.542266905307770E-001;9.145179390907288E-002;-4.092869348824024E-003;-6.340710679069161E-004;
2.401333333333334E+009;1.544720381498337E-001;8.871048688888550E-002;-3.759533632546663E-003;-5.561372381635010E-004;
2.401500000000000E+009;1.547880321741104E-001;8.553121238946915E-002;-3.876880044117570E-003;-1.925943943206221E-004;
2.401666666666667E+009;1.549298614263535E-001;8.267264813184738E-002;-3.539782715961337E-003;-2.026034198934212E-004;
2.401833333333334E+009;1.555546522140503E-001;7.996010780334473E-002;-3.514460986480117E-003;-6.977926386753097E-005;
2.402000000000000E+009;1.562908738851547E-001;7.708821445703507E-002;-3.250893903896213E-003;-9.408991172676906E-005;
2.402166666666667E+009;1.570773571729660E-001;7.450805604457855E-002;-3.273055888712406E-003;-5.996380059514195E-005;
2.402333333333334E+009;1.578244864940643E-001;7.155889272689819E-002;-3.084487281739712E-003;-5.491422416525893E-005;
2.402500000000000E+009;1.590005010366440E-001;6.896396726369858E-002;-3.022672142833471E-003;9.618946933187544E-005;
2.402666666666667E+009;1.600657552480698E-001;6.660376489162445E-002;-2.866136142984033E-003;5.597191193373874E-005;
2.402833333333334E+009;1.613798588514328E-001;6.400853395462036E-002;-2.746579237282276E-003;-2.077735734928865E-005;
2.403000000000000E+009;1.629624217748642E-001;6.169391423463821E-002;-2.760997740551829E-003;2.201524466727278E-006;
2.403166666666667E+009;1.647730171680450E-001;5.932231619954109E-002;-2.675457391887903E-003;2.103433507727459E-004;
2.403333333333334E+009;1.661789417266846E-001;5.703645944595337E-002;-2.597157144919038E-003;1.429398889740696E-005;
2.403500000000000E+009;1.680591255426407E-001;5.470301210880280E-002;-2.835640916600823E-003;-6.987318192841485E-005;
2.403666666666667E+009;1.698331534862518E-001;5.274425074458122E-002;-2.580849919468164E-003;2.736571696004830E-005;
2.403833333333334E+009;1.715929359197617E-001;5.072557181119919E-002;-2.609344664961100E-003;-5.820011938340031E-005;
2.404000000000000E+009;1.731558889150620E-001;4.899447783827782E-002;-2.940049394965172E-003;-1.033024091157131E-004;
2.404166666666667E+009;1.750566512346268E-001;4.728302732110024E-002;-2.779804868623614E-003;-1.764668922987767E-006;
2.404333333333334E+009;1.768009364604950E-001;4.576111584901810E-002;-2.858199644833803E-003;-4.889754200121388E-005;
2.404500000000000E+009;1.785490363836289E-001;4.421855509281158E-002;-3.127810312435031E-003;-6.281029527599458E-006;
2.404666666666667E+009;1.803151220083237E-001;4.306857287883759E-002;-3.074045991525054E-003;2.294744263053872E-005;
2.404833333333334E+009;1.823029220104218E-001;4.197172075510025E-002;-3.236325224861503E-003;1.553015317767859E-004;
2.405000000000000E+009;1.836969405412674E-001;4.109473899006844E-002;-3.320301882922649E-003;3.682261158246547E-004;
2.405166666666667E+009;1.853081136941910E-001;4.038621112704277E-002;-3.249191679060459E-003;4.801327886525542E-004;
2.405333333333334E+009;1.866308152675629E-001;3.990982472896576E-002;-3.343080868944526E-003;5.193733959458768E-004;
2.405500000000000E+009;1.884271502494812E-001;3.937335684895515E-002;-3.177374368533492E-003;7.173657650128007E-004;
2.405666666666667E+009;1.897982507944107E-001;3.895467147231102E-002;-3.399209352210164E-003;1.017594477161765E-003;
2.405833333333334E+009;1.910603791475296E-001;3.878282755613327E-002;-3.154804697260261E-003;1.005059340968728E-003;
2.406000000000000E+009;1.924449503421783E-001;3.861691430211067E-002;-3.205961082130671E-003;1.157749793492258E-003;
2.406166666666667E+009;1.934359818696976E-001;3.841038793325424E-002;-3.047821111977100E-003;1.318769529461861E-003;
2.406333333333334E+009;1.945490241050720E-001;3.847305849194527E-002;-3.054903820157051E-003;1.427896553650498E-003;
2.406500000000000E+009;1.953836679458618E-001;3.863531351089478E-002;-2.866680966690183E-003;1.389526878483594E-003;
2.406666666666667E+009;1.960596144199371E-001;3.875115141272545E-002;-3.018422983586788E-003;1.480949693359435E-003;
2.406833333333334E+009;1.968143880367279E-001;3.878387436270714E-002;-2.892613178119063E-003;1.316326670348644E-003;
2.407000000000000E+009;1.971506178379059E-001;3.911128640174866E-002;-2.931597875431180E-003;1.508332556113601E-003;
2.407166666666667E+009;1.976521462202072E-001;3.906789794564247E-002;-2.833559876307845E-003;1.554988441057503E-003;
2.407333333333334E+009;1.977424770593643E-001;3.941405564546585E-002;-3.000122494995594E-003;1.556989736855030E-003;
2.407500000000000E+009;1.977540850639343E-001;3.965673223137856E-002;-2.868993207812309E-003;1.655051484704018E-003;
2.407666666666667E+009;1.979173570871353E-001;3.963883966207504E-002;-3.033326705917716E-003;1.732584321871400E-003;
2.407833333333334E+009;1.974771171808243E-001;3.970521688461304E-002;-2.925063250586391E-003;1.810706919059157E-003;
2.408000000000000E+009;1.973660886287689E-001;3.975750133395195E-002;-2.946869470179081E-003;1.887437421828508E-003;
2.408166666666667E+009;1.969529986381531E-001;3.958722576498985E-002;-3.134263679385185E-003;2.063698600977659E-003;
2.408333333333334E+009;1.964644640684128E-001;3.932438418269157E-002;-3.096835222095251E-003;2.177729038521648E-003;
2.408500000000000E+009;1.957624405622482E-001;3.927768394351006E-002;-3.064553020521998E-003;2.267223782837391E-003;
2.408666666666667E+009;1.951873004436493E-001;3.874588757753372E-002;-2.943752799183130E-003;2.445783000439405E-003;
2.408833333333334E+009;1.945314109325409E-001;3.819594532251358E-002;-2.956869080662727E-003;2.602425403892994E-003;
2.409000000000000E+009;1.936235278844833E-001;3.732436150312424E-002;-3.063109936192632E-003;2.843074500560761E-003;
2.409166666666667E+009;1.924663037061691E-001;3.648094460368156E-002;-2.815574407577515E-003;3.025668906047940E-003;
2.409333333333334E+009;1.914967745542526E-001;3.570581972599030E-002;-2.706332132220268E-003;3.146929666399956E-003;
2.409500000000000E+009;1.903785616159439E-001;3.458284959197044E-002;-2.637086668983102E-003;3.258748445659876E-003;
2.409666666666667E+009;1.893098503351212E-001;3.308108821511269E-002;-2.544386778026819E-003;3.482475178316236E-003;
2.409833333333334E+009;1.880910694599152E-001;3.180243074893951E-002;-2.426279708743095E-003;3.606769489124417E-003;
2.410000000000000E+009;1.871279180049896E-001;3.032697737216950E-002;-2.202481497079134E-003;3.689927980303764E-003;
2.410166666666667E+009;1.857548505067825E-001;2.857741527259350E-002;-2.131973858922720E-003;3.866039216518402E-003;
2.410333333333334E+009;1.847279667854309E-001;2.677618898451328E-002;-2.013063989579678E-003;4.041692242026329E-003;
2.410500000000000E+009;1.837181299924851E-001;2.486899122595787E-002;-1.719011343084276E-003;4.129295237362385E-003;
2.410666666666667E+009;1.827780753374100E-001;2.273557335138321E-002;-1.592881162650883E-003;4.284951835870743E-003;
2.410833333333334E+009;1.818126589059830E-001;2.051386982202530E-002;-1.383911119773984E-003;4.367920570075512E-003;
2.411000000000000E+009;1.810348629951477E-001;1.824879832565785E-002;-1.272304682061076E-003;4.318228922784329E-003;
2.411166666666667E+009;1.801477819681168E-001;1.612854562699795E-002;-1.137800863943994E-003;4.330271854996681E-003;
2.411333333333334E+009;1.796864271163940E-001;1.360748521983624E-002;-7.257654215209186E-004;4.574759863317013E-003;
2.411500000000000E+009;1.789118498563767E-001;1.113322563469410E-002;-6.844291347078979E-004;4.257672000676394E-003;
2.411666666666667E+009;1.786659806966782E-001;8.835400454699993E-003;-5.031754844821990E-004;4.408322274684906E-003;
2.411833333333334E+009;1.782466769218445E-001;6.372036878019571E-003;-3.180781495757401E-004;4.509061109274626E-003;
2.412000000000000E+009;1.782003045082092E-001;3.601493081077933E-003;-1.241648169525433E-005;4.417597781866789E-003;
2.412166666666667E+009;1.782347559928894E-001;1.335746957920492E-003;1.819421595428139E-004;4.353377502411604E-003;
2.412333333333334E+009;1.783513277769089E-001;-1.280112890526652E-003;2.641174651216716E-004;4.465545993298292E-003;
2.412500000000000E+009;1.786461025476456E-001;-3.751756623387337E-003;4.491627623792738E-004;4.264772869646549E-003;
2.412666666666667E+009;1.792303919792175E-001;-6.412180606275797E-003;7.438795873895288E-004;4.304436966776848E-003;
2.412833333333334E+009;1.797298938035965E-001;-8.944394998252392E-003;9.829509072005749E-004;4.332458600401878E-003;
2.413000000000000E+009;1.806799620389938E-001;-1.136680226773024E-002;1.190916053019464E-003;4.278392996639013E-003;
2.413166666666667E+009;1.811476498842239E-001;-1.367793697863817E-002;1.360357389785349E-003;4.166439175605774E-003;
2.413333333333334E+009;1.822642385959625E-001;-1.606911979615688E-002;1.536599709652364E-003;3.983527421951294E-003;
2.413500000000000E+009;1.830686181783676E-001;-1.854526251554489E-002;1.844645943492651E-003;3.775571472942829E-003;
2.413666666666667E+009;1.840910613536835E-001;-2.072015963494778E-002;2.065025968477130E-003;3.573024412617087E-003;
2.413833333333334E+009;1.853781193494797E-001;-2.290295250713825E-002;2.028500428423286E-003;3.346755169332027E-003;
2.414000000000000E+009;1.863903552293778E-001;-2.501770481467247E-002;2.172445878386498E-003;3.187135094776750E-003;
2.414166666666667E+009;1.877846866846085E-001;-2.696709148585796E-002;2.307520713657141E-003;2.967700827866793E-003;
2.414333333333334E+009;1.888401210308075E-001;-2.911534346640110E-002;2.295030280947685E-003;2.899222075939179E-003;
2.414500000000000E+009;1.902950704097748E-001;-3.058947995305061E-002;2.270495984703302E-003;2.736760536208749E-003;
2.414666666666667E+009;1.914637684822083E-001;-3.217821568250656E-002;2.305133035406470E-003;2.609598683193326E-003;
2.414833333333334E+009;1.929230391979218E-001;-3.363404795527458E-002;2.229423727840185E-003;2.542127622291446E-003;
2.415000000000000E+009;1.940850615501404E-001;-3.490097448229790E-002;2.261186251416802E-003;2.268545562401414E-003;
2.415166666666667E+009;1.954408288002014E-001;-3.618142381310463E-002;2.283183159306645E-003;2.367998473346233E-003;
2.415333333333334E+009;1.967221051454544E-001;-3.719428181648254E-002;2.366701839491725E-003;2.209218218922615E-003;
2.415500000000000E+009;1.979751884937286E-001;-3.792196139693260E-002;2.348824171349406E-003;2.021351829171181E-003;
2.415666666666667E+009;1.991067677736282E-001;-3.881745412945747E-002;2.327939961105585E-003;2.282490022480488E-003;
2.415833333333334E+009;2.001057267189026E-001;-3.941484168171883E-002;2.534583676606417E-003;1.828041975386441E-003;
2.416000000000000E+009;2.010543197393417E-001;-4.007803648710251E-002;2.435597591102123E-003;1.985517796128988E-003;
2.416166666666667E+009;2.020187973976135E-001;-4.065920412540436E-002;2.524085110053420E-003;1.684560789726675E-003;
2.416333333333334E+009;2.026716768741608E-001;-4.100910574197769E-002;2.541053341701627E-003;1.569403102621436E-003;
2.416500000000000E+009;2.033604383468628E-001;-4.122463241219521E-002;2.486048499122262E-003;1.420538057573140E-003;
2.416666666666667E+009;2.038201689720154E-001;-4.153264686465263E-002;2.392826136201620E-003;1.446137321181595E-003;
2.416833333333334E+009;2.041686326265335E-001;-4.147529974579811E-002;2.351842354983091E-003;1.267448998987675E-003;
2.417000000000000E+009;2.043957412242889E-001;-4.161090776324272E-002;2.074440941214562E-003;1.087503042072058E-003;
2.417166666666667E+009;2.043413519859314E-001;-4.151462391018868E-002;2.144888509064913E-003;1.060076290741563E-003;
2.417333333333334E+009;2.043324708938599E-001;-4.120982438325882E-002;1.892096712253988E-003;1.013084431178868E-003;
2.417500000000000E+009;2.040688842535019E-001;-4.116001352667809E-002;1.750524505041540E-003;1.080843736417592E-003;
2.417666666666667E+009;2.037839293479919E-001;-4.093898832798004E-002;1.761110499501228E-003;1.106316107325256E-003;
2.417833333333334E+009;2.034468054771423E-001;-4.069255664944649E-002;1.835983712226152E-003;1.413519377820194E-003;
2.418000000000000E+009;2.030081599950790E-001;-4.040822759270668E-002;1.870923442766070E-003;1.482487772591412E-003;
2.418166666666667E+009;2.022076100111008E-001;-4.031137004494667E-002;1.967100193724036E-003;1.351750106550753E-003;
2.418333333333334E+009;2.014266848564148E-001;-4.003376886248589E-002;2.146524842828512E-003;1.584473182447255E-003;
2.418500000000000E+009;2.005412280559540E-001;-3.989741578698158E-002;2.162644173949957E-003;1.553133479319513E-003;
2.418666666666667E+009;1.996043473482132E-001;-3.976183757185936E-002;2.187454840168357E-003;1.586882746778429E-003;
2.418833333333334E+009;1.983464062213898E-001;-3.991536423563957E-002;2.335588913410902E-003;1.614450360648334E-003;
2.419000000000000E+009;1.970171928405762E-001;-3.995039686560631E-002;2.533372957259417E-003;1.698105363175273E-003;
2.419166666666667E+009;1.957107782363892E-001;-4.012422636151314E-002;2.773093990981579E-003;1.499258447438479E-003;
2.419333333333334E+009;1.943189203739166E-001;-4.051791131496429E-002;2.584765199571848E-003;1.563135418109596E-003;
2.419500000000000E+009;1.929302513599396E-001;-4.087974876165390E-002;2.734130481258035E-003;1.354329637251794E-003;
2.419666666666667E+009;1.913028061389923E-001;-4.163771495223045E-002;2.880634507164359E-003;1.319508883170784E-003;
2.419833333333334E+009;1.895882785320282E-001;-4.218855500221252E-002;2.980476478114724E-003;9.804391302168369E-004;
2.420000000000000E+009;1.879318058490753E-001;-4.320869967341423E-002;3.061037976294756E-003;1.002412987872958E-003;
2.420166666666667E+009;1.863207370042801E-001;-4.383323341608048E-002;3.138853237032890E-003;8.468579617328942E-004;
2.420333333333334E+009;1.846996843814850E-001;-4.502432048320770E-002;3.033492015674710E-003;8.377906633540988E-004;
2.420500000000000E+009;1.828914135694504E-001;-4.640553146600723E-002;3.170549171045423E-003;7.105437107384205E-004;
2.420666666666667E+009;1.813834905624390E-001;-4.742964729666710E-002;3.101644339039922E-003;5.855516064912081E-004;
2.420833333333334E+009;1.795447766780853E-001;-4.881697520613670E-002;2.967868698760867E-003;6.021830486133695E-004;
2.421000000000000E+009;1.779560148715973E-001;-5.060001835227013E-002;3.125257091596723E-003;4.630215116776526E-004;
2.421166666666667E+009;1.764408946037293E-001;-5.209016427397728E-002;3.134819911792874E-003;3.882913733832538E-004;
2.421333333333334E+009;1.747325956821442E-001;-5.389151722192764E-002;3.175995778292418E-003;2.685608051251620E-004;
2.421500000000000E+009;1.733028292655945E-001;-5.563501268625259E-002;3.090692916885018E-003;2.727423561736941E-004;
2.421666666666667E+009;1.720363944768906E-001;-5.751883238554001E-002;3.246563952416182E-003;1.528386492282152E-004;
2.421833333333334E+009;1.707395166158676E-001;-5.959426984190941E-002;3.245029598474503E-003;3.038075738004409E-005;
2.422000000000000E+009;1.695765554904938E-001;-6.153713166713715E-002;3.284221282228828E-003;-5.126520045450889E-005;
2.422166666666667E+009;1.684966385364533E-001;-6.370998919010162E-002;3.307400969788432E-003;-1.518512726761401E-004;
2.422333333333334E+009;1.674026995897293E-001;-6.590268015861511E-002;3.249316476285458E-003;-1.856262388173491E-004;
2.422500000000000E+009;1.666362136602402E-001;-6.775040924549103E-002;3.415244165807962E-003;-1.890584098873660E-004;
2.422666666666667E+009;1.655295193195343E-001;-7.002842426300049E-002;3.290449734777212E-003;-3.331018087919802E-004;
2.422833333333334E+009;1.650719791650772E-001;-7.224661856889725E-002;3.255276009440422E-003;-4.843405040446669E-004;
2.423000000000000E+009;1.645466238260269E-001;-7.430191338062286E-002;3.420360386371613E-003;-3.792163915932179E-004;
2.423166666666667E+009;1.641947925090790E-001;-7.651354372501373E-002;3.284521400928497E-003;-6.240084767341614E-004;
2.423333333333334E+009;1.637001186609268E-001;-7.852938026189804E-002;3.521774429827929E-003;-7.388861849904060E-004;
2.423500000000000E+009;1.636209040880203E-001;-8.051282167434692E-002;3.427467308938503E-003;-8.605138864368200E-004;
2.423666666666667E+009;1.638364195823669E-001;-8.259071409702301E-002;3.513919888064265E-003;-1.000950345769525E-003;
2.423833333333334E+009;1.634528040885925E-001;-8.447352796792984E-002;3.558966796845198E-003;-1.224765321239829E-003;
2.424000000000000E+009;1.636632233858109E-001;-8.643944561481476E-002;3.589054802432656E-003;-1.321868854574859E-003;
2.424166666666667E+009;1.637911349534988E-001;-8.806924521923065E-002;3.639115486294031E-003;-1.579640433192253E-003;
2.424333333333334E+009;1.639175117015839E-001;-8.975978195667267E-002;3.622064599767327E-003;-1.623464049771428E-003;
2.424500000000000E+009;1.643391102552414E-001;-9.154272824525833E-002;3.526287386193872E-003;-1.897395937703550E-003;
2.424666666666667E+009;1.647912561893463E-001;-9.305135905742645E-002;3.509014844894409E-003;-1.867473474703729E-003;
2.424833333333334E+009;1.653918027877808E-001;-9.448651224374771E-002;3.336379071697593E-003;-2.187447156757116E-003;
2.425000000000000E+009;1.656873971223831E-001;-9.577898681163788E-002;3.198885591700673E-003;-2.390901790931821E-003;
2.425166666666667E+009;1.661911159753799E-001;-9.691210836172104E-002;3.108960809186101E-003;-2.634758828207851E-003;
2.425333333333334E+009;1.666146665811539E-001;-9.798285365104675E-002;3.002787940204144E-003;-2.720587886869907E-003;
2.425500000000000E+009;1.670293807983398E-001;-9.912008047103882E-002;2.840095665305853E-003;-2.899131970480084E-003;
2.425666666666667E+009;1.676299422979355E-001;-9.974674880504608E-002;2.726471051573753E-003;-2.880427287891507E-003;
2.425833333333334E+009;1.679181754589081E-001;-1.007388010621071E-001;2.595960861071944E-003;-3.020062809810042E-003;
2.426000000000000E+009;1.685243099927902E-001;-1.012183055281639E-001;2.362333238124847E-003;-3.083692165091634E-003;
2.426166666666667E+009;1.690544933080673E-001;-1.017239317297936E-001;2.212720690295100E-003;-3.268615575507283E-003;
2.426333333333334E+009;1.692788302898407E-001;-1.022211015224457E-001;2.008133335039020E-003;-3.386915661394596E-003;
2.426500000000000E+009;1.697989404201508E-001;-1.024972572922707E-001;1.912128063850105E-003;-3.240140387788415E-003;
2.426666666666667E+009;1.701651811599731E-001;-1.029187440872192E-001;1.779388869181275E-003;-3.130206838250160E-003;
2.426833333333334E+009;1.705324351787567E-001;-1.030286625027657E-001;1.579411793500185E-003;-3.265082836151123E-003;
2.427000000000000E+009;1.706583946943283E-001;-1.032860577106476E-001;1.431016018614173E-003;-3.330617211759090E-003;
2.427166666666667E+009;1.708308756351471E-001;-1.033529788255692E-001;1.290836255066097E-003;-3.353571286424995E-003;
2.427333333333334E+009;1.708246469497681E-001;-1.035555228590965E-001;1.281712669879198E-003;-3.238249570131302E-003;
2.427500000000000E+009;1.707339733839035E-001;-1.036356762051582E-001;1.234392751939595E-003;-3.220220329239965E-003;
2.427666666666667E+009;1.705464720726013E-001;-1.036211550235748E-001;1.174192875623703E-003;-3.277125535532832E-003;
2.427833333333334E+009;1.702991425991058E-001;-1.037429049611092E-001;1.089267199859023E-003;-3.352765692397952E-003;
