# Version 1.00
#
freq[Hz];re:Trc1_S11;im:Trc1_S11;re:Trc2_S21;im:Trc2_S21;
2.400000000000000E+009;1.552646160125732E-001;1.093062758445740E-001;-4.286278970539570E-003;-2.721183700487018E-003;
2.400166666666667E+009;1.548235863447189E-001;1.069542542099953E-001;-4.559879191219807E-003;-2.597260754555464E-003;
2.400333333333334E+009;1.547469347715378E-001;1.047368943691254E-001;-4.592768382281065E-003;-2.221173141151667E-003;
2.400500000000000E+009;1.543943285942078E-001;1.020919457077980E-001;-4.568860866129398E-003;-1.948089688085020E-003;
2.400666666666667E+009;1.544804871082306E-001;9.974943846464157E-002;-4.674476571381092E-003;-1.539912773296237E-003;
2.400833333333334E+009;1.543212980031967E-001;9.668653458356857E-002;-4.479479975998402E-003;-1.218760153278709E-003;
2.401000000000000E+009;1.544055342674255E-001;9.392469376325607E-002;-4.326355643570423E-003;-9.243530221283436E-004;
2.401166666666667E+009;1.542161256074905E-001;9.113035351037979E-002;-4.339973442256451E-003;-6.835727836005390E-004;
2.401333333333334E+009;1.546009182929993E-001;8.832146972417831E-002;-4.212955944240093E-003;-7.148541044443846E-004;
2.401500000000000E+009;1.550102829933167E-001;8.531097322702408E-002;-3.951149992644787E-003;-4.177102528046817E-004;
2.401666666666667E+009;1.553005427122116E-001;8.234794437885284E-002;-3.938836976885796E-003;-2.877305669244379E-004;
2.401833333333334E+009;1.555194705724716E-001;7.959017902612686E-002;-3.710267832502723E-003;-1.896157336886972E-004;
2.402000000000000E+009;1.564484685659409E-001;7.660692930221558E-002;-3.586329752579331E-003;-1.330506638623774E-004;
2.402166666666667E+009;1.570947170257568E-001;7.402552664279938E-002;-3.593068569898605E-003;-5.084728854853893E-006;
2.402333333333334E+009;1.580697447061539E-001;7.119952142238617E-002;-3.315502312034369E-003;5.717751264455728E-005;
2.402500000000000E+009;1.591382622718811E-001;6.862791627645493E-002;-3.230783622711897E-003;-8.428871660726145E-005;
2.402666666666667E+009;1.603066921234131E-001;6.620930880308151E-002;-3.046435303986073E-003;7.909813575679436E-005;
2.402833333333334E+009;1.614774763584137E-001;6.352854520082474E-002;-3.039364935830236E-003;7.724492547822592E-007;
2.403000000000000E+009;1.631404161453247E-001;6.109930947422981E-002;-2.945252927020192E-003;2.354848402319476E-005;
2.403166666666667E+009;1.647549122571945E-001;5.887785181403160E-002;-2.825925825163722E-003;-1.658012479310855E-005;
2.403333333333334E+009;1.662069857120514E-001;5.662001669406891E-002;-2.899952465668321E-003;1.005440863082185E-004;
2.403500000000000E+009;1.678831577301025E-001;5.443582311272621E-002;-2.933560404926539E-003;-2.093424118356779E-004;
2.403666666666667E+009;1.697887480258942E-001;5.249415710568428E-002;-2.925583394244313E-003;-2.701596167753451E-005;
2.403833333333334E+009;1.715109795331955E-001;5.030753836035729E-002;-2.948946086689830E-003;2.176117050112225E-005;
2.404000000000000E+009;1.731252074241638E-001;4.858319833874703E-002;-2.859608037397265E-003;-6.121592014096677E-005;
2.404166666666667E+009;1.750110536813736E-001;4.688208550214768E-002;-3.052210668101907E-003;-2.999352545884904E-005;
2.404333333333334E+009;1.768196523189545E-001;4.523020982742310E-002;-3.104080911725760E-003;1.281345321331173E-004;
2.404500000000000E+009;1.784337013959885E-001;4.372033476829529E-002;-3.154579317197204E-003;7.018028554739431E-005;
2.404666666666667E+009;1.802789717912674E-001;4.265812411904335E-002;-3.421169240027666E-003;1.419959007762373E-004;
2.404833333333334E+009;1.820294260978699E-001;4.140391945838928E-002;-3.430769080296159E-003;2.832433092407882E-004;
2.405000000000000E+009;1.835247874259949E-001;4.068679735064507E-002;-3.293561981990933E-003;4.631643532775343E-004;
2.405166666666667E+009;1.850620508193970E-001;3.989525511860848E-002;-3.367519471794367E-003;5.091270431876183E-004;
2.405333333333334E+009;1.867060661315918E-001;3.928415477275848E-002;-3.478635102510452E-003;6.930241943337023E-004;
2.405500000000000E+009;1.881666928529739E-001;3.884594887495041E-002;-3.380423178896308E-003;7.504459354095161E-004;
2.405666666666667E+009;1.895462274551392E-001;3.846389800310135E-002;-3.290374064818025E-003;1.082586706615984E-003;
2.405833333333334E+009;1.908935010433197E-001;3.819747269153595E-002;-3.305895486846566E-003;1.074271975085139E-003;
2.406000000000000E+009;1.920595020055771E-001;3.807776793837547E-002;-3.205293556675315E-003;1.162155647762120E-003;
2.406166666666667E+009;1.932370662689209E-001;3.783942386507988E-002;-3.052032319828868E-003;1.236686948686838E-003;
2.406333333333334E+009;1.942441165447235E-001;3.802858293056488E-002;-3.090883605182171E-003;1.335964188911021E-003;
2.406500000000000E+009;1.950663775205612E-001;3.819524496793747E-002;-3.122345311567187E-003;1.414178637787700E-003;
2.406666666666667E+009;1.957938671112061E-001;3.829696029424667E-002;-2.905244473367930E-003;1.537822419777513E-003;
2.406833333333334E+009;1.966688781976700E-001;3.839280828833580E-002;-2.893213648349047E-003;1.647732104174793E-003;
2.407000000000000E+009;1.969326138496399E-001;3.876480087637901E-002;-2.959539415314794E-003;1.604079152457416E-003;
2.407166666666667E+009;1.972926557064056E-001;3.872089833021164E-002;-2.925203647464514E-003;1.529039815068245E-003;
2.407333333333334E+009;1.975069642066956E-001;3.895278275012970E-002;-3.017858834937215E-003;1.642157090827823E-003;
2.407500000000000E+009;1.974282860755920E-001;3.914235159754753E-002;-2.907373011112213E-003;1.734612393192947E-003;
2.407666666666667E+009;1.976205259561539E-001;3.925432264804840E-002;-3.039076458662748E-003;1.759430160745978E-003;
2.407833333333334E+009;1.969700753688812E-001;3.922571614384651E-002;-2.959568053483963E-003;1.792204682715237E-003;
2.408000000000000E+009;1.970683783292770E-001;3.931042924523354E-002;-3.001560457050800E-003;2.071010414510965E-003;
2.408166666666667E+009;1.964115947484970E-001;3.907192870974541E-002;-3.081173636019230E-003;2.127774292603135E-003;
2.408333333333334E+009;1.960364580154419E-001;3.885063901543617E-002;-3.025316167622805E-003;2.292655408382416E-003;
2.408500000000000E+009;1.954550296068192E-001;3.868209943175316E-002;-3.051927313208580E-003;2.488844096660614E-003;
2.408666666666667E+009;1.947092115879059E-001;3.825739771127701E-002;-2.858058316633105E-003;2.530002500861883E-003;
2.408833333333334E+009;1.940542161464691E-001;3.774860128760338E-002;-3.048713551834226E-003;2.648705383762717E-003;
2.409000000000000E+009;1.930729150772095E-001;3.706608712673187E-002;-2.882490400224924E-003;2.862107707187533E-003;
2.409166666666667E+009;1.920621842145920E-001;3.614364564418793E-002;-2.835529623553157E-003;2.911396790295839E-003;
2.409333333333334E+009;1.910963207483292E-001;3.542539849877358E-002;-2.944492502138019E-003;3.118272405117750E-003;
2.409500000000000E+009;1.899379789829254E-001;3.418257832527161E-002;-2.709425752982497E-003;3.301616990938783E-003;
2.409666666666667E+009;1.888281852006912E-001;3.291513770818710E-002;-2.691086381673813E-003;3.544550156220794E-003;
2.409833333333334E+009;1.876883655786514E-001;3.146176785230637E-002;-2.493693958967924E-003;3.500433638691902E-003;
2.410000000000000E+009;1.866187304258347E-001;3.006346896290779E-002;-2.286338480189443E-003;3.776339814066887E-003;
2.410166666666667E+009;1.853535622358322E-001;2.821087837219238E-002;-2.133622299879789E-003;3.841473255306482E-003;
2.410333333333334E+009;1.844012588262558E-001;2.661330439150333E-002;-1.987760188058019E-003;3.988779615610838E-003;
2.410500000000000E+009;1.831818521022797E-001;2.457414194941521E-002;-1.868243212811649E-003;4.061822313815355E-003;
2.410666666666667E+009;1.821817904710770E-001;2.253674715757370E-002;-1.606762176379561E-003;4.117287695407867E-003;
2.410833333333334E+009;1.813453584909439E-001;2.045851759612560E-002;-1.465532928705216E-003;4.213388543576002E-003;
2.411000000000000E+009;1.804537624120712E-001;1.799489930272102E-002;-1.305676298215985E-003;4.341943189501762E-003;
2.411166666666667E+009;1.796897500753403E-001;1.592480391263962E-002;-1.046554301865399E-003;4.458089824765921E-003;
2.411333333333334E+009;1.791415214538574E-001;1.348516903817654E-002;-8.641295135021210E-004;4.594750236719847E-003;
2.411500000000000E+009;1.785193085670471E-001;1.109768357127905E-002;-7.320027216337621E-004;4.375868476927280E-003;
2.411666666666667E+009;1.780754029750824E-001;8.602341637015343E-003;-4.764372133649886E-004;4.360041115432978E-003;
2.411833333333334E+009;1.775939762592316E-001;6.283177994191647E-003;-4.126780258957297E-004;4.511681385338306E-003;
2.412000000000000E+009;1.778447329998016E-001;3.519583959132433E-003;-8.071735646808520E-005;4.484019707888365E-003;
2.412166666666667E+009;1.776773780584335E-001;1.271210378035903E-003;6.434321403503418E-005;4.328487906605005E-003;
2.412333333333334E+009;1.778282821178436E-001;-1.324742683209479E-003;1.483171363361180E-004;4.482383374124765E-003;
2.412500000000000E+009;1.782595366239548E-001;-3.974425140768290E-003;4.517241613939405E-004;4.475286696106195E-003;
2.412666666666667E+009;1.787317693233490E-001;-6.376388482749462E-003;7.379544549621642E-004;4.557426553219557E-003;
2.412833333333334E+009;1.793169826269150E-001;-9.001205675303936E-003;7.627475424669683E-004;4.377281293272972E-003;
2.413000000000000E+009;1.799524277448654E-001;-1.153976097702980E-002;1.052613952197135E-003;4.237420856952667E-003;
2.413166666666667E+009;1.806160658597946E-001;-1.360714249312878E-002;1.292918343096972E-003;4.125930368900299E-003;
2.413333333333334E+009;1.816301792860031E-001;-1.621112413704395E-002;1.517496071755886E-003;4.093821160495281E-003;
2.413500000000000E+009;1.824863553047180E-001;-1.864579878747463E-002;1.797357341274619E-003;3.832932794466615E-003;
2.413666666666667E+009;1.837835907936096E-001;-2.089472860097885E-002;1.906820922158659E-003;3.779137274250388E-003;
2.413833333333334E+009;1.848501265048981E-001;-2.287722751498222E-002;2.066946355625987E-003;3.491153009235859E-003;
2.414000000000000E+009;1.859434247016907E-001;-2.501718886196613E-002;2.081938553601503E-003;3.200863022357225E-003;
2.414166666666667E+009;1.873238831758499E-001;-2.683897502720356E-002;2.118317876011133E-003;2.949902554973960E-003;
2.414333333333334E+009;1.884746402502060E-001;-2.897461876273155E-002;2.243604511022568E-003;2.907426096498966E-003;
2.414500000000000E+009;1.896962225437164E-001;-3.056132420897484E-002;2.200298476964235E-003;2.741161035373807E-003;
2.414666666666667E+009;1.909715533256531E-001;-3.210651129484177E-002;2.310506766662002E-003;2.754509449005127E-003;
2.414833333333334E+009;1.922529190778732E-001;-3.352484852075577E-002;2.087622415274382E-003;2.553554484620690E-003;
2.415000000000000E+009;1.934767067432404E-001;-3.482457250356674E-002;2.262776950374246E-003;2.433127956464887E-003;
2.415166666666667E+009;1.949065625667572E-001;-3.590031340718269E-002;2.319103106856346E-003;2.315751044079661E-003;
2.415333333333334E+009;1.960362792015076E-001;-3.690137341618538E-002;2.362912055104971E-003;2.312510274350643E-003;
2.415500000000000E+009;1.973815858364105E-001;-3.776047006249428E-002;2.311089308932424E-003;2.257920103147626E-003;
2.415666666666667E+009;1.985872536897659E-001;-3.856823593378067E-002;2.503691008314490E-003;2.081601880490780E-003;
2.415833333333334E+009;1.996258497238159E-001;-3.919174149632454E-002;2.333318116143346E-003;1.948263263329864E-003;
2.416000000000000E+009;2.006450295448303E-001;-3.988885879516602E-002;2.532073762267828E-003;1.940300688147545E-003;
2.416166666666667E+009;2.015602737665176E-001;-4.035114869475365E-002;2.667820546776056E-003;1.841029501520097E-003;
2.416333333333334E+009;2.023259699344635E-001;-4.063164442777634E-002;2.801375230774283E-003;1.584304147399962E-003;
2.416500000000000E+009;2.029522061347961E-001;-4.086616635322571E-002;2.542315283790231E-003;1.501132617704570E-003;
2.416666666666667E+009;2.033266127109528E-001;-4.113628715276718E-002;2.424293197691441E-003;1.380741130560637E-003;
2.416833333333334E+009;2.038055211305618E-001;-4.105490073561668E-002;2.556246239691973E-003;1.170674106106162E-003;
2.417000000000000E+009;2.040311843156815E-001;-4.119990393519402E-002;2.198464469984174E-003;1.219018478877842E-003;
2.417166666666667E+009;2.039461284875870E-001;-4.121702164411545E-002;2.040588762611151E-003;1.228123670443893E-003;
2.417333333333334E+009;2.038977742195129E-001;-4.084009304642677E-002;2.097453456372023E-003;1.102309906855226E-003;
2.417500000000000E+009;2.037197053432465E-001;-4.076625034213066E-002;2.001817803829908E-003;1.221630023792386E-003;
2.417666666666667E+009;2.034610658884049E-001;-4.043213278055191E-002;1.644357573240995E-003;1.331887091509998E-003;
2.417833333333334E+009;2.030787914991379E-001;-4.024319350719452E-002;1.906652352772653E-003;1.494036056101322E-003;
2.418000000000000E+009;2.026184350252152E-001;-3.994464129209518E-002;1.897743204608560E-003;1.450412673875690E-003;
2.418166666666667E+009;2.019441425800324E-001;-3.982952237129211E-002;1.929223304614425E-003;1.607696642167866E-003;
2.418333333333334E+009;2.010394781827927E-001;-3.957472741603851E-002;2.051162300631404E-003;1.515137264505029E-003;
2.418500000000000E+009;2.000971138477325E-001;-3.937737271189690E-002;2.152489963918924E-003;1.601827098056674E-003;
2.418666666666667E+009;1.992270350456238E-001;-3.929981216788292E-002;2.201895229518414E-003;1.614830456674099E-003;
2.418833333333334E+009;1.980758011341095E-001;-3.933252394199371E-002;2.421059878543019E-003;1.713527482934296E-003;
2.419000000000000E+009;1.967367827892304E-001;-3.948273137211800E-002;2.423985861241818E-003;1.635895925574005E-003;
2.419166666666667E+009;1.955484449863434E-001;-3.971778228878975E-002;2.572901081293821E-003;1.568455831147730E-003;
2.419333333333334E+009;1.940960139036179E-001;-4.007037356495857E-002;2.766900928691030E-003;1.484099891968072E-003;
2.419500000000000E+009;1.926514506340027E-001;-4.048199951648712E-002;2.852969570085406E-003;1.478377263993025E-003;
2.419666666666667E+009;1.909894645214081E-001;-4.113310948014259E-002;2.737154951319099E-003;1.323561649769545E-003;
2.419833333333334E+009;1.894122213125229E-001;-4.165674746036530E-002;3.027841215953231E-003;1.279531395994127E-003;
2.420000000000000E+009;1.879384368658066E-001;-4.252777993679047E-002;3.040827810764313E-003;1.266730483621359E-003;
2.420166666666667E+009;1.860714256763458E-001;-4.344395548105240E-002;2.993286587297916E-003;1.034529646858573E-003;
2.420333333333334E+009;1.845758259296417E-001;-4.457534477114677E-002;3.080343827605248E-003;8.205733029171825E-004;
2.420500000000000E+009;1.829169839620590E-001;-4.573995992541313E-002;3.037202404811978E-003;7.300706929527223E-004;
2.420666666666667E+009;1.810693591833115E-001;-4.682498797774315E-002;3.198568243533373E-003;7.010578410699964E-004;
2.420833333333334E+009;1.793649941682816E-001;-4.839908331632614E-002;2.996419323608279E-003;6.930340896360576E-004;
2.421000000000000E+009;1.778539568185806E-001;-4.986831918358803E-002;3.182485932484269E-003;5.857162759639323E-004;
2.421166666666667E+009;1.763837635517120E-001;-5.162460356950760E-002;3.131162608042359E-003;4.934411263093352E-004;
2.421333333333334E+009;1.746052205562592E-001;-5.331420525908470E-002;3.088622353971005E-003;3.799655823968351E-004;
2.421500000000000E+009;1.733283549547195E-001;-5.527997761964798E-002;3.126019844785333E-003;2.537072577979416E-004;
2.421666666666667E+009;1.719299107789993E-001;-5.703601986169815E-002;3.214814234524965E-003;2.384373947279528E-004;
2.421833333333334E+009;1.707171052694321E-001;-5.895636975765228E-002;3.355983877554536E-003;1.266548933926970E-004;
2.422000000000000E+009;1.693489402532578E-001;-6.108037382364273E-002;3.289184998720884E-003;1.480231439927593E-004;
2.422166666666667E+009;1.685977578163147E-001;-6.325371563434601E-002;3.280301811173558E-003;1.968529250007123E-005;
2.422333333333334E+009;1.674867570400238E-001;-6.529937684535980E-002;3.296522656455636E-003;-8.935055666370317E-005;
2.422500000000000E+009;1.665159910917282E-001;-6.730608642101288E-002;3.373430576175451E-003;-1.045070821419358E-004;
2.422666666666667E+009;1.657623499631882E-001;-6.943123787641525E-002;3.430579788982868E-003;-2.468980965204537E-004;
2.422833333333334E+009;1.653115451335907E-001;-7.158561795949936E-002;3.338932525366545E-003;-2.943527360912412E-004;
2.423000000000000E+009;1.647311300039291E-001;-7.391750812530518E-002;3.291990607976914E-003;-4.815613210666925E-004;
2.423166666666667E+009;1.643014103174210E-001;-7.606854289770126E-002;3.397401887923479E-003;-5.237472942098975E-004;
2.423333333333334E+009;1.639725565910339E-001;-7.814697176218033E-002;3.508270485326648E-003;-5.586174665950239E-004;
2.423500000000000E+009;1.637734621763229E-001;-8.004871755838394E-002;3.482917323708534E-003;-6.139374454505742E-004;
2.423666666666667E+009;1.639476418495178E-001;-8.216924965381622E-002;3.553614718839526E-003;-8.501690463162959E-004;
2.423833333333334E+009;1.636555641889572E-001;-8.411803096532822E-002;3.787694266065955E-003;-8.622093009762466E-004;
2.424000000000000E+009;1.638272106647492E-001;-8.603084087371826E-002;3.576470771804452E-003;-1.094547682441771E-003;
2.424166666666667E+009;1.640120297670364E-001;-8.754806965589523E-002;3.585416823625565E-003;-1.276232069358230E-003;
2.424333333333334E+009;1.641965359449387E-001;-8.916041254997253E-002;3.673261031508446E-003;-1.531630172394216E-003;
2.424500000000000E+009;1.646799892187119E-001;-9.113556146621704E-002;3.633930115029216E-003;-1.720429980196059E-003;
2.424666666666667E+009;1.647508293390274E-001;-9.263426810503006E-002;3.608247032389045E-003;-2.012219280004501E-003;
2.424833333333334E+009;1.654462069272995E-001;-9.397426247596741E-002;3.515236079692841E-003;-2.208039164543152E-003;
2.425000000000000E+009;1.659845858812332E-001;-9.532313793897629E-002;3.430506447330117E-003;-2.238990506157279E-003;
2.425166666666667E+009;1.663030534982681E-001;-9.648421406745911E-002;3.245264524593949E-003;-2.552300458773971E-003;
2.425333333333334E+009;1.667866706848145E-001;-9.752696752548218E-002;3.053307766094804E-003;-2.512020757421851E-003;
2.425500000000000E+009;1.673877239227295E-001;-9.865307807922363E-002;2.969604684039950E-003;-2.755199559032917E-003;
2.425666666666667E+009;1.678920239210129E-001;-9.936413913965225E-002;2.783792791888118E-003;-2.955519827082753E-003;
2.425833333333334E+009;1.681856065988541E-001;-1.002865880727768E-001;2.689146203920245E-003;-2.852953504770994E-003;
2.426000000000000E+009;1.688284873962402E-001;-1.007214039564133E-001;2.510978374630213E-003;-3.105193609371781E-003;
2.426166666666667E+009;1.694237738847733E-001;-1.012433394789696E-001;2.405626233667135E-003;-3.065636381506920E-003;
2.426333333333334E+009;1.696632057428360E-001;-1.019369289278984E-001;2.137742936611176E-003;-3.208495210856199E-003;
2.426500000000000E+009;1.701861321926117E-001;-1.021812409162521E-001;2.028168179094791E-003;-3.082355717197061E-003;
2.426666666666667E+009;1.705136746168137E-001;-1.025930643081665E-001;1.951753976754844E-003;-3.285439684987068E-003;
2.426833333333334E+009;1.708452701568604E-001;-1.028624325990677E-001;1.798674347810447E-003;-3.285107202827931E-003;
2.427000000000000E+009;1.711470931768417E-001;-1.029490754008293E-001;1.806738437153399E-003;-3.505218541249633E-003;
2.427166666666667E+009;1.712350696325302E-001;-1.030278727412224E-001;1.519601326435804E-003;-3.380672307685018E-003;
2.427333333333334E+009;1.711885780096054E-001;-1.033062487840653E-001;1.425043214112520E-003;-3.402699017897248E-003;
2.427500000000000E+009;1.710510849952698E-001;-1.033942103385925E-001;1.260326826013625E-003;-3.233629511669278E-003;
2.427666666666667E+009;1.709863245487213E-001;-1.033824235200882E-001;1.241091871634126E-003;-3.410170786082745E-003;
2.427833333333334E+009;1.707458049058914E-001;-1.033872589468956E-001;1.151582924649119E-003;-3.464569337666035E-003;
