# Version 1.00
#
freq[Hz];re:Trc1_S11;im:Trc1_S11;re:Trc2_S21;im:Trc2_S21;
2.400000000000000E+009;1.549103558063507E-001;1.094516739249229E-001;-3.867062972858548E-003;-2.611948875710368E-003;
2.400166666666667E+009;1.545343995094299E-001;1.071030274033546E-001;-4.173372872173786E-003;-2.593431388959289E-003;
2.400333333333334E+009;1.544295698404312E-001;1.050013974308968E-001;-4.151431377977133E-003;-2.281692810356617E-003;
2.400500000000000E+009;1.542942523956299E-001;1.023669168353081E-001;-4.275465849786997E-003;-1.823317725211382E-003;
2.400666666666667E+009;1.542932391166687E-001;9.992363303899765E-002;-4.195088520646095E-003;-1.580228446982801E-003;
2.400833333333334E+009;1.540187895298004E-001;9.691321849822998E-002;-4.106028471142054E-003;-1.341972616501153E-003;
2.401000000000000E+009;1.543344259262085E-001;9.415990859270096E-002;-3.979390952736139E-003;-1.194095122627914E-003;
2.401166666666667E+009;1.543369740247726E-001;9.143427759408951E-002;-3.839592915028334E-003;-7.169176242314279E-004;
2.401333333333334E+009;1.545840203762054E-001;8.854281157255173E-002;-3.766346955671907E-003;-6.652674637734890E-004;
2.401500000000000E+009;1.549595445394516E-001;8.563948422670364E-002;-3.577919676899910E-003;-4.633690696209669E-004;
2.401666666666667E+009;1.551343649625778E-001;8.277416229248047E-002;-3.608389059081674E-003;-2.993339148815721E-004;
2.401833333333334E+009;1.555446982383728E-001;7.992278784513474E-002;-3.403537441045046E-003;-3.913258260581642E-004;
2.402000000000000E+009;1.563537418842316E-001;7.711873203516007E-002;-3.282339312136173E-003;-2.509595942683518E-004;
2.402166666666667E+009;1.571531444787979E-001;7.444810122251511E-002;-3.142123809084296E-003;-1.888684782898054E-004;
2.402333333333334E+009;1.581204980611801E-001;7.164212316274643E-002;-3.076946595683694E-003;-1.494620955782011E-004;
2.402500000000000E+009;1.591094583272934E-001;6.904997676610947E-002;-2.940852660685778E-003;-1.168660382973030E-004;
2.402666666666667E+009;1.604142189025879E-001;6.656464189291000E-002;-2.963282400742173E-003;-1.390527322655544E-004;
2.402833333333334E+009;1.617229431867600E-001;6.387424468994141E-002;-2.858338411897421E-003;-7.916924369055778E-005;
2.403000000000000E+009;1.632818579673767E-001;6.150437891483307E-002;-2.730617532506585E-003;-2.592175442259759E-004;
2.403166666666667E+009;1.649502217769623E-001;5.924132093787193E-002;-2.833241131156683E-003;-1.168624366982840E-004;
2.403333333333334E+009;1.662872582674027E-001;5.666124820709229E-002;-2.747994381934404E-003;-8.476686343783513E-005;
2.403500000000000E+009;1.682072728872299E-001;5.469641089439392E-002;-2.700108569115400E-003;-5.100465932628140E-005;
2.403666666666667E+009;1.699154973030090E-001;5.268643423914909E-002;-2.793865976855159E-003;-1.040881470544264E-004;
2.403833333333334E+009;1.716016530990601E-001;5.067651718854904E-002;-2.662978135049343E-003;-3.440384170971811E-004;
2.404000000000000E+009;1.734537929296494E-001;4.891503229737282E-002;-2.891524927690625E-003;-2.761129580903798E-004;
2.404166666666667E+009;1.753023415803909E-001;4.718846082687378E-002;-2.853414043784142E-003;-4.193739150650799E-004;
2.404333333333334E+009;1.768562346696854E-001;4.569940641522408E-002;-2.925236243754625E-003;-1.612126070540398E-004;
2.404500000000000E+009;1.785823106765747E-001;4.419969022274017E-002;-3.004421945661306E-003;-3.340920084156096E-004;
2.404666666666667E+009;1.803440153598785E-001;4.281925782561302E-002;-3.078925888985395E-003;-1.332394604105502E-004;
2.404833333333334E+009;1.822955310344696E-001;4.169218242168427E-002;-3.255578922107816E-003;1.075972704711603E-005;
2.405000000000000E+009;1.837620735168457E-001;4.093227908015251E-002;-3.372510196641088E-003;1.772180839907378E-004;
2.405166666666667E+009;1.853344887495041E-001;4.027194529771805E-002;-3.298567375168204E-003;1.725445908959955E-004;
2.405333333333334E+009;1.868522316217423E-001;3.970751911401749E-002;-3.301279153674841E-003;3.354241489432752E-004;
2.405500000000000E+009;1.884135752916336E-001;3.928482905030251E-002;-3.366659628227353E-003;4.610780160874128E-004;
2.405666666666667E+009;1.898466199636459E-001;3.888086974620819E-002;-3.348632017150521E-003;6.685600383207202E-004;
2.405833333333334E+009;1.911027282476425E-001;3.864993900060654E-002;-3.329185536131263E-003;7.143351249396801E-004;
2.406000000000000E+009;1.922464519739151E-001;3.845418989658356E-002;-3.300644224509597E-003;8.860700181685388E-004;
2.406166666666667E+009;1.934634149074554E-001;3.829820081591606E-002;-3.137912135571241E-003;9.649228304624558E-004;
2.406333333333334E+009;1.944892257452011E-001;3.829229995608330E-002;-3.125284332782030E-003;9.233074379153550E-004;
2.406500000000000E+009;1.953974068164825E-001;3.845102339982987E-002;-2.863867906853557E-003;1.032208092510700E-003;
2.406666666666667E+009;1.960654854774475E-001;3.864830359816551E-002;-3.070836886763573E-003;1.239293720573187E-003;
2.406833333333334E+009;1.967773884534836E-001;3.873182833194733E-002;-2.925415290519595E-003;9.948944207280874E-004;
2.407000000000000E+009;1.971842348575592E-001;3.913333266973496E-002;-2.995928982272744E-003;1.129428972490132E-003;
2.407166666666667E+009;1.977165490388870E-001;3.901155292987824E-002;-3.095342079177499E-003;1.384139293804765E-003;
2.407333333333334E+009;1.978113651275635E-001;3.943846374750137E-002;-3.157453378662467E-003;1.353308674879372E-003;
2.407500000000000E+009;1.976478546857834E-001;3.954697027802467E-002;-3.268803935497999E-003;1.328483223915100E-003;
2.407666666666667E+009;1.977880150079727E-001;3.956593573093414E-002;-3.160819876939058E-003;1.404621521942318E-003;
2.407833333333334E+009;1.974253058433533E-001;3.979253768920898E-002;-3.103296039626002E-003;1.496856915764511E-003;
2.408000000000000E+009;1.974516212940216E-001;3.963352367281914E-002;-3.114163177087903E-003;1.763813896104693E-003;
2.408166666666667E+009;1.968902051448822E-001;3.954381495714188E-002;-3.224898362532258E-003;2.018180210143328E-003;
2.408333333333334E+009;1.963082551956177E-001;3.919284418225288E-002;-3.250356530770659E-003;2.155144000425935E-003;
2.408500000000000E+009;1.957055479288101E-001;3.900045901536942E-002;-3.273061010986567E-003;2.138313837349415E-003;
2.408666666666667E+009;1.950809657573700E-001;3.859507292509079E-002;-3.219881327822805E-003;2.404087688773871E-003;
2.408833333333334E+009;1.943722218275070E-001;3.806464746594429E-002;-3.204294247552753E-003;2.513183280825615E-003;
2.409000000000000E+009;1.935739368200302E-001;3.725964576005936E-002;-3.231782000511885E-003;2.647575689479709E-003;
2.409166666666667E+009;1.924350112676621E-001;3.644123673439026E-002;-2.959545701742172E-003;2.833193633705378E-003;
2.409333333333334E+009;1.914759874343872E-001;3.557774052023888E-002;-2.986822277307510E-003;2.965986263006926E-003;
2.409500000000000E+009;1.901936233043671E-001;3.439435362815857E-002;-2.957977121695876E-003;3.102214075624943E-003;
2.409666666666667E+009;1.892631947994232E-001;3.305719792842865E-002;-2.800708170980215E-003;3.403218928724527E-003;
2.409833333333334E+009;1.881176829338074E-001;3.176841884851456E-002;-2.736408030614257E-003;3.449202282354236E-003;
2.410000000000000E+009;1.870496720075607E-001;3.019086085259914E-002;-2.544474089518189E-003;3.604237223044038E-003;
2.410166666666667E+009;1.857028752565384E-001;2.831869572401047E-002;-2.414791611954570E-003;3.817169461399317E-003;
2.410333333333334E+009;1.846037954092026E-001;2.652288973331451E-002;-2.295100828632712E-003;4.021909087896347E-003;
2.410500000000000E+009;1.836061477661133E-001;2.479680441319943E-002;-2.107740845531225E-003;4.021245520561934E-003;
2.410666666666667E+009;1.824508905410767E-001;2.251170389354229E-002;-1.924352487549186E-003;4.190568346530199E-003;
2.410833333333334E+009;1.817030608654022E-001;2.044100500643253E-002;-1.446783775463700E-003;4.157852847129107E-003;
2.411000000000000E+009;1.808809041976929E-001;1.814069785177708E-002;-1.515717594884336E-003;4.453572910279036E-003;
2.411166666666667E+009;1.800095885992050E-001;1.611134409904480E-002;-1.271267537958920E-003;4.428212065249682E-003;
2.411333333333334E+009;1.793736070394516E-001;1.356217823922634E-002;-1.067675650119782E-003;4.492931067943573E-003;
2.411500000000000E+009;1.788237988948822E-001;1.117498893290758E-002;-8.204503101296723E-004;4.397896584123373E-003;
2.411666666666667E+009;1.785905957221985E-001;8.578184992074966E-003;-6.606590468436480E-004;4.262988921254873E-003;
2.411833333333334E+009;1.780805438756943E-001;6.403175182640553E-003;-4.736100672744215E-004;4.461901728063822E-003;
2.412000000000000E+009;1.780810058116913E-001;3.548204433172941E-003;-3.822357684839517E-004;4.686956759542227E-003;
2.412166666666667E+009;1.781161576509476E-001;1.152749755419791E-003;-9.659847273724154E-005;4.445831757038832E-003;
2.412333333333334E+009;1.781703978776932E-001;-1.390263088978827E-003;2.382272650720552E-004;4.464904312044382E-003;
2.412500000000000E+009;1.786510348320007E-001;-4.028123337775469E-003;2.503325522411615E-004;4.531558137387037E-003;
2.412666666666667E+009;1.790078580379486E-001;-6.432977039366961E-003;5.333968438208103E-004;4.551088437438011E-003;
2.412833333333334E+009;1.797283440828323E-001;-8.969157934188843E-003;7.728250930085778E-004;4.325957503169775E-003;
2.413000000000000E+009;1.801804453134537E-001;-1.144010107964277E-002;1.040094066411257E-003;4.293599165976048E-003;
2.413166666666667E+009;1.812165677547455E-001;-1.378386374562979E-002;1.163964043371379E-003;4.130545537918806E-003;
2.413333333333334E+009;1.821724474430084E-001;-1.628634333610535E-002;1.490345341153443E-003;4.059499129652977E-003;
2.413500000000000E+009;1.828317046165466E-001;-1.864674873650074E-002;1.608987688086927E-003;3.852454246953130E-003;
2.413666666666667E+009;1.841023564338684E-001;-2.090969495475292E-002;1.819999190047383E-003;3.602650249376893E-003;
2.413833333333334E+009;1.850714683532715E-001;-2.299340069293976E-002;1.980874221771956E-003;3.430462209507823E-003;
2.414000000000000E+009;1.863295882940292E-001;-2.525017224252224E-002;2.060333499684930E-003;3.338898997753859E-003;
2.414166666666667E+009;1.875862181186676E-001;-2.699585817754269E-002;2.100258367136121E-003;3.181413048878312E-003;
2.414333333333334E+009;1.887473613023758E-001;-2.908532507717609E-002;2.205522730946541E-003;3.048740793019533E-003;
2.414500000000000E+009;1.901241987943649E-001;-3.068297542631626E-002;2.196813467890024E-003;2.780635608360171E-003;
2.414666666666667E+009;1.912930458784103E-001;-3.216161206364632E-002;2.013024175539613E-003;2.707627601921558E-003;
2.414833333333334E+009;1.925871521234512E-001;-3.366049006581307E-002;2.025855239480734E-003;2.647098153829575E-003;
2.415000000000000E+009;1.938835531473160E-001;-3.494360670447350E-002;2.110080793499947E-003;2.439164789393544E-003;
2.415166666666667E+009;1.951755285263062E-001;-3.621881082653999E-002;2.147972118109465E-003;2.471686573699117E-003;
2.415333333333334E+009;1.966266334056854E-001;-3.715676814317703E-002;2.144634490832686E-003;2.390745561569929E-003;
2.415500000000000E+009;1.977244913578033E-001;-3.790041804313660E-002;2.162444870918989E-003;2.293835859745741E-003;
2.415666666666667E+009;1.989548206329346E-001;-3.880770131945610E-002;2.150075510144234E-003;2.240449190139771E-003;
2.415833333333334E+009;1.999655365943909E-001;-3.956998884677887E-002;2.280915388837457E-003;2.197838621214032E-003;
2.416000000000000E+009;2.009752094745636E-001;-4.013806954026222E-002;2.271757693961263E-003;1.965454081073403E-003;
2.416166666666667E+009;2.018432468175888E-001;-4.068570211529732E-002;2.306771231815219E-003;1.953011029399931E-003;
2.416333333333334E+009;2.025139182806015E-001;-4.093019664287567E-002;2.320227213203907E-003;1.752271549776197E-003;
2.416500000000000E+009;2.032424062490463E-001;-4.121381044387817E-002;2.364118816331029E-003;1.731564290821552E-003;
2.416666666666667E+009;2.036788165569305E-001;-4.149632528424263E-002;2.225247677415609E-003;1.490183407440782E-003;
2.416833333333334E+009;2.040876001119614E-001;-4.149438813328743E-002;2.182323485612869E-003;1.458069542422891E-003;
2.417000000000000E+009;2.042790651321411E-001;-4.159927740693092E-002;2.120743272826076E-003;1.349843689240515E-003;
2.417166666666667E+009;2.041956782341003E-001;-4.148078337311745E-002;1.998999156057835E-003;1.306558377109468E-003;
2.417333333333334E+009;2.042217850685120E-001;-4.118821769952774E-002;1.731415279209614E-003;1.522941980510950E-003;
2.417500000000000E+009;2.040263265371323E-001;-4.116896167397499E-002;1.756043639034033E-003;1.399201806634665E-003;
2.417666666666667E+009;2.036888748407364E-001;-4.085041210055351E-002;1.805870677344501E-003;1.695192186161876E-003;
2.417833333333334E+009;2.034080624580383E-001;-4.054553434252739E-002;1.779859303496778E-003;1.579833682626486E-003;
2.418000000000000E+009;2.028022259473801E-001;-4.033967107534409E-002;1.757682883180678E-003;1.725960988551378E-003;
2.418166666666667E+009;2.020075768232346E-001;-4.006297513842583E-002;1.947645796462894E-003;1.674587139859796E-003;
2.418333333333334E+009;2.012408673763275E-001;-3.988414257764816E-002;1.884481636807323E-003;1.753126387484372E-003;
2.418500000000000E+009;2.003946453332901E-001;-3.981921821832657E-002;2.161079784855247E-003;1.891270279884338E-003;
2.418666666666667E+009;1.995281279087067E-001;-3.964969515800476E-002;2.122866921126843E-003;1.759469043463469E-003;
2.418833333333334E+009;1.982889622449875E-001;-3.975991159677506E-002;2.302438952028751E-003;1.782250823453069E-003;
2.419000000000000E+009;1.969577670097351E-001;-3.983131051063538E-002;2.516522072255611E-003;1.784885302186012E-003;
2.419166666666667E+009;1.957491934299469E-001;-4.009520262479782E-002;2.575441729277372E-003;1.806949498131871E-003;
2.419333333333334E+009;1.942783594131470E-001;-4.052686318755150E-002;2.854880876839161E-003;1.620420604012907E-003;
2.419500000000000E+009;1.927590370178223E-001;-4.090769216418266E-002;2.802147762849927E-003;1.688184682279825E-003;
2.419666666666667E+009;1.913090050220490E-001;-4.143811762332916E-002;2.944831969216466E-003;1.465552253648639E-003;
2.419833333333334E+009;1.895660310983658E-001;-4.216006398200989E-002;3.104040632024407E-003;1.493247575126588E-003;
2.420000000000000E+009;1.879578828811646E-001;-4.287138581275940E-002;3.177698934450746E-003;1.139243133366108E-003;
2.420166666666667E+009;1.862922459840775E-001;-4.382399097084999E-002;3.087624209001660E-003;1.342749455943704E-003;
2.420333333333334E+009;1.846474409103394E-001;-4.498482495546341E-002;3.228670684620738E-003;1.092940336093307E-003;
2.420500000000000E+009;1.828764379024506E-001;-4.626568034291267E-002;3.241395344957709E-003;1.088551711291075E-003;
2.420666666666667E+009;1.811024099588394E-001;-4.719680920243263E-002;3.301462158560753E-003;1.075357664376497E-003;
2.420833333333334E+009;1.793532073497772E-001;-4.878823459148407E-002;3.287494881078601E-003;8.312686113640666E-004;
2.421000000000000E+009;1.780412644147873E-001;-5.032685026526451E-002;3.341430332511663E-003;8.498699753545225E-004;
2.421166666666667E+009;1.764829754829407E-001;-5.205459520220757E-002;3.347245045006275E-003;7.525967666879296E-004;
2.421333333333334E+009;1.746436059474945E-001;-5.378734692931175E-002;3.355148248374462E-003;5.433063488453627E-004;
2.421500000000000E+009;1.733244508504868E-001;-5.568348616361618E-002;3.502987790852785E-003;5.083263386040926E-004;
2.421666666666667E+009;1.719890087842941E-001;-5.750440806150436E-002;3.346788464114070E-003;3.903247416019440E-004;
2.421833333333334E+009;1.706390678882599E-001;-5.950854346156120E-002;3.513886826112866E-003;2.547375333961099E-004;
2.422000000000000E+009;1.694152057170868E-001;-6.131608784198761E-002;3.663531504571438E-003;2.767939295154065E-004;
2.422166666666667E+009;1.684836894273758E-001;-6.365074217319489E-002;3.516284516081214E-003;9.027886699186638E-005;
2.422333333333334E+009;1.674586683511734E-001;-6.572405248880386E-002;3.611116204410791E-003;-4.317482307669707E-006;
2.422500000000000E+009;1.666247844696045E-001;-6.773187220096588E-002;3.531448077410460E-003;2.413228321529459E-005;
2.422666666666667E+009;1.657583862543106E-001;-6.984551995992661E-002;3.694394137710333E-003;-1.098528155125678E-004;
2.422833333333334E+009;1.651895642280579E-001;-7.202553004026413E-002;3.658027388155460E-003;-1.976432686205953E-004;
2.423000000000000E+009;1.643919944763184E-001;-7.428898662328720E-002;3.550653345882893E-003;-2.837558567989618E-004;
2.423166666666667E+009;1.639687269926071E-001;-7.632482796907425E-002;3.826421219855547E-003;-5.893215420655906E-004;
2.423333333333334E+009;1.639264523983002E-001;-7.844441384077072E-002;3.857162315398455E-003;-6.631722790189087E-004;
2.423500000000000E+009;1.636833250522614E-001;-8.044850826263428E-002;3.985150717198849E-003;-8.231071406044066E-004;
2.423666666666667E+009;1.637626141309738E-001;-8.243790268898010E-002;3.878256073221564E-003;-9.523003827780485E-004;
2.423833333333334E+009;1.635928303003311E-001;-8.433413505554199E-002;3.939079120755196E-003;-1.058613182976842E-003;
2.424000000000000E+009;1.637343317270279E-001;-8.628066629171372E-002;4.028878640383482E-003;-1.134312711656094E-003;
2.424166666666667E+009;1.637895405292511E-001;-8.798000216484070E-002;3.963519353419542E-003;-1.454303273931146E-003;
2.424333333333334E+009;1.641118228435516E-001;-8.964879810810089E-002;4.090650938451290E-003;-1.787073677405715E-003;
2.424500000000000E+009;1.644321233034134E-001;-9.144765883684158E-002;4.058822058141232E-003;-1.921189017593861E-003;
2.424666666666667E+009;1.646408736705780E-001;-9.300385415554047E-002;3.891541622579098E-003;-2.291161566972733E-003;
2.424833333333334E+009;1.653653532266617E-001;-9.436815232038498E-002;3.883883357048035E-003;-2.407039748504758E-003;
2.425000000000000E+009;1.657875627279282E-001;-9.568829089403153E-002;3.704939503222704E-003;-2.616049489006400E-003;
2.425166666666667E+009;1.661601960659027E-001;-9.682552516460419E-002;3.451874246820808E-003;-2.773885848000646E-003;
2.425333333333334E+009;1.665351986885071E-001;-9.792366623878479E-002;3.244034945964813E-003;-2.918433863669634E-003;
2.425500000000000E+009;1.671617776155472E-001;-9.895317256450653E-002;3.188004018738866E-003;-3.124642418697476E-003;
2.425666666666667E+009;1.676491945981979E-001;-9.975018352270126E-002;3.018028568476439E-003;-3.192699747160077E-003;
2.425833333333334E+009;1.679161787033081E-001;-1.005753874778748E-001;2.802417613565922E-003;-3.423030255362392E-003;
2.426000000000000E+009;1.685100197792053E-001;-1.011112555861473E-001;2.640872960910201E-003;-3.326994366943836E-003;
2.426166666666667E+009;1.690889894962311E-001;-1.016089394688606E-001;2.399094635620713E-003;-3.485569031909108E-003;
2.426333333333334E+009;1.693885028362274E-001;-1.021773740649223E-001;2.251581288874149E-003;-3.436370752751827E-003;
2.426500000000000E+009;1.697654724121094E-001;-1.024920418858528E-001;2.047194400802255E-003;-3.447734285145998E-003;
2.426666666666667E+009;1.703543066978455E-001;-1.027745380997658E-001;1.972402445971966E-003;-3.637484973296523E-003;
2.426833333333334E+009;1.706116348505020E-001;-1.029657721519470E-001;1.684549381025136E-003;-3.758096368983388E-003;
2.427000000000000E+009;1.707325428724289E-001;-1.032587289810181E-001;1.705856411717832E-003;-3.591560292989016E-003;
2.427166666666667E+009;1.709251403808594E-001;-1.032830774784088E-001;1.547235879115760E-003;-3.751439973711968E-003;
2.427333333333334E+009;1.708776503801346E-001;-1.035336479544640E-001;1.416443381458521E-003;-3.630640916526318E-003;
2.427500000000000E+009;1.706710904836655E-001;-1.035578101873398E-001;1.226356718689203E-003;-3.632138483226299E-003;
2.427666666666667E+009;1.706696897745132E-001;-1.035882532596588E-001;1.173246069811285E-003;-3.641186980530620E-003;
2.427833333333334E+009;1.703731119632721E-001;-1.036856546998024E-001;9.805405279621482E-004;-3.667457727715373E-003;
