# Version 1.00
#
freq[Hz];re:Trc1_S11;im:Trc1_S11;re:Trc2_S21;im:Trc2_S21;
2.400000000000000E+009;1.549086123704910E-001;1.093817725777626E-001;-4.242106806486845E-003;-3.039043629541993E-003;
2.400166666666667E+009;1.545121967792511E-001;1.070960089564323E-001;-4.254213999956846E-003;-2.601631451398134E-003;
2.400333333333334E+009;1.545016616582871E-001;1.049657016992569E-001;-4.349130205810070E-003;-2.228357363492250E-003;
2.400500000000000E+009;1.543364226818085E-001;1.022731885313988E-001;-4.461664706468582E-003;-1.962254522368312E-003;
2.400666666666667E+009;1.543013155460358E-001;9.961080551147461E-002;-4.423784092068672E-003;-1.668817945756018E-003;
2.400833333333334E+009;1.539967805147171E-001;9.689548611640930E-002;-4.248205106705427E-003;-1.333758351393044E-003;
2.401000000000000E+009;1.540278047323227E-001;9.408924728631973E-002;-4.131371621042490E-003;-1.039744471199811E-003;
2.401166666666667E+009;1.541062444448471E-001;9.142987430095673E-002;-3.912914544343948E-003;-8.436675416305661E-004;
2.401333333333334E+009;1.544364243745804E-001;8.847344666719437E-002;-3.884959034621716E-003;-7.025750819593668E-004;
2.401500000000000E+009;1.547432094812393E-001;8.551236242055893E-002;-3.743862733244896E-003;-5.538644036278129E-004;
2.401666666666667E+009;1.549327522516251E-001;8.256937563419342E-002;-3.769031958654523E-003;-5.146796465851367E-004;
2.401833333333334E+009;1.555724591016769E-001;7.990975677967072E-002;-3.463823813945055E-003;-4.029721312690526E-004;
2.402000000000000E+009;1.561634689569473E-001;7.697406411170960E-002;-3.409858560189605E-003;-3.714545455295593E-004;
2.402166666666667E+009;1.569149941205978E-001;7.430980354547501E-002;-3.253183793276548E-003;-2.762046642601490E-004;
2.402333333333334E+009;1.579589098691940E-001;7.150916755199432E-002;-3.063989337533712E-003;-3.173156874254346E-004;
2.402500000000000E+009;1.590634882450104E-001;6.887723505496979E-002;-3.102368908002973E-003;-2.110145578626543E-004;
2.402666666666667E+009;1.599005311727524E-001;6.654121726751328E-002;-3.028433304280043E-003;-2.297823666594923E-004;
2.402833333333334E+009;1.613572984933853E-001;6.378607451915741E-002;-2.892702352255583E-003;-2.161026204703376E-004;
2.403000000000000E+009;1.626789271831513E-001;6.155586242675781E-002;-2.913004951551557E-003;-3.102146729361266E-004;
2.403166666666667E+009;1.644817292690277E-001;5.916983634233475E-002;-2.792248269543052E-003;-2.473334316164255E-004;
2.403333333333334E+009;1.659926176071167E-001;5.693373456597328E-002;-2.788555109873414E-003;-8.252070983871818E-005;
2.403500000000000E+009;1.677618622779846E-001;5.450627207756043E-002;-2.839817665517330E-003;-2.769888378679752E-004;
2.403666666666667E+009;1.697005331516266E-001;5.274190008640289E-002;-2.847967203706503E-003;-3.543724305927753E-004;
2.403833333333334E+009;1.715335249900818E-001;5.064298212528229E-002;-2.810514764860272E-003;-1.692257355898619E-004;
2.404000000000000E+009;1.731227487325668E-001;4.886286333203316E-002;-2.947263419628143E-003;-5.092577775940299E-004;
2.404166666666667E+009;1.748711317777634E-001;4.725681245326996E-002;-2.966605359688401E-003;-3.447109193075448E-004;
2.404333333333334E+009;1.765728592872620E-001;4.563092440366745E-002;-3.097615670412779E-003;-1.113721009460278E-004;
2.404500000000000E+009;1.784959137439728E-001;4.406139999628067E-002;-3.175691934302449E-003;-2.112541114911437E-004;
2.404666666666667E+009;1.801343262195587E-001;4.299274086952210E-002;-3.307314356788993E-003;-1.022233846015297E-004;
2.404833333333334E+009;1.820332556962967E-001;4.172155633568764E-002;-3.527846420183778E-003;4.382354018162005E-005;
2.405000000000000E+009;1.833992302417755E-001;4.095979407429695E-002;-3.633570857346058E-003;2.753470034804195E-004;
2.405166666666667E+009;1.851559877395630E-001;4.040848836302757E-002;-3.409954253584147E-003;2.438771771267057E-004;
2.405333333333334E+009;1.866068989038467E-001;3.965423628687859E-002;-3.594023874029517E-003;4.594858037307859E-004;
2.405500000000000E+009;1.881726682186127E-001;3.924833610653877E-002;-3.412372898310423E-003;4.720372671727091E-004;
2.405666666666667E+009;1.895935833454132E-001;3.887151181697846E-002;-3.416419029235840E-003;8.170944638550282E-004;
2.405833333333334E+009;1.909560561180115E-001;3.865658864378929E-002;-3.469219664111733E-003;9.827341418713331E-004;
2.406000000000000E+009;1.919914782047272E-001;3.849731013178825E-002;-3.402795409783721E-003;1.103227143175900E-003;
2.406166666666667E+009;1.932491958141327E-001;3.844230249524117E-002;-3.223754931241274E-003;1.150620868429542E-003;
2.406333333333334E+009;1.942741870880127E-001;3.858427330851555E-002;-3.248173277825117E-003;1.184153952635825E-003;
2.406500000000000E+009;1.952702105045319E-001;3.859275206923485E-002;-3.199958475306630E-003;1.273981411941350E-003;
2.406666666666667E+009;1.958829313516617E-001;3.868074715137482E-002;-3.150963922962546E-003;1.236564712598920E-003;
2.406833333333334E+009;1.966433227062225E-001;3.875100240111351E-002;-3.086128970608115E-003;1.311962376348674E-003;
2.407000000000000E+009;1.971074640750885E-001;3.918841108679771E-002;-3.040098585188389E-003;1.434712554328144E-003;
2.407166666666667E+009;1.974989622831345E-001;3.904676064848900E-002;-3.166805719956756E-003;1.423085108399391E-003;
2.407333333333334E+009;1.975694447755814E-001;3.927457705140114E-002;-3.117838408797979E-003;1.685263006947935E-003;
2.407500000000000E+009;1.975974887609482E-001;3.942160308361054E-002;-3.130165627226234E-003;1.649989280849695E-003;
2.407666666666667E+009;1.977946907281876E-001;3.959632664918900E-002;-3.186977002769709E-003;1.751325093209744E-003;
2.407833333333334E+009;1.972390711307526E-001;3.957334905862808E-002;-3.126993076875806E-003;1.641562907025218E-003;
2.408000000000000E+009;1.971619129180908E-001;3.952636569738388E-002;-3.192629199475050E-003;2.052037511020899E-003;
2.408166666666667E+009;1.967535167932510E-001;3.940999507904053E-002;-3.125667572021484E-003;2.087468514218926E-003;
2.408333333333334E+009;1.962262392044067E-001;3.915013372898102E-002;-3.131459699943662E-003;2.062439452856779E-003;
2.408500000000000E+009;1.956297606229782E-001;3.885532543063164E-002;-3.248687367886305E-003;2.411606488749385E-003;
2.408666666666667E+009;1.949909627437592E-001;3.847795724868774E-002;-3.185378620401025E-003;2.499248133972287E-003;
2.408833333333334E+009;1.942181438207626E-001;3.804093226790428E-002;-3.209796734154224E-003;2.764964010566473E-003;
2.409000000000000E+009;1.931191235780716E-001;3.725355118513107E-002;-3.087995341047645E-003;2.699577948078513E-003;
2.409166666666667E+009;1.922352761030197E-001;3.643546625971794E-002;-2.957937307655811E-003;2.857878804206848E-003;
2.409333333333334E+009;1.912063211202622E-001;3.560436889529228E-002;-2.811000682413578E-003;3.159729065373540E-003;
2.409500000000000E+009;1.900831758975983E-001;3.444475680589676E-002;-2.802249509841204E-003;3.304374404251576E-003;
2.409666666666667E+009;1.890374869108200E-001;3.310460969805718E-002;-2.800551010295749E-003;3.432077588513494E-003;
2.409833333333334E+009;1.877437829971314E-001;3.174444660544395E-002;-2.568040741607547E-003;3.557492513209581E-003;
2.410000000000000E+009;1.868297755718231E-001;3.008063696324825E-002;-2.602799097076058E-003;3.747758455574513E-003;
2.410166666666667E+009;1.856029778718948E-001;2.839246205985546E-002;-2.381653292104602E-003;3.913230262696743E-003;
2.410333333333334E+009;1.846289634704590E-001;2.683326601982117E-002;-2.175473840907216E-003;4.120334982872009E-003;
2.410500000000000E+009;1.834037303924561E-001;2.498715184628964E-002;-2.005605027079582E-003;4.175071138888598E-003;
2.410666666666667E+009;1.824339479207993E-001;2.251928113400936E-002;-1.841079676523805E-003;4.278903361409903E-003;
2.410833333333334E+009;1.815162450075150E-001;2.047885209321976E-002;-1.675959676504135E-003;4.351041745394468E-003;
2.411000000000000E+009;1.805721223354340E-001;1.819333992898464E-002;-1.419695559889078E-003;4.457071889191866E-003;
2.411166666666667E+009;1.798477917909622E-001;1.622872985899448E-002;-1.287966733798385E-003;4.520400427281857E-003;
2.411333333333334E+009;1.792649030685425E-001;1.365859434008598E-002;-1.072035636752844E-003;4.466596525162458E-003;
2.411500000000000E+009;1.785077154636383E-001;1.114080753177404E-002;-7.423862116411328E-004;4.409453831613064E-003;
2.411666666666667E+009;1.782995611429215E-001;8.822674863040447E-003;-5.838659708388150E-004;4.442300647497177E-003;
2.411833333333334E+009;1.779546588659287E-001;6.519521586596966E-003;-4.612544435076416E-004;4.536505788564682E-003;
2.412000000000000E+009;1.780637502670288E-001;3.739141626283526E-003;-2.388464345131069E-004;4.484550096094608E-003;
2.412166666666667E+009;1.779000461101532E-001;1.318798633292317E-003;-6.807597674196586E-005;4.610325209796429E-003;
2.412333333333334E+009;1.778873950242996E-001;-1.187675399705768E-003;1.788023946573958E-004;4.417716525495052E-003;
2.412500000000000E+009;1.783134788274765E-001;-3.713510464876890E-003;4.427456005942076E-004;4.463469609618187E-003;
2.412666666666667E+009;1.788878738880158E-001;-6.291741970926523E-003;5.910239997319877E-004;4.578928463160992E-003;
2.412833333333334E+009;1.793961673974991E-001;-8.728778921067715E-003;8.444041013717651E-004;4.468617495149374E-003;
2.413000000000000E+009;1.802103072404862E-001;-1.132900360971689E-002;9.940825402736664E-004;4.321250133216381E-003;
2.413166666666667E+009;1.808841377496719E-001;-1.365997828543186E-002;1.195208751596510E-003;4.296588711440563E-003;
2.413333333333334E+009;1.818519532680512E-001;-1.607811078429222E-002;1.379255088977516E-003;4.096098709851503E-003;
2.413500000000000E+009;1.827953308820725E-001;-1.839810609817505E-002;1.686193863861263E-003;3.913419786840677E-003;
2.413666666666667E+009;1.840147823095322E-001;-2.067083865404129E-002;1.712937722913921E-003;3.773558419197798E-003;
2.413833333333334E+009;1.849703788757324E-001;-2.280565164983273E-002;1.862913602963090E-003;3.580245189368725E-003;
2.414000000000000E+009;1.862368881702423E-001;-2.488490007817745E-002;2.094900468364358E-003;3.498140256851912E-003;
2.414166666666667E+009;1.875003278255463E-001;-2.674148790538311E-002;2.096324460580945E-003;3.194552147760987E-003;
2.414333333333334E+009;1.888204962015152E-001;-2.881643548607826E-002;2.238499931991100E-003;2.948936074972153E-003;
2.414500000000000E+009;1.899518966674805E-001;-3.036389872431755E-002;2.041787141934037E-003;2.852973528206348E-003;
2.414666666666667E+009;1.913272291421890E-001;-3.190035372972488E-002;2.199681242927909E-003;2.707271138206124E-003;
2.414833333333334E+009;1.927047073841095E-001;-3.329087048768997E-002;2.157367067411542E-003;2.659821417182684E-003;
2.415000000000000E+009;1.938006132841110E-001;-3.476255014538765E-002;2.205008175224066E-003;2.534754341468215E-003;
2.415166666666667E+009;1.952078193426132E-001;-3.593156486749649E-002;2.151887398213148E-003;2.458564238622785E-003;
2.415333333333334E+009;1.963626742362976E-001;-3.680972009897232E-002;2.236795378848910E-003;2.540281973779202E-003;
2.415500000000000E+009;1.976552158594132E-001;-3.760360553860664E-002;2.275357488542795E-003;2.319779712706804E-003;
2.415666666666667E+009;1.989789754152298E-001;-3.860380128026009E-002;2.467405749484897E-003;2.273126738145948E-003;
2.415833333333334E+009;1.999112665653229E-001;-3.913982212543488E-002;2.419229131191969E-003;2.109726890921593E-003;
2.416000000000000E+009;2.008646428585053E-001;-3.966614603996277E-002;2.559513552114368E-003;2.115936018526554E-003;
2.416166666666667E+009;2.017429172992706E-001;-4.037729278206825E-002;2.489802427589893E-003;2.021741820499301E-003;
2.416333333333334E+009;2.025134861469269E-001;-4.054623842239380E-002;2.467981306836009E-003;1.822529826313257E-003;
2.416500000000000E+009;2.032241523265839E-001;-4.084298759698868E-002;2.558590844273567E-003;1.660430454649031E-003;
2.416666666666667E+009;2.036717087030411E-001;-4.113182052969933E-002;2.524035517126322E-003;1.597000984475017E-003;
2.416833333333334E+009;2.039967179298401E-001;-4.120647907257080E-002;2.394357463344932E-003;1.421220949850977E-003;
2.417000000000000E+009;2.044348865747452E-001;-4.120170697569847E-002;2.212723251432180E-003;1.408440642990172E-003;
2.417166666666667E+009;2.043338716030121E-001;-4.109271615743637E-002;2.176211914047599E-003;1.400278648361564E-003;
2.417333333333334E+009;2.042262852191925E-001;-4.090947285294533E-002;2.105588326230645E-003;1.404713490046561E-003;
2.417500000000000E+009;2.040485739707947E-001;-4.077601805329323E-002;1.909779966808856E-003;1.462224987335503E-003;
2.417666666666667E+009;2.037242203950882E-001;-4.046422243118286E-002;2.050687791779637E-003;1.385969342663884E-003;
2.417833333333334E+009;2.034545391798019E-001;-4.032487794756889E-002;1.907835016027093E-003;1.665566465817392E-003;
2.418000000000000E+009;2.028568685054779E-001;-3.989742323756218E-002;2.046639798209071E-003;1.589493127539754E-003;
2.418166666666667E+009;2.022515833377838E-001;-3.979881852865219E-002;1.972912112250924E-003;1.758201629854739E-003;
2.418333333333334E+009;2.014118731021881E-001;-3.959508612751961E-002;2.108452841639519E-003;1.713095698505640E-003;
2.418500000000000E+009;2.004078477621079E-001;-3.951257094740868E-002;2.213932108134031E-003;1.726368558593094E-003;
2.418666666666667E+009;1.995166987180710E-001;-3.925246745347977E-002;2.422978868708015E-003;1.748380716890097E-003;
2.418833333333334E+009;1.984165161848068E-001;-3.948962688446045E-002;2.421558601781726E-003;1.799371093511581E-003;
2.419000000000000E+009;1.970926523208618E-001;-3.957112878561020E-002;2.591895405203104E-003;1.577919814735651E-003;
2.419166666666667E+009;1.957991719245911E-001;-3.980276361107826E-002;2.770136110484600E-003;1.630455022677779E-003;
2.419333333333334E+009;1.944880932569504E-001;-4.021384939551354E-002;2.849048003554344E-003;1.557766110636294E-003;
2.419500000000000E+009;1.930618733167648E-001;-4.053132608532906E-002;2.894875360652804E-003;1.589641557075083E-003;
2.419666666666667E+009;1.914154738187790E-001;-4.120758175849915E-002;3.129016607999802E-003;1.317720278166235E-003;
2.419833333333334E+009;1.896928697824478E-001;-4.180013015866280E-002;3.167418297380209E-003;1.226956956088543E-003;
2.420000000000000E+009;1.881158798933029E-001;-4.259319230914116E-002;3.088809316977859E-003;1.033700304105878E-003;
2.420166666666667E+009;1.865291446447372E-001;-4.354325681924820E-002;3.165340749546886E-003;1.013370929285884E-003;
2.420333333333334E+009;1.847555041313171E-001;-4.464603215456009E-002;3.296668874099851E-003;8.840934606269002E-004;
2.420500000000000E+009;1.831176578998566E-001;-4.591031000018120E-002;3.211874281987548E-003;8.294159779325128E-004;
2.420666666666667E+009;1.813537776470184E-001;-4.693548008799553E-002;3.315214999020100E-003;7.181650144048035E-004;
2.420833333333334E+009;1.796056926250458E-001;-4.848059639334679E-002;3.257357049733400E-003;6.532202824018896E-004;
2.421000000000000E+009;1.780044585466385E-001;-5.003411322832108E-002;3.375357715412974E-003;5.937831592746079E-004;
2.421166666666667E+009;1.767324507236481E-001;-5.173855647444725E-002;3.272367874160409E-003;5.814433097839356E-004;
2.421333333333334E+009;1.748662739992142E-001;-5.337252095341682E-002;3.296883543953300E-003;4.676224780268967E-004;
2.421500000000000E+009;1.734002977609634E-001;-5.541803687810898E-002;3.475880483165383E-003;4.274444072507322E-004;
2.421666666666667E+009;1.721049994230270E-001;-5.720845982432365E-002;3.491405863314867E-003;2.058971585938707E-004;
2.421833333333334E+009;1.709852963685989E-001;-5.922359228134155E-002;3.505307016894221E-003;1.359638117719442E-004;
2.422000000000000E+009;1.698333621025085E-001;-6.112815067172051E-002;3.407246898859739E-003;4.458280818653293E-005;
2.422166666666667E+009;1.686625182628632E-001;-6.325180828571320E-002;3.340185852721334E-003;-9.713239705888555E-005;
2.422333333333334E+009;1.676654368638992E-001;-6.561928987503052E-002;3.626859281212091E-003;-1.680533605394885E-004;
2.422500000000000E+009;1.667588055133820E-001;-6.748975068330765E-002;3.460412612184882E-003;-1.821759651647881E-004;
2.422666666666667E+009;1.660422086715698E-001;-6.963938474655151E-002;3.573904046788812E-003;-2.908507012762129E-004;
2.422833333333334E+009;1.655406206846237E-001;-7.192967087030411E-002;3.653964260593057E-003;-5.020563839934766E-004;
2.423000000000000E+009;1.648550629615784E-001;-7.411860674619675E-002;3.515031654387713E-003;-5.126614123582840E-004;
2.423166666666667E+009;1.645133495330811E-001;-7.619555294513702E-002;3.595364978536964E-003;-4.765287449117750E-004;
2.423333333333334E+009;1.641988754272461E-001;-7.834020256996155E-002;3.503297921270132E-003;-7.267033215612173E-004;
2.423500000000000E+009;1.640039235353470E-001;-8.016894012689591E-002;3.475610399618745E-003;-8.088591275736690E-004;
2.423666666666667E+009;1.641056537628174E-001;-8.225034922361374E-002;3.698320826515555E-003;-9.812287753447890E-004;
2.423833333333334E+009;1.639591604471207E-001;-8.422404527664185E-002;3.801974235102534E-003;-1.171526615507901E-003;
2.424000000000000E+009;1.639909297227860E-001;-8.623215556144714E-002;3.689540084451437E-003;-1.331161940470338E-003;
2.424166666666667E+009;1.642482578754425E-001;-8.792215585708618E-002;3.621852723881602E-003;-1.477874466218054E-003;
2.424333333333334E+009;1.643906831741333E-001;-8.956599235534668E-002;3.812626004219055E-003;-1.717295031994581E-003;
2.424500000000000E+009;1.648433357477188E-001;-9.136889129877091E-002;3.711574943736196E-003;-1.960413996130228E-003;
2.424666666666667E+009;1.652479320764542E-001;-9.287989139556885E-002;3.534460673108697E-003;-2.131874673068523E-003;
2.424833333333334E+009;1.656368523836136E-001;-9.426497668027878E-002;3.398731583729386E-003;-2.280843444168568E-003;
2.425000000000000E+009;1.661610305309296E-001;-9.559492021799088E-002;3.355242079123855E-003;-2.438758965581656E-003;
2.425166666666667E+009;1.665986031293869E-001;-9.687071293592453E-002;3.263688879087567E-003;-2.729183994233608E-003;
2.425333333333334E+009;1.669352054595947E-001;-9.787058830261231E-002;3.139413194730878E-003;-2.899213461205363E-003;
2.425500000000000E+009;1.675416529178619E-001;-9.886743873357773E-002;2.947438741102815E-003;-2.860466949641705E-003;
2.425666666666667E+009;1.680451929569244E-001;-9.968935698270798E-002;2.920995699241757E-003;-3.066130680963397E-003;
2.425833333333334E+009;1.684913635253906E-001;-1.005635708570480E-001;2.633760916069150E-003;-3.203894011676312E-003;
2.426000000000000E+009;1.690295189619064E-001;-1.011402234435082E-001;2.461021067574620E-003;-3.297226503491402E-003;
2.426166666666667E+009;1.695298850536346E-001;-1.016074493527412E-001;2.356936689466238E-003;-3.118120599538088E-003;
2.426333333333334E+009;1.697206348180771E-001;-1.022031158208847E-001;2.321544801816344E-003;-3.269576234742999E-003;
2.426500000000000E+009;1.703178584575653E-001;-1.023586913943291E-001;2.011414151638746E-003;-3.444764763116837E-003;
2.426666666666667E+009;1.705720126628876E-001;-1.027412340044975E-001;1.829441287554801E-003;-3.381303278729320E-003;
2.426833333333334E+009;1.710493266582489E-001;-1.031973809003830E-001;1.734553952701390E-003;-3.261490957811475E-003;
2.427000000000000E+009;1.711374074220657E-001;-1.032483652234078E-001;1.565024256706238E-003;-3.436871804296970E-003;
2.427166666666667E+009;1.712196320295334E-001;-1.033742278814316E-001;1.431987038813531E-003;-3.519810037687421E-003;
2.427333333333334E+009;1.712590008974075E-001;-1.035832837224007E-001;1.490039867348969E-003;-3.452372038736939E-003;
2.427500000000000E+009;1.711274534463882E-001;-1.036919802427292E-001;1.238258671946824E-003;-3.584500635042787E-003;
2.427666666666667E+009;1.709843128919601E-001;-1.036773547530174E-001;1.102500827983022E-003;-3.428656840696931E-003;
2.427833333333334E+009;1.707079261541367E-001;-1.037979200482369E-001;1.200613798573613E-003;-3.426754614338279E-003;
