# Version 1.00
#
freq[Hz];re:Trc1_S11;im:Trc1_S11;re:Trc2_S21;im:Trc2_S21;
2.400000000000000E+009;1.680383682250977E-001;4.670019820332527E-002;-7.815650315023959E-004;-1.284958125324920E-004;
2.400166666666667E+009;1.690776944160461E-001;4.569607228040695E-002;-8.545104647055268E-004;-2.159381110686809E-004;
2.400333333333334E+009;1.700535118579865E-001;4.450555890798569E-002;-8.865313138812780E-004;-2.167372585972771E-004;
2.400500000000000E+009;1.709837764501572E-001;4.327936470508575E-002;-9.097633883357048E-004;-3.517536679282785E-004;
2.400666666666667E+009;1.718431264162064E-001;4.242254793643951E-002;-1.098801731131971E-003;-5.329615087248385E-004;
2.400833333333334E+009;1.727579683065414E-001;4.163232073187828E-002;-9.260284714400768E-004;-5.848330329172313E-004;
2.401000000000000E+009;1.737077832221985E-001;4.057312011718750E-002;-1.090450678020716E-003;-6.701116799376905E-004;
2.401166666666667E+009;1.743241399526596E-001;3.986368328332901E-002;-1.213221112266183E-003;-7.190878386609256E-004;
2.401333333333334E+009;1.748532056808472E-001;3.908303380012512E-002;-1.538180862553418E-003;-7.740972214378417E-004;
2.401500000000000E+009;1.757254451513290E-001;3.855166584253311E-002;-1.591218286193907E-003;-7.931385771371424E-004;
2.401666666666667E+009;1.763622164726257E-001;3.768797591328621E-002;-1.668859156779945E-003;-7.279003039002419E-004;
2.401833333333334E+009;1.771046966314316E-001;3.696531429886818E-002;-1.857018796727061E-003;-6.761478725820780E-004;
2.402000000000000E+009;1.773949861526489E-001;3.643557801842690E-002;-1.999852946028113E-003;-6.010408396832645E-004;
2.402166666666667E+009;1.776529699563980E-001;3.584677726030350E-002;-1.939318026416004E-003;-4.449860134627670E-004;
2.402333333333334E+009;1.780237406492233E-001;3.506502509117127E-002;-2.331402618438005E-003;-5.992288934066892E-004;
2.402500000000000E+009;1.786856204271317E-001;3.426722064614296E-002;-2.343071158975363E-003;-3.442191809881479E-004;
2.402666666666667E+009;1.789523214101791E-001;3.381828963756561E-002;-2.385663101449609E-003;-3.552016278263181E-004;
2.402833333333334E+009;1.790648847818375E-001;3.300206735730171E-002;-2.388931810855866E-003;-2.327518595848233E-004;
2.403000000000000E+009;1.791640669107437E-001;3.230023384094238E-002;-2.561761066317558E-003;7.188318704720587E-006;
2.403166666666667E+009;1.791760176420212E-001;3.147958219051361E-002;-2.762051532045007E-003;2.279636682942510E-004;
2.403333333333334E+009;1.792907863855362E-001;3.056556358933449E-002;-2.672064350917935E-003;3.267874708399177E-004;
2.403500000000000E+009;1.791076660156250E-001;2.973103895783424E-002;-2.742812503129244E-003;4.055514000356197E-004;
2.403666666666667E+009;1.789024621248245E-001;2.865331247448921E-002;-2.703658537939191E-003;6.084789056330919E-004;
2.403833333333334E+009;1.786653101444244E-001;2.759709395468235E-002;-2.682705875486136E-003;8.090228075161576E-004;
2.404000000000000E+009;1.783200800418854E-001;2.659879066050053E-002;-2.738233888521791E-003;8.291311678476632E-004;
2.404166666666667E+009;1.778866052627564E-001;2.530513145029545E-002;-2.754973946139216E-003;1.129252370446920E-003;
2.404333333333334E+009;1.775830537080765E-001;2.427648194134235E-002;-2.732010092586279E-003;1.154498662799597E-003;
2.404500000000000E+009;1.769787520170212E-001;2.296153828501701E-002;-2.700353739783168E-003;1.549415406771004E-003;
2.404666666666667E+009;1.766221970319748E-001;2.148929983377457E-002;-2.585312817245722E-003;1.440375111997128E-003;
2.404833333333334E+009;1.761634647846222E-001;2.015499025583267E-002;-2.454087371006608E-003;1.699860091321170E-003;
2.405000000000000E+009;1.757505387067795E-001;1.867610216140747E-002;-2.464074641466141E-003;1.845530932769179E-003;
2.405166666666667E+009;1.752631813287735E-001;1.705843210220337E-002;-2.325609093531966E-003;2.006103284657002E-003;
2.405333333333334E+009;1.748474240303040E-001;1.543743815273047E-002;-2.313505625352264E-003;2.037913538515568E-003;
2.405500000000000E+009;1.743702441453934E-001;1.387799624353647E-002;-2.296546706929803E-003;1.992856385186315E-003;
2.405666666666667E+009;1.740333437919617E-001;1.238941680639982E-002;-1.910119201056659E-003;2.192384796217084E-003;
2.405833333333334E+009;1.735517233610153E-001;1.070870086550713E-002;-1.966143026947975E-003;2.265755552798510E-003;
2.406000000000000E+009;1.733988523483276E-001;8.693288080394268E-003;-1.811445807106793E-003;2.241416834294796E-003;
2.406166666666667E+009;1.730205267667770E-001;7.085620425641537E-003;-1.650713151320815E-003;2.478284761309624E-003;
2.406333333333334E+009;1.729335635900497E-001;5.154593382030726E-003;-1.509246299974620E-003;2.452288055792451E-003;
2.406500000000000E+009;1.726246029138565E-001;3.265881445258856E-003;-1.467796973884106E-003;2.627159235998988E-003;
2.406666666666667E+009;1.724267154932022E-001;1.376192783936858E-003;-1.315375324338675E-003;2.823063870891929E-003;
2.406833333333334E+009;1.725565791130066E-001;-6.881332956254482E-004;-1.277112169191241E-003;2.701149554923177E-003;
2.407000000000000E+009;1.726854294538498E-001;-2.645054832100868E-003;-1.020412892103195E-003;2.805562457069755E-003;
2.407166666666667E+009;1.728825122117996E-001;-4.595987033098936E-003;-9.094174602068961E-004;2.866034395992756E-003;
2.407333333333334E+009;1.728367805480957E-001;-6.773646455258131E-003;-6.036216509528458E-004;2.970164408907294E-003;
2.407500000000000E+009;1.732201874256134E-001;-8.813749998807907E-003;-3.983007627539337E-004;2.990614157170057E-003;
2.407666666666667E+009;1.734082400798798E-001;-1.069808099418879E-002;-3.162726061418653E-004;2.845097333192825E-003;
2.407833333333334E+009;1.736361533403397E-001;-1.291439682245255E-002;-1.870995183708146E-004;2.889497205615044E-003;
2.408000000000000E+009;1.739275902509689E-001;-1.495390105992556E-002;-2.408334694337100E-005;2.654350595548749E-003;
2.408166666666667E+009;1.743744015693665E-001;-1.675100997090340E-002;2.203838521381840E-004;2.664087107405067E-003;
2.408333333333334E+009;1.750304549932480E-001;-1.880255900323391E-002;4.022485227324069E-004;2.664210041984916E-003;
2.408500000000000E+009;1.752913296222687E-001;-2.071166969835758E-002;2.483548887539655E-004;2.372656716033816E-003;
2.408666666666667E+009;1.756898313760757E-001;-2.273903787136078E-002;4.105976549908519E-004;2.255648607388139E-003;
2.408833333333334E+009;1.759421080350876E-001;-2.440645359456539E-002;5.476297228597105E-004;2.101437654346228E-003;
2.409000000000000E+009;1.762768179178238E-001;-2.587143518030644E-002;4.846540396101773E-004;2.258413238450885E-003;
2.409166666666667E+009;1.768053025007248E-001;-2.739435061812401E-002;4.999953089281917E-004;1.926525612361729E-003;
2.409333333333334E+009;1.771907806396484E-001;-2.901441976428032E-002;4.863128706347197E-004;1.954710576683283E-003;
2.409500000000000E+009;1.776757687330246E-001;-3.044408373534679E-002;5.814827163703740E-004;2.040677005425096E-003;
2.409666666666667E+009;1.779463887214661E-001;-3.150772675871849E-002;5.174294929020107E-004;1.797455013729632E-003;
2.409833333333334E+009;1.783044934272766E-001;-3.275050595402718E-002;5.142531590536237E-004;1.789223984815180E-003;
2.410000000000000E+009;1.789560317993164E-001;-3.362492099404335E-002;4.133289621677250E-004;1.681145979091525E-003;
2.410166666666667E+009;1.793957054615021E-001;-3.456304967403412E-002;4.717356641776860E-004;1.688781660050154E-003;
2.410333333333334E+009;1.797597855329514E-001;-3.555622696876526E-002;6.065312772989273E-004;1.722355955280364E-003;
2.410500000000000E+009;1.801571100950241E-001;-3.626279532909393E-002;3.318609087727964E-004;1.525141648016870E-003;
2.410666666666667E+009;1.804843395948410E-001;-3.717934340238571E-002;3.868469211738557E-004;1.681130146607757E-003;
2.410833333333334E+009;1.810970157384872E-001;-3.761199116706848E-002;3.307709994260222E-004;1.601555384695530E-003;
2.411000000000000E+009;1.811252236366272E-001;-3.818826004862785E-002;2.725853119045496E-004;1.728717004880309E-003;
2.411166666666667E+009;1.814368814229965E-001;-3.886538743972778E-002;2.778841881081462E-004;1.676016254350543E-003;
2.411333333333334E+009;1.815991699695587E-001;-3.935254365205765E-002;2.871926408261061E-004;1.697056577540934E-003;
2.411500000000000E+009;1.815820783376694E-001;-4.001737013459206E-002;3.152100543957204E-004;1.680123154073954E-003;
2.411666666666667E+009;1.818756312131882E-001;-4.033434018492699E-002;3.858933050651103E-004;1.712526078335941E-003;
2.411833333333334E+009;1.815904974937439E-001;-4.068157821893692E-002;3.324097488075495E-004;1.747111906297505E-003;
2.412000000000000E+009;1.815031617879868E-001;-4.129362851381302E-002;4.643136926461011E-004;1.664198236539960E-003;
2.412166666666667E+009;1.810487657785416E-001;-4.157748445868492E-002;3.770463517867029E-004;1.803083927370608E-003;
2.412333333333334E+009;1.810763329267502E-001;-4.185382276773453E-002;4.188089806120843E-004;1.875361776910722E-003;
2.412500000000000E+009;1.804333925247192E-001;-4.227321967482567E-002;3.456359554547817E-004;1.905474578961730E-003;
2.412666666666667E+009;1.799901872873306E-001;-4.278202354907990E-002;4.378724552225322E-004;1.902000745758414E-003;
2.412833333333334E+009;1.793211996555328E-001;-4.313744604587555E-002;5.548381595872343E-004;2.041925210505724E-003;
2.413000000000000E+009;1.784421950578690E-001;-4.344320297241211E-002;4.672601644415408E-004;2.000823849812150E-003;
2.413166666666667E+009;1.776031404733658E-001;-4.392006993293762E-002;6.214629975147545E-004;2.114042174071074E-003;
2.413333333333334E+009;1.767847388982773E-001;-4.443366825580597E-002;5.844798288308084E-004;2.061999868601561E-003;
2.413500000000000E+009;1.759645640850067E-001;-4.499168694019318E-002;7.980291265994310E-004;2.123591490089893E-003;
2.413666666666667E+009;1.749878525733948E-001;-4.542032629251480E-002;8.862721151672304E-004;2.161260694265366E-003;
2.413833333333334E+009;1.738270670175552E-001;-4.600404575467110E-002;9.416262037120760E-004;2.214587992057204E-003;
2.414000000000000E+009;1.727193593978882E-001;-4.673597216606140E-002;9.826502064242959E-004;2.144926460459828E-003;
2.414166666666667E+009;1.717657297849655E-001;-4.738655313849449E-002;9.666820405982435E-004;2.325436333194375E-003;
2.414333333333334E+009;1.705726385116577E-001;-4.822162911295891E-002;1.126532559283078E-003;2.199006034061313E-003;
2.414500000000000E+009;1.693677157163620E-001;-4.911450296640396E-002;1.198008540086448E-003;2.452199812978506E-003;
2.414666666666667E+009;1.682135611772537E-001;-4.997157305479050E-002;1.409429823979735E-003;2.329844748601317E-003;
2.414833333333334E+009;1.670263111591339E-001;-5.102858692407608E-002;1.339853042736650E-003;2.221771515905857E-003;
2.415000000000000E+009;1.658777445554733E-001;-5.214330554008484E-002;1.527964370325208E-003;2.327156951650977E-003;
2.415166666666667E+009;1.646373420953751E-001;-5.338724330067635E-002;1.608466613106430E-003;2.259372733533382E-003;
2.415333333333334E+009;1.635244488716126E-001;-5.483008176088333E-002;1.659808796830475E-003;2.443799749016762E-003;
2.415500000000000E+009;1.625600606203079E-001;-5.618171393871307E-002;1.881174626760185E-003;2.427872968837619E-003;
2.415666666666667E+009;1.613355875015259E-001;-5.762898921966553E-002;1.799074234440923E-003;2.250792225822806E-003;
2.415833333333334E+009;1.602765172719955E-001;-5.922735109925270E-002;1.995240803807974E-003;2.298518083989620E-003;
2.416000000000000E+009;1.591510176658630E-001;-6.105934083461762E-002;2.311829011887312E-003;2.181901130825281E-003;
2.416166666666667E+009;1.582944691181183E-001;-6.264832615852356E-002;2.343477448448539E-003;2.142452867701650E-003;
2.416333333333334E+009;1.572541147470474E-001;-6.447781622409821E-002;2.540327608585358E-003;2.211044775322080E-003;
2.416500000000000E+009;1.563101112842560E-001;-6.616603583097458E-002;2.613422228023410E-003;2.294133184477687E-003;
2.416666666666667E+009;1.552259624004364E-001;-6.800010800361633E-002;2.805893076583743E-003;2.124845748767257E-003;
2.416833333333334E+009;1.545127183198929E-001;-7.011405378580093E-002;3.049230668693781E-003;1.975519815459848E-003;
2.417000000000000E+009;1.536425203084946E-001;-7.199466228485107E-002;3.171141026541591E-003;1.914672437123954E-003;
2.417166666666667E+009;1.528909653425217E-001;-7.377285510301590E-002;3.114039544016123E-003;1.601695548743010E-003;
2.417333333333334E+009;1.522326171398163E-001;-7.575654983520508E-002;3.427318995818496E-003;1.689733704552054E-003;
2.417500000000000E+009;1.516883224248886E-001;-7.774668931961060E-002;3.489392343908548E-003;1.410057768225670E-003;
2.417666666666667E+009;1.512202322483063E-001;-7.951364666223526E-002;3.493217285722494E-003;1.252658665180206E-003;
2.417833333333334E+009;1.507357954978943E-001;-8.142372220754623E-002;3.654616884887219E-003;1.084616524167359E-003;
2.418000000000000E+009;1.502197980880737E-001;-8.327185362577438E-002;3.912385553121567E-003;9.479466243647039E-004;
2.418166666666667E+009;1.499925404787064E-001;-8.483166992664337E-002;3.767368150874972E-003;8.365344256162643E-004;
2.418333333333334E+009;1.498574316501617E-001;-8.661973476409912E-002;3.962259739637375E-003;5.491402698680759E-004;
2.418500000000000E+009;1.496360003948212E-001;-8.817875385284424E-002;4.023984540253878E-003;4.551165911834687E-004;
2.418666666666667E+009;1.496604382991791E-001;-8.975184708833695E-002;4.064302425831556E-003;1.439197076251730E-004;
2.418833333333334E+009;1.492549031972885E-001;-9.121944755315781E-002;3.962716553360224E-003;-6.670018774457276E-005;
2.419000000000000E+009;1.492580175399780E-001;-9.252063930034638E-002;4.090449307113886E-003;-2.013266057474539E-004;
2.419166666666667E+009;1.492833495140076E-001;-9.376716613769531E-002;3.867834573611617E-003;-4.336571728345007E-004;
2.419333333333334E+009;1.492224335670471E-001;-9.474188834428787E-002;3.766093170270324E-003;-6.304712151177228E-004;
2.419500000000000E+009;1.494780182838440E-001;-9.594237059354782E-002;3.820745740085840E-003;-7.259506965056062E-004;
2.419666666666667E+009;1.497848331928253E-001;-9.689734876155853E-002;3.767581190913916E-003;-8.723013452254236E-004;
2.419833333333334E+009;1.498899757862091E-001;-9.753370285034180E-002;3.666750388219953E-003;-1.045893877744675E-003;
2.420000000000000E+009;1.502970010042191E-001;-9.831588715314865E-002;3.632540348917246E-003;-1.270704902708530E-003;
2.420166666666667E+009;1.503186076879501E-001;-9.884086996316910E-002;3.454532707110047E-003;-1.385593437589705E-003;
2.420333333333334E+009;1.505689322948456E-001;-9.933329373598099E-002;3.295996226370335E-003;-1.488713547587395E-003;
2.420500000000000E+009;1.510992795228958E-001;-9.951096773147583E-002;3.330551553517580E-003;-1.595262903720141E-003;
2.420666666666667E+009;1.510505527257919E-001;-9.972808510065079E-002;3.356482600793243E-003;-1.732976175844669E-003;
2.420833333333334E+009;1.513209193944931E-001;-9.994573146104813E-002;3.255964256823063E-003;-1.678267726674676E-003;
2.421000000000000E+009;1.515492647886276E-001;-1.000989750027657E-001;3.178091719746590E-003;-1.817394164390862E-003;
2.421166666666667E+009;1.518856734037399E-001;-9.997288137674332E-002;3.213725052773953E-003;-1.898669404909015E-003;
2.421333333333334E+009;1.521591544151306E-001;-1.000959128141403E-001;3.046848345547915E-003;-1.969033153727651E-003;
2.421500000000000E+009;1.520446389913559E-001;-9.967888146638870E-002;3.009875770658255E-003;-2.124523743987083E-003;
2.421666666666667E+009;1.521999537944794E-001;-9.986567497253418E-002;2.801387570798397E-003;-2.191127976402640E-003;
2.421833333333334E+009;1.522922366857529E-001;-9.947846084833145E-002;3.050104714930058E-003;-2.381880301982164E-003;
2.422000000000000E+009;1.520429253578186E-001;-9.923584759235382E-002;2.855567261576653E-003;-2.525258576497436E-003;
2.422166666666667E+009;1.518316268920898E-001;-9.913083165884018E-002;2.862893976271153E-003;-2.604048466309905E-003;
2.422333333333334E+009;1.515929996967316E-001;-9.875239431858063E-002;2.819451503455639E-003;-2.813306404277682E-003;
2.422500000000000E+009;1.510570496320725E-001;-9.818308800458908E-002;2.617415739223361E-003;-2.816386986523867E-003;
2.422666666666667E+009;1.504885107278824E-001;-9.806992113590241E-002;2.442197408527136E-003;-2.917203819379211E-003;
2.422833333333334E+009;1.500685811042786E-001;-9.774945676326752E-002;2.516406821087003E-003;-2.970604458823800E-003;
2.423000000000000E+009;1.491636931896210E-001;-9.729718416929245E-002;2.381535712629557E-003;-3.101897193118930E-003;
2.423166666666667E+009;1.483514606952667E-001;-9.705116599798203E-002;2.075458876788616E-003;-3.154458943754435E-003;
2.423333333333334E+009;1.475305408239365E-001;-9.658443927764893E-002;1.772105810232461E-003;-3.177415579557419E-003;
2.423500000000000E+009;1.465401202440262E-001;-9.643880277872086E-002;2.025180961936712E-003;-3.332892199978232E-003;
2.423666666666667E+009;1.452815532684326E-001;-9.612841904163361E-002;1.665595686063170E-003;-3.389785299077630E-003;
2.423833333333334E+009;1.441676914691925E-001;-9.579506516456604E-002;1.681159134022892E-003;-3.547447035089135E-003;
2.424000000000000E+009;1.427523940801621E-001;-9.545105695724487E-002;1.310551073402166E-003;-3.676894586533308E-003;
2.424166666666667E+009;1.415199488401413E-001;-9.537726640701294E-002;1.368272583931685E-003;-3.678023116663098E-003;
2.424333333333334E+009;1.402102261781693E-001;-9.515977650880814E-002;1.034270972013474E-003;-3.757767379283905E-003;
2.424500000000000E+009;1.387913376092911E-001;-9.533429145812988E-002;8.661405881866813E-004;-3.727426752448082E-003;
2.424666666666667E+009;1.375206112861633E-001;-9.517561644315720E-002;6.844823947176337E-004;-3.746287897229195E-003;
2.424833333333334E+009;1.360300034284592E-001;-9.545915573835373E-002;4.646600864361972E-004;-3.679976798593998E-003;
2.425000000000000E+009;1.346082091331482E-001;-9.580236673355103E-002;3.254099283367395E-004;-3.744956804439426E-003;
2.425166666666667E+009;1.329759657382965E-001;-9.610139578580856E-002;2.708501415327191E-004;-3.677759319543839E-003;
2.425333333333334E+009;1.315799504518509E-001;-9.663499146699905E-002;-1.139157029683702E-005;-3.617541631683707E-003;
2.425500000000000E+009;1.301420778036118E-001;-9.734627604484558E-002;-1.919739443110302E-004;-3.555079689249396E-003;
2.425666666666667E+009;1.285711675882340E-001;-9.809040278196335E-002;-2.707099192775786E-004;-3.596705384552479E-003;
2.425833333333334E+009;1.271671205759049E-001;-9.889972209930420E-002;-2.771050785668194E-004;-3.638702910393477E-003;
2.426000000000000E+009;1.257692873477936E-001;-9.999400377273560E-002;-4.491285653784871E-004;-3.467919304966927E-003;
2.426166666666667E+009;1.245592683553696E-001;-1.010188907384872E-001;-5.937978276051581E-004;-3.247917862609029E-003;
2.426333333333334E+009;1.232436299324036E-001;-1.022560149431229E-001;-6.974228308536112E-004;-3.248570021241903E-003;
2.426500000000000E+009;1.219779849052429E-001;-1.033892631530762E-001;-9.232389274984598E-004;-3.180572995916009E-003;
2.426666666666667E+009;1.208727061748505E-001;-1.047595068812370E-001;-7.731943624094129E-004;-3.077698638662696E-003;
2.426833333333334E+009;1.195491254329681E-001;-1.061807051301003E-001;-8.181946468539536E-004;-2.847976284101605E-003;
2.427000000000000E+009;1.184774488210678E-001;-1.077514439821243E-001;-8.318506297655404E-004;-2.837767358869314E-003;
2.427166666666667E+009;1.175325512886047E-001;-1.092365533113480E-001;-9.002930601127446E-004;-2.756447531282902E-003;
2.427333333333334E+009;1.164423525333405E-001;-1.109309419989586E-001;-9.021318983286619E-004;-2.609287854284048E-003;
2.427500000000000E+009;1.157610043883324E-001;-1.124940663576126E-001;-8.323047077283263E-004;-2.508420264348388E-003;
2.427666666666667E+009;1.148864850401878E-001;-1.143214255571365E-001;-9.117200970649719E-004;-2.551197074353695E-003;
2.427833333333334E+009;1.141666024923325E-001;-1.159395352005959E-001;-8.394299657084048E-004;-2.667272696271539E-003;
