# Version 1.00
#
freq[Hz];re:Trc1_S11;im:Trc1_S11;re:Trc2_S21;im:Trc2_S21;
2.400000000000000E+009;1.681152135133743E-001;4.674578458070755E-002;-9.581878548488021E-004;-2.238459710497409E-004;
2.400166666666667E+009;1.691096723079681E-001;4.576625674962997E-002;-9.932873072102666E-004;-3.411811776459217E-004;
2.400333333333334E+009;1.700630038976669E-001;4.438686743378639E-002;-1.013622502796352E-003;-4.805686767213047E-004;
2.400500000000000E+009;1.709682345390320E-001;4.351160302758217E-002;-1.106769661419094E-003;-4.749001527670771E-004;
2.400666666666667E+009;1.717291772365570E-001;4.231732338666916E-002;-1.095016486942768E-003;-3.399212728254497E-004;
2.400833333333334E+009;1.728144437074661E-001;4.156632721424103E-002;-1.192361232824624E-003;-5.971542559564114E-004;
2.401000000000000E+009;1.735501140356064E-001;4.080330580472946E-002;-1.180592575110495E-003;-7.003998034633696E-004;
2.401166666666667E+009;1.743310987949371E-001;3.994173929095268E-002;-1.242920639924705E-003;-6.593102007173002E-004;
2.401333333333334E+009;1.749823093414307E-001;3.915549442172051E-002;-1.455879653804004E-003;-6.394882220774889E-004;
2.401500000000000E+009;1.758660227060318E-001;3.827404603362083E-002;-1.573677873238921E-003;-7.188770687207580E-004;
2.401666666666667E+009;1.764537692070007E-001;3.788183629512787E-002;-1.562158926390111E-003;-6.755730137228966E-004;
2.401833333333334E+009;1.769867092370987E-001;3.711706027388573E-002;-1.595042180269957E-003;-7.172038895078003E-004;
2.402000000000000E+009;1.773800849914551E-001;3.638077154755592E-002;-2.011862350627780E-003;-6.370092160068452E-004;
2.402166666666667E+009;1.778890341520309E-001;3.573672845959663E-002;-2.147475956007838E-003;-5.922225536778569E-004;
2.402333333333334E+009;1.782407909631729E-001;3.503521904349327E-002;-2.158783841878176E-003;-4.116989730391651E-004;
2.402500000000000E+009;1.788413226604462E-001;3.451041132211685E-002;-2.286779228597879E-003;-4.787546058651060E-004;
2.402666666666667E+009;1.789591610431671E-001;3.389725834131241E-002;-2.305361675098538E-003;-2.219203452114016E-004;
2.402833333333334E+009;1.789865195751190E-001;3.304107114672661E-002;-2.553897211328149E-003;-2.386741107329726E-005;
2.403000000000000E+009;1.792715042829514E-001;3.235812112689018E-002;-2.692901063710451E-003;1.131112148868851E-004;
2.403166666666667E+009;1.794280856847763E-001;3.142120316624641E-002;-2.506930846720934E-003;2.884494897443801E-004;
2.403333333333334E+009;1.793378293514252E-001;3.076213039457798E-002;-2.699045231565833E-003;1.844520156737417E-004;
2.403500000000000E+009;1.789902299642563E-001;2.965671941637993E-002;-2.786871511489153E-003;5.045261932536960E-004;
2.403666666666667E+009;1.788284629583359E-001;2.865971624851227E-002;-2.801706781610847E-003;5.649702507071197E-004;
2.403833333333334E+009;1.786553710699081E-001;2.767367847263813E-002;-2.767999889329076E-003;8.184491889551282E-004;
2.404000000000000E+009;1.782646626234055E-001;2.652080357074738E-002;-2.803794341161847E-003;8.437026408500969E-004;
2.404166666666667E+009;1.779491007328033E-001;2.535113692283630E-002;-2.806216944009066E-003;1.170196337625384E-003;
2.404333333333334E+009;1.775354743003845E-001;2.428996190428734E-002;-2.731638727709651E-003;1.281182747334242E-003;
2.404500000000000E+009;1.770189851522446E-001;2.281739562749863E-002;-2.673089271411300E-003;1.458417624235153E-003;
2.404666666666667E+009;1.765646934509277E-001;2.157489024102688E-002;-2.436412032693625E-003;1.448857015930116E-003;
2.404833333333334E+009;1.760641485452652E-001;2.015125937759876E-002;-2.611677395179868E-003;1.640518079511821E-003;
2.405000000000000E+009;1.757590174674988E-001;1.880647055804730E-002;-2.401737961918116E-003;1.776532852090895E-003;
2.405166666666667E+009;1.753603219985962E-001;1.714372821152210E-002;-2.358437515795231E-003;1.902473974041641E-003;
2.405333333333334E+009;1.749022752046585E-001;1.550344750285149E-002;-2.499179914593697E-003;2.083823550492525E-003;
2.405500000000000E+009;1.744085699319840E-001;1.416137628257275E-002;-2.154931891709566E-003;2.154425019398332E-003;
2.405666666666667E+009;1.741186082363129E-001;1.254373323172331E-002;-2.189254155382514E-003;2.251531928777695E-003;
2.405833333333334E+009;1.736745536327362E-001;1.074350066483021E-002;-2.017213962972164E-003;2.235911088064313E-003;
2.406000000000000E+009;1.734085232019424E-001;8.720877580344677E-003;-1.977205974981189E-003;2.465715166181326E-003;
2.406166666666667E+009;1.730654835700989E-001;7.114571519196034E-003;-1.901854411698878E-003;2.520970301702619E-003;
2.406333333333334E+009;1.730435341596603E-001;5.261109676212072E-003;-1.646592398174107E-003;2.704617334529758E-003;
2.406500000000000E+009;1.728387027978897E-001;3.334992798045278E-003;-1.647082390263677E-003;2.564350841566920E-003;
2.406666666666667E+009;1.725848466157913E-001;1.519561046734452E-003;-1.489387475885451E-003;2.726359292864800E-003;
2.406833333333334E+009;1.726481467485428E-001;-6.676282500848174E-004;-1.361693139187992E-003;2.873660298064351E-003;
2.407000000000000E+009;1.728482395410538E-001;-2.705538179725409E-003;-1.190191134810448E-003;2.743030199781060E-003;
2.407166666666667E+009;1.729549318552017E-001;-4.614397883415222E-003;-8.957113022916019E-004;3.007614752277732E-003;
2.407333333333334E+009;1.730424612760544E-001;-6.805274635553360E-003;-7.681805873289704E-004;2.969934372231364E-003;
2.407500000000000E+009;1.732201576232910E-001;-8.736983872950077E-003;-6.341370753943920E-004;2.978869946673513E-003;
2.407666666666667E+009;1.736167818307877E-001;-1.065097097307444E-002;-3.822590224444866E-004;2.915092511102557E-003;
2.407833333333334E+009;1.737183034420013E-001;-1.287687849253416E-002;-1.255474053323269E-004;2.953022485598922E-003;
2.408000000000000E+009;1.740332245826721E-001;-1.486141141504049E-002;1.667675314820372E-005;2.850490389391780E-003;
2.408166666666667E+009;1.744510978460312E-001;-1.675697788596153E-002;9.110322571359575E-005;2.782300580292940E-003;
2.408333333333334E+009;1.750513613224030E-001;-1.877366192638874E-002;1.808954548323527E-004;2.509434008970857E-003;
2.408500000000000E+009;1.753656119108200E-001;-2.063512057065964E-002;4.133378970436752E-004;2.529653487727046E-003;
2.408666666666667E+009;1.757114827632904E-001;-2.249205298721790E-002;3.642564988695085E-004;2.313537523150444E-003;
2.408833333333334E+009;1.760966628789902E-001;-2.445573359727860E-002;4.844882059842348E-004;2.176281297579408E-003;
2.409000000000000E+009;1.763851791620255E-001;-2.587718144059181E-002;3.501751634757966E-004;2.138258190825582E-003;
2.409166666666667E+009;1.768577247858048E-001;-2.758526988327503E-002;4.661878920160234E-004;1.996009610593319E-003;
2.409333333333334E+009;1.773879826068878E-001;-2.891768328845501E-002;5.876749055460095E-004;1.941065071150661E-003;
2.409500000000000E+009;1.777841448783875E-001;-3.042030334472656E-002;5.919780815020204E-004;1.809078152291477E-003;
2.409666666666667E+009;1.780678480863571E-001;-3.163215517997742E-002;5.317251780070365E-004;1.916849520057440E-003;
2.409833333333334E+009;1.783994287252426E-001;-3.263289481401444E-002;4.596810613293201E-004;1.809018547646701E-003;
2.410000000000000E+009;1.788554489612579E-001;-3.368842601776123E-002;5.450422759167850E-004;1.840631244704127E-003;
2.410166666666667E+009;1.795171499252319E-001;-3.477244079113007E-002;4.283342568669468E-004;1.729133538901806E-003;
2.410333333333334E+009;1.797691732645035E-001;-3.549732640385628E-002;3.864120226353407E-004;1.694987877272070E-003;
2.410500000000000E+009;1.801638007164002E-001;-3.618839010596275E-002;3.399178676772863E-004;1.717111794278026E-003;
2.410666666666667E+009;1.806578189134598E-001;-3.723171353340149E-002;3.930424281861633E-004;1.719145919196308E-003;
2.410833333333334E+009;1.810082048177719E-001;-3.772546350955963E-002;3.016534610651434E-004;1.593130524270237E-003;
2.411000000000000E+009;1.812122315168381E-001;-3.826161846518517E-002;2.988036721944809E-004;1.625584205612540E-003;
2.411166666666667E+009;1.813179105520248E-001;-3.902219980955124E-002;4.196466179564595E-004;1.704382244497538E-003;
2.411333333333334E+009;1.813971400260925E-001;-3.935246914625168E-002;4.778165603056550E-004;1.779306097887456E-003;
2.411500000000000E+009;1.816016584634781E-001;-4.003017395734787E-002;2.886882284656167E-004;1.723746303468943E-003;
2.411666666666667E+009;1.817969381809235E-001;-4.043775796890259E-002;3.732185869012028E-004;1.760664745233953E-003;
2.411833333333334E+009;1.814524680376053E-001;-4.093136265873909E-002;2.569923526607454E-004;1.706372830085456E-003;
2.412000000000000E+009;1.814301311969757E-001;-4.128038883209229E-002;5.291393026709557E-004;1.816906384192407E-003;
2.412166666666667E+009;1.810603886842728E-001;-4.160417988896370E-002;3.565730003174394E-004;1.889135572127998E-003;
2.412333333333334E+009;1.809032708406448E-001;-4.199668765068054E-002;3.935734566766769E-004;1.780865481123328E-003;
2.412500000000000E+009;1.803570091724396E-001;-4.214988648891449E-002;4.390655376482755E-004;1.948020770214498E-003;
2.412666666666667E+009;1.800051629543304E-001;-4.281796887516975E-002;4.857816966250539E-004;2.048288937658072E-003;
2.412833333333334E+009;1.792200803756714E-001;-4.318471997976303E-002;6.044988404028118E-004;2.151584951207042E-003;
2.413000000000000E+009;1.786066591739655E-001;-4.355398193001747E-002;6.199296913109720E-004;2.148563507944346E-003;
2.413166666666667E+009;1.777829080820084E-001;-4.412159696221352E-002;5.308530526235700E-004;2.130407374352217E-003;
2.413333333333334E+009;1.767974495887756E-001;-4.445469379425049E-002;8.909425232559443E-004;2.183987991884351E-003;
2.413500000000000E+009;1.759416162967682E-001;-4.497737064957619E-002;9.254328906536102E-004;2.207357436418533E-003;
2.413666666666667E+009;1.749106794595718E-001;-4.559717327356339E-002;8.614357793703675E-004;2.330719726160169E-003;
2.413833333333334E+009;1.737861782312393E-001;-4.610345512628555E-002;1.081966212950647E-003;2.269529737532139E-003;
2.414000000000000E+009;1.727278679609299E-001;-4.677942395210266E-002;1.001191558316350E-003;2.264825161546469E-003;
2.414166666666667E+009;1.716529577970505E-001;-4.750510677695274E-002;9.752528858371079E-004;2.341198967769742E-003;
2.414333333333334E+009;1.705349534749985E-001;-4.829513654112816E-002;1.172336400486529E-003;2.217789180576801E-003;
2.414500000000000E+009;1.695206314325333E-001;-4.910388588905335E-002;1.249350374564529E-003;2.397818723693490E-003;
2.414666666666667E+009;1.683063209056854E-001;-4.999563470482826E-002;1.426766510121524E-003;2.340816194191575E-003;
2.414833333333334E+009;1.669529676437378E-001;-5.114542320370674E-002;1.546854618936777E-003;2.408480970188975E-003;
2.415000000000000E+009;1.658302545547485E-001;-5.210982635617256E-002;1.670312951318920E-003;2.230960875749588E-003;
2.415166666666667E+009;1.646173745393753E-001;-5.344831943511963E-002;1.577227725647390E-003;2.347443252801895E-003;
2.415333333333334E+009;1.636053174734116E-001;-5.485470220446587E-002;1.714380225166678E-003;2.396662486717105E-003;
2.415500000000000E+009;1.623905152082443E-001;-5.627545341849327E-002;1.940868212841451E-003;2.191439503803849E-003;
2.415666666666667E+009;1.612630188465118E-001;-5.767709389328957E-002;1.991112483665347E-003;2.361491089686751E-003;
2.415833333333334E+009;1.603236794471741E-001;-5.926231667399406E-002;2.098868833854795E-003;2.298796316608787E-003;
2.416000000000000E+009;1.590674519538879E-001;-6.089481711387634E-002;2.224037423729897E-003;2.306533046066761E-003;
2.416166666666667E+009;1.583133190870285E-001;-6.261675059795380E-002;2.230523852631450E-003;2.343317726626992E-003;
2.416333333333334E+009;1.572057455778122E-001;-6.427188962697983E-002;2.487795427441597E-003;2.216757740825415E-003;
2.416500000000000E+009;1.562133729457855E-001;-6.622900813817978E-002;2.712312620133162E-003;2.053866861388087E-003;
2.416666666666667E+009;1.553287804126740E-001;-6.796135753393173E-002;2.687604865059257E-003;2.069159410893917E-003;
2.416833333333334E+009;1.546149700880051E-001;-7.009355723857880E-002;2.871072385460138E-003;2.022972563281655E-003;
2.417000000000000E+009;1.535789519548416E-001;-7.202788442373276E-002;3.138125175610185E-003;1.925455755554140E-003;
2.417166666666667E+009;1.529372185468674E-001;-7.390224933624268E-002;3.174566663801670E-003;1.812431379221380E-003;
2.417333333333334E+009;1.523598879575729E-001;-7.567426562309265E-002;3.339363262057304E-003;1.512134214863181E-003;
2.417500000000000E+009;1.516458988189697E-001;-7.780300080776215E-002;3.484180662781000E-003;1.468510716222227E-003;
2.417666666666667E+009;1.511684656143189E-001;-7.950146496295929E-002;3.468327922746539E-003;1.436811522580683E-003;
2.417833333333334E+009;1.507873982191086E-001;-8.142521232366562E-002;3.615577472373843E-003;1.236215466633439E-003;
2.418000000000000E+009;1.502755135297775E-001;-8.324549347162247E-002;3.766576526686549E-003;9.871064685285091E-004;
2.418166666666667E+009;1.499309241771698E-001;-8.485136181116104E-002;3.866186365485191E-003;7.830238901078701E-004;
2.418333333333334E+009;1.498056203126907E-001;-8.660117536783218E-002;3.942187409847975E-003;5.828588618896902E-004;
2.418500000000000E+009;1.495791226625443E-001;-8.818621933460236E-002;3.943902440369129E-003;3.804935549851507E-004;
2.418666666666667E+009;1.494742333889008E-001;-8.972387760877609E-002;3.884216770529747E-003;2.354102616664022E-004;
2.418833333333334E+009;1.493317484855652E-001;-9.123239666223526E-002;3.976822365075350E-003;6.816212408011779E-005;
2.419000000000000E+009;1.492171883583069E-001;-9.257510304450989E-002;3.949739504605532E-003;-1.978175569092855E-004;
2.419166666666667E+009;1.492536962032318E-001;-9.370911866426468E-002;3.980605863034725E-003;-4.387205699458718E-004;
2.419333333333334E+009;1.493409126996994E-001;-9.477565437555313E-002;3.821897786110640E-003;-5.513268406502903E-004;
2.419500000000000E+009;1.494655311107636E-001;-9.599491208791733E-002;3.947245422750711E-003;-7.222710410133004E-004;
2.419666666666667E+009;1.496717780828476E-001;-9.698741137981415E-002;3.767370479181409E-003;-8.388132555410266E-004;
2.419833333333334E+009;1.498434394598007E-001;-9.754028916358948E-002;3.702203277498484E-003;-9.591386187821627E-004;
2.420000000000000E+009;1.501438170671463E-001;-9.821248799562454E-002;3.755955025553703E-003;-1.253861235454679E-003;
2.420166666666667E+009;1.502960175275803E-001;-9.884586185216904E-002;3.544325241819024E-003;-1.429149881005287E-003;
2.420333333333334E+009;1.506500989198685E-001;-9.924399852752686E-002;3.499188460409641E-003;-1.512591843493283E-003;
2.420500000000000E+009;1.509653478860855E-001;-9.950381517410278E-002;3.366440301761031E-003;-1.653856365010142E-003;
2.420666666666667E+009;1.511459350585938E-001;-9.963779151439667E-002;3.343774238601327E-003;-1.583820208907127E-003;
2.420833333333334E+009;1.513595879077911E-001;-9.991326183080673E-002;3.221351886168122E-003;-1.879331190139055E-003;
2.421000000000000E+009;1.515228450298309E-001;-1.001093611121178E-001;3.238213947042823E-003;-1.775106997229159E-003;
2.421166666666667E+009;1.516944617033005E-001;-9.999758005142212E-002;3.189276438206434E-003;-1.972924219444394E-003;
2.421333333333334E+009;1.520238816738129E-001;-1.000058948993683E-001;3.145494032651186E-003;-2.194247441366315E-003;
2.421500000000000E+009;1.520715653896332E-001;-9.981137514114380E-002;3.147360403090715E-003;-2.267393050715327E-003;
2.421666666666667E+009;1.521251350641251E-001;-9.971110522747040E-002;3.043542150408030E-003;-2.210060367360711E-003;
2.421833333333334E+009;1.522036343812943E-001;-9.938991069793701E-002;2.816623309627175E-003;-2.371404087170959E-003;
2.422000000000000E+009;1.519855111837387E-001;-9.911532700061798E-002;2.773090498521924E-003;-2.695440780371428E-003;
2.422166666666667E+009;1.518045216798782E-001;-9.916460514068604E-002;2.720163902267814E-003;-2.668815199285746E-003;
2.422333333333334E+009;1.514855325222015E-001;-9.871967881917954E-002;2.743498422205448E-003;-2.697896678000689E-003;
2.422500000000000E+009;1.511377394199371E-001;-9.839397668838501E-002;2.607359783723950E-003;-2.865282353013754E-003;
2.422666666666667E+009;1.504681557416916E-001;-9.804148226976395E-002;2.431457862257958E-003;-3.015632741153240E-003;
2.422833333333334E+009;1.499844193458557E-001;-9.779372066259384E-002;2.310307696461678E-003;-3.042636672034860E-003;
2.423000000000000E+009;1.491164267063141E-001;-9.744746983051300E-002;2.309402450919151E-003;-3.104143543168902E-003;
2.423166666666667E+009;1.484214067459106E-001;-9.702764451503754E-002;2.294777194038034E-003;-3.315990557894111E-003;
2.423333333333334E+009;1.474111229181290E-001;-9.655828028917313E-002;1.974673708900809E-003;-3.372596343979240E-003;
2.423500000000000E+009;1.463486254215241E-001;-9.631942957639694E-002;1.736167352646589E-003;-3.346251789480448E-003;
2.423666666666667E+009;1.451332122087479E-001;-9.604653716087341E-002;1.714879297651351E-003;-3.595515387132764E-003;
2.423833333333334E+009;1.440154761075974E-001;-9.585342556238174E-002;1.566210645250976E-003;-3.558580763638020E-003;
2.424000000000000E+009;1.427531391382217E-001;-9.548015892505646E-002;1.566425198689103E-003;-3.881493350490928E-003;
2.424166666666667E+009;1.414586752653122E-001;-9.527003020048142E-002;1.268961466848850E-003;-3.778099082410336E-003;
2.424333333333334E+009;1.401593387126923E-001;-9.527005255222321E-002;1.095153624191880E-003;-3.735498525202274E-003;
2.424500000000000E+009;1.389521211385727E-001;-9.522186219692230E-002;9.649859275668860E-004;-3.825443098321557E-003;
2.424666666666667E+009;1.375528275966644E-001;-9.520225226879120E-002;7.629760657437146E-004;-4.010228440165520E-003;
2.424833333333334E+009;1.360543668270111E-001;-9.546077251434326E-002;5.747788818553090E-004;-3.874901449307799E-003;
2.425000000000000E+009;1.345510035753250E-001;-9.577654302120209E-002;3.297371149528772E-004;-3.942796960473061E-003;
2.425166666666667E+009;1.330041438341141E-001;-9.622069448232651E-002;1.906500692712143E-004;-3.786665620282292E-003;
2.425333333333334E+009;1.315274685621262E-001;-9.669636189937592E-002;-4.426902887644246E-005;-3.702848916873336E-003;
2.425500000000000E+009;1.301682144403458E-001;-9.739658981561661E-002;-4.205620643915609E-005;-3.674706909805536E-003;
2.425666666666667E+009;1.286080479621887E-001;-9.805455058813095E-002;-2.862655674107373E-004;-3.711987053975463E-003;
2.425833333333334E+009;1.272621899843216E-001;-9.897358715534210E-002;-4.312477249186486E-004;-3.519192105159164E-003;
2.426000000000000E+009;1.257807463407517E-001;-9.994664043188095E-002;-5.078979884274304E-004;-3.556707641109824E-003;
2.426166666666667E+009;1.245109960436821E-001;-1.010138243436813E-001;-6.982396589592099E-004;-3.466788446530700E-003;
2.426333333333334E+009;1.231562867760658E-001;-1.021604835987091E-001;-7.085731485858560E-004;-3.108027158305049E-003;
2.426500000000000E+009;1.218803897500038E-001;-1.033570170402527E-001;-7.140951929613948E-004;-3.212607000023127E-003;
2.426666666666667E+009;1.208312660455704E-001;-1.046351641416550E-001;-9.197002509608865E-004;-3.065768163651228E-003;
2.426833333333334E+009;1.196338236331940E-001;-1.062615960836411E-001;-7.880181074142456E-004;-3.151728538796306E-003;
2.427000000000000E+009;1.184345260262489E-001;-1.077701374888420E-001;-9.992300765588880E-004;-2.884568646550179E-003;
2.427166666666667E+009;1.174266263842583E-001;-1.093526631593704E-001;-8.698758319951594E-004;-2.807230688631535E-003;
2.427333333333334E+009;1.164587885141373E-001;-1.109418198466301E-001;-9.369187173433602E-004;-2.749883104115725E-003;
2.427500000000000E+009;1.158252432942390E-001;-1.125558018684387E-001;-1.056850771419704E-003;-2.735642250627279E-003;
2.427666666666667E+009;1.149464249610901E-001;-1.143505945801735E-001;-9.537567966617644E-004;-2.684365492314100E-003;
2.427833333333334E+009;1.142031550407410E-001;-1.160430833697319E-001;-9.505779598839581E-004;-2.677701646462083E-003;
