# Version 1.00
#
freq[Hz];re:Trc1_S11;im:Trc1_S11;re:Trc2_S21;im:Trc2_S21;
2.400000000000000E+009;1.575617194175720E-001;6.295980513095856E-002;-1.370705082081258E-003;-3.155480604618788E-003;
2.400166666666667E+009;1.574442982673645E-001;6.130815669894218E-002;-1.456345897167921E-003;-3.226552391424775E-003;
2.400333333333334E+009;1.573427170515060E-001;5.936758220195770E-002;-1.641714014112949E-003;-2.918262965977192E-003;
2.400500000000000E+009;1.573229730129242E-001;5.734843015670776E-002;-1.712277298793197E-003;-3.153630765154958E-003;
2.400666666666667E+009;1.573091596364975E-001;5.528314039111137E-002;-1.732988865114749E-003;-2.908864524215460E-003;
2.400833333333334E+009;1.573834419250488E-001;5.324357748031616E-002;-1.747385598719120E-003;-2.956579206511378E-003;
2.401000000000000E+009;1.575095951557159E-001;5.114137008786202E-002;-2.007526112720370E-003;-2.858416177332401E-003;
2.401166666666667E+009;1.577031165361404E-001;4.903287440538406E-002;-2.197637222707272E-003;-2.534260274842382E-003;
2.401333333333334E+009;1.578006893396378E-001;4.696534201502800E-002;-2.192575484514237E-003;-2.651111455634236E-003;
2.401500000000000E+009;1.581651568412781E-001;4.472357407212257E-002;-2.151613589376211E-003;-2.542331116273999E-003;
2.401666666666667E+009;1.585752665996552E-001;4.290445148944855E-002;-2.400476252660155E-003;-2.564671216532588E-003;
2.401833333333334E+009;1.589999794960022E-001;4.062845185399056E-002;-2.421155339106917E-003;-2.372120739892125E-003;
2.402000000000000E+009;1.593095064163208E-001;3.863433748483658E-002;-2.414506161585450E-003;-2.042165724560618E-003;
2.402166666666667E+009;1.599543690681458E-001;3.667578473687172E-002;-2.388800028711557E-003;-2.125780563801527E-003;
2.402333333333334E+009;1.605775952339172E-001;3.470247238874435E-002;-2.843915252014995E-003;-1.988271716982126E-003;
2.402500000000000E+009;1.614017188549042E-001;3.303352370858192E-002;-2.636008197441697E-003;-1.798908575437963E-003;
2.402666666666667E+009;1.620350778102875E-001;3.118705004453659E-002;-2.489256206899881E-003;-1.853140885941684E-003;
2.402833333333334E+009;1.630033254623413E-001;2.965147979557514E-002;-2.548343036323786E-003;-1.612606574781239E-003;
2.403000000000000E+009;1.637104898691177E-001;2.783499844372273E-002;-2.695541596040130E-003;-1.622649608179927E-003;
2.403166666666667E+009;1.645876914262772E-001;2.640888653695583E-002;-2.721169963479042E-003;-1.376066356897354E-003;
2.403333333333334E+009;1.654226779937744E-001;2.489138022065163E-002;-2.922212472185493E-003;-1.345481490716338E-003;
2.403500000000000E+009;1.665407568216324E-001;2.348635904490948E-002;-2.709032502025366E-003;-1.295655965805054E-003;
2.403666666666667E+009;1.674088835716248E-001;2.220015414059162E-002;-2.747652586549521E-003;-1.085311174392700E-003;
2.403833333333334E+009;1.687131226062775E-001;2.083795890212059E-002;-2.804487012326717E-003;-1.071282662451267E-003;
2.404000000000000E+009;1.694283634424210E-001;1.965531334280968E-002;-2.763883909210563E-003;-9.266632841899991E-004;
2.404166666666667E+009;1.703762859106064E-001;1.842321269214153E-002;-2.856998937204480E-003;-1.049047568812966E-003;
2.404333333333334E+009;1.715186089277268E-001;1.763806119561195E-002;-2.734297420829535E-003;-8.505897130817175E-004;
2.404500000000000E+009;1.722654998302460E-001;1.652122847735882E-002;-2.810565754771233E-003;-9.133469429798424E-004;
2.404666666666667E+009;1.734133511781693E-001;1.585460454225540E-002;-2.579337451606989E-003;-7.353819091804326E-004;
2.404833333333334E+009;1.743748337030411E-001;1.510929688811302E-002;-2.613419201225042E-003;-4.853116988670081E-004;
2.405000000000000E+009;1.752367317676544E-001;1.443555299192667E-002;-2.836856758221984E-003;-5.436243372969329E-004;
2.405166666666667E+009;1.761314123868942E-001;1.376356557011604E-002;-2.676588250324130E-003;-4.932735464535654E-004;
2.405333333333334E+009;1.767986714839935E-001;1.327250525355339E-002;-2.867812989279628E-003;-5.925368750467897E-004;
2.405500000000000E+009;1.774043291807175E-001;1.270018238574266E-002;-2.701679710298777E-003;-2.556319814175367E-004;
2.405666666666667E+009;1.782134026288986E-001;1.249312143772841E-002;-2.623983658850193E-003;-2.413951297057793E-004;
2.405833333333334E+009;1.786814332008362E-001;1.207392849028111E-002;-2.839731518179178E-003;-1.159803869086318E-004;
2.406000000000000E+009;1.792670935392380E-001;1.170615665614605E-002;-2.818285021930933E-003;-1.319904404226691E-004;
2.406166666666667E+009;1.797078847885132E-001;1.149501744657755E-002;-2.822913462296128E-003;-3.288807783974335E-005;
2.406333333333334E+009;1.801833659410477E-001;1.125974021852016E-002;-2.841352485120297E-003;-1.506099506514147E-004;
2.406500000000000E+009;1.804534345865250E-001;1.099160313606262E-002;-2.765280194580555E-003;1.517993223387748E-004;
2.406666666666667E+009;1.804911047220230E-001;1.071604713797569E-002;-2.852474339306355E-003;2.048211463261396E-004;
2.406833333333334E+009;1.807185709476471E-001;1.042072102427483E-002;-2.654186682775617E-003;6.766683509340510E-005;
2.407000000000000E+009;1.808825135231018E-001;1.002721302211285E-002;-2.868303097784519E-003;3.426743205636740E-004;
2.407166666666667E+009;1.809507161378861E-001;9.834310039877892E-003;-2.752407453954220E-003;5.351335857994855E-004;
2.407333333333334E+009;1.806901693344116E-001;9.341268800199032E-003;-2.797995461151004E-003;4.921961808577180E-004;
2.407500000000000E+009;1.804871261119843E-001;9.094945155084133E-003;-2.650722861289978E-003;6.894867401570082E-004;
2.407666666666667E+009;1.803268939256668E-001;8.662205189466476E-003;-2.732489258050919E-003;6.466680206358433E-004;
2.407833333333334E+009;1.797660440206528E-001;7.995334453880787E-003;-2.777062822133303E-003;8.433276670984924E-004;
2.408000000000000E+009;1.794874370098114E-001;7.307478692382574E-003;-2.550605684518814E-003;7.505140965804458E-004;
2.408166666666667E+009;1.789029389619827E-001;7.038903888314962E-003;-2.525108167901635E-003;1.109604607336223E-003;
2.408333333333334E+009;1.785058528184891E-001;6.170124281197786E-003;-2.519905567169190E-003;1.179871032945812E-003;
2.408500000000000E+009;1.779704838991165E-001;5.292852874845266E-003;-2.540650311857462E-003;1.291458611376584E-003;
2.408666666666667E+009;1.773869097232819E-001;4.382255021482706E-003;-2.400894882157445E-003;1.160887070000172E-003;
2.408833333333334E+009;1.765438169240952E-001;3.491892479360104E-003;-2.308726543560624E-003;1.299614203162491E-003;
2.409000000000000E+009;1.758608072996140E-001;2.374938689172268E-003;-2.192370593547821E-003;1.453487202525139E-003;
2.409166666666667E+009;1.752448678016663E-001;1.232309383340180E-003;-2.012997865676880E-003;1.416871324181557E-003;
2.409333333333334E+009;1.745902895927429E-001;7.485164678655565E-005;-2.044895896688104E-003;1.406233524903655E-003;
2.409500000000000E+009;1.738371402025223E-001;-1.510822796262801E-003;-2.090729307383299E-003;1.561025041155517E-003;
2.409666666666667E+009;1.729443222284317E-001;-2.780293114483357E-003;-1.982149668037891E-003;1.575123053044081E-003;
2.409833333333334E+009;1.724521666765213E-001;-4.219752736389637E-003;-1.811366644687951E-003;1.753245713189244E-003;
2.410000000000000E+009;1.718508303165436E-001;-5.565494764596224E-003;-1.858654548414052E-003;1.682370784692466E-003;
2.410166666666667E+009;1.710783541202545E-001;-7.223515771329403E-003;-1.832940615713596E-003;1.680498593486846E-003;
2.410333333333334E+009;1.705539822578430E-001;-9.001568891108036E-003;-1.714514335617423E-003;1.675633830018342E-003;
2.410500000000000E+009;1.699870973825455E-001;-1.085593923926354E-002;-1.529047382064164E-003;1.654963125474751E-003;
2.410666666666667E+009;1.693238466978073E-001;-1.267305947840214E-002;-1.519135897979140E-003;1.674455939792097E-003;
2.410833333333334E+009;1.690443307161331E-001;-1.436284743249416E-002;-1.405892078764737E-003;1.639625406824052E-003;
2.411000000000000E+009;1.686925143003464E-001;-1.637306436896324E-002;-1.347098615951836E-003;1.670112833380699E-003;
2.411166666666667E+009;1.683498919010162E-001;-1.830790750682354E-002;-1.253915484994650E-003;1.716009224765003E-003;
2.411333333333334E+009;1.679920554161072E-001;-2.022357657551765E-002;-1.355068990960717E-003;1.664430717937648E-003;
2.411500000000000E+009;1.679011285305023E-001;-2.237596735358238E-002;-1.295558176934719E-003;1.576741924509406E-003;
2.411666666666667E+009;1.679083108901978E-001;-2.417558617889881E-002;-1.158894854597747E-003;1.648461446166039E-003;
2.411833333333334E+009;1.677452176809311E-001;-2.622823975980282E-002;-1.209122710861266E-003;1.509537687525153E-003;
2.412000000000000E+009;1.680078059434891E-001;-2.828361652791500E-002;-1.278587267734110E-003;1.718353829346597E-003;
2.412166666666667E+009;1.680148392915726E-001;-3.022886812686920E-002;-1.103218644857407E-003;1.586731988936663E-003;
2.412333333333334E+009;1.684170812368393E-001;-3.200057893991470E-002;-1.090555801056325E-003;1.774215721525252E-003;
2.412500000000000E+009;1.684463173151016E-001;-3.403469547629356E-002;-1.200590049847961E-003;1.552488771267235E-003;
2.412666666666667E+009;1.688622087240219E-001;-3.605201467871666E-002;-1.153813791461289E-003;1.651601167395711E-003;
2.412833333333334E+009;1.692951768636704E-001;-3.788412734866142E-002;-1.190211041830480E-003;1.692093093879521E-003;
2.413000000000000E+009;1.698070168495178E-001;-3.965118154883385E-002;-1.187585759907961E-003;1.534198527224362E-003;
2.413166666666667E+009;1.701955348253250E-001;-4.141572862863541E-002;-1.098559470847249E-003;1.629878650419414E-003;
2.413333333333334E+009;1.705778688192368E-001;-4.314569756388664E-002;-1.261309604160488E-003;1.823128550313413E-003;
2.413500000000000E+009;1.713636815547943E-001;-4.474323615431786E-002;-9.912686655297875E-004;1.765832072123885E-003;
2.413666666666667E+009;1.719096750020981E-001;-4.626784846186638E-002;-1.009053084999323E-003;1.920717768371105E-003;
2.413833333333334E+009;1.723500490188599E-001;-4.781506955623627E-002;-1.011904212646186E-003;1.915951492264867E-003;
2.414000000000000E+009;1.728753000497818E-001;-4.924938455224037E-002;-1.062938943505287E-003;1.828632899560034E-003;
2.414166666666667E+009;1.735898554325104E-001;-5.053386092185974E-002;-1.215798081830144E-003;1.941939815878868E-003;
2.414333333333334E+009;1.742409169673920E-001;-5.189276859164238E-002;-8.760426426306367E-004;2.116665476933122E-003;
2.414500000000000E+009;1.748834848403931E-001;-5.276630073785782E-002;-8.873029146343470E-004;2.127220854163170E-003;
2.414666666666667E+009;1.754018217325211E-001;-5.381160229444504E-002;-1.135876518674195E-003;2.149082487449050E-003;
2.414833333333334E+009;1.758537292480469E-001;-5.476487800478935E-002;-9.294940973632038E-004;2.078916877508164E-003;
2.415000000000000E+009;1.762682050466538E-001;-5.566600337624550E-002;-7.735522813163698E-004;2.330029150471091E-003;
2.415166666666667E+009;1.767532676458359E-001;-5.642684549093247E-002;-8.426769054494798E-004;2.283925889059901E-003;
2.415333333333334E+009;1.772546321153641E-001;-5.718040466308594E-002;-7.096498156897724E-004;2.320694271475077E-003;
2.415500000000000E+009;1.774989515542984E-001;-5.770322680473328E-002;-6.622204091399908E-004;2.362172119319439E-003;
2.415666666666667E+009;1.777330785989761E-001;-5.819922685623169E-002;-6.532355328090489E-004;2.563066314905882E-003;
2.415833333333334E+009;1.780437231063843E-001;-5.877497792243958E-002;-6.294263293966651E-004;2.617344725877047E-003;
2.416000000000000E+009;1.781115680932999E-001;-5.907781794667244E-002;-6.340097170323134E-004;2.476922934874892E-003;
2.416166666666667E+009;1.783224791288376E-001;-5.945515260100365E-002;-4.770147206727415E-004;2.741275588050485E-003;
2.416333333333334E+009;1.781872510910034E-001;-5.968449264764786E-002;-3.309856692794710E-004;2.638243138790131E-003;
2.416500000000000E+009;1.781097501516342E-001;-6.001916900277138E-002;-3.571900597307831E-004;2.646173816174269E-003;
2.416666666666667E+009;1.778321266174316E-001;-6.011983007192612E-002;-2.953179355245084E-004;2.786587225273252E-003;
2.416833333333334E+009;1.776173710823059E-001;-6.045939400792122E-002;-2.199498703703284E-005;2.818191889673472E-003;
2.417000000000000E+009;1.771361380815506E-001;-6.065059453248978E-002;5.166736445971765E-005;2.791924402117729E-003;
2.417166666666667E+009;1.766701936721802E-001;-6.078054383397102E-002;3.188875416526571E-005;2.993561560288072E-003;
2.417333333333334E+009;1.761353015899658E-001;-6.085474044084549E-002;1.791311806300655E-004;2.843537833541632E-003;
2.417500000000000E+009;1.754471063613892E-001;-6.123217195272446E-002;3.747627779375762E-004;2.893534023314714E-003;
2.417666666666667E+009;1.748823225498200E-001;-6.133673712611198E-002;3.382182621862739E-004;2.765266923233867E-003;
2.417833333333334E+009;1.739128082990646E-001;-6.165470555424690E-002;5.213267286308110E-004;2.941807499155402E-003;
2.418000000000000E+009;1.729406714439392E-001;-6.184376776218414E-002;4.768570652231574E-004;2.881420310586691E-003;
2.418166666666667E+009;1.720633059740067E-001;-6.211685761809349E-002;6.898746360093355E-004;2.911588642746210E-003;
2.418333333333334E+009;1.712389141321182E-001;-6.258413940668106E-002;8.527337922714651E-004;2.805602736771107E-003;
2.418500000000000E+009;1.699872016906738E-001;-6.287898868322372E-002;1.128832576796413E-003;2.855106024071574E-003;
2.418666666666667E+009;1.689694672822952E-001;-6.333679705858231E-002;1.081140595488250E-003;2.768219681456685E-003;
2.418833333333334E+009;1.676385998725891E-001;-6.400294601917267E-002;1.163542503491044E-003;2.826789394021034E-003;
2.419000000000000E+009;1.664266586303711E-001;-6.456936150789261E-002;1.297249342314899E-003;2.817772561684251E-003;
2.419166666666667E+009;1.652636826038361E-001;-6.517168879508972E-002;1.406526775099337E-003;2.606775844469667E-003;
2.419333333333334E+009;1.638670265674591E-001;-6.576998531818390E-002;1.505038584582508E-003;2.676229458302259E-003;
2.419500000000000E+009;1.627548187971115E-001;-6.673662364482880E-002;1.740054925903678E-003;2.683057915419340E-003;
2.419666666666667E+009;1.616930812597275E-001;-6.776592880487442E-002;1.729159033857286E-003;2.581733278930187E-003;
2.419833333333334E+009;1.603129804134369E-001;-6.854711472988129E-002;1.877807429991663E-003;2.352540614083409E-003;
2.420000000000000E+009;1.593517363071442E-001;-6.962534785270691E-002;2.040018327534199E-003;2.538444008678198E-003;
2.420166666666667E+009;1.581428200006485E-001;-7.079954445362091E-002;2.074266783893108E-003;2.411313587799668E-003;
2.420333333333334E+009;1.570755243301392E-001;-7.191722840070725E-002;2.083017025142908E-003;2.244550967589021E-003;
2.420500000000000E+009;1.560619622468948E-001;-7.324086874723434E-002;2.390115289017558E-003;2.148870611563325E-003;
2.420666666666667E+009;1.550388485193253E-001;-7.445453852415085E-002;2.318297279998660E-003;2.138831187039614E-003;
2.420833333333334E+009;1.540032476186752E-001;-7.588084787130356E-002;2.314417622983456E-003;1.950517413206399E-003;
2.421000000000000E+009;1.532559543848038E-001;-7.746361196041107E-002;2.515614964067936E-003;1.953620463609695E-003;
2.421166666666667E+009;1.524937450885773E-001;-7.883879542350769E-002;2.581994980573654E-003;1.813639770261943E-003;
2.421333333333334E+009;1.519833356142044E-001;-8.070766180753708E-002;2.635569544509053E-003;1.770598231814802E-003;
2.421500000000000E+009;1.511691212654114E-001;-8.210754394531250E-002;2.632508985698223E-003;1.480408711358905E-003;
2.421666666666667E+009;1.506572812795639E-001;-8.385179191827774E-002;2.649175003170967E-003;1.523899845778942E-003;
2.421833333333334E+009;1.503432989120483E-001;-8.568834513425827E-002;2.822540234774351E-003;1.329447259195149E-003;
2.422000000000000E+009;1.499105393886566E-001;-8.721864223480225E-002;2.516727894544601E-003;1.327350735664368E-003;
2.422166666666667E+009;1.497026681900024E-001;-8.917546272277832E-002;2.885591704398394E-003;1.069598947651684E-003;
2.422333333333334E+009;1.494704633951187E-001;-9.086395055055618E-002;2.574566053226590E-003;1.173935947008431E-003;
2.422500000000000E+009;1.493423134088516E-001;-9.248377382755280E-002;2.901058644056320E-003;1.156116370111704E-003;
2.422666666666667E+009;1.493638157844544E-001;-9.415241330862045E-002;2.827519085258246E-003;7.676622481085360E-004;
2.422833333333334E+009;1.493767499923706E-001;-9.589202702045441E-002;2.834329614415765E-003;8.152701193466783E-004;
2.423000000000000E+009;1.496172994375229E-001;-9.774173796176910E-002;2.783178584650159E-003;6.884332979097962E-004;
2.423166666666667E+009;1.498706936836243E-001;-9.930047392845154E-002;2.871888689696789E-003;5.857214564457536E-004;
2.423333333333334E+009;1.502973288297653E-001;-1.006819680333138E-001;2.786613767966628E-003;5.786030087620020E-004;
2.423500000000000E+009;1.504979878664017E-001;-1.023934558033943E-001;2.998567884787917E-003;4.394240677356720E-004;
2.423666666666667E+009;1.506484001874924E-001;-1.039028242230415E-001;2.818157896399498E-003;3.597945033106953E-004;
2.423833333333334E+009;1.512393802404404E-001;-1.054020524024963E-001;2.837062347680330E-003;2.710558765102178E-004;
2.424000000000000E+009;1.516393125057221E-001;-1.066267043352127E-001;2.781674498692155E-003;2.591404772829264E-004;
2.424166666666667E+009;1.520776897668839E-001;-1.079671829938889E-001;2.829766366630793E-003;-2.915414370363578E-005;
2.424333333333334E+009;1.526935398578644E-001;-1.091562807559967E-001;2.808119170367718E-003;-5.003509795642458E-005;
2.424500000000000E+009;1.531637907028198E-001;-1.102972403168678E-001;2.871146192774177E-003;-2.723380166571587E-004;
2.424666666666667E+009;1.538658440113068E-001;-1.112146303057671E-001;2.887832932174206E-003;-2.003349654842168E-004;
2.424833333333334E+009;1.541000306606293E-001;-1.122512370347977E-001;2.815373241901398E-003;-2.552585210651159E-004;
2.425000000000000E+009;1.546020954847336E-001;-1.130786985158920E-001;2.938995370641351E-003;-2.736460592132062E-004;
2.425166666666667E+009;1.549039334058762E-001;-1.140635758638382E-001;2.664050087332726E-003;-4.760856681969017E-004;
2.425333333333334E+009;1.553919613361359E-001;-1.146579608321190E-001;2.739187562838197E-003;-6.600568303838372E-004;
2.425500000000000E+009;1.558569073677063E-001;-1.153306514024735E-001;2.725131809711456E-003;-7.551054586656392E-004;
2.425666666666667E+009;1.559269875288010E-001;-1.159518212080002E-001;2.723051467910409E-003;-7.671975763514638E-004;
2.425833333333334E+009;1.561655402183533E-001;-1.164135560393333E-001;2.704620128497481E-003;-7.118941866792738E-004;
2.426000000000000E+009;1.565420180559158E-001;-1.168626993894577E-001;2.551337471231818E-003;-9.461833979003131E-004;
2.426166666666667E+009;1.568824201822281E-001;-1.173106729984283E-001;2.610059222206473E-003;-1.119799562729895E-003;
2.426333333333334E+009;1.568101048469544E-001;-1.176378279924393E-001;2.666161628440023E-003;-9.060967131517828E-004;
2.426500000000000E+009;1.567207127809525E-001;-1.177722960710526E-001;2.669050591066480E-003;-1.100183115340769E-003;
2.426666666666667E+009;1.568262279033661E-001;-1.178593188524246E-001;2.626824891194701E-003;-1.279423362575471E-003;
2.426833333333334E+009;1.566445678472519E-001;-1.180380135774612E-001;2.452028216794133E-003;-1.344033284112811E-003;
2.427000000000000E+009;1.563013643026352E-001;-1.182639598846436E-001;2.438943833112717E-003;-1.590996282175183E-003;
2.427166666666667E+009;1.558662950992584E-001;-1.182392612099648E-001;2.409328008070588E-003;-1.594827743247151E-003;
2.427333333333334E+009;1.554133445024490E-001;-1.184005290269852E-001;2.380818594247103E-003;-1.595907029695809E-003;
2.427500000000000E+009;1.549333930015564E-001;-1.185768544673920E-001;2.167714294046164E-003;-1.696128048934043E-003;
2.427666666666667E+009;1.542802006006241E-001;-1.185360699892044E-001;2.304378664121032E-003;-1.668422017246485E-003;
