# Version 1.00
#
freq[Hz];re:Trc1_S11;im:Trc1_S11;re:Trc2_S21;im:Trc2_S21;
2.400000000000000E+009;1.575234085321426E-001;6.277752667665482E-002;-1.342587172985077E-003;-3.201760817319155E-003;
2.400166666666667E+009;1.573434323072434E-001;6.144965812563896E-002;-1.337747671641409E-003;-3.160162130370736E-003;
2.400333333333334E+009;1.571413278579712E-001;5.932542309165001E-002;-1.421814784407616E-003;-3.006839891895652E-003;
2.400500000000000E+009;1.572597026824951E-001;5.735588446259499E-002;-1.482776016928256E-003;-2.854700665920973E-003;
2.400666666666667E+009;1.570505350828171E-001;5.530508980154991E-002;-1.705886214040220E-003;-2.785632852464914E-003;
2.400833333333334E+009;1.571594923734665E-001;5.331496521830559E-002;-1.807737397029996E-003;-2.695144619792700E-003;
2.401000000000000E+009;1.573068201541901E-001;5.128311365842819E-002;-1.843834528699517E-003;-2.815616317093372E-003;
2.401166666666667E+009;1.577344387769699E-001;4.925486817955971E-002;-1.963779563084245E-003;-2.523802686482668E-003;
2.401333333333334E+009;1.577068865299225E-001;4.716287925839424E-002;-1.843077479861677E-003;-2.579569350928068E-003;
2.401500000000000E+009;1.582139283418655E-001;4.493627697229385E-002;-1.983080757781863E-003;-2.503841184079647E-003;
2.401666666666667E+009;1.584720611572266E-001;4.303907230496407E-002;-2.112126909196377E-003;-2.376666525378823E-003;
2.401833333333334E+009;1.588736474514008E-001;4.064748063683510E-002;-2.051563700661063E-003;-2.371004316955805E-003;
2.402000000000000E+009;1.592496037483215E-001;3.869647160172463E-002;-2.271029632538557E-003;-2.256065374240279E-003;
2.402166666666667E+009;1.598991453647614E-001;3.659319877624512E-002;-2.443146891891956E-003;-2.189819468185306E-003;
2.402333333333334E+009;1.604485064744949E-001;3.484172746539116E-002;-2.436882350593805E-003;-2.103020669892430E-003;
2.402500000000000E+009;1.614888012409210E-001;3.288239613175392E-002;-2.418030053377152E-003;-1.872064080089331E-003;
2.402666666666667E+009;1.619922667741776E-001;3.119950927793980E-002;-2.471910789608955E-003;-1.843944657593966E-003;
2.402833333333334E+009;1.627647876739502E-001;2.946753241121769E-002;-2.559898886829615E-003;-1.751668169163168E-003;
2.403000000000000E+009;1.635821163654327E-001;2.796504646539688E-002;-2.711555920541287E-003;-1.533417147584260E-003;
2.403166666666667E+009;1.645116358995438E-001;2.629497461020947E-002;-2.655470045283437E-003;-1.454018987715244E-003;
2.403333333333334E+009;1.655424535274506E-001;2.483660355210304E-002;-2.569155301898718E-003;-1.351235085166991E-003;
2.403500000000000E+009;1.663843691349030E-001;2.334880270063877E-002;-2.672511385753751E-003;-1.320489100180566E-003;
2.403666666666667E+009;1.674217879772186E-001;2.208620496094227E-002;-2.613540505990386E-003;-1.088620629161596E-003;
2.403833333333334E+009;1.685251742601395E-001;2.073086053133011E-002;-2.733547007665038E-003;-1.063223346136510E-003;
2.404000000000000E+009;1.693928539752960E-001;1.956639066338539E-002;-2.643213840201497E-003;-8.838305948302150E-004;
2.404166666666667E+009;1.704919189214706E-001;1.862850598990917E-002;-2.754016080871224E-003;-9.576512384228408E-004;
2.404333333333334E+009;1.713833659887314E-001;1.767191290855408E-002;-2.722809324041009E-003;-9.601918281987310E-004;
2.404500000000000E+009;1.722002178430557E-001;1.656966842710972E-002;-2.820638706907630E-003;-7.239500409923494E-004;
2.404666666666667E+009;1.733843386173248E-001;1.589022390544415E-002;-2.663574647158384E-003;-5.864119157195091E-004;
2.404833333333334E+009;1.741575002670288E-001;1.519035268574953E-002;-2.768619451671839E-003;-5.804072134196758E-004;
2.405000000000000E+009;1.751940697431564E-001;1.444970164448023E-002;-2.621284453198314E-003;-5.412207101471722E-004;
2.405166666666667E+009;1.759038120508194E-001;1.366296224296093E-002;-2.773043932393193E-003;-5.154766258783639E-004;
2.405333333333334E+009;1.767825484275818E-001;1.322379801422358E-002;-2.634302247315645E-003;-2.752789005171508E-004;
2.405500000000000E+009;1.774519830942154E-001;1.289525255560875E-002;-2.800609450787306E-003;-2.995046961586922E-004;
2.405666666666667E+009;1.782704591751099E-001;1.249231025576592E-002;-2.659869845956564E-003;-8.769502164795995E-005;
2.405833333333334E+009;1.786250919103622E-001;1.214123796671629E-002;-2.900877268984914E-003;-2.582512970548123E-004;
2.406000000000000E+009;1.792442500591278E-001;1.173251122236252E-002;-2.888152841478586E-003;1.989204247365706E-005;
2.406166666666667E+009;1.795708388090134E-001;1.161036361008883E-002;-2.592824865132570E-003;-4.701927900896408E-005;
2.406333333333334E+009;1.800711750984192E-001;1.127330772578716E-002;-2.753379521891475E-003;1.046096876962110E-004;
2.406500000000000E+009;1.803720295429230E-001;1.097764540463686E-002;-2.866609720513225E-003;1.685362803982571E-004;
2.406666666666667E+009;1.803643554449081E-001;1.070081442594528E-002;-2.630601637065411E-003;2.315531310159713E-004;
2.406833333333334E+009;1.805917918682098E-001;1.042360533028841E-002;-2.762079238891602E-003;1.787214860087261E-004;
2.407000000000000E+009;1.808219850063324E-001;1.028389856219292E-002;-2.714677248150110E-003;3.939224989153445E-004;
2.407166666666667E+009;1.808641105890274E-001;1.005371846258640E-002;-2.769326325505972E-003;3.767057787626982E-004;
2.407333333333334E+009;1.804275512695313E-001;9.431044571101666E-003;-2.796106971800327E-003;5.937400273978710E-004;
2.407500000000000E+009;1.804173886775971E-001;9.159661829471588E-003;-2.633291529491544E-003;7.321807206608355E-004;
2.407666666666667E+009;1.802161782979965E-001;8.663951419293881E-003;-2.687042346224189E-003;8.488522726111114E-004;
2.407833333333334E+009;1.797661334276199E-001;8.154924027621746E-003;-2.605566289275885E-003;9.451081859879196E-004;
2.408000000000000E+009;1.792272776365280E-001;7.489965762943029E-003;-2.469832077622414E-003;1.019967137835920E-003;
2.408166666666667E+009;1.789503842592239E-001;7.056557573378086E-003;-2.479437971487641E-003;8.710082038305700E-004;
2.408333333333334E+009;1.785057634115219E-001;6.254697218537331E-003;-2.438146155327559E-003;1.112796016968787E-003;
2.408500000000000E+009;1.778277754783630E-001;5.360264796763659E-003;-2.422278281301260E-003;1.217052573338151E-003;
2.408666666666667E+009;1.773627251386643E-001;4.503669217228890E-003;-2.373581985011697E-003;1.219897880218923E-003;
2.408833333333334E+009;1.765166819095612E-001;3.552198177203536E-003;-2.370243193581700E-003;1.340482267551124E-003;
2.409000000000000E+009;1.757741421461105E-001;2.482493408024311E-003;-2.200996503233910E-003;1.286545884795487E-003;
2.409166666666667E+009;1.752001792192459E-001;1.323476200923324E-003;-2.146435435861349E-003;1.307604950852692E-003;
2.409333333333334E+009;1.745389997959137E-001;1.313755201408640E-004;-2.116353949531913E-003;1.614597509615123E-003;
2.409500000000000E+009;1.736872941255570E-001;-1.329672988504171E-003;-2.088636858388782E-003;1.642514835111797E-003;
2.409666666666667E+009;1.730142682790756E-001;-2.676542848348618E-003;-1.860750722698867E-003;1.519958721473813E-003;
2.409833333333334E+009;1.723438352346420E-001;-4.038559738546610E-003;-1.767285750247538E-003;1.602998585440218E-003;
2.410000000000000E+009;1.718476563692093E-001;-5.449603777378798E-003;-1.786638167686760E-003;1.498227007687092E-003;
2.410166666666667E+009;1.711543351411820E-001;-7.193265017122030E-003;-1.680383807979524E-003;1.661828253418207E-003;
2.410333333333334E+009;1.705305278301239E-001;-8.901545777916908E-003;-1.685119234025478E-003;1.642507151700556E-003;
2.410500000000000E+009;1.700044125318527E-001;-1.079643052071333E-002;-1.443157205358148E-003;1.604525488801301E-003;
2.410666666666667E+009;1.694811731576920E-001;-1.274464465677738E-002;-1.519248122349381E-003;1.605076715350151E-003;
2.410833333333334E+009;1.690788567066193E-001;-1.433969009667635E-002;-1.321126706898212E-003;1.629846403375268E-003;
2.411000000000000E+009;1.686089783906937E-001;-1.619607396423817E-002;-1.409126212820411E-003;1.718526007607579E-003;
2.411166666666667E+009;1.685662418603897E-001;-1.824954897165299E-002;-1.249468070454896E-003;1.605335972271860E-003;
2.411333333333334E+009;1.681310236454010E-001;-2.027552388608456E-002;-1.363176386803389E-003;1.667182194069028E-003;
2.411500000000000E+009;1.677632331848145E-001;-2.241726964712143E-002;-1.199975726194680E-003;1.608147867955267E-003;
2.411666666666667E+009;1.679053157567978E-001;-2.429962903261185E-002;-1.144928042776883E-003;1.588148996233940E-003;
2.411833333333334E+009;1.676793843507767E-001;-2.609318867325783E-002;-1.319384202361107E-003;1.492489827796817E-003;
2.412000000000000E+009;1.680130511522293E-001;-2.825082466006279E-002;-1.066308119334281E-003;1.487669418565929E-003;
2.412166666666667E+009;1.680336147546768E-001;-3.013887442648411E-002;-1.294614747166634E-003;1.575939473696053E-003;
2.412333333333334E+009;1.683108210563660E-001;-3.209480270743370E-002;-1.158648519776762E-003;1.627964084036648E-003;
2.412500000000000E+009;1.685278266668320E-001;-3.407461941242218E-002;-1.275455928407610E-003;1.541797886602581E-003;
2.412666666666667E+009;1.689611375331879E-001;-3.599015995860100E-002;-1.202804967761040E-003;1.589453662745655E-003;
2.412833333333334E+009;1.693911552429199E-001;-3.777273744344711E-002;-1.191179500892758E-003;1.617174828425050E-003;
2.413000000000000E+009;1.697504967451096E-001;-3.966597095131874E-002;-1.149865682236850E-003;1.750678638927639E-003;
2.413166666666667E+009;1.702619642019272E-001;-4.131146147847176E-002;-1.269661705009639E-003;1.744959736242890E-003;
2.413333333333334E+009;1.707157045602799E-001;-4.299658164381981E-002;-1.087511773221195E-003;1.650043297559023E-003;
2.413500000000000E+009;1.713775247335434E-001;-4.473647847771645E-002;-1.112516038119793E-003;1.751767471432686E-003;
2.413666666666667E+009;1.717984825372696E-001;-4.637920483946800E-002;-1.099401502870023E-003;1.839328557252884E-003;
2.413833333333334E+009;1.722786426544190E-001;-4.782005399465561E-002;-1.073343562893570E-003;1.796825905330479E-003;
2.414000000000000E+009;1.728898882865906E-001;-4.919449239969254E-002;-1.157287508249283E-003;1.788674853742123E-003;
2.414166666666667E+009;1.734824329614639E-001;-5.039744079113007E-002;-1.017214613966644E-003;1.966640120372176E-003;
2.414333333333334E+009;1.741150766611099E-001;-5.167160183191299E-002;-1.031623687595129E-003;2.010441152378917E-003;
2.414500000000000E+009;1.747605502605438E-001;-5.281292647123337E-002;-9.657664340920746E-004;2.040053950622678E-003;
2.414666666666667E+009;1.753737926483154E-001;-5.375604704022408E-002;-9.387335740029812E-004;1.961295260116458E-003;
2.414833333333334E+009;1.757789701223373E-001;-5.489754304289818E-002;-9.805631125345826E-004;2.144834026694298E-003;
2.415000000000000E+009;1.762613803148270E-001;-5.563749000430107E-002;-8.527760510332882E-004;2.073062816634774E-003;
2.415166666666667E+009;1.766635179519653E-001;-5.647101253271103E-002;-7.294403621926904E-004;2.137052360922098E-003;
2.415333333333334E+009;1.772202849388123E-001;-5.725180357694626E-002;-8.271700353361666E-004;2.193952212110162E-003;
2.415500000000000E+009;1.775400191545487E-001;-5.771235376596451E-002;-7.631382904946804E-004;2.301576780155301E-003;
2.415666666666667E+009;1.777598857879639E-001;-5.806570500135422E-002;-6.546315853483975E-004;2.364366315305233E-003;
2.415833333333334E+009;1.778930425643921E-001;-5.862611532211304E-002;-6.607446703128517E-004;2.415470778942108E-003;
2.416000000000000E+009;1.779425591230393E-001;-5.901588127017021E-002;-4.610567993950099E-004;2.547774929553270E-003;
2.416166666666667E+009;1.783071756362915E-001;-5.934497341513634E-002;-6.470407242886722E-004;2.588380128145218E-003;
2.416333333333334E+009;1.781964600086212E-001;-5.953656509518623E-002;-4.336329002398998E-004;2.684199251234531E-003;
2.416500000000000E+009;1.780414879322052E-001;-5.995105952024460E-002;-2.484904835000634E-004;2.780665177851915E-003;
2.416666666666667E+009;1.778980940580368E-001;-6.002268195152283E-002;-1.999230153160170E-004;2.664379077032208E-003;
2.416833333333334E+009;1.776537001132965E-001;-6.043904274702072E-002;-1.559667143737897E-004;2.766456222161651E-003;
2.417000000000000E+009;1.770388036966324E-001;-6.052795797586441E-002;-5.470546966535039E-005;2.879180014133453E-003;
2.417166666666667E+009;1.766892522573471E-001;-6.073291972279549E-002;2.485039112798404E-005;2.919292543083429E-003;
2.417333333333334E+009;1.762215942144394E-001;-6.089272350072861E-002;2.806200354825705E-004;2.872017677873373E-003;
2.417500000000000E+009;1.753818988800049E-001;-6.127294152975082E-002;3.116983280051500E-004;3.033141372725368E-003;
2.417666666666667E+009;1.747897714376450E-001;-6.134245172142983E-002;4.238125693518668E-004;3.026783699169755E-003;
2.417833333333334E+009;1.740344017744064E-001;-6.157071143388748E-002;4.320564330555499E-004;2.673541428521276E-003;
2.418000000000000E+009;1.731172502040863E-001;-6.189784780144692E-002;6.090773385949433E-004;2.878847997635603E-003;
2.418166666666667E+009;1.720644533634186E-001;-6.217803806066513E-002;6.769549800083041E-004;2.793378429487348E-003;
2.418333333333334E+009;1.711572408676148E-001;-6.250248849391937E-002;9.403934236615896E-004;2.966352272778750E-003;
2.418500000000000E+009;1.699787229299545E-001;-6.294865161180496E-002;9.828743059188128E-004;2.814885228872299E-003;
2.418666666666667E+009;1.690089553594589E-001;-6.348104774951935E-002;1.016818685457110E-003;2.720364369452000E-003;
2.418833333333334E+009;1.676930338144302E-001;-6.389810889959335E-002;1.235414296388626E-003;2.667224500328302E-003;
2.419000000000000E+009;1.664698123931885E-001;-6.451593339443207E-002;1.352683408185840E-003;2.846706658601761E-003;
2.419166666666667E+009;1.654155105352402E-001;-6.518875062465668E-002;1.387453521601856E-003;2.683352679014206E-003;
2.419333333333334E+009;1.638472974300385E-001;-6.577330082654953E-002;1.644938369281590E-003;2.691157395020127E-003;
2.419500000000000E+009;1.628369688987732E-001;-6.682417541742325E-002;1.537518925033510E-003;2.631771378219128E-003;
2.419666666666667E+009;1.615734696388245E-001;-6.773140281438828E-002;1.786760636605322E-003;2.559876302257180E-003;
2.419833333333334E+009;1.603599190711975E-001;-6.846626102924347E-002;1.970645971596241E-003;2.486905083060265E-003;
2.420000000000000E+009;1.592346578836441E-001;-6.957862526178360E-002;1.937065622769296E-003;2.418725285679102E-003;
2.420166666666667E+009;1.581480801105499E-001;-7.073011249303818E-002;2.016332233324647E-003;2.369021996855736E-003;
2.420333333333334E+009;1.570478826761246E-001;-7.214669138193131E-002;2.183799399062991E-003;2.300716470927000E-003;
2.420500000000000E+009;1.560843288898468E-001;-7.311687618494034E-002;2.265175338834524E-003;2.189236460253596E-003;
2.420666666666667E+009;1.549704670906067E-001;-7.453227043151856E-002;2.356685930863023E-003;2.243930939584971E-003;
2.420833333333334E+009;1.542037725448608E-001;-7.584621012210846E-002;2.434612251818180E-003;1.952624646946788E-003;
2.421000000000000E+009;1.531178206205368E-001;-7.751398533582687E-002;2.495103981345892E-003;1.925301854498684E-003;
2.421166666666667E+009;1.524354964494705E-001;-7.905804365873337E-002;2.649692352861166E-003;1.704622292891145E-003;
2.421333333333334E+009;1.518622785806656E-001;-8.046105504035950E-002;2.638833597302437E-003;1.760176848620176E-003;
2.421500000000000E+009;1.511291712522507E-001;-8.208727836608887E-002;2.703030360862613E-003;1.665774383582175E-003;
2.421666666666667E+009;1.507599651813507E-001;-8.378057926893234E-002;2.590124029666185E-003;1.570968306623399E-003;
2.421833333333334E+009;1.504049748182297E-001;-8.557754009962082E-002;2.699895063415170E-003;1.322314608842135E-003;
2.422000000000000E+009;1.498139053583145E-001;-8.711962401866913E-002;2.685666549950838E-003;1.304412260651588E-003;
2.422166666666667E+009;1.495243459939957E-001;-8.907850831747055E-002;2.743626711890101E-003;1.177891739644110E-003;
2.422333333333334E+009;1.494785845279694E-001;-9.072970598936081E-002;2.807011827826500E-003;1.102937851101160E-003;
2.422500000000000E+009;1.493964493274689E-001;-9.228150546550751E-002;2.907011657953262E-003;9.821224957704544E-004;
2.422666666666667E+009;1.491932272911072E-001;-9.413086622953415E-002;2.976383781060576E-003;9.275196935050190E-004;
2.422833333333334E+009;1.494308859109879E-001;-9.585523605346680E-002;2.797417575493455E-003;7.579839439131320E-004;
2.423000000000000E+009;1.495028883218765E-001;-9.745982289314270E-002;2.848242409527302E-003;5.832920433022082E-004;
2.423166666666667E+009;1.500017195940018E-001;-9.927812963724136E-002;2.883400069549680E-003;6.762153934687376E-004;
2.423333333333334E+009;1.502139866352081E-001;-1.006474718451500E-001;2.788435202091932E-003;5.249793175607920E-004;
2.423500000000000E+009;1.504166126251221E-001;-1.022168472409248E-001;2.906490117311478E-003;3.102615009993315E-004;
2.423666666666667E+009;1.506168693304062E-001;-1.039950624108315E-001;2.890179166570306E-003;3.481394960545003E-004;
2.423833333333334E+009;1.512772142887116E-001;-1.052420437335968E-001;2.888812450692058E-003;1.999778905883431E-004;
2.424000000000000E+009;1.516043692827225E-001;-1.064279004931450E-001;2.828464377671480E-003;3.002613084390760E-004;
2.424166666666667E+009;1.520223617553711E-001;-1.078694686293602E-001;2.765552373602986E-003;6.014409518684261E-005;
2.424333333333334E+009;1.527210325002670E-001;-1.090620532631874E-001;3.035135800018907E-003;-2.494018117431551E-004;
2.424500000000000E+009;1.531262397766113E-001;-1.101797968149185E-001;2.941711340099573E-003;-5.010645327274688E-005;
2.424666666666667E+009;1.538088470697403E-001;-1.111623868346214E-001;2.833859063684940E-003;-2.842077519744635E-004;
2.424833333333334E+009;1.540876626968384E-001;-1.122451648116112E-001;2.808047924190760E-003;-2.214943669969216E-004;
2.425000000000000E+009;1.546753793954849E-001;-1.130897477269173E-001;2.892849035561085E-003;-4.359919112175703E-004;
2.425166666666667E+009;1.548793166875839E-001;-1.139825507998467E-001;2.789430320262909E-003;-5.518207908608019E-004;
2.425333333333334E+009;1.554241478443146E-001;-1.147173196077347E-001;2.736777300015092E-003;-5.880499375052750E-004;
2.425500000000000E+009;1.558891236782074E-001;-1.154638379812241E-001;2.707402221858501E-003;-7.469211705029011E-004;
2.425666666666667E+009;1.560148894786835E-001;-1.158592775464058E-001;2.734700450673699E-003;-7.174559868872166E-004;
2.425833333333334E+009;1.563072651624680E-001;-1.163851916790009E-001;2.680386416614056E-003;-9.226617985405028E-004;
2.426000000000000E+009;1.566313654184341E-001;-1.170961633324623E-001;2.814540173858404E-003;-9.927193168550730E-004;
2.426166666666667E+009;1.568627059459686E-001;-1.173350885510445E-001;2.638391451910138E-003;-1.137498882599175E-003;
2.426333333333334E+009;1.568017154932022E-001;-1.175029277801514E-001;2.496786881238222E-003;-1.156197744421661E-003;
2.426500000000000E+009;1.568211317062378E-001;-1.177521347999573E-001;2.614182187244296E-003;-1.126826391555369E-003;
2.426666666666667E+009;1.569158434867859E-001;-1.179092749953270E-001;2.408548723906279E-003;-1.195151242427528E-003;
2.426833333333334E+009;1.566197127103806E-001;-1.180687397718430E-001;2.529236022382975E-003;-1.382830552756786E-003;
2.427000000000000E+009;1.562806516885757E-001;-1.182692125439644E-001;2.348437905311585E-003;-1.468274742364883E-003;
2.427166666666667E+009;1.558647602796555E-001;-1.182132661342621E-001;2.281901193782687E-003;-1.510807662270963E-003;
2.427333333333334E+009;1.553383171558380E-001;-1.184029057621956E-001;2.462994307279587E-003;-1.568284234963357E-003;
2.427500000000000E+009;1.549909263849258E-001;-1.184918209910393E-001;2.369948197156191E-003;-1.546495361253619E-003;
2.427666666666667E+009;1.541974693536758E-001;-1.186505258083344E-001;2.298530656844378E-003;-1.614625332877040E-003;
