# Version 1.00
#
freq[Hz];re:Trc1_S11;im:Trc1_S11;re:Trc2_S21;im:Trc2_S21;
2.400000000000000E+009;1.559288799762726E-001;6.011112034320831E-002;-4.623547662049532E-003;1.802440528990701E-004;
2.400166666666667E+009;1.562460660934448E-001;5.834409967064858E-002;-4.435723181813955E-003;3.187844704370946E-004;
2.400333333333334E+009;1.560665071010590E-001;5.618642643094063E-002;-4.397151991724968E-003;6.265145493671298E-004;
2.400500000000000E+009;1.564701646566391E-001;5.400856956839562E-002;-4.443904850631952E-003;6.881418521516025E-004;
2.400666666666667E+009;1.566153615713120E-001;5.209755152463913E-002;-4.312154836952686E-003;8.012671023607254E-004;
2.400833333333334E+009;1.570222973823547E-001;5.017021670937538E-002;-4.275349900126457E-003;9.279450168833137E-004;
2.401000000000000E+009;1.573901325464249E-001;4.800370708107948E-002;-4.346207249909639E-003;1.272595603950322E-003;
2.401166666666667E+009;1.578182429075241E-001;4.589112102985382E-002;-4.217323381453753E-003;1.488114357925952E-003;
2.401333333333334E+009;1.580404788255692E-001;4.374368488788605E-002;-4.049463663250208E-003;1.492818119004369E-003;
2.401500000000000E+009;1.587729156017304E-001;4.178271815180779E-002;-3.954871557652950E-003;1.834361581131816E-003;
2.401666666666667E+009;1.593827307224274E-001;3.990334644913673E-002;-3.917561843991280E-003;1.992305275052786E-003;
2.401833333333334E+009;1.600650250911713E-001;3.789957985281944E-002;-3.839258104562759E-003;2.027603564783931E-003;
2.402000000000000E+009;1.607660949230194E-001;3.596552461385727E-002;-3.660458140075207E-003;2.336692530661821E-003;
2.402166666666667E+009;1.613733619451523E-001;3.409482538700104E-002;-3.471182659268379E-003;2.387521788477898E-003;
2.402333333333334E+009;1.622119098901749E-001;3.232585638761520E-002;-3.382328664883971E-003;2.550669945776463E-003;
2.402500000000000E+009;1.632779836654663E-001;3.085920028388500E-002;-3.222110448405147E-003;2.524747047573328E-003;
2.402666666666667E+009;1.639082580804825E-001;2.938341163098812E-002;-3.016184782609344E-003;2.687604399397969E-003;
2.402833333333334E+009;1.649691462516785E-001;2.781966887414455E-002;-2.822302980348468E-003;2.822501352056861E-003;
2.403000000000000E+009;1.658874899148941E-001;2.640022151172161E-002;-2.587398746982217E-003;2.941940911114216E-003;
2.403166666666667E+009;1.667718887329102E-001;2.511377446353436E-002;-2.531954552978277E-003;2.971942070871592E-003;
2.403333333333334E+009;1.679369360208511E-001;2.388142049312592E-002;-2.327287802472711E-003;3.073327476158738E-003;
2.403500000000000E+009;1.686875820159912E-001;2.282460965216160E-002;-2.157070674002171E-003;3.293094923719764E-003;
2.403666666666667E+009;1.696428954601288E-001;2.159192785620689E-002;-2.087861066684127E-003;3.143221372738481E-003;
2.403833333333334E+009;1.708461642265320E-001;2.045930176973343E-002;-1.950797042809427E-003;3.063282230868936E-003;
2.404000000000000E+009;1.716983765363693E-001;1.977563835680485E-002;-1.714054611511529E-003;3.197211539372802E-003;
2.404166666666667E+009;1.726436913013458E-001;1.894024759531021E-002;-1.673193299211562E-003;3.181682433933020E-003;
2.404333333333334E+009;1.735744327306747E-001;1.803098060190678E-002;-1.349254976958036E-003;3.229525871574879E-003;
2.404500000000000E+009;1.744092255830765E-001;1.727586798369885E-002;-1.199592021293938E-003;3.206634661182761E-003;
2.404666666666667E+009;1.751598715782166E-001;1.691003516316414E-002;-1.144729554653168E-003;3.137015271931887E-003;
2.404833333333334E+009;1.759168058633804E-001;1.610024459660053E-002;-7.507057744078338E-004;3.127362579107285E-003;
2.405000000000000E+009;1.766864061355591E-001;1.554974168539047E-002;-7.469024858437479E-004;3.094909479841590E-003;
2.405166666666667E+009;1.774069666862488E-001;1.528804469853640E-002;-7.206112495623529E-004;3.070597304031253E-003;
2.405333333333334E+009;1.779635101556778E-001;1.471231225878000E-002;-5.470947362482548E-004;3.110222751274705E-003;
2.405500000000000E+009;1.784146726131439E-001;1.454596873372793E-002;-4.071087168995291E-004;2.952989190816879E-003;
2.405666666666667E+009;1.789448708295822E-001;1.426945254206657E-002;-1.810827816370875E-004;2.728963736444712E-003;
2.405833333333334E+009;1.791343092918396E-001;1.411378756165505E-002;-1.994480408029631E-004;2.797488123178482E-003;
2.406000000000000E+009;1.795269399881363E-001;1.365978829562664E-002;-2.182589669246227E-004;2.715306589379907E-003;
2.406166666666667E+009;1.795526146888733E-001;1.352743152529001E-002;2.303495857631788E-004;2.524964045733213E-003;
2.406333333333334E+009;1.799267083406448E-001;1.331927254796028E-002;3.111260593868792E-005;2.611963078379631E-003;
2.406500000000000E+009;1.799144893884659E-001;1.289791427552700E-002;2.526100433897227E-004;2.446930855512619E-003;
2.406666666666667E+009;1.796497553586960E-001;1.272377185523510E-002;2.941240963991731E-004;2.443283330649138E-003;
2.406833333333334E+009;1.796946227550507E-001;1.222875434905291E-002;1.661858987063170E-004;2.523896750062704E-003;
2.407000000000000E+009;1.795600354671478E-001;1.200578082352877E-002;4.429893742781133E-004;2.377306111156941E-003;
2.407166666666667E+009;1.793666929006577E-001;1.150998473167419E-002;3.999447508249432E-004;2.254953840747476E-003;
2.407333333333334E+009;1.788171380758286E-001;1.087050512433052E-002;5.122598959133029E-004;2.213067142292857E-003;
2.407500000000000E+009;1.785729527473450E-001;1.048936136066914E-002;6.014293758198619E-004;2.042179461568594E-003;
2.407666666666667E+009;1.781294941902161E-001;9.969998151063919E-003;5.774880992248654E-004;2.068076748400927E-003;
2.407833333333334E+009;1.775112897157669E-001;9.058482013642788E-003;5.318274488672614E-004;2.053265692666173E-003;
2.408000000000000E+009;1.770327091217041E-001;8.172773756086826E-003;5.939027760177851E-004;1.962729264050722E-003;
2.408166666666667E+009;1.765027791261673E-001;7.451009936630726E-003;7.011731504462659E-004;1.803703140467405E-003;
2.408333333333334E+009;1.759853661060333E-001;6.540852598845959E-003;7.296949042938650E-004;1.967314630746841E-003;
2.408500000000000E+009;1.752059608697891E-001;5.452679470181465E-003;7.561168749816716E-004;1.791488961316645E-003;
2.408666666666667E+009;1.745005249977112E-001;4.271716810762882E-003;9.570912225171924E-004;1.630245824344456E-003;
2.408833333333334E+009;1.738308966159821E-001;3.064554883167148E-003;9.342902922071517E-004;1.591642037965357E-003;
2.409000000000000E+009;1.730154752731323E-001;1.786697073839605E-003;9.074608678929508E-004;1.485721790231764E-003;
2.409166666666667E+009;1.723609864711762E-001;3.402548318263143E-004;1.039818977005780E-003;1.415626960806549E-003;
2.409333333333334E+009;1.717774868011475E-001;-9.905846090987325E-004;1.069345395080745E-003;1.515701995231211E-003;
2.409500000000000E+009;1.710877269506455E-001;-2.757661277428269E-003;9.177504107356072E-004;1.330060651525855E-003;
2.409666666666667E+009;1.703621447086334E-001;-4.258574917912483E-003;1.109560485929251E-003;1.338020549155772E-003;
2.409833333333334E+009;1.697227209806442E-001;-5.999128799885511E-003;1.096470514312387E-003;1.125823473557830E-003;
2.410000000000000E+009;1.692877709865570E-001;-7.559443358331919E-003;1.131465658545494E-003;1.010999432764947E-003;
2.410166666666667E+009;1.688574999570847E-001;-9.377249516546726E-003;1.234490773640573E-003;1.000361167825759E-003;
2.410333333333334E+009;1.681449562311173E-001;-1.122158952057362E-002;1.219713478349149E-003;7.884221849963069E-004;
2.410500000000000E+009;1.679737716913223E-001;-1.305305771529675E-002;1.186501351185143E-003;7.050517597235739E-004;
2.410666666666667E+009;1.676466614007950E-001;-1.517422031611204E-002;1.139272353611887E-003;5.810630391351879E-004;
2.410833333333334E+009;1.674038469791412E-001;-1.694710738956928E-002;1.156747573986650E-003;7.706190226599574E-004;
2.411000000000000E+009;1.672474294900894E-001;-1.889778301119804E-002;1.190021052025259E-003;5.578207783401012E-004;
2.411166666666667E+009;1.672123670578003E-001;-2.109799534082413E-002;1.072946470230818E-003;5.034104688093066E-004;
2.411333333333334E+009;1.671232730150223E-001;-2.297198772430420E-002;1.099197659641504E-003;3.665723488666117E-004;
2.411500000000000E+009;1.671302318572998E-001;-2.492396906018257E-002;1.117306877858937E-003;3.104952920693904E-004;
2.411666666666667E+009;1.676186919212341E-001;-2.674900554120541E-002;1.038543530739844E-003;1.462477957829833E-004;
2.411833333333334E+009;1.677157729864121E-001;-2.874079532921314E-002;9.835689561441541E-004;1.321215822827071E-004;
2.412000000000000E+009;1.680076718330383E-001;-3.074255585670471E-002;9.757652878761292E-004;-3.609978739405051E-005;
2.412166666666667E+009;1.682901829481125E-001;-3.260029852390289E-002;1.051550381816924E-003;-6.129225221229717E-005;
2.412333333333334E+009;1.688708662986755E-001;-3.425537794828415E-002;7.841194164939225E-004;-1.751093514030799E-004;
2.412500000000000E+009;1.692335903644562E-001;-3.626492992043495E-002;6.512729451060295E-004;-2.681588812265545E-004;
2.412666666666667E+009;1.699061393737793E-001;-3.811237215995789E-002;6.214902969077230E-004;-2.652768453117460E-004;
2.412833333333334E+009;1.705165803432465E-001;-3.981551900506020E-002;6.271905731409788E-004;-5.336565081961453E-004;
2.413000000000000E+009;1.710928678512573E-001;-4.142893478274345E-002;4.158296214882284E-004;-5.048763123340905E-004;
2.413166666666667E+009;1.715023368597031E-001;-4.292101413011551E-002;2.399699296802282E-004;-4.955577314831317E-004;
2.413333333333334E+009;1.721756756305695E-001;-4.457997903227806E-002;2.615605189930648E-004;-5.514952936209738E-004;
2.413500000000000E+009;1.728467941284180E-001;-4.599916562438011E-002;1.210495975101367E-004;-6.775940419174731E-004;
2.413666666666667E+009;1.736951917409897E-001;-4.741224646568298E-002;-1.670829078648239E-004;-6.157362950034440E-004;
2.413833333333334E+009;1.742286831140518E-001;-4.862248525023460E-002;-7.735416147625074E-005;-4.981071688234806E-004;
2.414000000000000E+009;1.747567653656006E-001;-4.967936500906944E-002;-2.520557609386742E-004;-5.477049853652716E-004;
2.414166666666667E+009;1.754496991634369E-001;-5.073002725839615E-002;-4.362452309578657E-004;-5.169349606148899E-004;
2.414333333333334E+009;1.760000735521317E-001;-5.184969305992127E-002;-6.369526381604374E-004;-5.480504478327930E-004;
2.414500000000000E+009;1.767806112766266E-001;-5.275256931781769E-002;-7.327265338972211E-004;-3.622285148594528E-004;
2.414666666666667E+009;1.771411001682282E-001;-5.349137634038925E-002;-8.140465361066163E-004;-3.233136667404324E-004;
2.414833333333334E+009;1.774485707283020E-001;-5.430160835385323E-002;-9.909260552376509E-004;-2.800102229230106E-004;
2.415000000000000E+009;1.778476685285568E-001;-5.484445765614510E-002;-1.170029747299850E-003;-9.624953963793814E-005;
2.415166666666667E+009;1.782097667455673E-001;-5.551651865243912E-002;-1.271489076316357E-003;-9.849583875620738E-005;
2.415333333333334E+009;1.786170154809952E-001;-5.614666640758514E-002;-1.286778482608497E-003;7.516430196119472E-005;
2.415500000000000E+009;1.786302477121353E-001;-5.639259144663811E-002;-1.283545512706041E-003;2.856225182767957E-004;
2.415666666666667E+009;1.788450330495834E-001;-5.674508586525917E-002;-1.408609445206821E-003;4.443014040589333E-004;
2.415833333333334E+009;1.789589673280716E-001;-5.708716809749603E-002;-1.429124735295773E-003;5.869850865565240E-004;
2.416000000000000E+009;1.786586344242096E-001;-5.747378617525101E-002;-1.351400162093341E-003;6.365379667840898E-004;
2.416166666666667E+009;1.787734478712082E-001;-5.772780999541283E-002;-1.424476155079901E-003;9.442553273402154E-004;
2.416333333333334E+009;1.784514635801315E-001;-5.785859003663063E-002;-1.333478721790016E-003;9.646464604884386E-004;
2.416500000000000E+009;1.781407743692398E-001;-5.812003090977669E-002;-1.363288145512343E-003;1.237181830219924E-003;
2.416666666666667E+009;1.776922494173050E-001;-5.821072310209274E-002;-1.217786106280983E-003;1.379729947075248E-003;
2.416833333333334E+009;1.772721409797669E-001;-5.850241705775261E-002;-1.336629502475262E-003;1.410516561008990E-003;
2.417000000000000E+009;1.764407008886337E-001;-5.870769917964935E-002;-1.246130210347474E-003;1.588753657415509E-003;
2.417166666666667E+009;1.757903695106506E-001;-5.886950343847275E-002;-1.188576687127352E-003;1.737378537654877E-003;
2.417333333333334E+009;1.751172095537186E-001;-5.910496786236763E-002;-1.157670631073415E-003;1.814352697692812E-003;
2.417500000000000E+009;1.742053925991058E-001;-5.950895696878433E-002;-1.050280174240470E-003;1.807527034543455E-003;
2.417666666666667E+009;1.734144389629364E-001;-5.965575575828552E-002;-7.828083471395075E-004;2.002148889005184E-003;
2.417833333333334E+009;1.722846776247025E-001;-6.003532186150551E-002;-8.308329852297902E-004;2.037786412984133E-003;
2.418000000000000E+009;1.712414473295212E-001;-6.054375320672989E-002;-6.797491805627942E-004;2.214695326983929E-003;
2.418166666666667E+009;1.700593680143356E-001;-6.077540293335915E-002;-6.110258982516825E-004;2.214015927165747E-003;
2.418333333333334E+009;1.691605150699616E-001;-6.148164719343185E-002;-4.366860957816243E-004;2.461024560034275E-003;
2.418500000000000E+009;1.677387803792954E-001;-6.186344847083092E-002;-4.208876634947956E-004;2.525186631828547E-003;
2.418666666666667E+009;1.667117774486542E-001;-6.263420730829239E-002;-3.018705174326897E-004;2.473131520673633E-003;
2.418833333333334E+009;1.652067899703980E-001;-6.343379616737366E-002;-1.431851851521060E-004;2.651101443916559E-003;
2.419000000000000E+009;1.640341877937317E-001;-6.420025974512100E-002;4.814079147763550E-006;2.558479551225901E-003;
2.419166666666667E+009;1.627462804317474E-001;-6.514772027730942E-002;2.064550062641501E-004;2.671310910955071E-003;
2.419333333333334E+009;1.613148152828217E-001;-6.583324819803238E-002;2.616408164612949E-004;2.724381629377604E-003;
2.419500000000000E+009;1.602313965559006E-001;-6.708591431379318E-002;3.988491953350604E-004;2.619466045871377E-003;
2.419666666666667E+009;1.591625213623047E-001;-6.812148541212082E-002;4.879176849499345E-004;2.698573051020503E-003;
2.419833333333334E+009;1.578698307275772E-001;-6.936442852020264E-002;6.407081964425743E-004;2.722566714510322E-003;
2.420000000000000E+009;1.568653732538223E-001;-7.059454917907715E-002;6.964249187149108E-004;2.594512421637774E-003;
2.420166666666667E+009;1.558057069778442E-001;-7.191035151481628E-002;9.180270717479289E-004;2.695152536034584E-003;
2.420333333333334E+009;1.548441350460053E-001;-7.328683882951737E-002;1.054917578585446E-003;2.663109684363008E-003;
2.420500000000000E+009;1.537258774042130E-001;-7.463205605745316E-002;1.099501387216151E-003;2.766006393358111E-003;
2.420666666666667E+009;1.530698835849762E-001;-7.621473819017410E-002;1.194094424135983E-003;2.625611843541265E-003;
2.420833333333334E+009;1.523070782423019E-001;-7.770088315010071E-002;1.398625783622265E-003;2.574027748778462E-003;
2.421000000000000E+009;1.515728086233139E-001;-7.940816879272461E-002;1.474790158681572E-003;2.480791881680489E-003;
2.421166666666667E+009;1.509371101856232E-001;-8.089658617973328E-002;1.697546336799860E-003;2.445524558424950E-003;
2.421333333333334E+009;1.506216526031494E-001;-8.266506344079971E-002;1.695041428320110E-003;2.388431690633297E-003;
2.421500000000000E+009;1.499436944723129E-001;-8.438149839639664E-002;1.962183741852641E-003;2.492509549483657E-003;
2.421666666666667E+009;1.496967971324921E-001;-8.602657169103622E-002;1.995195634663105E-003;2.251887926831842E-003;
2.421833333333334E+009;1.495131999254227E-001;-8.768627792596817E-002;2.079593949019909E-003;2.056831493973732E-003;
2.422000000000000E+009;1.493371725082398E-001;-8.952767401933670E-002;2.262810943648219E-003;2.075090073049069E-003;
2.422166666666667E+009;1.492389589548111E-001;-9.123238921165466E-002;2.342714695259929E-003;2.035486744716764E-003;
2.422333333333334E+009;1.491830348968506E-001;-9.297011047601700E-002;2.501300303265452E-003;1.955150393769145E-003;
2.422500000000000E+009;1.493107229471207E-001;-9.443457424640656E-002;2.517927903681994E-003;1.649434329010546E-003;
2.422666666666667E+009;1.493492871522903E-001;-9.623099863529205E-002;2.545093419030309E-003;1.670643105171621E-003;
2.422833333333334E+009;1.498166769742966E-001;-9.797521680593491E-002;2.575627062469721E-003;1.617276109755039E-003;
2.423000000000000E+009;1.498739123344421E-001;-9.931655973196030E-002;2.574343467131257E-003;1.345731317996979E-003;
2.423166666666667E+009;1.502764672040939E-001;-1.008648276329041E-001;2.735469024628401E-003;1.380115165375173E-003;
2.423333333333334E+009;1.509201228618622E-001;-1.021874770522118E-001;2.855139086022973E-003;1.222857856191695E-003;
2.423500000000000E+009;1.512979269027710E-001;-1.037317588925362E-001;2.702940488234162E-003;1.287094433791935E-003;
2.423666666666667E+009;1.517052501440048E-001;-1.051229611039162E-001;2.746601589024067E-003;1.087021664716303E-003;
2.423833333333334E+009;1.523976325988770E-001;-1.064531430602074E-001;2.856380771845579E-003;9.556702570989728E-004;
2.424000000000000E+009;1.527526676654816E-001;-1.075278744101524E-001;2.980640856549144E-003;8.287081145681441E-004;
2.424166666666667E+009;1.533581465482712E-001;-1.086851879954338E-001;3.147038165479899E-003;6.476515554822981E-004;
2.424333333333334E+009;1.538487076759338E-001;-1.095587611198425E-001;3.029817948117852E-003;6.874140817672014E-004;
2.424500000000000E+009;1.543545424938202E-001;-1.104739606380463E-001;3.221429651603103E-003;4.551806778181344E-004;
2.424666666666667E+009;1.549894213676453E-001;-1.112370863556862E-001;3.095646155998111E-003;4.728985659312457E-004;
2.424833333333334E+009;1.553872972726822E-001;-1.121563464403153E-001;3.012716770172119E-003;1.800829049898312E-004;
2.425000000000000E+009;1.559262275695801E-001;-1.129523515701294E-001;3.104990348219872E-003;1.577809889568016E-004;
2.425166666666667E+009;1.560833007097244E-001;-1.136219501495361E-001;3.179332008585334E-003;8.438670192845166E-006;
2.425333333333334E+009;1.564550250768662E-001;-1.140590608119965E-001;3.292509354650974E-003;-8.300234185298905E-005;
2.425500000000000E+009;1.568471789360046E-001;-1.147390007972717E-001;3.128476673737168E-003;-2.490950864739716E-004;
2.425666666666667E+009;1.567951291799545E-001;-1.150727942585945E-001;3.073684871196747E-003;-5.145763861946762E-004;
2.425833333333334E+009;1.570590585470200E-001;-1.154850572347641E-001;3.152967430651188E-003;-4.719947755802423E-004;
2.426000000000000E+009;1.570762693881989E-001;-1.158548891544342E-001;2.942389808595181E-003;-5.920629482716322E-004;
2.426166666666667E+009;1.572268605232239E-001;-1.160414665937424E-001;3.053370397537947E-003;-7.436280138790608E-004;
2.426333333333334E+009;1.571472436189652E-001;-1.161719858646393E-001;2.914850832894445E-003;-9.242706582881510E-004;
2.426500000000000E+009;1.569204032421112E-001;-1.163421198725700E-001;2.927310299128294E-003;-8.320492343045771E-004;
2.426666666666667E+009;1.568410843610764E-001;-1.163922697305679E-001;2.816903870552778E-003;-1.230523339472711E-003;
2.426833333333334E+009;1.563506275415421E-001;-1.165869757533073E-001;2.768484642729163E-003;-1.236559939570725E-003;
2.427000000000000E+009;1.558174788951874E-001;-1.167569980025291E-001;2.693883841857314E-003;-1.352125429548323E-003;
2.427166666666667E+009;1.553197652101517E-001;-1.167154982686043E-001;2.681688638404012E-003;-1.229543006047607E-003;
2.427333333333334E+009;1.545614153146744E-001;-1.168880164623261E-001;2.731628948822618E-003;-1.327981590293348E-003;
2.427500000000000E+009;1.539936810731888E-001;-1.169760152697563E-001;2.571187680587173E-003;-1.372718019410968E-003;
2.427666666666667E+009;1.530221253633499E-001;-1.171720698475838E-001;2.636399352923036E-003;-1.522064092569053E-003;
2.427833333333334E+009;1.519845575094223E-001;-1.173423081636429E-001;2.578705549240112E-003;-1.706161303445697E-003;
