# Version 1.00
#
freq[Hz];re:Trc1_S11;im:Trc1_S11;re:Trc2_S21;im:Trc2_S21;
2.400000000000000E+009;1.558778584003449E-001;6.019862741231918E-002;-4.432077519595623E-003;1.777542929630727E-004;
2.400166666666667E+009;1.560133844614029E-001;5.832289904356003E-002;-4.449196625500917E-003;1.661808637436479E-004;
2.400333333333334E+009;1.560802012681961E-001;5.604990199208260E-002;-4.489474929869175E-003;4.255122039467096E-004;
2.400500000000000E+009;1.563753187656403E-001;5.417126417160034E-002;-4.470756277441979E-003;7.166648865677416E-004;
2.400666666666667E+009;1.564943641424179E-001;5.218650773167610E-002;-4.463879391551018E-003;9.847072651609778E-004;
2.400833333333334E+009;1.569264829158783E-001;5.026021227240562E-002;-4.338952247053385E-003;1.051985775120556E-003;
2.401000000000000E+009;1.573059707880020E-001;4.792272299528122E-002;-4.350450355559588E-003;1.258408883586526E-003;
2.401166666666667E+009;1.576003879308701E-001;4.596973955631256E-002;-4.251505248248577E-003;1.531081506982446E-003;
2.401333333333334E+009;1.579931676387787E-001;4.379427433013916E-002;-4.064285662025213E-003;1.553477370180190E-003;
2.401500000000000E+009;1.587962061166763E-001;4.174274206161499E-002;-4.018698353320360E-003;1.778665580786765E-003;
2.401666666666667E+009;1.592867672443390E-001;3.996627405285835E-002;-3.980708308517933E-003;1.967901363968849E-003;
2.401833333333334E+009;1.599487066268921E-001;3.792702034115791E-002;-3.795790951699019E-003;2.108159475028515E-003;
2.402000000000000E+009;1.605261415243149E-001;3.613754734396935E-002;-3.637903369963169E-003;2.168440492823720E-003;
2.402166666666667E+009;1.611784249544144E-001;3.411774709820747E-002;-3.442358458414674E-003;2.236656378954649E-003;
2.402333333333334E+009;1.620519161224365E-001;3.246172890067101E-002;-3.290354972705245E-003;2.486311597749591E-003;
2.402500000000000E+009;1.631454378366470E-001;3.088776208460331E-002;-3.236007411032915E-003;2.473988337442279E-003;
2.402666666666667E+009;1.639981418848038E-001;2.942306734621525E-002;-3.061969997361302E-003;2.665743697434664E-003;
2.402833333333334E+009;1.649976819753647E-001;2.769944258034229E-002;-3.121161600574851E-003;2.760047325864434E-003;
2.403000000000000E+009;1.657924652099609E-001;2.636362053453922E-002;-2.665268490090966E-003;2.939844969660044E-003;
2.403166666666667E+009;1.668409705162048E-001;2.503658831119537E-002;-2.600498031824827E-003;2.937314799055457E-003;
2.403333333333334E+009;1.678674072027206E-001;2.378558553755283E-002;-2.476397436112166E-003;3.029969055205584E-003;
2.403500000000000E+009;1.686799824237824E-001;2.255496196448803E-002;-2.306338865309954E-003;3.081230446696281E-003;
2.403666666666667E+009;1.696725040674210E-001;2.173326909542084E-002;-2.169788815081120E-003;3.049662569537759E-003;
2.403833333333334E+009;1.708751618862152E-001;2.058722451329231E-002;-2.071046503260732E-003;3.189025679603219E-003;
2.404000000000000E+009;1.717111468315125E-001;1.984141021966934E-002;-1.740710576996207E-003;3.175888443365693E-003;
2.404166666666667E+009;1.725977659225464E-001;1.875053718686104E-002;-1.721519627608359E-003;3.051123116165400E-003;
2.404333333333334E+009;1.735839694738388E-001;1.816607266664505E-002;-1.412952551618218E-003;3.147089621052146E-003;
2.404500000000000E+009;1.742576509714127E-001;1.730108447372913E-002;-1.166135887615383E-003;3.039630595594645E-003;
2.404666666666667E+009;1.750048696994782E-001;1.681437529623509E-002;-1.071211998350918E-003;3.042129566892982E-003;
2.404833333333334E+009;1.760010570287705E-001;1.604860462248325E-002;-8.846737327985466E-004;3.100449917837977E-003;
2.405000000000000E+009;1.767544746398926E-001;1.557818148285151E-002;-9.141392656601965E-004;2.997244242578745E-003;
2.405166666666667E+009;1.773338466882706E-001;1.529798749834299E-002;-7.045061211101711E-004;3.027361584827304E-003;
2.405333333333334E+009;1.780353337526321E-001;1.465852744877338E-002;-5.012836190871894E-004;3.088479163125157E-003;
2.405500000000000E+009;1.784300804138184E-001;1.462659705430269E-002;-4.570267337840051E-004;3.020727308467031E-003;
2.405666666666667E+009;1.788832545280457E-001;1.433720532804728E-002;-4.236238019075245E-004;2.914788667112589E-003;
2.405833333333334E+009;1.791016459465027E-001;1.411045156419277E-002;-2.885891881305724E-004;2.873732708394527E-003;
2.406000000000000E+009;1.794830113649368E-001;1.364094391465187E-002;-1.381899492116645E-004;2.694214228540659E-003;
2.406166666666667E+009;1.795418262481690E-001;1.354765798896551E-002;-1.063086892827414E-004;2.711938694119453E-003;
2.406333333333334E+009;1.798393875360489E-001;1.333467382937670E-002;2.121139186783694E-005;2.631956245750189E-003;
2.406500000000000E+009;1.798464655876160E-001;1.296459324657917E-002;1.497165358159691E-004;2.582706743851304E-003;
2.406666666666667E+009;1.796165853738785E-001;1.262382231652737E-002;1.900988136185333E-004;2.521462738513947E-003;
2.406833333333334E+009;1.796749383211136E-001;1.242903806269169E-002;1.531656453153119E-004;2.382680773735046E-003;
2.407000000000000E+009;1.795582473278046E-001;1.197262015193701E-002;2.548201300669462E-004;2.471875865012407E-003;
2.407166666666667E+009;1.795009374618530E-001;1.149662490934134E-002;3.484476183075458E-004;2.400145167484880E-003;
2.407333333333334E+009;1.788837462663651E-001;1.091533992439508E-002;3.858849231619388E-004;2.423385856673122E-003;
2.407500000000000E+009;1.785141378641129E-001;1.058727689087391E-002;3.355634689796716E-004;2.252906095236540E-003;
2.407666666666667E+009;1.780486255884171E-001;9.991317056119442E-003;5.618987488560379E-004;2.044198568910360E-003;
2.407833333333334E+009;1.773613095283508E-001;9.191941469907761E-003;5.304827354848385E-004;2.131022047251463E-003;
2.408000000000000E+009;1.770182102918625E-001;8.304482325911522E-003;6.167876999825239E-004;2.027081791311503E-003;
2.408166666666667E+009;1.764255464076996E-001;7.475152611732483E-003;7.196879014372826E-004;1.811980269849300E-003;
2.408333333333334E+009;1.759889423847199E-001;6.566523108631373E-003;7.722132722847164E-004;1.958888024091721E-003;
2.408500000000000E+009;1.752146035432816E-001;5.463609937578440E-003;7.889565313234925E-004;1.890613697469235E-003;
2.408666666666667E+009;1.744517385959625E-001;4.290242679417133E-003;9.693207684904337E-004;1.717174774967134E-003;
2.408833333333334E+009;1.737489402294159E-001;2.973283641040325E-003;8.588664350099862E-004;1.648978912271559E-003;
2.409000000000000E+009;1.729884296655655E-001;1.917421701364219E-003;8.658614242449403E-004;1.640580478124321E-003;
2.409166666666667E+009;1.723723262548447E-001;5.048800376243889E-004;1.005230587907136E-003;1.617281930521131E-003;
2.409333333333334E+009;1.717578470706940E-001;-9.723253897391260E-004;9.421457652933896E-004;1.376422354951501E-003;
2.409500000000000E+009;1.710349917411804E-001;-2.682367339730263E-003;1.113637350499630E-003;1.341726980172098E-003;
2.409666666666667E+009;1.704272180795670E-001;-4.292819648981094E-003;1.075092237442732E-003;1.394726103171706E-003;
2.409833333333334E+009;1.697304695844650E-001;-5.788618233054876E-003;1.154047553427517E-003;1.150405267253518E-003;
2.410000000000000E+009;1.694313734769821E-001;-7.569649722427130E-003;1.156138954684138E-003;1.242288621142507E-003;
2.410166666666667E+009;1.688467413187027E-001;-9.526689536869526E-003;1.058274065144360E-003;1.033388893119991E-003;
2.410333333333334E+009;1.683927327394486E-001;-1.122246123850346E-002;1.120496308431029E-003;9.464998729526997E-004;
2.410500000000000E+009;1.680116355419159E-001;-1.297868415713310E-002;1.112903351895511E-003;8.605889161117375E-004;
2.410666666666667E+009;1.677100956439972E-001;-1.524753775447607E-002;1.344032352790237E-003;8.120327256619930E-004;
2.410833333333334E+009;1.675193607807159E-001;-1.695264130830765E-002;1.373761449940503E-003;7.492714212276042E-004;
2.411000000000000E+009;1.673295497894287E-001;-1.862845756113529E-002;1.166366622783244E-003;6.172383436933160E-004;
2.411166666666667E+009;1.672489196062088E-001;-2.076057344675064E-002;1.090426580049098E-003;5.924336146563292E-004;
2.411333333333334E+009;1.672389358282089E-001;-2.279721759259701E-002;1.143736881203950E-003;2.999360731337220E-004;
2.411500000000000E+009;1.671524941921234E-001;-2.498610503971577E-002;1.247885171324015E-003;2.267735981149599E-004;
2.411666666666667E+009;1.673759073019028E-001;-2.681724540889263E-002;1.042831921949983E-003;1.800806785468012E-004;
2.411833333333334E+009;1.676640361547470E-001;-2.875764109194279E-002;1.060704351402819E-003;1.204724467243068E-004;
2.412000000000000E+009;1.680659949779511E-001;-3.070305474102497E-002;8.715685107745230E-004;-2.278203282912727E-005;
2.412166666666667E+009;1.681474000215530E-001;-3.265003114938736E-002;9.098332375288010E-004;-1.425805967301130E-004;
2.412333333333334E+009;1.688701957464218E-001;-3.418330103158951E-002;6.983092753216624E-004;-1.415536680724472E-004;
2.412500000000000E+009;1.690245419740677E-001;-3.623847290873528E-002;7.673597428947687E-004;-1.897684851428494E-004;
2.412666666666667E+009;1.697448641061783E-001;-3.801125660538673E-002;5.018421798013151E-004;-3.154500736854971E-004;
2.412833333333334E+009;1.703599691390991E-001;-3.969248384237289E-002;6.370553164742887E-004;-5.288017564453185E-004;
2.413000000000000E+009;1.710409373044968E-001;-4.127507284283638E-002;4.190526087768376E-004;-3.779993276111782E-004;
2.413166666666667E+009;1.714668869972229E-001;-4.281071573495865E-002;1.881958742160350E-004;-5.521228886209428E-004;
2.413333333333334E+009;1.721202731132507E-001;-4.426941275596619E-002;9.980699542211369E-005;-5.998750566504896E-004;
2.413500000000000E+009;1.728835701942444E-001;-4.584819823503494E-002;7.388816447928548E-005;-5.279419710859656E-004;
2.413666666666667E+009;1.735042333602905E-001;-4.723171517252922E-002;-9.963914635591209E-005;-4.631025076378137E-004;
2.413833333333334E+009;1.739343106746674E-001;-4.850912466645241E-002;-2.015776699408889E-004;-4.855280567426235E-004;
2.414000000000000E+009;1.745208650827408E-001;-4.972215369343758E-002;-3.766022564377636E-004;-4.211510240565985E-004;
2.414166666666667E+009;1.754246056079865E-001;-5.080533772706986E-002;-5.373635794967413E-004;-4.839307221118361E-004;
2.414333333333334E+009;1.759589016437531E-001;-5.191455408930779E-002;-7.097263587638736E-004;-4.022494249511510E-004;
2.414500000000000E+009;1.766597330570221E-001;-5.262653529644013E-002;-6.277267821133137E-004;-4.517141787800938E-004;
2.414666666666667E+009;1.771276295185089E-001;-5.347672104835510E-002;-8.646044298075140E-004;-2.897236554417759E-004;
2.414833333333334E+009;1.774944514036179E-001;-5.426721274852753E-002;-1.041906769387424E-003;-3.459944273345172E-004;
2.415000000000000E+009;1.778287291526794E-001;-5.481528118252754E-002;-9.203932713717222E-004;-1.874777954071760E-004;
2.415166666666667E+009;1.781706809997559E-001;-5.549765750765801E-002;-1.113013830035925E-003;1.566349092172459E-004;
2.415333333333334E+009;1.786994785070419E-001;-5.595380812883377E-002;-1.355702872388065E-003;4.877868195762858E-005;
2.415500000000000E+009;1.786357909440994E-001;-5.637044459581375E-002;-1.393155776895583E-003;3.814546507783234E-004;
2.415666666666667E+009;1.788050681352615E-001;-5.672851204872131E-002;-1.276205177418888E-003;3.482124593574554E-004;
2.415833333333334E+009;1.788590699434280E-001;-5.717862769961357E-002;-1.467196736484766E-003;5.588537314906716E-004;
2.416000000000000E+009;1.787586808204651E-001;-5.745124444365501E-002;-1.440231222659349E-003;9.844034211710095E-004;
2.416166666666667E+009;1.787684857845306E-001;-5.764970555901527E-002;-1.402262481860817E-003;9.705441188998520E-004;
2.416333333333334E+009;1.785027831792831E-001;-5.782330781221390E-002;-1.255733426660299E-003;9.385218727402389E-004;
2.416500000000000E+009;1.781356185674667E-001;-5.802827700972557E-002;-1.342097646556795E-003;1.149899559095502E-003;
2.416666666666667E+009;1.776875853538513E-001;-5.824481323361397E-002;-1.387972151860595E-003;1.454790239222348E-003;
2.416833333333334E+009;1.772783845663071E-001;-5.846240743994713E-002;-1.231586909852922E-003;1.374606508761644E-003;
2.417000000000000E+009;1.764959394931793E-001;-5.872872471809387E-002;-1.303549972362816E-003;1.599491457454860E-003;
2.417166666666667E+009;1.759293526411057E-001;-5.884606391191483E-002;-1.236346666701138E-003;1.794931828044355E-003;
2.417333333333334E+009;1.750218719244003E-001;-5.904797837138176E-002;-8.758103940635920E-004;1.834277180023491E-003;
2.417500000000000E+009;1.741213798522949E-001;-5.951508879661560E-002;-1.061931019648910E-003;1.915217144414783E-003;
2.417666666666667E+009;1.734343171119690E-001;-5.962535738945007E-002;-8.062893175520003E-004;2.072023460641503E-003;
2.417833333333334E+009;1.724090427160263E-001;-6.003705412149429E-002;-7.233332726173103E-004;2.137370873242617E-003;
2.418000000000000E+009;1.712050437927246E-001;-6.045095250010490E-002;-5.373352323658764E-004;2.131308196112514E-003;
2.418166666666667E+009;1.700380891561508E-001;-6.081112101674080E-002;-5.703817005269229E-004;2.410130342468619E-003;
2.418333333333334E+009;1.691275984048843E-001;-6.134349480271339E-002;-3.304366837255657E-004;2.459124196320772E-003;
2.418500000000000E+009;1.678067147731781E-001;-6.186778098344803E-002;-4.109560977667570E-004;2.555755199864507E-003;
2.418666666666667E+009;1.667237579822540E-001;-6.256729364395142E-002;-2.497043751645833E-004;2.597049809992313E-003;
2.418833333333334E+009;1.653123944997788E-001;-6.336570531129837E-002;-5.016893555875868E-005;2.596891717985272E-003;
2.419000000000000E+009;1.639680564403534E-001;-6.415139138698578E-002;1.900670613395050E-004;2.548572607338429E-003;
2.419166666666667E+009;1.628566384315491E-001;-6.493787467479706E-002;2.322565123904496E-004;2.615115605294704E-003;
2.419333333333334E+009;1.614254266023636E-001;-6.584702432155609E-002;2.848109870683402E-004;2.597132464870811E-003;
2.419500000000000E+009;1.602456867694855E-001;-6.712272763252258E-002;4.331145319156349E-004;2.666224725544453E-003;
2.419666666666667E+009;1.591846793889999E-001;-6.820506602525711E-002;4.381206817924976E-004;2.585298381745815E-003;
2.419833333333334E+009;1.579079926013947E-001;-6.914828717708588E-002;7.445841329172254E-004;2.661968115717173E-003;
2.420000000000000E+009;1.569507420063019E-001;-7.047717273235321E-002;8.472903864458203E-004;2.676795702427626E-003;
2.420166666666667E+009;1.557800918817520E-001;-7.183180749416351E-002;9.822420543059707E-004;2.728058258071542E-003;
2.420333333333334E+009;1.548230499029160E-001;-7.340279966592789E-002;1.174179953522980E-003;2.662580460309982E-003;
2.420500000000000E+009;1.539142578840256E-001;-7.454849034547806E-002;1.300718635320664E-003;2.624700311571360E-003;
2.420666666666667E+009;1.529327929019928E-001;-7.606887817382813E-002;1.374095794744790E-003;2.722685690969229E-003;
2.420833333333334E+009;1.521384119987488E-001;-7.771912962198257E-002;1.466795103624463E-003;2.513466635718942E-003;
2.421000000000000E+009;1.515442281961441E-001;-7.938019186258316E-002;1.641350681893528E-003;2.453689696267247E-003;
2.421166666666667E+009;1.509837955236435E-001;-8.086334913969040E-002;1.649745274335146E-003;2.390194917097688E-003;
2.421333333333334E+009;1.505612134933472E-001;-8.263178169727325E-002;1.815189723856747E-003;2.370985224843025E-003;
2.421500000000000E+009;1.500302404165268E-001;-8.420147746801376E-002;2.107895445078611E-003;2.139878692105413E-003;
2.421666666666667E+009;1.496869325637817E-001;-8.591694384813309E-002;2.008769428357482E-003;2.194333588704467E-003;
2.421833333333334E+009;1.494966447353363E-001;-8.774071186780930E-002;2.195396460592747E-003;2.070260932669044E-003;
2.422000000000000E+009;1.493313759565353E-001;-8.932328224182129E-002;2.236651955172420E-003;1.993126003071666E-003;
2.422166666666667E+009;1.491478085517883E-001;-9.145700931549072E-002;2.285431837663055E-003;2.003365196287632E-003;
2.422333333333334E+009;1.492873579263687E-001;-9.300968796014786E-002;2.454126253724098E-003;1.905270153656602E-003;
2.422500000000000E+009;1.492403000593185E-001;-9.439381211996079E-002;2.600705949589610E-003;1.665504067204893E-003;
2.422666666666667E+009;1.493526846170425E-001;-9.617609530687332E-002;2.483148593455553E-003;1.653689541853964E-003;
2.422833333333334E+009;1.498016864061356E-001;-9.797900170087814E-002;2.720583230257034E-003;1.508536748588085E-003;
2.423000000000000E+009;1.500430703163147E-001;-9.930757433176041E-002;2.631461946293712E-003;1.396006206050515E-003;
2.423166666666667E+009;1.505822390317917E-001;-1.009654775261879E-001;2.672558650374413E-003;1.328420243225992E-003;
2.423333333333334E+009;1.508177667856216E-001;-1.021661832928658E-001;3.015252295881510E-003;1.178677775897086E-003;
2.423500000000000E+009;1.512687504291534E-001;-1.036092191934586E-001;2.937372541055083E-003;1.142438966780901E-003;
2.423666666666667E+009;1.517059057950974E-001;-1.050399914383888E-001;2.753971144556999E-003;1.078693312592804E-003;
2.423833333333334E+009;1.523141115903854E-001;-1.064945012331009E-001;2.921417821198702E-003;6.827341858297586E-004;
2.424000000000000E+009;1.527778208255768E-001;-1.074496507644653E-001;2.941061276942492E-003;9.472813108004630E-004;
2.424166666666667E+009;1.533110439777374E-001;-1.085235774517059E-001;3.040956798940897E-003;7.277944823727012E-004;
2.424333333333334E+009;1.538967192173004E-001;-1.095078885555267E-001;3.059077775105834E-003;5.713904974982142E-004;
2.424500000000000E+009;1.544418931007385E-001;-1.105988845229149E-001;3.003687132149935E-003;4.459880001377314E-004;
2.424666666666667E+009;1.550520658493042E-001;-1.112234666943550E-001;3.077232046052814E-003;2.150171931134537E-004;
2.424833333333334E+009;1.552254110574722E-001;-1.121102347970009E-001;3.178383689373732E-003;3.264823462814093E-004;
2.425000000000000E+009;1.559444963932037E-001;-1.129467114806175E-001;3.204578533768654E-003;9.747199510456994E-005;
2.425166666666667E+009;1.560135632753372E-001;-1.134507209062576E-001;3.117515239864588E-003;-3.057001595152542E-005;
2.425333333333334E+009;1.565325707197189E-001;-1.140040084719658E-001;3.089066827669740E-003;-8.280692418338731E-005;
2.425500000000000E+009;1.567991077899933E-001;-1.146335154771805E-001;3.138863015919924E-003;-2.806021657306701E-004;
2.425666666666667E+009;1.568024158477783E-001;-1.149964556097984E-001;3.014576155692339E-003;-3.750337928067893E-004;
2.425833333333334E+009;1.571193486452103E-001;-1.153897792100906E-001;3.060942282900214E-003;-4.114664916414768E-004;
2.426000000000000E+009;1.571338325738907E-001;-1.156945675611496E-001;3.193782875314355E-003;-5.689414101652801E-004;
2.426166666666667E+009;1.574216187000275E-001;-1.160414069890976E-001;2.999340649694204E-003;-6.384502048604190E-004;
2.426333333333334E+009;1.572140604257584E-001;-1.162415593862534E-001;2.977677155286074E-003;-8.519668481312692E-004;
2.426500000000000E+009;1.570896953344345E-001;-1.163597479462624E-001;2.863848349079490E-003;-8.396506891585887E-004;
2.426666666666667E+009;1.568856090307236E-001;-1.163876950740814E-001;2.876742510125041E-003;-9.526662179268897E-004;
2.426833333333334E+009;1.563829481601715E-001;-1.165779381990433E-001;2.985530998557806E-003;-1.162149943411350E-003;
2.427000000000000E+009;1.559693217277527E-001;-1.167556419968605E-001;2.785766497254372E-003;-1.188614522106946E-003;
2.427166666666667E+009;1.553475260734558E-001;-1.167752370238304E-001;2.663967898115516E-003;-1.298536197282374E-003;
2.427333333333334E+009;1.545549780130386E-001;-1.168578341603279E-001;2.533104270696640E-003;-1.428635674528778E-003;
2.427500000000000E+009;1.539664119482040E-001;-1.171194836497307E-001;2.564085414633155E-003;-1.611454761587083E-003;
2.427666666666667E+009;1.530960351228714E-001;-1.171523705124855E-001;2.563303569331765E-003;-1.541161211207509E-003;
2.427833333333334E+009;1.519812196493149E-001;-1.172785460948944E-001;2.529911231249571E-003;-1.604669378139079E-003;
