# Version 1.00
#
freq[Hz];re:Trc1_S11;im:Trc1_S11;re:Trc2_S21;im:Trc2_S21;
2.400000000000000E+009;1.558752954006195E-001;6.007581576704979E-002;-4.265586845576763E-003;9.901343582896516E-005;
2.400166666666667E+009;1.560670286417007E-001;5.839574709534645E-002;-4.756521433591843E-003;2.714935981202871E-004;
2.400333333333334E+009;1.561703681945801E-001;5.629809945821762E-002;-4.609294235706329E-003;3.369227924849838E-004;
2.400500000000000E+009;1.562806814908981E-001;5.415717884898186E-002;-4.042616114020348E-003;4.224748990964145E-004;
2.400666666666667E+009;1.564804315567017E-001;5.194576084613800E-002;-3.944383002817631E-003;1.000470016151667E-003;
2.400833333333334E+009;1.568988561630249E-001;5.008153617382050E-002;-4.591598641127348E-003;1.165429828688502E-003;
2.401000000000000E+009;1.574382036924362E-001;4.804240167140961E-002;-4.441814962774515E-003;1.641206443309784E-003;
2.401166666666667E+009;1.577251702547073E-001;4.586982727050781E-002;-4.111733753234148E-003;1.378111192025244E-003;
2.401333333333334E+009;1.579235196113586E-001;4.369058087468147E-002;-4.033262375742197E-003;1.398461754433811E-003;
2.401500000000000E+009;1.587278097867966E-001;4.176289215683937E-002;-3.997737541794777E-003;1.399374334141612E-003;
2.401666666666667E+009;1.592867374420166E-001;3.985494002699852E-002;-3.784587373957038E-003;1.766445464454591E-003;
2.401833333333334E+009;1.602221131324768E-001;3.791254013776779E-002;-3.683119080960751E-003;2.046635141596198E-003;
2.402000000000000E+009;1.604824066162109E-001;3.626887127757072E-002;-3.712622914463282E-003;2.118795877322555E-003;
2.402166666666667E+009;1.613804847002029E-001;3.408242762088776E-002;-3.616927890107036E-003;2.414051443338394E-003;
2.402333333333334E+009;1.620643287897110E-001;3.241336718201637E-002;-3.454250283539295E-003;2.363762585446239E-003;
2.402500000000000E+009;1.632066667079926E-001;3.080339543521404E-002;-3.253054106608033E-003;2.616368234157562E-003;
2.402666666666667E+009;1.641163378953934E-001;2.938605472445488E-002;-3.016126109287143E-003;2.686141990125179E-003;
2.402833333333334E+009;1.649528741836548E-001;2.775206230580807E-002;-2.900358755141497E-003;2.658220008015633E-003;
2.403000000000000E+009;1.657550632953644E-001;2.629293501377106E-002;-2.808354794979096E-003;2.905423520132899E-003;
2.403166666666667E+009;1.667530834674835E-001;2.510484866797924E-002;-2.609389368444681E-003;2.931422553956509E-003;
2.403333333333334E+009;1.678529828786850E-001;2.382817491889000E-002;-2.642577514052391E-003;2.865911461412907E-003;
2.403500000000000E+009;1.687107682228088E-001;2.266747504472733E-002;-2.069608541205525E-003;3.034451277926564E-003;
2.403666666666667E+009;1.697161346673966E-001;2.149439603090286E-002;-2.142728073522449E-003;3.047384787350893E-003;
2.403833333333334E+009;1.708824783563614E-001;2.051806263625622E-002;-1.895590219646692E-003;3.027415834367275E-003;
2.404000000000000E+009;1.718415319919586E-001;1.970461942255497E-002;-1.715796417556703E-003;3.137840656563640E-003;
2.404166666666667E+009;1.726987212896347E-001;1.881374232470989E-002;-1.634388230741024E-003;3.335220040753484E-003;
2.404333333333334E+009;1.735639572143555E-001;1.793582364916802E-002;-1.397408894263208E-003;3.106201533228159E-003;
2.404500000000000E+009;1.743389666080475E-001;1.737910509109497E-002;-1.274478505365551E-003;3.125292016193271E-003;
2.404666666666667E+009;1.752352416515350E-001;1.664691232144833E-002;-1.231106580235064E-003;3.270452143624425E-003;
2.404833333333334E+009;1.759093552827835E-001;1.606771349906921E-002;-8.454774506390095E-004;3.084997879341245E-003;
2.405000000000000E+009;1.767574101686478E-001;1.562963612377644E-002;-9.306692518293858E-004;3.138033905997872E-003;
2.405166666666667E+009;1.772660911083221E-001;1.526888273656368E-002;-8.336319006048143E-004;3.045243443921208E-003;
2.405333333333334E+009;1.779195815324783E-001;1.477329898625612E-002;-6.070233066566289E-004;2.956317970529199E-003;
2.405500000000000E+009;1.783845871686935E-001;1.449631340801716E-002;-5.305757513269782E-004;2.952685113996267E-003;
2.405666666666667E+009;1.788963526487351E-001;1.428032852709293E-002;-4.521995724644512E-004;3.014515154063702E-003;
2.405833333333334E+009;1.791659295558929E-001;1.402178220450878E-002;-2.667212102096528E-004;2.728357911109924E-003;
2.406000000000000E+009;1.795589029788971E-001;1.356458105146885E-002;-6.428478809539229E-005;2.870899625122547E-003;
2.406166666666667E+009;1.795956492424011E-001;1.345790363848209E-002;1.283374513150193E-005;2.619076520204544E-003;
2.406333333333334E+009;1.799411475658417E-001;1.315160840749741E-002;1.238125114468858E-004;2.652116818353534E-003;
2.406500000000000E+009;1.799838691949844E-001;1.281208451837301E-002;-2.105357125401497E-004;2.447029575705528E-003;
2.406666666666667E+009;1.795030385255814E-001;1.262238714843988E-002;1.618915557628498E-004;2.538805827498436E-003;
2.406833333333334E+009;1.796504706144333E-001;1.221057679504156E-002;2.999017888214439E-004;2.449177438393235E-003;
2.407000000000000E+009;1.795857399702072E-001;1.189031917601824E-002;3.590002597775310E-004;2.316891681402922E-003;
2.407166666666667E+009;1.794170588254929E-001;1.152757368981838E-002;5.496301455423236E-004;2.213981468230486E-003;
2.407333333333334E+009;1.789624243974686E-001;1.093342341482639E-002;4.159499949309975E-004;2.257446059957147E-003;
2.407500000000000E+009;1.785449832677841E-001;1.045081950724125E-002;5.826147389598191E-004;2.127267885953188E-003;
2.407666666666667E+009;1.781132966279984E-001;9.920799173414707E-003;5.407913122326136E-004;2.188111422583461E-003;
2.407833333333334E+009;1.775149703025818E-001;9.093947708606720E-003;5.807581474073231E-004;1.976798055693507E-003;
2.408000000000000E+009;1.769374758005142E-001;8.162714540958405E-003;7.357444264926016E-004;2.156806644052267E-003;
2.408166666666667E+009;1.763577461242676E-001;7.484790869057179E-003;7.005647639743984E-004;1.887089223600924E-003;
2.408333333333334E+009;1.760127544403076E-001;6.576647516340017E-003;7.351391250267625E-004;1.896564150229096E-003;
2.408500000000000E+009;1.751736849546433E-001;5.424152594059706E-003;8.825554396025837E-004;1.941943541169167E-003;
2.408666666666667E+009;1.745693832635880E-001;4.310599993914366E-003;8.664994384162128E-004;1.668825047090650E-003;
2.408833333333334E+009;1.736711710691452E-001;3.058307571336627E-003;9.684298420324922E-004;1.805705833248794E-003;
2.409000000000000E+009;1.730441898107529E-001;1.856866758316755E-003;1.073569757863879E-003;1.378443324938417E-003;
2.409166666666667E+009;1.723697930574417E-001;2.505570009816438E-004;1.040034811012447E-003;1.398086082190275E-003;
2.409333333333334E+009;1.717853397130966E-001;-1.062261289916933E-003;1.006331527605653E-003;1.301045762374997E-003;
2.409500000000000E+009;1.710008680820465E-001;-2.686837688088417E-003;9.340681135654450E-004;1.346675329841673E-003;
2.409666666666667E+009;1.704918146133423E-001;-4.303179215639830E-003;1.077554654330015E-003;1.291463151574135E-003;
2.409833333333334E+009;1.696805655956268E-001;-5.910383537411690E-003;9.969226084649563E-004;1.256930758245289E-003;
2.410000000000000E+009;1.693259179592133E-001;-7.644453085958958E-003;1.092717400752008E-003;1.150238560512662E-003;
2.410166666666667E+009;1.687342673540115E-001;-9.368069469928742E-003;1.110041164793074E-003;1.014811219647527E-003;
2.410333333333334E+009;1.683557182550430E-001;-1.132134906947613E-002;1.335274311713874E-003;1.005255617201328E-003;
2.410500000000000E+009;1.679534763097763E-001;-1.305901817977428E-002;1.074296887964010E-003;8.442868711426854E-004;
2.410666666666667E+009;1.677358746528626E-001;-1.515785045921803E-002;1.188752008602023E-003;6.782147102057934E-004;
2.410833333333334E+009;1.673748195171356E-001;-1.706358045339584E-002;1.144990208558738E-003;7.356812129728496E-004;
2.411000000000000E+009;1.672706753015518E-001;-1.892564073204994E-002;1.154587604105473E-003;6.196787580847740E-004;
2.411166666666667E+009;1.671648621559143E-001;-2.101806551218033E-002;1.196726574562490E-003;5.805445834994316E-004;
2.411333333333334E+009;1.672377437353134E-001;-2.277149446308613E-002;1.111524878069758E-003;3.502068284433335E-004;
2.411500000000000E+009;1.671975106000900E-001;-2.506579086184502E-002;1.171498326584697E-003;2.850125310942531E-004;
2.411666666666667E+009;1.675280183553696E-001;-2.706367522478104E-002;1.062939641997218E-003;2.547451585996896E-004;
2.411833333333334E+009;1.676487624645233E-001;-2.877290360629559E-002;9.141211630776525E-004;8.748638720135205E-006;
2.412000000000000E+009;1.680355072021484E-001;-3.065751865506172E-002;9.673927561379969E-004;3.061799361603335E-006;
2.412166666666667E+009;1.682892292737961E-001;-3.270071372389793E-002;8.452035253867507E-004;-6.523605406982824E-005;
2.412333333333334E+009;1.690385192632675E-001;-3.432748094201088E-002;8.797924383543432E-004;-1.017755348584615E-004;
2.412500000000000E+009;1.691238880157471E-001;-3.607964143157005E-002;7.308892090804875E-004;-2.752885920926929E-004;
2.412666666666667E+009;1.697687953710556E-001;-3.806328773498535E-002;5.423684488050640E-004;-3.220279177185148E-004;
2.412833333333334E+009;1.704936772584915E-001;-3.971036896109581E-002;4.394362913444638E-004;-3.942003822885454E-004;
2.413000000000000E+009;1.709083765745163E-001;-4.145867377519608E-002;4.664107109420002E-004;-4.766552883666009E-004;
2.413166666666667E+009;1.716124117374420E-001;-4.307516291737557E-002;3.544212086126208E-004;-4.564379341900349E-004;
2.413333333333334E+009;1.721899062395096E-001;-4.450194165110588E-002;2.080928388750181E-004;-4.415750445332378E-004;
2.413500000000000E+009;1.727040410041809E-001;-4.595435038208962E-002;8.839320071274415E-005;-5.851805326528847E-004;
2.413666666666667E+009;1.736547648906708E-001;-4.721574485301971E-002;-4.464549783733673E-005;-4.519628710113466E-004;
2.413833333333334E+009;1.742516607046127E-001;-4.855784401297569E-002;-2.291615819558501E-004;-4.399306199047715E-004;
2.414000000000000E+009;1.747018098831177E-001;-4.975113272666931E-002;-2.924926520790905E-004;-6.731473258696497E-004;
2.414166666666667E+009;1.754373610019684E-001;-5.072667822241783E-002;-2.403954422334209E-004;-4.661908315028995E-004;
2.414333333333334E+009;1.760823279619217E-001;-5.193223059177399E-002;-6.405727472156286E-004;-3.611790889408439E-004;
2.414500000000000E+009;1.767110675573349E-001;-5.271480605006218E-002;-5.768276168964803E-004;-3.141675842925906E-004;
2.414666666666667E+009;1.771014332771301E-001;-5.350417643785477E-002;-7.545413100160658E-004;-3.197607293259352E-004;
2.414833333333334E+009;1.773948818445206E-001;-5.430393293499947E-002;-8.732934948056936E-004;-2.743443765211850E-004;
2.415000000000000E+009;1.780090928077698E-001;-5.495952442288399E-002;-8.749255212023854E-004;-9.638053597882390E-005;
2.415166666666667E+009;1.782740503549576E-001;-5.561344325542450E-002;-1.097649917937815E-003;1.534209513920359E-005;
2.415333333333334E+009;1.786378771066666E-001;-5.601158738136292E-002;-1.309569925069809E-003;1.206659144372679E-004;
2.415500000000000E+009;1.787510067224503E-001;-5.640628188848496E-002;-1.307279453612864E-003;2.798123168759048E-004;
2.415666666666667E+009;1.789121925830841E-001;-5.673201382160187E-002;-1.367185264825821E-003;4.588313167914748E-004;
2.415833333333334E+009;1.789202243089676E-001;-5.717056989669800E-002;-1.374497427605093E-003;6.566146039403975E-004;
2.416000000000000E+009;1.787262856960297E-001;-5.747369676828384E-002;-1.428779447451234E-003;5.827475106343627E-004;
2.416166666666667E+009;1.787593066692352E-001;-5.780917406082153E-002;-1.355298329144716E-003;9.142397320829332E-004;
2.416333333333334E+009;1.785330921411514E-001;-5.780779570341110E-002;-1.388533040881157E-003;1.142848981544375E-003;
2.416500000000000E+009;1.781974881887436E-001;-5.807859078049660E-002;-1.407592673785985E-003;1.181736472062767E-003;
2.416666666666667E+009;1.776711046695709E-001;-5.825717747211456E-002;-1.157197635620832E-003;1.405089511536062E-003;
2.416833333333334E+009;1.772148013114929E-001;-5.855675414204598E-002;-1.136142876930535E-003;1.371242920868099E-003;
2.417000000000000E+009;1.764190196990967E-001;-5.863306671380997E-002;-1.112741651013494E-003;1.671055098995566E-003;
2.417166666666667E+009;1.758618652820587E-001;-5.876873061060906E-002;-1.145103131420910E-003;1.846374128945172E-003;
2.417333333333334E+009;1.750677973031998E-001;-5.909138172864914E-002;-1.035653636790812E-003;1.822082092985511E-003;
2.417500000000000E+009;1.742586344480515E-001;-5.944182723760605E-002;-8.452026522718370E-004;2.107617910951376E-003;
2.417666666666667E+009;1.734653115272522E-001;-5.962660536170006E-002;-7.563731633126736E-004;2.168012782931328E-003;
2.417833333333334E+009;1.723361462354660E-001;-5.999286472797394E-002;-7.595033966936171E-004;2.053195843473077E-003;
2.418000000000000E+009;1.712201386690140E-001;-6.061057746410370E-002;-7.528383284807205E-004;2.329891780391336E-003;
2.418166666666667E+009;1.700805276632309E-001;-6.081154942512512E-002;-5.722490604966879E-004;2.332691568881273E-003;
2.418333333333334E+009;1.691250354051590E-001;-6.143978610634804E-002;-3.899828589055687E-004;2.455447800457478E-003;
2.418500000000000E+009;1.678319573402405E-001;-6.195043027400971E-002;-2.234343992313370E-004;2.471969695761800E-003;
2.418666666666667E+009;1.666706949472427E-001;-6.279805302619934E-002;-2.112656802637503E-004;2.505565527826548E-003;
2.418833333333334E+009;1.653337776660919E-001;-6.348092854022980E-002;4.970046938979067E-005;2.608833368867636E-003;
2.419000000000000E+009;1.639134734869003E-001;-6.412237137556076E-002;2.300359119544737E-005;2.480296883732081E-003;
2.419166666666667E+009;1.628566831350327E-001;-6.504987180233002E-002;2.454490750096738E-004;2.645813394337893E-003;
2.419333333333334E+009;1.614307165145874E-001;-6.591039896011353E-002;2.992075751535595E-004;2.726634964346886E-003;
2.419500000000000E+009;1.601548790931702E-001;-6.703240424394608E-002;4.747904604300857E-004;2.631873358041048E-003;
2.419666666666667E+009;1.590762734413147E-001;-6.816687434911728E-002;5.119051202200353E-004;2.725548343732953E-003;
2.419833333333334E+009;1.578717827796936E-001;-6.936352699995041E-002;8.313821745105088E-004;2.679173834621906E-003;
2.420000000000000E+009;1.567816287279129E-001;-7.040502130985260E-002;8.225428173318505E-004;2.663584891706705E-003;
2.420166666666667E+009;1.558127701282501E-001;-7.185364514589310E-002;9.838782716542482E-004;2.924017608165741E-003;
2.420333333333334E+009;1.548773050308228E-001;-7.341846823692322E-002;1.094333129003644E-003;2.596130361780524E-003;
2.420500000000000E+009;1.538989245891571E-001;-7.463428378105164E-002;1.118698855862021E-003;2.544142538681626E-003;
2.420666666666667E+009;1.530368328094482E-001;-7.606381177902222E-002;1.321557792834938E-003;2.748009515926242E-003;
2.420833333333334E+009;1.522125750780106E-001;-7.760766893625259E-002;1.473651267588139E-003;2.525551244616509E-003;
2.421000000000000E+009;1.514596492052078E-001;-7.943706959486008E-002;1.663108472712338E-003;2.432313282042742E-003;
2.421166666666667E+009;1.509318053722382E-001;-8.094592392444611E-002;1.841522287577391E-003;2.353889402002096E-003;
2.421333333333334E+009;1.505888253450394E-001;-8.270140737295151E-002;1.650482183322310E-003;2.490400569513440E-003;
2.421500000000000E+009;1.499064266681671E-001;-8.426320552825928E-002;2.029833383858204E-003;2.256134757772088E-003;
2.421666666666667E+009;1.496410369873047E-001;-8.609205484390259E-002;2.003448549658060E-003;2.200000919401646E-003;
2.421833333333334E+009;1.495948880910873E-001;-8.767982572317123E-002;2.238593297079206E-003;2.198212547227740E-003;
2.422000000000000E+009;1.493328213691711E-001;-8.950558304786682E-002;2.259805332869291E-003;1.936997170560062E-003;
2.422166666666667E+009;1.492499858140945E-001;-9.120811522006989E-002;2.242194022983313E-003;1.983217662200332E-003;
2.422333333333334E+009;1.491621881723404E-001;-9.278962016105652E-002;2.526283264160156E-003;1.817961572669447E-003;
2.422500000000000E+009;1.492990255355835E-001;-9.450753033161163E-002;2.583260647952557E-003;1.623505610041320E-003;
2.422666666666667E+009;1.494679898023605E-001;-9.619570523500443E-002;2.613874617964029E-003;1.618309994228184E-003;
2.422833333333334E+009;1.497133672237396E-001;-9.782706201076508E-002;2.762761432677507E-003;1.524203340522945E-003;
2.423000000000000E+009;1.500872075557709E-001;-9.930406510829926E-002;2.670682268217206E-003;1.396937645040453E-003;
2.423166666666667E+009;1.503740251064301E-001;-1.009130850434303E-001;2.838127780705690E-003;1.199160818941891E-003;
2.423333333333334E+009;1.509802788496018E-001;-1.022398844361305E-001;2.805386204272509E-003;1.106780953705311E-003;
2.423500000000000E+009;1.513887792825699E-001;-1.037017330527306E-001;2.915015909820795E-003;1.278749317862093E-003;
2.423666666666667E+009;1.516288816928864E-001;-1.051371619105339E-001;3.005539067089558E-003;1.147083472460508E-003;
2.423833333333334E+009;1.523357927799225E-001;-1.064128875732422E-001;3.035017522051930E-003;9.541381150484085E-004;
2.424000000000000E+009;1.527644842863083E-001;-1.074936836957932E-001;2.931755268946290E-003;7.714449893683195E-004;
2.424166666666667E+009;1.533065587282181E-001;-1.087222844362259E-001;3.030195133760572E-003;5.871403263881803E-004;
2.424333333333334E+009;1.539509594440460E-001;-1.096413806080818E-001;3.146694274619222E-003;5.414722254499793E-004;
2.424500000000000E+009;1.544146239757538E-001;-1.106636002659798E-001;3.081704024225473E-003;2.620845916680992E-004;
2.424666666666667E+009;1.549667119979858E-001;-1.113820299506187E-001;3.164594061672688E-003;2.007020666496828E-004;
2.424833333333334E+009;1.551994979381561E-001;-1.122333705425263E-001;3.027815138921142E-003;-4.244722731527872E-005;
2.425000000000000E+009;1.558264493942261E-001;-1.129342913627625E-001;2.991544315591455E-003;-5.254369170870632E-005;
2.425166666666667E+009;1.560030579566956E-001;-1.136019676923752E-001;3.096432425081730E-003;-2.448827144689858E-004;
2.425333333333334E+009;1.564788520336151E-001;-1.141226366162300E-001;3.177959704771638E-003;-2.875735517591238E-004;
2.425500000000000E+009;1.568331122398377E-001;-1.147074624896050E-001;3.147869603708386E-003;-4.543939139693975E-004;
2.425666666666667E+009;1.568961143493652E-001;-1.149741634726524E-001;3.021996235474944E-003;-4.586862341966480E-004;
2.425833333333334E+009;1.571793407201767E-001;-1.155379936099052E-001;3.005676669999957E-003;-6.761862314306200E-004;
2.426000000000000E+009;1.571514308452606E-001;-1.157953441143036E-001;3.125552786514163E-003;-6.986052612774074E-004;
2.426166666666667E+009;1.573389619588852E-001;-1.160362884402275E-001;2.873728051781654E-003;-7.140294765122235E-004;
2.426333333333334E+009;1.570964902639389E-001;-1.161880195140839E-001;2.903926419094205E-003;-1.026400132104754E-003;
2.426500000000000E+009;1.570146381855011E-001;-1.163656190037727E-001;2.953236456960440E-003;-9.427808108739555E-004;
2.426666666666667E+009;1.569642573595047E-001;-1.163791567087174E-001;2.877567196264863E-003;-1.080717542208731E-003;
2.426833333333334E+009;1.564220041036606E-001;-1.164895817637444E-001;2.858653431758285E-003;-1.369596924632788E-003;
2.427000000000000E+009;1.558125615119934E-001;-1.168211922049522E-001;2.744535449892283E-003;-1.223634695634246E-003;
2.427166666666667E+009;1.554140597581863E-001;-1.167760789394379E-001;2.726541133597493E-003;-1.381245558150113E-003;
2.427333333333334E+009;1.546274721622467E-001;-1.169036552309990E-001;2.631168812513351E-003;-1.527847023680806E-003;
2.427500000000000E+009;1.539817005395889E-001;-1.168843284249306E-001;2.640702528879046E-003;-1.502456958405674E-003;
2.427666666666667E+009;1.531401723623276E-001;-1.172111481428146E-001;2.542353700846434E-003;-1.617318834178150E-003;
2.427833333333334E+009;1.520494073629379E-001;-1.172828078269959E-001;2.448579063639045E-003;-1.506933011114597E-003;
