# Version 1.00
#
freq[Hz];re:Trc1_S11;im:Trc1_S11;re:Trc2_S21;im:Trc2_S21;
2.400000000000000E+009;1.560280919075012E-001;5.991215631365776E-002;-4.395240452140570E-003;2.868118463084102E-004;
2.400166666666667E+009;1.560335308313370E-001;5.827337130904198E-002;-4.512798972427845E-003;3.870760556310415E-004;
2.400333333333334E+009;1.561173945665360E-001;5.619418621063232E-002;-4.431126173585653E-003;4.559758817777038E-004;
2.400500000000000E+009;1.563563644886017E-001;5.402349680662155E-002;-4.359089303761721E-003;5.624388577416539E-004;
2.400666666666667E+009;1.566288918256760E-001;5.210491269826889E-002;-4.346656613051891E-003;8.442548569291830E-004;
2.400833333333334E+009;1.571521311998367E-001;5.014461278915405E-002;-4.358889535069466E-003;1.118980580940843E-003;
2.401000000000000E+009;1.573045402765274E-001;4.796804487705231E-002;-4.348989576101303E-003;1.198466634377837E-003;
2.401166666666667E+009;1.577158719301224E-001;4.590939357876778E-002;-4.137145821005106E-003;1.346372999250889E-003;
2.401333333333334E+009;1.581726074218750E-001;4.372512549161911E-002;-3.890115302056074E-003;1.535759074613452E-003;
2.401500000000000E+009;1.588730663061142E-001;4.182549938559532E-002;-3.900810610502958E-003;1.793756382539868E-003;
2.401666666666667E+009;1.593700349330902E-001;3.992507234215736E-002;-3.974014427512884E-003;1.736838952638209E-003;
2.401833333333334E+009;1.600628048181534E-001;3.771751001477242E-002;-3.887966508045793E-003;2.027318812906742E-003;
2.402000000000000E+009;1.607255041599274E-001;3.622009977698326E-002;-3.814255585893989E-003;2.051139716058970E-003;
2.402166666666667E+009;1.614330857992172E-001;3.409326449036598E-002;-3.512470982968807E-003;2.340407809242606E-003;
2.402333333333334E+009;1.621096581220627E-001;3.250943124294281E-002;-3.382827853783965E-003;2.552758203819394E-003;
2.402500000000000E+009;1.632544845342636E-001;3.080593049526215E-002;-3.298213705420494E-003;2.643943065777421E-003;
2.402666666666667E+009;1.639749705791473E-001;2.934856340289116E-002;-3.156068734824657E-003;2.665224717929959E-003;
2.402833333333334E+009;1.649134159088135E-001;2.797467447817326E-002;-2.946020103991032E-003;2.866016933694482E-003;
2.403000000000000E+009;1.658491045236588E-001;2.628879807889462E-002;-2.684475388377905E-003;2.886820584535599E-003;
2.403166666666667E+009;1.669375598430634E-001;2.496187202632427E-002;-2.599434461444616E-003;3.045086981728673E-003;
2.403333333333334E+009;1.678868085145950E-001;2.388143166899681E-002;-2.401597565039992E-003;3.061000956222415E-003;
2.403500000000000E+009;1.686871349811554E-001;2.281474135816097E-002;-2.206435427069664E-003;3.160228254273534E-003;
2.403666666666667E+009;1.696777343750000E-001;2.163571864366531E-002;-1.970558892935515E-003;3.054715925827622E-003;
2.403833333333334E+009;1.708058565855026E-001;2.061382867395878E-002;-1.914554857648909E-003;3.338902955874801E-003;
2.404000000000000E+009;1.717335432767868E-001;1.976423896849155E-002;-1.520202611573041E-003;3.128275275230408E-003;
2.404166666666667E+009;1.726672351360321E-001;1.871171593666077E-002;-1.733627635985613E-003;3.276046365499497E-003;
2.404333333333334E+009;1.735196113586426E-001;1.801797002553940E-002;-1.305341720581055E-003;3.082628594711423E-003;
2.404500000000000E+009;1.743177026510239E-001;1.746503636240959E-002;-1.209542737342417E-003;3.148317802697420E-003;
2.404666666666667E+009;1.752885282039642E-001;1.673436537384987E-002;-1.176789985038340E-003;3.142613684758544E-003;
2.404833333333334E+009;1.759690344333649E-001;1.624321565032005E-002;-8.915468933992088E-004;3.012403147295117E-003;
2.405000000000000E+009;1.767666339874268E-001;1.575946621596813E-002;-7.432703278027475E-004;3.237573895603418E-003;
2.405166666666667E+009;1.774228215217590E-001;1.533182431012392E-002;-7.028526742942631E-004;3.010126994922757E-003;
2.405333333333334E+009;1.780244708061218E-001;1.480267848819494E-002;-5.280692712403834E-004;2.948175650089979E-003;
2.405500000000000E+009;1.786172240972519E-001;1.458636578172445E-002;-4.693280789069831E-004;2.989837899804115E-003;
2.405666666666667E+009;1.789561808109283E-001;1.420180965214968E-002;-2.202661853516474E-004;2.746904734522104E-003;
2.405833333333334E+009;1.791978180408478E-001;1.407232042402029E-002;-2.249145327368751E-004;2.632223069667816E-003;
2.406000000000000E+009;1.796228438615799E-001;1.359555311501026E-002;-1.299211144214496E-004;2.685281913727522E-003;
2.406166666666667E+009;1.796361654996872E-001;1.356081105768681E-002;7.587628715555184E-006;2.648652298375964E-003;
2.406333333333334E+009;1.800563633441925E-001;1.317760068923235E-002;8.160049765137956E-005;2.581339795142412E-003;
2.406500000000000E+009;1.799910217523575E-001;1.281877886503935E-002;2.413099718978629E-004;2.523427596315742E-003;
2.406666666666667E+009;1.798001229763031E-001;1.250131428241730E-002;3.420948632992804E-004;2.315621590241790E-003;
2.406833333333334E+009;1.797862201929092E-001;1.231919322162867E-002;3.526932559907436E-004;2.322406042367220E-003;
2.407000000000000E+009;1.795241832733154E-001;1.196893118321896E-002;3.815631498582661E-004;2.230789512395859E-003;
2.407166666666667E+009;1.795226931571960E-001;1.149624679237604E-002;4.901986685581505E-004;2.223978750407696E-003;
2.407333333333334E+009;1.790294051170349E-001;1.082949526607990E-002;4.118523793295026E-004;2.216648776084185E-003;
2.407500000000000E+009;1.786170452833176E-001;1.042902842164040E-002;5.730447592213750E-004;2.168114529922605E-003;
2.407666666666667E+009;1.781471669673920E-001;9.833178482949734E-003;5.849350127391517E-004;2.118393778800964E-003;
2.407833333333334E+009;1.774936914443970E-001;8.983229286968708E-003;7.087623234838247E-004;2.170329680666328E-003;
2.408000000000000E+009;1.769922673702240E-001;8.223508484661579E-003;6.248748977668583E-004;1.965163508430123E-003;
2.408166666666667E+009;1.763378381729126E-001;7.517527788877487E-003;6.567186210304499E-004;1.931140897795558E-003;
2.408333333333334E+009;1.759727746248245E-001;6.503240205347538E-003;8.050656761042774E-004;1.816952135413885E-003;
2.408500000000000E+009;1.751576066017151E-001;5.391373299062252E-003;9.079009760171175E-004;1.810845453292131E-003;
2.408666666666667E+009;1.744772791862488E-001;4.247887991368771E-003;8.307251264341176E-004;1.802675658836961E-003;
2.408833333333334E+009;1.736336499452591E-001;3.051085863262415E-003;9.453513193875551E-004;1.683040056377649E-003;
2.409000000000000E+009;1.730139702558518E-001;1.843874575570226E-003;9.824479930102825E-004;1.522445352748036E-003;
2.409166666666667E+009;1.724380403757095E-001;4.571913741528988E-004;9.644018718972802E-004;1.552344183437526E-003;
2.409333333333334E+009;1.718028187751770E-001;-1.079246285371482E-003;1.046058139763773E-003;1.491894247010350E-003;
2.409500000000000E+009;1.710606217384338E-001;-2.703266683965921E-003;9.393415530212224E-004;1.327860867604613E-003;
2.409666666666667E+009;1.703244596719742E-001;-4.220160190016031E-003;1.048014150001109E-003;1.397629035636783E-003;
2.409833333333334E+009;1.697685718536377E-001;-5.978236906230450E-003;1.084964256733656E-003;1.292695058509708E-003;
2.410000000000000E+009;1.694447845220566E-001;-7.570366375148296E-003;1.244498766027391E-003;1.303762430325151E-003;
2.410166666666667E+009;1.689304858446121E-001;-9.378840215504170E-003;1.233662478625774E-003;1.123621710576117E-003;
2.410333333333334E+009;1.683955788612366E-001;-1.125919912010431E-002;1.113300910219550E-003;9.924749610945582E-004;
2.410500000000000E+009;1.681091338396072E-001;-1.297277398407459E-002;1.297819660976529E-003;8.233778644353151E-004;
2.410666666666667E+009;1.676882058382034E-001;-1.509690377861261E-002;1.096234424039722E-003;8.241294417530298E-004;
2.410833333333334E+009;1.675181239843369E-001;-1.702599041163921E-002;1.237955293618143E-003;6.736313807778060E-004;
2.411000000000000E+009;1.672450900077820E-001;-1.885746791958809E-002;1.240005367435515E-003;6.250574951991439E-004;
2.411166666666667E+009;1.672541350126267E-001;-2.101574651896954E-002;1.214526360854507E-003;3.140397893730551E-004;
2.411333333333334E+009;1.673366874456406E-001;-2.279350161552429E-002;1.129402429796755E-003;4.968176363036037E-004;
2.411500000000000E+009;1.671788543462753E-001;-2.506383694708347E-002;1.049819751642644E-003;4.175492213107646E-004;
2.411666666666667E+009;1.676736176013947E-001;-2.687387913465500E-002;1.178068574517965E-003;1.542404643259943E-004;
2.411833333333334E+009;1.676960289478302E-001;-2.876495569944382E-002;1.055550645105541E-003;2.550063945818692E-004;
2.412000000000000E+009;1.680361628532410E-001;-3.078081272542477E-002;9.321647230535746E-004;1.617135421838611E-004;
2.412166666666667E+009;1.682871282100678E-001;-3.255487605929375E-002;8.333469158969820E-004;1.224635780090466E-004;
2.412333333333334E+009;1.690531820058823E-001;-3.445393592119217E-002;7.402699557133019E-004;-2.091309288516641E-004;
2.412500000000000E+009;1.692370325326920E-001;-3.630411624908447E-002;8.237424190156162E-004;-2.083346334984526E-004;
2.412666666666667E+009;1.698125749826431E-001;-3.810968250036240E-002;7.042677607387304E-004;-4.103524552192539E-004;
2.412833333333334E+009;1.705536395311356E-001;-3.975603729486466E-002;6.556896260008216E-004;-4.924371605738998E-004;
2.413000000000000E+009;1.709576398134232E-001;-4.131320863962174E-002;4.209283215459436E-004;-3.865389735437930E-004;
2.413166666666667E+009;1.716667264699936E-001;-4.290498048067093E-002;3.654497850220650E-004;-5.255918949842453E-004;
2.413333333333334E+009;1.722363382577896E-001;-4.453712701797485E-002;1.394453574903309E-004;-5.057252128608525E-004;
2.413500000000000E+009;1.728257089853287E-001;-4.596893116831780E-002;1.352465624222532E-004;-5.346531979739666E-004;
2.413666666666667E+009;1.738010793924332E-001;-4.732384160161018E-002;5.973880251985975E-005;-5.069517646916211E-004;
2.413833333333334E+009;1.742709875106812E-001;-4.858777672052383E-002;-1.102393071050756E-004;-6.019148859195411E-004;
2.414000000000000E+009;1.746695339679718E-001;-4.983746260404587E-002;-2.506586897652596E-004;-4.756605194415897E-004;
2.414166666666667E+009;1.753631830215454E-001;-5.085832998156548E-002;-3.974476130679250E-004;-4.757215501740575E-004;
2.414333333333334E+009;1.759989112615585E-001;-5.176617950201035E-002;-6.509398226626217E-004;-3.325659781694412E-004;
2.414500000000000E+009;1.766790002584457E-001;-5.278544500470161E-002;-6.999932811595500E-004;-4.606955044437200E-004;
2.414666666666667E+009;1.771138906478882E-001;-5.350809171795845E-002;-7.558497600257397E-004;-4.205105942673981E-004;
2.414833333333334E+009;1.774933785200119E-001;-5.432398244738579E-002;-7.347601931542158E-004;-1.058375346474350E-004;
2.415000000000000E+009;1.779350191354752E-001;-5.490124225616455E-002;-1.023807562887669E-003;-1.840292534325272E-004;
2.415166666666667E+009;1.781035810709000E-001;-5.547345057129860E-002;-1.096766092814505E-003;-2.794845931930468E-005;
2.415333333333334E+009;1.785417199134827E-001;-5.613160133361816E-002;-1.190615701489151E-003;1.323127507930622E-004;
2.415500000000000E+009;1.788325607776642E-001;-5.651592090725899E-002;-1.265058410353959E-003;1.931897131726146E-004;
2.415666666666667E+009;1.788090467453003E-001;-5.676899105310440E-002;-1.353757572360337E-003;4.338937578722835E-004;
2.415833333333334E+009;1.789546608924866E-001;-5.716083571314812E-002;-1.392479403875768E-003;4.767046775668860E-004;
2.416000000000000E+009;1.787425279617310E-001;-5.743553489446640E-002;-1.255705254152417E-003;7.131788879632950E-004;
2.416166666666667E+009;1.788196414709091E-001;-5.769047513604164E-002;-1.507900538854301E-003;8.055835496634245E-004;
2.416333333333334E+009;1.783728748559952E-001;-5.785199999809265E-002;-1.447607530280948E-003;8.819216745905578E-004;
2.416500000000000E+009;1.782197505235672E-001;-5.814111232757568E-002;-1.299180672504008E-003;1.147065078839660E-003;
2.416666666666667E+009;1.776461899280548E-001;-5.828003585338593E-002;-1.310018007643521E-003;1.176792546175420E-003;
2.416833333333334E+009;1.773241311311722E-001;-5.859724059700966E-002;-1.158543280325830E-003;1.358801266178489E-003;
2.417000000000000E+009;1.764089018106461E-001;-5.883390456438065E-002;-1.089472440071404E-003;1.487270230427384E-003;
2.417166666666667E+009;1.757828146219254E-001;-5.897390469908714E-002;-1.225665560923517E-003;1.782226725481451E-003;
2.417333333333334E+009;1.751540899276733E-001;-5.899878218770027E-002;-1.137105864472687E-003;1.943174400366843E-003;
2.417500000000000E+009;1.742273420095444E-001;-5.951550975441933E-002;-9.218725608661771E-004;1.964977243915200E-003;
2.417666666666667E+009;1.732703745365143E-001;-5.966270342469215E-002;-8.960649720393121E-004;1.964846625924110E-003;
2.417833333333334E+009;1.722593605518341E-001;-5.998268350958824E-002;-7.630261243321002E-004;2.276745857670903E-003;
2.418000000000000E+009;1.711077094078064E-001;-6.051873788237572E-002;-4.949053982272744E-004;2.186133759096265E-003;
2.418166666666667E+009;1.701215505599976E-001;-6.086373329162598E-002;-5.470889154821634E-004;2.349252812564373E-003;
2.418333333333334E+009;1.690820902585983E-001;-6.130327656865120E-002;-3.315521753393114E-004;2.386106410995126E-003;
2.418500000000000E+009;1.677263528108597E-001;-6.195814907550812E-002;-2.273152931593359E-004;2.372548449784517E-003;
2.418666666666667E+009;1.667513996362686E-001;-6.265906989574432E-002;-2.225861244369298E-004;2.468894934281707E-003;
2.418833333333334E+009;1.651982069015503E-001;-6.344736367464066E-002;-7.519019709434360E-005;2.636347198858857E-003;
2.419000000000000E+009;1.639349907636643E-001;-6.409441679716110E-002;-7.854295108700171E-005;2.534458879381418E-003;
2.419166666666667E+009;1.627511978149414E-001;-6.501695513725281E-002;1.473306765547022E-004;2.661683131009340E-003;
2.419333333333334E+009;1.612902581691742E-001;-6.591206043958664E-002;3.346944286022335E-004;2.698456170037389E-003;
2.419500000000000E+009;1.602577269077301E-001;-6.706923991441727E-002;3.351792111061513E-004;2.557485830038786E-003;
2.419666666666667E+009;1.591777503490448E-001;-6.817456334829330E-002;6.530964747071266E-004;2.654810901731253E-003;
2.419833333333334E+009;1.579196453094482E-001;-6.909787654876709E-002;7.834643474780023E-004;2.629105467349291E-003;
2.420000000000000E+009;1.569086909294128E-001;-7.042045891284943E-002;9.114772547036409E-004;2.679798053577542E-003;
2.420166666666667E+009;1.556629687547684E-001;-7.185062766075134E-002;1.020526397041977E-003;2.664951840415597E-003;
2.420333333333334E+009;1.548515707254410E-001;-7.340706884860992E-002;1.120789092965424E-003;2.606456167995930E-003;
2.420500000000000E+009;1.540704071521759E-001;-7.458951324224472E-002;1.309789950028062E-003;2.691766014322639E-003;
2.420666666666667E+009;1.529566198587418E-001;-7.604210823774338E-002;1.327066915109754E-003;2.725884318351746E-003;
2.420833333333334E+009;1.523399502038956E-001;-7.768147438764572E-002;1.541851204819977E-003;2.578201238065958E-003;
2.421000000000000E+009;1.516191363334656E-001;-7.937462627887726E-002;1.778281643055379E-003;2.633010968565941E-003;
2.421166666666667E+009;1.510231643915176E-001;-8.088590204715729E-002;1.682247035205364E-003;2.468963619321585E-003;
2.421333333333334E+009;1.505881696939468E-001;-8.268689364194870E-002;1.897220965474844E-003;2.509952988475561E-003;
2.421500000000000E+009;1.499940901994705E-001;-8.429639786481857E-002;2.053660107776523E-003;2.436575014144182E-003;
2.421666666666667E+009;1.497870087623596E-001;-8.606383204460144E-002;2.145657548680902E-003;2.210922073572874E-003;
2.421833333333334E+009;1.495864987373352E-001;-8.766420930624008E-002;2.350856550037861E-003;2.243701601400971E-003;
2.422000000000000E+009;1.494983583688736E-001;-8.945895731449127E-002;2.355368342250586E-003;2.100539160892367E-003;
2.422166666666667E+009;1.492506861686707E-001;-9.142631292343140E-002;2.416569041088224E-003;1.951066660694778E-003;
2.422333333333334E+009;1.493058353662491E-001;-9.293677657842636E-002;2.426967956125736E-003;1.771175768226385E-003;
2.422500000000000E+009;1.492854803800583E-001;-9.452710300683975E-002;2.540851943194866E-003;1.737020327709615E-003;
2.422666666666667E+009;1.494805663824081E-001;-9.625128656625748E-002;2.705836435779929E-003;1.614648383110762E-003;
2.422833333333334E+009;1.497869938611984E-001;-9.799990057945252E-002;2.749591134488583E-003;1.630687969736755E-003;
2.423000000000000E+009;1.500585526227951E-001;-9.937943518161774E-002;2.906323410570622E-003;1.496735843829811E-003;
2.423166666666667E+009;1.503555625677109E-001;-1.010684370994568E-001;2.834553597494960E-003;1.251989626325667E-003;
2.423333333333334E+009;1.508542746305466E-001;-1.023153290152550E-001;2.905324567109346E-003;1.233657705597580E-003;
2.423500000000000E+009;1.513393223285675E-001;-1.038275882601738E-001;2.893478842452169E-003;9.428069461137056E-004;
2.423666666666667E+009;1.516586542129517E-001;-1.052206978201866E-001;2.893879543989897E-003;1.023500924929977E-003;
2.423833333333334E+009;1.523777544498444E-001;-1.065226942300797E-001;2.961242571473122E-003;8.800796349532902E-004;
2.424000000000000E+009;1.527427583932877E-001;-1.075591892004013E-001;3.046213183552027E-003;7.792799151502550E-004;
2.424166666666667E+009;1.533092707395554E-001;-1.087554544210434E-001;3.169243223965168E-003;6.643435335718095E-004;
2.424333333333334E+009;1.538262814283371E-001;-1.096135303378105E-001;3.101862967014313E-003;6.148861139081419E-004;
2.424500000000000E+009;1.543719470500946E-001;-1.107275709509850E-001;3.080370603129268E-003;5.091763450764120E-004;
2.424666666666667E+009;1.549417823553085E-001;-1.113714575767517E-001;3.200888400897384E-003;4.321462183725089E-004;
2.424833333333334E+009;1.553154587745667E-001;-1.122372969985008E-001;3.217851510271430E-003;1.162273620138876E-004;
2.425000000000000E+009;1.558901667594910E-001;-1.128859296441078E-001;3.195103490725160E-003;1.102132446249016E-004;
2.425166666666667E+009;1.559698283672333E-001;-1.135502010583878E-001;3.111337311565876E-003;-1.337013236479834E-004;
2.425333333333334E+009;1.565263867378235E-001;-1.141001358628273E-001;3.039081580936909E-003;-4.072173760505393E-005;
2.425500000000000E+009;1.568201482295990E-001;-1.145322769880295E-001;3.197207115590572E-003;-2.390994486631826E-004;
2.425666666666667E+009;1.569219380617142E-001;-1.149711161851883E-001;3.101621987298131E-003;-4.210947954561561E-004;
2.425833333333334E+009;1.571597307920456E-001;-1.153700053691864E-001;3.137832274660468E-003;-5.594136891886592E-004;
2.426000000000000E+009;1.572336554527283E-001;-1.157858073711395E-001;2.996024210005999E-003;-5.794475437141955E-004;
2.426166666666667E+009;1.573602259159088E-001;-1.160414293408394E-001;3.083805087953806E-003;-7.665131706744432E-004;
2.426333333333334E+009;1.570230871438980E-001;-1.162391677498817E-001;2.949817106127739E-003;-9.555672295391560E-004;
2.426500000000000E+009;1.570974439382553E-001;-1.164060980081558E-001;3.012176137417555E-003;-8.461658726446331E-004;
2.426666666666667E+009;1.567784994840622E-001;-1.162932738661766E-001;2.780869370326400E-003;-1.062578754499555E-003;
2.426833333333334E+009;1.564741283655167E-001;-1.165721490979195E-001;2.863518428057432E-003;-1.088673830963671E-003;
2.427000000000000E+009;1.559577882289887E-001;-1.166868507862091E-001;2.841818146407604E-003;-1.306936144828796E-003;
2.427166666666667E+009;1.554139554500580E-001;-1.166081354022026E-001;2.647693268954754E-003;-1.408236566931009E-003;
2.427333333333334E+009;1.546356976032257E-001;-1.168237999081612E-001;2.650063019245863E-003;-1.348827383480966E-003;
2.427500000000000E+009;1.540586352348328E-001;-1.169776096940041E-001;2.683024387806654E-003;-1.416183309629560E-003;
2.427666666666667E+009;1.531012505292893E-001;-1.170769557356834E-001;2.625358290970326E-003;-1.580001553520560E-003;
2.427833333333334E+009;1.520715057849884E-001;-1.173375099897385E-001;2.602892927825451E-003;-1.512214075773954E-003;
