# Version 1.00
#
freq[Hz];re:Trc1_S11;im:Trc1_S11;re:Trc2_S21;im:Trc2_S21;
2.400000000000000E+009;1.559844017028809E-001;6.006709113717079E-002;-4.382361192256212E-003;1.091171507141553E-004;
2.400166666666667E+009;1.560045182704926E-001;5.811479687690735E-002;-4.483269993215799E-003;3.323965356685221E-004;
2.400333333333334E+009;1.561743915081024E-001;5.626817792654038E-002;-4.547462798655033E-003;4.310703079681844E-004;
2.400500000000000E+009;1.563985347747803E-001;5.406960844993591E-002;-4.544135183095932E-003;6.612042780034244E-004;
2.400666666666667E+009;1.565877646207809E-001;5.204745009541512E-002;-4.236152395606041E-003;8.072182536125183E-004;
2.400833333333334E+009;1.569388210773468E-001;5.014700442552567E-002;-4.318742547184229E-003;9.944736957550049E-004;
2.401000000000000E+009;1.571900695562363E-001;4.791363701224327E-002;-4.266558215022087E-003;1.303910510614514E-003;
2.401166666666667E+009;1.577347218990326E-001;4.593316838145256E-002;-4.228241275995970E-003;1.514503383077681E-003;
2.401333333333334E+009;1.580064892768860E-001;4.386655986309052E-002;-4.110691137611866E-003;1.568120205774903E-003;
2.401500000000000E+009;1.588664054870606E-001;4.192575439810753E-002;-3.949380479753017E-003;1.792605384252966E-003;
2.401666666666667E+009;1.593453437089920E-001;3.995483368635178E-002;-3.866234794259071E-003;1.953149447217584E-003;
2.401833333333334E+009;1.600797921419144E-001;3.791318088769913E-002;-3.819673089310527E-003;2.041752217337489E-003;
2.402000000000000E+009;1.604796350002289E-001;3.604079410433769E-002;-3.769146976992488E-003;2.305092755705118E-003;
2.402166666666667E+009;1.614076197147369E-001;3.411649540066719E-002;-3.466578898951411E-003;2.411411143839359E-003;
2.402333333333334E+009;1.621006131172180E-001;3.250060230493546E-002;-3.289962187409401E-003;2.578490646556020E-003;
2.402500000000000E+009;1.631692796945572E-001;3.069522976875305E-002;-3.117303363978863E-003;2.614939818158746E-003;
2.402666666666667E+009;1.640012562274933E-001;2.932921797037125E-002;-3.125456627458334E-003;2.523514674976468E-003;
2.402833333333334E+009;1.649150550365448E-001;2.782115153968334E-002;-2.839071210473776E-003;2.835344756022096E-003;
2.403000000000000E+009;1.657437682151794E-001;2.636419050395489E-002;-2.644612221047282E-003;2.988997846841812E-003;
2.403166666666667E+009;1.668815165758133E-001;2.514823153614998E-002;-2.696716925129294E-003;2.953781047835946E-003;
2.403333333333334E+009;1.678323447704315E-001;2.394264936447144E-002;-2.323668450117111E-003;3.146549919620156E-003;
2.403500000000000E+009;1.687956452369690E-001;2.287243865430355E-002;-2.320845378562808E-003;3.102336078882217E-003;
2.403666666666667E+009;1.697449386119843E-001;2.161351405084133E-002;-2.068517496809363E-003;3.052329411730170E-003;
2.403833333333334E+009;1.709030419588089E-001;2.059345133602619E-002;-1.893489272333682E-003;3.143786918371916E-003;
2.404000000000000E+009;1.717413067817688E-001;1.966137252748013E-002;-1.708209398202598E-003;3.149352036416531E-003;
2.404166666666667E+009;1.727654784917831E-001;1.891287975013256E-002;-1.700461842119694E-003;3.177699400112033E-003;
2.404333333333334E+009;1.735883355140686E-001;1.827044971287251E-002;-1.263720449060202E-003;3.222930943593383E-003;
2.404500000000000E+009;1.742539703845978E-001;1.754983514547348E-002;-1.218687742948532E-003;3.110038116574287E-003;
2.404666666666667E+009;1.752282530069351E-001;1.686145924031735E-002;-1.057778834365308E-003;3.129481570795178E-003;
2.404833333333334E+009;1.760933250188828E-001;1.627581752836704E-002;-8.740156772546470E-004;3.005622187629342E-003;
2.405000000000000E+009;1.767636686563492E-001;1.573241688311100E-002;-7.845685468055308E-004;3.154196776449680E-003;
2.405166666666667E+009;1.775013506412506E-001;1.528111193329096E-002;-6.143994978629053E-004;3.113319166004658E-003;
2.405333333333334E+009;1.780784577131271E-001;1.472013909369707E-002;-4.107148270122707E-004;3.040840616449714E-003;
2.405500000000000E+009;1.785393804311752E-001;1.454180292785168E-002;-4.523624957073480E-004;2.921629231423140E-003;
2.405666666666667E+009;1.789357215166092E-001;1.421393919736147E-002;-3.007207706104964E-004;2.702056895941496E-003;
2.405833333333334E+009;1.791456788778305E-001;1.404563244432211E-002;-2.137408737326041E-004;2.776025794446468E-003;
2.406000000000000E+009;1.796401143074036E-001;1.364426035434008E-002;-1.029873310471885E-004;2.659520134329796E-003;
2.406166666666667E+009;1.796105206012726E-001;1.352204196155071E-002;7.963582902448252E-005;2.637143945321441E-003;
2.406333333333334E+009;1.799224913120270E-001;1.319844368845224E-002;-2.856792889360804E-005;2.706496510654688E-003;
2.406500000000000E+009;1.799417585134506E-001;1.287942565977573E-002;1.605042052688077E-004;2.520127454772592E-003;
2.406666666666667E+009;1.796990782022476E-001;1.265171170234680E-002;2.946856839116663E-004;2.451388165354729E-003;
2.406833333333334E+009;1.796715408563614E-001;1.226773019880056E-002;2.917902893386781E-004;2.399277174845338E-003;
2.407000000000000E+009;1.794926822185516E-001;1.190529670566320E-002;2.878510276786983E-004;2.447293605655432E-003;
2.407166666666667E+009;1.794038861989975E-001;1.155395992100239E-002;4.762183234561235E-004;2.278046216815710E-003;
2.407333333333334E+009;1.789588928222656E-001;1.086284965276718E-002;3.120723704341799E-004;2.326331334188581E-003;
2.407500000000000E+009;1.785506755113602E-001;1.046450342983007E-002;5.654505221173167E-004;2.162373391911387E-003;
2.407666666666667E+009;1.781655848026276E-001;9.899112395942211E-003;6.382847204804421E-004;2.146075014024973E-003;
2.407833333333334E+009;1.774622797966003E-001;9.101211093366146E-003;5.734034930355847E-004;1.994027756154537E-003;
2.408000000000000E+009;1.769448220729828E-001;8.353477343916893E-003;6.583470385521650E-004;1.860541640780866E-003;
2.408166666666667E+009;1.763970404863358E-001;7.561438716948032E-003;8.992701186798513E-004;1.912082196213305E-003;
2.408333333333334E+009;1.759293526411057E-001;6.450552493333817E-003;7.534140022471547E-004;1.788051333278418E-003;
2.408500000000000E+009;1.751502901315689E-001;5.564607214182615E-003;8.866504649631679E-004;1.665555522777140E-003;
2.408666666666667E+009;1.746284216642380E-001;4.279216751456261E-003;8.700445760041475E-004;1.748990383930504E-003;
2.408833333333334E+009;1.736807227134705E-001;3.168232040479779E-003;7.126160780899227E-004;1.757009886205196E-003;
2.409000000000000E+009;1.730317771434784E-001;1.917483052238822E-003;9.316084324382246E-004;1.530683599412441E-003;
2.409166666666667E+009;1.723888814449310E-001;3.703043330460787E-004;1.070523168891668E-003;1.469394308514893E-003;
2.409333333333334E+009;1.717305183410645E-001;-1.051152474246919E-003;1.056570792570710E-003;1.590246101841331E-003;
2.409500000000000E+009;1.710791885852814E-001;-2.698468975722790E-003;9.630724089220166E-004;1.357974600978196E-003;
2.409666666666667E+009;1.703563481569290E-001;-4.195125773549080E-003;1.058660214766860E-003;1.381636247970164E-003;
2.409833333333334E+009;1.697903126478195E-001;-5.813084077090025E-003;9.761749533936381E-004;1.290808198973537E-003;
2.410000000000000E+009;1.693302541971207E-001;-7.598178461194038E-003;1.274034264497459E-003;1.183259068056941E-003;
2.410166666666667E+009;1.689750254154205E-001;-9.235357865691185E-003;1.084155170246959E-003;1.081270631402731E-003;
2.410333333333334E+009;1.682734787464142E-001;-1.121741905808449E-002;1.149511663243175E-003;1.009230618365109E-003;
2.410500000000000E+009;1.680651903152466E-001;-1.302963867783546E-002;1.221952494233847E-003;8.976112003438175E-004;
2.410666666666667E+009;1.676193475723267E-001;-1.508126873522997E-002;1.246194820851088E-003;8.450386812910438E-004;
2.410833333333334E+009;1.675526052713394E-001;-1.685852929949760E-002;1.106247073039413E-003;6.956083816476166E-004;
2.411000000000000E+009;1.673235595226288E-001;-1.883220672607422E-002;1.083436072804034E-003;6.573119899258018E-004;
2.411166666666667E+009;1.672469079494476E-001;-2.077486552298069E-002;1.047777361236513E-003;4.969210713170469E-004;
2.411333333333334E+009;1.673032790422440E-001;-2.285870909690857E-002;1.156119978986681E-003;3.398212429601699E-004;
2.411500000000000E+009;1.671508103609085E-001;-2.505897171795368E-002;1.181822502985597E-003;3.381003334652633E-004;
2.411666666666667E+009;1.676136702299118E-001;-2.692390792071819E-002;1.084368675947189E-003;2.920137776527554E-004;
2.411833333333334E+009;1.676533967256546E-001;-2.871093153953552E-002;1.128625473938882E-003;1.903637021314353E-004;
2.412000000000000E+009;1.680350899696350E-001;-3.065916523337364E-002;1.025035860948265E-003;1.670449137236574E-006;
2.412166666666667E+009;1.682941913604736E-001;-3.260926902294159E-002;8.302453788928688E-004;6.490797386504710E-005;
2.412333333333334E+009;1.689343899488449E-001;-3.440987318754196E-002;9.311530156992376E-004;-6.570584810106084E-005;
2.412500000000000E+009;1.693188995122910E-001;-3.625330701470375E-002;7.210251642391086E-004;-2.003452827921137E-004;
2.412666666666667E+009;1.699565649032593E-001;-3.808172047138214E-002;6.734819035045803E-004;-2.978667907882482E-004;
2.412833333333334E+009;1.703065037727356E-001;-3.959502279758453E-002;7.446706877090037E-004;-3.921377356164157E-004;
2.413000000000000E+009;1.710559129714966E-001;-4.136162251234055E-002;4.718922136817128E-004;-3.419388667680323E-004;
2.413166666666667E+009;1.717253625392914E-001;-4.295050725340843E-002;4.248837940394878E-004;-3.519505553413183E-004;
2.413333333333334E+009;1.722240746021271E-001;-4.438789933919907E-002;3.397402761038393E-004;-4.586589930113405E-004;
2.413500000000000E+009;1.727960854768753E-001;-4.588693752884865E-002;1.682189322309569E-004;-4.744732868857682E-004;
2.413666666666667E+009;1.736364066600800E-001;-4.736016318202019E-002;-5.516815872397274E-005;-6.158221513032913E-004;
2.413833333333334E+009;1.741713583469391E-001;-4.865550994873047E-002;-8.773242007009685E-005;-4.557447973638773E-004;
2.414000000000000E+009;1.746977865695953E-001;-4.973498359322548E-002;-2.743428631220013E-004;-4.953265306539834E-004;
2.414166666666667E+009;1.754662692546845E-001;-5.077771097421646E-002;-4.386689979583025E-004;-3.876711125485599E-004;
2.414333333333334E+009;1.758249700069428E-001;-5.169302597641945E-002;-4.609686147887260E-004;-4.006935341749340E-004;
2.414500000000000E+009;1.767039895057678E-001;-5.267451331019402E-002;-6.341076223179698E-004;-1.776212448021397E-004;
2.414666666666667E+009;1.770647615194321E-001;-5.341253057122231E-002;-7.429086836054921E-004;-4.201516276225448E-004;
2.414833333333334E+009;1.775415241718292E-001;-5.434251949191093E-002;-1.026136218570173E-003;-3.116709413006902E-004;
2.415000000000000E+009;1.778819859027863E-001;-5.498039722442627E-002;-1.011496759019792E-003;-7.157275831559673E-005;
2.415166666666667E+009;1.781703680753708E-001;-5.546206608414650E-002;-1.135417376644909E-003;-5.379383947001770E-005;
2.415333333333334E+009;1.786402910947800E-001;-5.613587051630020E-002;-1.072352286428213E-003;1.559674274176359E-004;
2.415500000000000E+009;1.787524372339249E-001;-5.654290318489075E-002;-1.318898284807801E-003;2.923253923654556E-004;
2.415666666666667E+009;1.788924336433411E-001;-5.685923248529434E-002;-1.337665133178234E-003;5.062707350589335E-004;
2.415833333333334E+009;1.788491159677506E-001;-5.725524947047234E-002;-1.343908719718456E-003;5.577918491326273E-004;
2.416000000000000E+009;1.787784993648529E-001;-5.731577798724175E-002;-1.447192858904600E-003;7.679609698243439E-004;
2.416166666666667E+009;1.787716746330261E-001;-5.764673277735710E-002;-1.480092061683536E-003;8.220361778512597E-004;
2.416333333333334E+009;1.785844713449478E-001;-5.785282328724861E-002;-1.440200838260353E-003;1.042427960783243E-003;
2.416500000000000E+009;1.781068891286850E-001;-5.828215554356575E-002;-1.332882675342262E-003;1.205206848680973E-003;
2.416666666666667E+009;1.777025312185288E-001;-5.817625299096108E-002;-1.362837268970907E-003;1.484067295677960E-003;
2.416833333333334E+009;1.772994995117188E-001;-5.856715887784958E-002;-1.178326550871134E-003;1.514100003987551E-003;
2.417000000000000E+009;1.764133125543594E-001;-5.872128531336784E-002;-1.155643374659121E-003;1.614767010323703E-003;
2.417166666666667E+009;1.758130639791489E-001;-5.881930142641068E-002;-1.187600195407867E-003;1.680062734521925E-003;
2.417333333333334E+009;1.751505732536316E-001;-5.907710269093514E-002;-1.064816955476999E-003;1.983111025765538E-003;
2.417500000000000E+009;1.742383688688278E-001;-5.941144376993179E-002;-1.048836857080460E-003;2.080238191410899E-003;
2.417666666666667E+009;1.734121292829514E-001;-5.967316776514053E-002;-8.531973580829799E-004;2.093595219776034E-003;
2.417833333333334E+009;1.722785085439682E-001;-5.991307646036148E-002;-6.743028643541038E-004;2.174797002226114E-003;
2.418000000000000E+009;1.711592525243759E-001;-6.049164757132530E-002;-6.110579124651849E-004;2.318321028724313E-003;
2.418166666666667E+009;1.700114011764526E-001;-6.069006025791168E-002;-5.851446767337620E-004;2.321425825357437E-003;
2.418333333333334E+009;1.691447198390961E-001;-6.132617592811585E-002;-4.337721038609743E-004;2.330942312255502E-003;
2.418500000000000E+009;1.679047495126724E-001;-6.188458949327469E-002;-3.006370679941028E-004;2.482707845047116E-003;
2.418666666666667E+009;1.666908115148544E-001;-6.259084492921829E-002;-1.116398270823993E-004;2.490584738552570E-003;
2.418833333333334E+009;1.653314381837845E-001;-6.335612386465073E-002;-3.003796700795647E-005;2.698528347536922E-003;
2.419000000000000E+009;1.640359461307526E-001;-6.408615410327911E-002;1.093307437258773E-004;2.673205919563770E-003;
2.419166666666667E+009;1.628875434398651E-001;-6.495448946952820E-002;2.546260657254607E-004;2.718578325584531E-003;
2.419333333333334E+009;1.614335775375366E-001;-6.571888178586960E-002;3.245782572776079E-004;2.608723007142544E-003;
2.419500000000000E+009;1.602561473846436E-001;-6.695430725812912E-002;5.109981284476817E-004;2.729714615270495E-003;
2.419666666666667E+009;1.592701524496079E-001;-6.810742616653442E-002;5.862744292244315E-004;2.747508930042386E-003;
2.419833333333334E+009;1.579562872648239E-001;-6.914659589529038E-002;7.335040136240423E-004;2.760028233751655E-003;
2.420000000000000E+009;1.568539589643478E-001;-7.048916816711426E-002;9.631637949496508E-004;2.841407200321555E-003;
2.420166666666667E+009;1.558661609888077E-001;-7.181400060653687E-002;1.055338187143207E-003;2.873711287975311E-003;
2.420333333333334E+009;1.549244970083237E-001;-7.328630238771439E-002;1.207445631735027E-003;2.649729838594794E-003;
2.420500000000000E+009;1.540647149085999E-001;-7.463933527469635E-002;1.273740315809846E-003;2.643626881763339E-003;
2.420666666666667E+009;1.529808193445206E-001;-7.614982128143311E-002;1.519957673735917E-003;2.656517550349236E-003;
2.420833333333334E+009;1.524455547332764E-001;-7.765025645494461E-002;1.482198596931994E-003;2.614651108160615E-003;
2.421000000000000E+009;1.516253054141998E-001;-7.946722954511643E-002;1.839683973230422E-003;2.343131927773356E-003;
2.421166666666667E+009;1.510915011167526E-001;-8.110006898641586E-002;1.800779136829078E-003;2.621264196932316E-003;
2.421333333333334E+009;1.506359726190567E-001;-8.274897933006287E-002;1.924494979903102E-003;2.501335926353931E-003;
2.421500000000000E+009;1.501357406377792E-001;-8.415147662162781E-002;2.120705787092447E-003;2.275587758049369E-003;
2.421666666666667E+009;1.498590856790543E-001;-8.604319393634796E-002;2.113390015438199E-003;2.193009946495295E-003;
2.421833333333334E+009;1.495374143123627E-001;-8.778559416532517E-002;2.223802031949163E-003;2.335518598556519E-003;
2.422000000000000E+009;1.494451463222504E-001;-8.950873464345932E-002;2.366554224863648E-003;2.148401690647006E-003;
2.422166666666667E+009;1.493099778890610E-001;-9.135079383850098E-002;2.447913633659482E-003;2.015786478295922E-003;
2.422333333333334E+009;1.492440253496170E-001;-9.286918491125107E-002;2.549431752413511E-003;1.878328854218125E-003;
2.422500000000000E+009;1.492961645126343E-001;-9.433091431856155E-002;2.395685529336333E-003;1.820571953430772E-003;
2.422666666666667E+009;1.493966430425644E-001;-9.611465781927109E-002;2.607761882245541E-003;1.727438881061971E-003;
2.422833333333334E+009;1.497215777635574E-001;-9.791159629821777E-002;2.658511046320200E-003;1.525604631751776E-003;
2.423000000000000E+009;1.499453932046890E-001;-9.941831976175308E-002;2.749425591900945E-003;1.557493465952575E-003;
2.423166666666667E+009;1.504675447940826E-001;-1.008716821670532E-001;2.818954177200794E-003;1.340977265499532E-003;
2.423333333333334E+009;1.508510857820511E-001;-1.020603403449059E-001;2.765000099316239E-003;1.280668890103698E-003;
2.423500000000000E+009;1.514201760292053E-001;-1.037297770380974E-001;2.797196153551340E-003;1.106066280044615E-003;
2.423666666666667E+009;1.516025960445404E-001;-1.050979495048523E-001;2.913885517045856E-003;1.095629180781543E-003;
2.423833333333334E+009;1.522496491670609E-001;-1.063892468810082E-001;2.783449832350016E-003;9.702767711132765E-004;
2.424000000000000E+009;1.526551693677902E-001;-1.074730157852173E-001;2.964799292385578E-003;8.445418789051473E-004;
2.424166666666667E+009;1.531020700931549E-001;-1.084843948483467E-001;2.916353987529874E-003;7.441753405146301E-004;
2.424333333333334E+009;1.537614911794663E-001;-1.095224395394325E-001;3.051610430702567E-003;5.042498232796788E-004;
2.424500000000000E+009;1.544378250837326E-001;-1.105371788144112E-001;3.225520253181458E-003;3.534678253345192E-004;
2.424666666666667E+009;1.550701707601547E-001;-1.112524718046188E-001;3.125617979094386E-003;4.451562126632780E-004;
2.424833333333334E+009;1.553875952959061E-001;-1.121521890163422E-001;3.231043927371502E-003;1.380679896101356E-004;
2.425000000000000E+009;1.557677090167999E-001;-1.129136383533478E-001;3.236698219552636E-003;1.063101663021371E-004;
2.425166666666667E+009;1.560036838054657E-001;-1.134822890162468E-001;3.276810282841325E-003;-1.059582209563814E-004;
2.425333333333334E+009;1.565762013196945E-001;-1.139776408672333E-001;3.117571584880352E-003;-1.452597352908924E-004;
2.425500000000000E+009;1.568022966384888E-001;-1.145463660359383E-001;3.009904175996780E-003;-2.772691077552736E-004;
2.425666666666667E+009;1.568935215473175E-001;-1.150187030434609E-001;3.191901370882988E-003;-1.919860951602459E-004;
2.425833333333334E+009;1.570820212364197E-001;-1.153083220124245E-001;3.200154518708587E-003;-5.461014807224274E-004;
2.426000000000000E+009;1.571831554174423E-001;-1.157156676054001E-001;3.133294405415654E-003;-5.527388420887291E-004;
2.426166666666667E+009;1.574099510908127E-001;-1.159520000219345E-001;3.108093980699778E-003;-8.223800687119365E-004;
2.426333333333334E+009;1.570990979671478E-001;-1.161321178078651E-001;3.085916861891747E-003;-7.737132837064564E-004;
2.426500000000000E+009;1.569328457117081E-001;-1.163479611277580E-001;2.890077186748385E-003;-8.068771567195654E-004;
2.426666666666667E+009;1.568214297294617E-001;-1.163186803460121E-001;2.991647226735950E-003;-1.141156186349690E-003;
2.426833333333334E+009;1.564031839370728E-001;-1.164845153689385E-001;3.021646291017532E-003;-1.279375865124166E-003;
2.427000000000000E+009;1.559466570615768E-001;-1.167725026607513E-001;2.833463950082660E-003;-1.374766929075122E-003;
2.427166666666667E+009;1.553517431020737E-001;-1.165724471211433E-001;2.642043866217136E-003;-1.261900993995369E-003;
2.427333333333334E+009;1.546483933925629E-001;-1.168433874845505E-001;2.826306968927383E-003;-1.512647955678403E-003;
2.427500000000000E+009;1.541115790605545E-001;-1.169432923197746E-001;2.681602723896503E-003;-1.371748745441437E-003;
2.427666666666667E+009;1.530096679925919E-001;-1.170437708497047E-001;2.516361884772778E-003;-1.592958811670542E-003;
2.427833333333334E+009;1.520941108465195E-001;-1.172100752592087E-001;2.589294221252203E-003;-1.580560812726617E-003;
