# Version 1.00
#
freq[Hz];re:Trc1_S11;im:Trc1_S11;re:Trc2_S21;im:Trc2_S21;
2.400000000000000E+009;1.546081453561783E-001;6.122865527868271E-002;-1.124694827012718E-003;3.743739565834403E-003;
2.400166666666667E+009;1.545695513486862E-001;5.943029001355171E-002;-1.123624504543841E-003;3.716735169291496E-003;
2.400333333333334E+009;1.544861644506455E-001;5.721418187022209E-002;-9.829590562731028E-004;3.785195993259549E-003;
2.400500000000000E+009;1.546916514635086E-001;5.494892224669457E-002;-8.377386257052422E-004;3.840489313006401E-003;
2.400666666666667E+009;1.547366231679916E-001;5.276428163051605E-002;-8.429696899838746E-004;3.872540546581149E-003;
2.400833333333334E+009;1.551966369152069E-001;5.049749463796616E-002;-7.860442856326699E-004;3.770083421841264E-003;
2.401000000000000E+009;1.554263234138489E-001;4.823429509997368E-002;-6.593599100597203E-004;3.883918747305870E-003;
2.401166666666667E+009;1.555867195129395E-001;4.596086591482163E-002;-4.256911634001881E-004;3.895565634593368E-003;
2.401333333333334E+009;1.560906916856766E-001;4.384904727339745E-002;-4.260046116542071E-004;3.828684799373150E-003;
2.401500000000000E+009;1.568584293127060E-001;4.172663763165474E-002;-3.961939364671707E-004;3.986295778304339E-003;
2.401666666666667E+009;1.574326753616333E-001;3.956332430243492E-002;-3.198665508534759E-004;3.850044216960669E-003;
2.401833333333334E+009;1.581098735332489E-001;3.728709742426872E-002;-2.075747179333121E-004;3.877247450873256E-003;
2.402000000000000E+009;1.587071418762207E-001;3.541924059391022E-002;-1.734547258820385E-004;3.900843672454357E-003;
2.402166666666667E+009;1.594413220882416E-001;3.334257751703262E-002;-1.224918814841658E-004;3.933745436370373E-003;
2.402333333333334E+009;1.604496240615845E-001;3.153302147984505E-002;8.280560723505914E-005;3.974735271185637E-003;
2.402500000000000E+009;1.615447700023651E-001;2.985644340515137E-002;6.417484837584198E-005;4.151022993028164E-003;
2.402666666666667E+009;1.623935848474503E-001;2.825351990759373E-002;1.741172163747251E-004;4.064517561346293E-003;
2.402833333333334E+009;1.635232716798782E-001;2.645717188715935E-002;3.374248335603625E-004;3.953314851969481E-003;
2.403000000000000E+009;1.645406186580658E-001;2.510257437825203E-002;2.782102674245834E-004;4.150603897869587E-003;
2.403166666666667E+009;1.658914387226105E-001;2.365458384156227E-002;4.096883931197226E-004;4.341235850006342E-003;
2.403333333333334E+009;1.669521778821945E-001;2.246024459600449E-002;4.706361505668610E-004;4.074641969054937E-003;
2.403500000000000E+009;1.680345982313156E-001;2.123699709773064E-002;6.399278645403683E-004;4.533794708549976E-003;
2.403666666666667E+009;1.692808419466019E-001;1.993960514664650E-002;6.708984728902578E-004;4.352762363851070E-003;
2.403833333333334E+009;1.705261021852493E-001;1.899003610014916E-002;9.158481843769550E-004;4.492046311497688E-003;
2.404000000000000E+009;1.717085987329483E-001;1.805983670055866E-002;1.094014500267804E-003;4.641209729015827E-003;
2.404166666666667E+009;1.726373881101608E-001;1.720053330063820E-002;1.165272202342749E-003;4.587795119732618E-003;
2.404333333333334E+009;1.736690253019333E-001;1.674400456249714E-002;1.313461805693805E-003;4.647837020456791E-003;
2.404500000000000E+009;1.747381687164307E-001;1.578213460743427E-002;1.500474289059639E-003;4.827228374779224E-003;
2.404666666666667E+009;1.757824867963791E-001;1.543413940817118E-002;1.698188832961023E-003;4.579165950417519E-003;
2.404833333333334E+009;1.766008585691452E-001;1.475500874221325E-002;2.033334225416184E-003;4.828303121030331E-003;
2.405000000000000E+009;1.776532083749771E-001;1.435218751430512E-002;2.096469746902585E-003;4.700440447777510E-003;
2.405166666666667E+009;1.783594042062759E-001;1.404745224863291E-002;2.416466362774372E-003;4.809158388525248E-003;
2.405333333333334E+009;1.790664196014404E-001;1.370887272059917E-002;2.603048458695412E-003;4.683748818933964E-003;
2.405500000000000E+009;1.798217594623566E-001;1.348435133695602E-002;2.822246868163347E-003;4.620477091521025E-003;
2.405666666666667E+009;1.805097460746765E-001;1.344914548099041E-002;3.082548035308719E-003;4.709562752395868E-003;
2.405833333333334E+009;1.807177960872650E-001;1.333860121667385E-002;3.179768100380898E-003;4.311420023441315E-003;
2.406000000000000E+009;1.812782436609268E-001;1.297779660671949E-002;3.463105764240027E-003;4.524996038526297E-003;
2.406166666666667E+009;1.813112646341324E-001;1.297771185636520E-002;3.851069835945964E-003;4.166663624346256E-003;
2.406333333333334E+009;1.817036867141724E-001;1.290413178503513E-002;3.904337063431740E-003;4.161822609603405E-003;
2.406500000000000E+009;1.817186176776886E-001;1.289128139615059E-002;4.239793866872788E-003;3.954076208174229E-003;
2.406666666666667E+009;1.815609782934189E-001;1.270950026810169E-002;4.285636357963085E-003;3.695026272907853E-003;
2.406833333333334E+009;1.814930588006973E-001;1.236372254788876E-002;4.558068234473467E-003;3.699462395161390E-003;
2.407000000000000E+009;1.813540011644363E-001;1.211062725633383E-002;4.906462971121073E-003;3.441872773692012E-003;
2.407166666666667E+009;1.812229752540588E-001;1.192559488117695E-002;4.669783636927605E-003;3.292019478976727E-003;
2.407333333333334E+009;1.806973516941071E-001;1.145211607217789E-002;4.964649211615324E-003;2.958064666017890E-003;
2.407500000000000E+009;1.802964210510254E-001;1.103127561509609E-002;5.083877127617598E-003;2.674208953976631E-003;
2.407666666666667E+009;1.796800047159195E-001;1.066468097269535E-002;5.118518602102995E-003;2.535799052566290E-003;
2.407833333333334E+009;1.788604855537415E-001;9.835528209805489E-003;5.204581655561924E-003;2.126759616658092E-003;
2.408000000000000E+009;1.783543825149536E-001;9.178981184959412E-003;5.183586850762367E-003;2.026077592745423E-003;
2.408166666666667E+009;1.774857789278030E-001;8.628137409687042E-003;5.332310218364000E-003;1.723889959976077E-003;
2.408333333333334E+009;1.769925057888031E-001;7.662506308406591E-003;5.339445546269417E-003;1.571645378135145E-003;
2.408500000000000E+009;1.761137098073959E-001;6.643917877227068E-003;5.570864770561457E-003;1.461791805922985E-003;
2.408666666666667E+009;1.753833740949631E-001;5.633291788399220E-003;5.453931633383036E-003;1.247737207449973E-003;
2.408833333333334E+009;1.742656975984573E-001;4.512666258960962E-003;5.497662816196680E-003;1.214766991324723E-003;
2.409000000000000E+009;1.734096854925156E-001;3.313707886263728E-003;5.521674640476704E-003;9.023695602081716E-004;
2.409166666666667E+009;1.725067347288132E-001;1.879953080788255E-003;5.501134786754847E-003;6.765447324141860E-004;
2.409333333333334E+009;1.718019992113113E-001;3.016300033777952E-004;5.512689240276814E-003;4.409491375554353E-004;
2.409500000000000E+009;1.707735806703568E-001;-1.380108646117151E-003;5.532947368919849E-003;3.483871987555176E-004;
2.409666666666667E+009;1.699753403663635E-001;-2.922451589256525E-003;5.486404057592154E-003;1.875043381005526E-004;
2.409833333333334E+009;1.691368371248245E-001;-4.509121645241976E-003;5.394167266786099E-003;-5.460942338686436E-005;
2.410000000000000E+009;1.687114685773850E-001;-6.405982188880444E-003;5.496482364833355E-003;-2.015202917391434E-004;
2.410166666666667E+009;1.680021584033966E-001;-8.170462213456631E-003;5.313694942742586E-003;-4.274453385733068E-004;
2.410333333333334E+009;1.673727929592133E-001;-1.011805981397629E-002;5.310323555022478E-003;-5.898404051549733E-004;
2.410500000000000E+009;1.668599694967270E-001;-1.208878308534622E-002;5.312473513185978E-003;-6.127479718998075E-004;
2.410666666666667E+009;1.663841754198074E-001;-1.433499716222286E-002;5.220391787588596E-003;-9.374125511385500E-004;
2.410833333333334E+009;1.661276668310165E-001;-1.636633649468422E-002;5.191688425838947E-003;-9.906891500577331E-004;
2.411000000000000E+009;1.659115254878998E-001;-1.838380657136440E-002;5.101654678583145E-003;-1.139560481533408E-003;
2.411166666666667E+009;1.656934171915054E-001;-2.051015570759773E-002;4.866810049861670E-003;-1.361667644232512E-003;
2.411333333333334E+009;1.656242460012436E-001;-2.257256582379341E-002;4.953923169523478E-003;-1.471033901907504E-003;
2.411500000000000E+009;1.656012535095215E-001;-2.499432675540447E-002;4.777582362294197E-003;-1.518257544375956E-003;
2.411666666666667E+009;1.657878905534744E-001;-2.691807225346565E-002;4.731791559606791E-003;-1.552946167066693E-003;
2.411833333333334E+009;1.659692376852036E-001;-2.894438989460468E-002;4.722692538052797E-003;-1.764200162142515E-003;
2.412000000000000E+009;1.663552820682526E-001;-3.118057735264301E-002;4.602634347975254E-003;-1.828679000027478E-003;
2.412166666666667E+009;1.665456444025040E-001;-3.317907080054283E-002;4.651107825338841E-003;-1.946849166415632E-003;
2.412333333333334E+009;1.671508401632309E-001;-3.507747873663902E-002;4.496905021369457E-003;-2.061508828774095E-003;
2.412500000000000E+009;1.675629466772080E-001;-3.702484816312790E-002;4.382863640785217E-003;-2.262437716126442E-003;
2.412666666666667E+009;1.682441085577011E-001;-3.907023370265961E-002;4.332966171205044E-003;-2.282068831846118E-003;
2.412833333333334E+009;1.687928587198257E-001;-4.075957462191582E-002;4.191600251942873E-003;-2.522032009437680E-003;
2.413000000000000E+009;1.694778054952622E-001;-4.257381334900856E-002;4.185493569821119E-003;-2.431240398436785E-003;
2.413166666666667E+009;1.704626381397247E-001;-4.421565681695938E-002;4.127929452806711E-003;-2.560782944783568E-003;
2.413333333333334E+009;1.708069592714310E-001;-4.573448747396469E-002;3.860608907416463E-003;-2.857832005247474E-003;
2.413500000000000E+009;1.717198640108109E-001;-4.734822362661362E-002;4.001016262918711E-003;-2.876791404560208E-003;
2.413666666666667E+009;1.725345999002457E-001;-4.871844500303268E-002;3.722482128068805E-003;-3.073873464018107E-003;
2.413833333333334E+009;1.733498275279999E-001;-5.002622306346893E-002;3.821037476882339E-003;-3.050437895581126E-003;
2.414000000000000E+009;1.739138960838318E-001;-5.131995677947998E-002;3.730277298018336E-003;-3.367116209119558E-003;
2.414166666666667E+009;1.747435480356216E-001;-5.231462791562080E-002;3.599052084609866E-003;-3.301128046587110E-003;
2.414333333333334E+009;1.754812151193619E-001;-5.342003330588341E-002;3.543174825608730E-003;-3.408574499189854E-003;
2.414500000000000E+009;1.764228194952011E-001;-5.421186983585358E-002;3.478504484519362E-003;-3.638738999143243E-003;
2.414666666666667E+009;1.769351959228516E-001;-5.503762513399124E-002;3.342975862324238E-003;-3.809085115790367E-003;
2.414833333333334E+009;1.773653775453568E-001;-5.577773973345757E-002;3.183640073984861E-003;-3.841022960841656E-003;
2.415000000000000E+009;1.780378669500351E-001;-5.636581778526306E-002;3.223216626793146E-003;-4.047991242259741E-003;
2.415166666666667E+009;1.785634607076645E-001;-5.675158649682999E-002;3.120202803984284E-003;-4.197756759822369E-003;
2.415333333333334E+009;1.790412068367004E-001;-5.740099772810936E-002;2.852130215615034E-003;-4.353171214461327E-003;
2.415500000000000E+009;1.793611496686935E-001;-5.757381394505501E-002;2.861978951841593E-003;-4.458685871213675E-003;
2.415666666666667E+009;1.795531511306763E-001;-5.790494754910469E-002;2.578170970082283E-003;-4.576102364808321E-003;
2.415833333333334E+009;1.797215640544891E-001;-5.816866457462311E-002;2.449119696393609E-003;-4.698928445577622E-003;
2.416000000000000E+009;1.796664893627167E-001;-5.831012502312660E-002;2.243276219815016E-003;-4.922345746308565E-003;
2.416166666666667E+009;1.798060238361359E-001;-5.837687104940414E-002;2.094969851896167E-003;-4.867999814450741E-003;
2.416333333333334E+009;1.795502156019211E-001;-5.843891575932503E-002;1.849071937613189E-003;-5.028315819799900E-003;
2.416500000000000E+009;1.793296486139298E-001;-5.855923146009445E-002;1.749855931848288E-003;-5.003482569009066E-003;
2.416666666666667E+009;1.788954436779022E-001;-5.863362923264504E-002;1.519283279776573E-003;-5.155140534043312E-003;
2.416833333333334E+009;1.785036772489548E-001;-5.877877399325371E-002;1.344144577160478E-003;-4.987323191016913E-003;
2.417000000000000E+009;1.777107864618301E-001;-5.880352854728699E-002;1.116672297939658E-003;-5.145331379026175E-003;
2.417166666666667E+009;1.770641356706619E-001;-5.867028981447220E-002;1.018906943500042E-003;-5.098661873489618E-003;
2.417333333333334E+009;1.764018684625626E-001;-5.875461548566818E-002;6.797875976189971E-004;-5.205706693232060E-003;
2.417500000000000E+009;1.754450649023056E-001;-5.903023853898048E-002;5.515622906386852E-004;-5.286748055368662E-003;
2.417666666666667E+009;1.746129393577576E-001;-5.909698456525803E-002;2.892346237786114E-004;-5.179373547434807E-003;
2.417833333333334E+009;1.735217124223709E-001;-5.922232568264008E-002;1.447567192371935E-004;-5.140858236700296E-003;
2.418000000000000E+009;1.723186522722244E-001;-5.970988795161247E-002;-7.115855987649411E-005;-5.249682813882828E-003;
2.418166666666667E+009;1.710768640041351E-001;-5.990518257021904E-002;-1.580319803906605E-004;-5.194061901420355E-003;
2.418333333333334E+009;1.701158434152603E-001;-6.050086766481400E-002;-4.222684947308153E-004;-5.096456035971642E-003;
2.418500000000000E+009;1.686296761035919E-001;-6.076699867844582E-002;-5.464261048473418E-004;-4.998323973268271E-003;
2.418666666666667E+009;1.674363613128662E-001;-6.143476814031601E-002;-7.173428894020617E-004;-4.803116898983717E-003;
2.418833333333334E+009;1.658506989479065E-001;-6.207221746444702E-002;-9.477017447352409E-004;-4.994580056518316E-003;
2.419000000000000E+009;1.644086241722107E-001;-6.276874244213104E-002;-1.109165954403579E-003;-4.745065700262785E-003;
2.419166666666667E+009;1.632344275712967E-001;-6.368468701839447E-002;-1.220609876327217E-003;-4.523471929132938E-003;
2.419333333333334E+009;1.615365296602249E-001;-6.431021541357040E-002;-1.285859965719283E-003;-4.596893675625324E-003;
2.419500000000000E+009;1.601284742355347E-001;-6.559500843286514E-002;-1.601398224011064E-003;-4.541378933936358E-003;
2.419666666666667E+009;1.589979827404022E-001;-6.673078984022141E-002;-1.656334497965872E-003;-4.494905937463045E-003;
2.419833333333334E+009;1.576458364725113E-001;-6.770403683185577E-002;-1.719884457997978E-003;-4.409965593367815E-003;
2.420000000000000E+009;1.564412862062454E-001;-6.916946917772293E-002;-1.891504158265889E-003;-4.232494160532951E-003;
2.420166666666667E+009;1.551509350538254E-001;-7.036038488149643E-002;-1.985078677535057E-003;-4.076148383319378E-003;
2.420333333333334E+009;1.540181636810303E-001;-7.197156548500061E-002;-2.188089303672314E-003;-3.979956731200218E-003;
2.420500000000000E+009;1.530139744281769E-001;-7.320252805948257E-002;-2.236308064311743E-003;-4.107568878680468E-003;
2.420666666666667E+009;1.520603150129318E-001;-7.479131966829300E-002;-2.251011552289128E-003;-3.955227322876453E-003;
2.420833333333334E+009;1.511152982711792E-001;-7.644945383071899E-002;-2.291833283379674E-003;-3.771601011976600E-003;
2.421000000000000E+009;1.502974182367325E-001;-7.814122736454010E-002;-2.483392832800746E-003;-3.641142044216394E-003;
2.421166666666667E+009;1.497226506471634E-001;-8.008529990911484E-002;-2.521375194191933E-003;-3.439942840486765E-003;
2.421333333333334E+009;1.492247432470322E-001;-8.174102753400803E-002;-2.582908375188708E-003;-3.378501394763589E-003;
2.421500000000000E+009;1.485885381698608E-001;-8.357234299182892E-002;-2.823245711624622E-003;-3.322062082588673E-003;
2.421666666666667E+009;1.482866108417511E-001;-8.550092577934265E-002;-2.774642314761877E-003;-3.170401323586702E-003;
2.421833333333334E+009;1.481050997972488E-001;-8.727779984474182E-002;-2.764263655990362E-003;-3.072006627917290E-003;
2.422000000000000E+009;1.478092521429062E-001;-8.899226784706116E-002;-2.850659890100360E-003;-2.864784561097622E-003;
2.422166666666667E+009;1.476981341838837E-001;-9.108549356460571E-002;-3.071467624977231E-003;-2.916589844971895E-003;
2.422333333333334E+009;1.477804332971573E-001;-9.278848767280579E-002;-3.112834878265858E-003;-2.758394228294492E-003;
2.422500000000000E+009;1.479970663785934E-001;-9.457233548164368E-002;-3.265777137130499E-003;-2.678452292457223E-003;
2.422666666666667E+009;1.479216068983078E-001;-9.636597335338593E-002;-3.091558814048767E-003;-2.540840068832040E-003;
2.422833333333334E+009;1.483837515115738E-001;-9.824138134717941E-002;-3.210040740668774E-003;-2.499087946489453E-003;
2.423000000000000E+009;1.485840529203415E-001;-9.982243925333023E-002;-3.450885415077210E-003;-2.324189990758896E-003;
2.423166666666667E+009;1.491524577140808E-001;-1.016562134027481E-001;-3.340876428410411E-003;-2.320377388969064E-003;
2.423333333333334E+009;1.497710943222046E-001;-1.030196323990822E-001;-3.563639940693975E-003;-2.050210256129503E-003;
2.423500000000000E+009;1.500738412141800E-001;-1.045037806034088E-001;-3.686110721901059E-003;-2.047260291874409E-003;
2.423666666666667E+009;1.507188528776169E-001;-1.061559021472931E-001;-3.538825782015920E-003;-1.812683069147170E-003;
2.423833333333334E+009;1.515094339847565E-001;-1.074098795652390E-001;-3.776502562686801E-003;-1.530137145891786E-003;
2.424000000000000E+009;1.519890427589417E-001;-1.085107848048210E-001;-3.598672337830067E-003;-1.507267705164850E-003;
2.424166666666667E+009;1.526270657777786E-001;-1.097852364182472E-001;-3.694063052535057E-003;-1.350143575109541E-003;
2.424333333333334E+009;1.533160656690598E-001;-1.108121424913406E-001;-3.710689488798380E-003;-1.273036119528115E-003;
2.424500000000000E+009;1.540059745311737E-001;-1.118783056735992E-001;-3.887015627697110E-003;-9.759027161635459E-004;
2.424666666666667E+009;1.548253595829010E-001;-1.126405522227287E-001;-3.952973522245884E-003;-7.758183055557311E-004;
2.424833333333334E+009;1.552898436784744E-001;-1.134783178567886E-001;-3.874544752761722E-003;-6.516728899441660E-004;
2.425000000000000E+009;1.558288484811783E-001;-1.142021939158440E-001;-3.915607463568449E-003;-5.784345557913184E-004;
2.425166666666667E+009;1.561722606420517E-001;-1.148406192660332E-001;-3.858836367726326E-003;-2.635365817695856E-004;
2.425333333333334E+009;1.567239016294479E-001;-1.153771951794624E-001;-3.737964201718569E-003;-1.875670423032716E-004;
2.425500000000000E+009;1.572044938802719E-001;-1.159586533904076E-001;-3.811024129390717E-003;1.909720012918115E-004;
2.425666666666667E+009;1.574574708938599E-001;-1.161958575248718E-001;-3.729705698788166E-003;1.661647547734901E-004;
2.425833333333334E+009;1.578311473131180E-001;-1.164345815777779E-001;-3.548488253727555E-003;3.196559846401215E-004;
2.426000000000000E+009;1.579010337591171E-001;-1.168412864208221E-001;-3.433810546994209E-003;6.135105504654348E-004;
2.426166666666667E+009;1.582252234220505E-001;-1.170379444956780E-001;-3.349595237523317E-003;7.533286698162556E-004;
2.426333333333334E+009;1.580710709095001E-001;-1.170865297317505E-001;-3.332554595544934E-003;7.951399311423302E-004;
2.426500000000000E+009;1.580142080783844E-001;-1.171622052788734E-001;-3.075153334066272E-003;9.311178582720459E-004;
2.426666666666667E+009;1.579603701829910E-001;-1.170421540737152E-001;-2.929928246885538E-003;9.628066327422857E-004;
2.426833333333334E+009;1.575225889682770E-001;-1.171653047204018E-001;-2.879139967262745E-003;1.098463428206742E-003;
2.427000000000000E+009;1.570410579442978E-001;-1.172148659825325E-001;-2.753556240350008E-003;1.208575093187392E-003;
2.427166666666667E+009;1.565305441617966E-001;-1.170591041445732E-001;-2.572234952822328E-003;1.262547331862152E-003;
2.427333333333334E+009;1.558057069778442E-001;-1.169706359505653E-001;-2.405203180387616E-003;1.308543724007905E-003;
2.427500000000000E+009;1.552474200725555E-001;-1.169438585639000E-001;-2.274117432534695E-003;1.330310478806496E-003;
2.427666666666667E+009;1.543338596820831E-001;-1.170060634613037E-001;-2.248529577627778E-003;1.275871763937175E-003;
