# Version 1.00
#
freq[Hz];re:Trc1_S11;im:Trc1_S11;re:Trc2_S21;im:Trc2_S21;
2.400000000000000E+009;1.545468121767044E-001;6.128992140293121E-002;-1.234448514878750E-003;3.638362046331167E-003;
2.400166666666667E+009;1.545198410749435E-001;5.936794728040695E-002;-1.288159750401974E-003;3.806824795901775E-003;
2.400333333333334E+009;1.546164005994797E-001;5.721512436866760E-002;-1.083768322132528E-003;3.737279679626226E-003;
2.400500000000000E+009;1.546156257390976E-001;5.516123026609421E-002;-9.178642649203539E-004;3.668940858915448E-003;
2.400666666666667E+009;1.547883450984955E-001;5.279114842414856E-002;-9.264282416552305E-004;3.829419380053878E-003;
2.400833333333334E+009;1.550138592720032E-001;5.067313835024834E-002;-7.183137349784374E-004;3.993785940110683E-003;
2.401000000000000E+009;1.554156094789505E-001;4.826289042830467E-002;-5.771114374510944E-004;3.936893306672573E-003;
2.401166666666667E+009;1.557450294494629E-001;4.598737880587578E-002;-6.262338138185442E-004;3.812490031123161E-003;
2.401333333333334E+009;1.560394763946533E-001;4.376801475882530E-002;-5.220266757532954E-004;3.871608292683959E-003;
2.401500000000000E+009;1.569083929061890E-001;4.172766581177712E-002;-4.933628370054066E-004;3.759370418265462E-003;
2.401666666666667E+009;1.573376804590225E-001;3.965643048286438E-002;-5.360906361602247E-004;3.940049093216658E-003;
2.401833333333334E+009;1.580793410539627E-001;3.745165467262268E-002;-4.095854528713971E-004;3.872712142765522E-003;
2.402000000000000E+009;1.587947607040405E-001;3.540175408124924E-002;-2.172153763240203E-004;3.881327575072646E-003;
2.402166666666667E+009;1.595240384340286E-001;3.332302719354630E-002;-2.001269167521969E-004;3.873795736581087E-003;
2.402333333333334E+009;1.603981554508209E-001;3.146464005112648E-002;-7.779375300742686E-005;3.875130554661155E-003;
2.402500000000000E+009;1.614626646041870E-001;2.979119867086411E-002;-1.297942653764039E-004;4.056757315993309E-003;
2.402666666666667E+009;1.623681485652924E-001;2.819724194705486E-002;-3.965231007896364E-005;4.033463075757027E-003;
2.402833333333334E+009;1.636131554841995E-001;2.658882923424244E-002;2.028908784268424E-004;4.137965384870768E-003;
2.403000000000000E+009;1.646770387887955E-001;2.518519386649132E-002;2.672052069101483E-004;4.075187258422375E-003;
2.403166666666667E+009;1.657308787107468E-001;2.359542250633240E-002;2.132239169441164E-004;4.348689690232277E-003;
2.403333333333334E+009;1.669719815254211E-001;2.241010405123234E-002;4.582996480166912E-004;4.340023268014193E-003;
2.403500000000000E+009;1.680243164300919E-001;2.119286358356476E-002;6.254129693843424E-004;4.480486735701561E-003;
2.403666666666667E+009;1.691931188106537E-001;2.006540820002556E-002;7.187074515968561E-004;4.529024008661509E-003;
2.403833333333334E+009;1.705395430326462E-001;1.902634277939796E-002;9.071648237295449E-004;4.594481084495783E-003;
2.404000000000000E+009;1.715606451034546E-001;1.802713423967362E-002;1.026126206852496E-003;4.648824688047171E-003;
2.404166666666667E+009;1.726878434419632E-001;1.714313030242920E-002;1.262827776372433E-003;4.698710981756449E-003;
2.404333333333334E+009;1.738053858280182E-001;1.672265492379665E-002;1.367227756418288E-003;4.819311667233706E-003;
2.404500000000000E+009;1.746788024902344E-001;1.568031683564186E-002;1.568265724927187E-003;4.673173185437918E-003;
2.404666666666667E+009;1.756977289915085E-001;1.529255136847496E-002;1.683749258518219E-003;4.894443787634373E-003;
2.404833333333334E+009;1.766339838504791E-001;1.489247009158135E-002;2.042602282017469E-003;4.724992439150810E-003;
2.405000000000000E+009;1.775891035795212E-001;1.441298704594374E-002;2.194824628531933E-003;4.954150412231684E-003;
2.405166666666667E+009;1.783180832862854E-001;1.415367424488068E-002;2.423363504931331E-003;4.752363078296185E-003;
2.405333333333334E+009;1.791657954454422E-001;1.355553232133389E-002;2.654155716300011E-003;4.625740461051464E-003;
2.405500000000000E+009;1.797102838754654E-001;1.361540518701077E-002;2.797891385853291E-003;4.623204469680786E-003;
2.405666666666667E+009;1.802539527416229E-001;1.335122808814049E-002;2.999693155288696E-003;4.591223783791065E-003;
2.405833333333334E+009;1.806255429983139E-001;1.315768063068390E-002;3.312814282253385E-003;4.428169224411249E-003;
2.406000000000000E+009;1.811307072639465E-001;1.306077651679516E-002;3.622807562351227E-003;4.442966543138027E-003;
2.406166666666667E+009;1.812889426946640E-001;1.307020336389542E-002;3.704287577420473E-003;4.310336429625750E-003;
2.406333333333334E+009;1.816870868206024E-001;1.290968339890242E-002;4.066972061991692E-003;4.186208359897137E-003;
2.406500000000000E+009;1.816166639328003E-001;1.271842885762453E-002;4.092818126082420E-003;4.057243932038546E-003;
2.406666666666667E+009;1.815296560525894E-001;1.269167382270098E-002;4.351184237748385E-003;3.862337442114949E-003;
2.406833333333334E+009;1.814499646425247E-001;1.241869479417801E-002;4.412590060383081E-003;3.622786840423942E-003;
2.407000000000000E+009;1.814276576042175E-001;1.223004888743162E-002;4.788455087691546E-003;3.275563940405846E-003;
2.407166666666667E+009;1.810731142759323E-001;1.199901103973389E-002;4.704008810222149E-003;3.174391342326999E-003;
2.407333333333334E+009;1.806636452674866E-001;1.146687194705010E-002;4.940033890306950E-003;3.071857616305351E-003;
2.407500000000000E+009;1.801124066114426E-001;1.127722393721342E-002;5.201973021030426E-003;2.683863276615739E-003;
2.407666666666667E+009;1.796630024909973E-001;1.068354677408934E-002;5.081234965473414E-003;2.672314643859863E-003;
2.407833333333334E+009;1.788614243268967E-001;9.971691295504570E-003;5.179133266210556E-003;2.321922453120351E-003;
2.408000000000000E+009;1.782400906085968E-001;9.268667548894882E-003;5.294505041092634E-003;2.210834063589573E-003;
2.408166666666667E+009;1.775214225053787E-001;8.823437616229057E-003;5.342737771570683E-003;2.043941291049123E-003;
2.408333333333334E+009;1.769937425851822E-001;7.848415523767471E-003;5.489231552928686E-003;1.771011739037931E-003;
2.408500000000000E+009;1.759675443172455E-001;6.805265787988901E-003;5.415757652372122E-003;1.389402081258595E-003;
2.408666666666667E+009;1.751786470413208E-001;5.761796142905951E-003;5.571332760155201E-003;1.278705894947052E-003;
2.408833333333334E+009;1.742008030414581E-001;4.612768068909645E-003;5.632528569549322E-003;1.117326319217682E-003;
2.409000000000000E+009;1.733890324831009E-001;3.283550264313817E-003;5.521934013813734E-003;1.084567047655582E-003;
2.409166666666667E+009;1.726118475198746E-001;1.997286686673760E-003;5.496265832334757E-003;6.963136256672442E-004;
2.409333333333334E+009;1.718671023845673E-001;4.123074759263545E-004;5.529725924134255E-003;6.189640844240785E-004;
2.409500000000000E+009;1.709014326334000E-001;-1.152765122242272E-003;5.568172782659531E-003;2.471485058777034E-004;
2.409666666666667E+009;1.700062006711960E-001;-2.889278344810009E-003;5.435193423181772E-003;2.026042639045045E-004;
2.409833333333334E+009;1.692440807819367E-001;-4.485994577407837E-003;5.535569973289967E-003;-2.864542511815671E-005;
2.410000000000000E+009;1.687142550945282E-001;-6.245640572160482E-003;5.354646593332291E-003;-2.314691228093579E-004;
2.410166666666667E+009;1.679884046316147E-001;-8.198151364922524E-003;5.393060855567455E-003;-3.816087264567614E-004;
2.410333333333334E+009;1.673458665609360E-001;-1.011552475392819E-002;5.203729961067438E-003;-6.101375329308212E-004;
2.410500000000000E+009;1.671092063188553E-001;-1.220288034528494E-002;5.238838028162718E-003;-8.049118332564831E-004;
2.410666666666667E+009;1.665042787790299E-001;-1.428492274135351E-002;5.000630393624306E-003;-8.552019717171788E-004;
2.410833333333334E+009;1.660142093896866E-001;-1.620187424123287E-002;5.100075621157885E-003;-1.148589653894305E-003;
2.411000000000000E+009;1.659650504589081E-001;-1.829087175428867E-002;4.994672257453203E-003;-1.179843558929861E-003;
2.411166666666667E+009;1.656057685613632E-001;-2.062505297362804E-002;4.961096681654453E-003;-1.191404531709850E-003;
2.411333333333334E+009;1.656423956155777E-001;-2.246050164103508E-002;4.946040455251932E-003;-1.445350470021367E-003;
2.411500000000000E+009;1.655036807060242E-001;-2.488229237496853E-002;4.900720901787281E-003;-1.529133878648281E-003;
2.411666666666667E+009;1.659056097269058E-001;-2.677441760897636E-002;4.807217977941036E-003;-1.605634926818311E-003;
2.411833333333334E+009;1.660224944353104E-001;-2.893611229956150E-002;4.699970129877329E-003;-1.762685482390225E-003;
2.412000000000000E+009;1.662127077579498E-001;-3.113274276256561E-002;4.599324893206358E-003;-1.980106811970472E-003;
2.412166666666667E+009;1.666265726089478E-001;-3.313939645886421E-002;4.613699391484261E-003;-2.046857727691531E-003;
2.412333333333334E+009;1.671959012746811E-001;-3.495377674698830E-002;4.396446514874697E-003;-2.127341693267226E-003;
2.412500000000000E+009;1.674169600009918E-001;-3.697290644049645E-002;4.476252943277359E-003;-2.283446956425905E-003;
2.412666666666667E+009;1.681495904922485E-001;-3.916934505105019E-002;4.346198402345181E-003;-2.402033889666200E-003;
2.412833333333334E+009;1.687531173229218E-001;-4.069976508617401E-002;4.376618191599846E-003;-2.468715887516737E-003;
2.413000000000000E+009;1.694645881652832E-001;-4.249272868037224E-002;4.110808018594980E-003;-2.546017756685615E-003;
2.413166666666667E+009;1.701107770204544E-001;-4.403295740485191E-002;4.068996291607618E-003;-2.693250775337219E-003;
2.413333333333334E+009;1.708260625600815E-001;-4.567596688866615E-002;4.000473767518997E-003;-2.856186591088772E-003;
2.413500000000000E+009;1.716055572032929E-001;-4.704577475786209E-002;3.903255565091968E-003;-2.956062089651823E-003;
2.413666666666667E+009;1.724069565534592E-001;-4.864145070314407E-002;3.904731944203377E-003;-2.838128944858909E-003;
2.413833333333334E+009;1.733210533857346E-001;-4.997666925191879E-002;3.900571726262569E-003;-2.880582120269537E-003;
2.414000000000000E+009;1.739161312580109E-001;-5.111526325345039E-002;3.851734101772308E-003;-3.206652356311679E-003;
2.414166666666667E+009;1.747248619794846E-001;-5.214895308017731E-002;3.689607838168740E-003;-3.289516782388091E-003;
2.414333333333334E+009;1.753884106874466E-001;-5.339019000530243E-002;3.620419418439269E-003;-3.362499177455902E-003;
2.414500000000000E+009;1.763309389352799E-001;-5.413469672203064E-002;3.533170558512211E-003;-3.497722558677197E-003;
2.414666666666667E+009;1.769246757030487E-001;-5.493954941630364E-002;3.503694431856275E-003;-3.710654797032476E-003;
2.414833333333334E+009;1.774626076221466E-001;-5.574433505535126E-002;3.322656964883208E-003;-3.893050830811262E-003;
2.415000000000000E+009;1.779900193214417E-001;-5.624940991401672E-002;3.285143524408341E-003;-4.163113422691822E-003;
2.415166666666667E+009;1.784678399562836E-001;-5.683740600943565E-002;3.089554142206907E-003;-4.072600975632668E-003;
2.415333333333334E+009;1.789987236261368E-001;-5.732041969895363E-002;3.059594659134746E-003;-4.274992272257805E-003;
2.415500000000000E+009;1.793506592512131E-001;-5.767850950360298E-002;2.822103677317500E-003;-4.398109391331673E-003;
2.415666666666667E+009;1.793956458568573E-001;-5.790156126022339E-002;2.622629282996059E-003;-4.567554220557213E-003;
2.415833333333334E+009;1.796531975269318E-001;-5.812469497323036E-002;2.499878872185946E-003;-4.735789727419615E-003;
2.416000000000000E+009;1.796777248382568E-001;-5.834126472473145E-002;2.258400898426771E-003;-4.937824793159962E-003;
2.416166666666667E+009;1.797476857900620E-001;-5.824938416481018E-002;2.121557714417577E-003;-4.846560768783093E-003;
2.416333333333334E+009;1.794702261686325E-001;-5.841027945280075E-002;1.927868928760290E-003;-4.931149072945118E-003;
2.416500000000000E+009;1.793492883443832E-001;-5.846726149320602E-002;1.671009114943445E-003;-5.010416731238365E-003;
2.416666666666667E+009;1.788053512573242E-001;-5.857067555189133E-002;1.631977385841310E-003;-4.978101700544357E-003;
2.416833333333334E+009;1.785523444414139E-001;-5.867021158337593E-002;1.406581141054630E-003;-5.165225826203823E-003;
2.417000000000000E+009;1.778024733066559E-001;-5.867478251457214E-002;1.439017476513982E-003;-5.169406533241272E-003;
2.417166666666667E+009;1.770324558019638E-001;-5.868774279952049E-002;9.676950867287815E-004;-5.120404064655304E-003;
2.417333333333334E+009;1.763861179351807E-001;-5.873071029782295E-002;6.294092163443565E-004;-5.163275636732578E-003;
2.417500000000000E+009;1.754082888364792E-001;-5.912446230649948E-002;5.233131232671440E-004;-5.176642443984747E-003;
2.417666666666667E+009;1.745044589042664E-001;-5.897136405110359E-002;4.902621149085462E-004;-5.196905694901943E-003;
2.417833333333334E+009;1.735178083181381E-001;-5.927754938602448E-002;1.526677951915190E-004;-5.111687816679478E-003;
2.418000000000000E+009;1.722748279571533E-001;-5.962882563471794E-002;-3.985675357398577E-005;-5.006472114473581E-003;
2.418166666666667E+009;1.710879653692246E-001;-5.988338962197304E-002;-1.534546317998320E-004;-5.254109390079975E-003;
2.418333333333334E+009;1.700258851051331E-001;-6.027962267398834E-002;-4.015811427962035E-004;-4.998881369829178E-003;
2.418500000000000E+009;1.686830818653107E-001;-6.080428883433342E-002;-5.316399037837982E-004;-4.856975283473730E-003;
2.418666666666667E+009;1.672931313514710E-001;-6.144756823778153E-002;-8.479755488224328E-004;-4.847699776291847E-003;
2.418833333333334E+009;1.658392697572708E-001;-6.199137866497040E-002;-9.323087870143354E-004;-4.856787156313658E-003;
2.419000000000000E+009;1.644646227359772E-001;-6.277453899383545E-002;-1.064342213794589E-003;-4.888523370027542E-003;
2.419166666666667E+009;1.630994677543640E-001;-6.360375136137009E-002;-1.181317726150155E-003;-4.748336505144835E-003;
2.419333333333334E+009;1.615600734949112E-001;-6.438797712326050E-002;-1.412164419889450E-003;-4.696974065154791E-003;
2.419500000000000E+009;1.602644026279450E-001;-6.560368835926056E-002;-1.542823156341910E-003;-4.530079197138548E-003;
2.419666666666667E+009;1.590589731931686E-001;-6.668654084205627E-002;-1.618201495148242E-003;-4.528081510215998E-003;
2.419833333333334E+009;1.576287001371384E-001;-6.776561588048935E-002;-1.549279084429145E-003;-4.331802017986774E-003;
2.420000000000000E+009;1.563893705606461E-001;-6.908903270959854E-002;-1.827632077038288E-003;-4.207432270050049E-003;
2.420166666666667E+009;1.551778912544251E-001;-7.051715254783630E-002;-2.146656857803464E-003;-4.110640846192837E-003;
2.420333333333334E+009;1.539825350046158E-001;-7.188846915960312E-002;-2.105987630784512E-003;-4.061582963913679E-003;
2.420500000000000E+009;1.529923379421234E-001;-7.329048216342926E-002;-2.292842604219914E-003;-3.952034283429384E-003;
2.420666666666667E+009;1.520768105983734E-001;-7.466603070497513E-002;-2.299455227330327E-003;-3.787067253142595E-003;
2.420833333333334E+009;1.511883586645126E-001;-7.658645510673523E-002;-2.417251002043486E-003;-3.792205126956105E-003;
2.421000000000000E+009;1.501480489969254E-001;-7.840891182422638E-002;-2.431224798783660E-003;-3.735548583790660E-003;
2.421166666666667E+009;1.496334820985794E-001;-7.996449619531632E-002;-2.551012439653277E-003;-3.473793854936957E-003;
2.421333333333334E+009;1.490896046161652E-001;-8.187226206064224E-002;-2.696560230106115E-003;-3.341706003993750E-003;
2.421500000000000E+009;1.485856026411057E-001;-8.355335891246796E-002;-2.644904190674424E-003;-3.266711020842195E-003;
2.421666666666667E+009;1.480187028646469E-001;-8.521495759487152E-002;-2.807640237733722E-003;-3.211488714441657E-003;
2.421833333333334E+009;1.479955315589905E-001;-8.729944378137589E-002;-2.833242528140545E-003;-3.039850620552898E-003;
2.422000000000000E+009;1.477566957473755E-001;-8.914330601692200E-002;-2.865864662453532E-003;-2.909322502091527E-003;
2.422166666666667E+009;1.476789265871048E-001;-9.114424884319305E-002;-3.161060158163309E-003;-2.900538733229041E-003;
2.422333333333334E+009;1.477262675762177E-001;-9.287095814943314E-002;-2.987702609971166E-003;-2.853760030120611E-003;
2.422500000000000E+009;1.477144062519074E-001;-9.448425471782684E-002;-3.033763030543923E-003;-2.726084087044001E-003;
2.422666666666667E+009;1.478747576475143E-001;-9.637098014354706E-002;-3.233683761209250E-003;-2.518153283745050E-003;
2.422833333333334E+009;1.482313126325607E-001;-9.836141765117645E-002;-3.399068256840110E-003;-2.358417492359877E-003;
2.423000000000000E+009;1.485683768987656E-001;-9.975388646125794E-002;-3.376438515260816E-003;-2.459035953506827E-003;
2.423166666666667E+009;1.491944640874863E-001;-1.014184281229973E-001;-3.429191187024117E-003;-2.398264827206731E-003;
2.423333333333334E+009;1.496788412332535E-001;-1.028038188815117E-001;-3.491566982120276E-003;-2.239784225821495E-003;
2.423500000000000E+009;1.502119302749634E-001;-1.044468507170677E-001;-3.503345418721438E-003;-1.967661315575242E-003;
2.423666666666667E+009;1.506264209747315E-001;-1.059171780943871E-001;-3.571816254407167E-003;-1.898175920359790E-003;
2.423833333333334E+009;1.515592038631439E-001;-1.072963252663612E-001;-3.672727383673191E-003;-1.712599070742726E-003;
2.424000000000000E+009;1.519009023904800E-001;-1.084244996309280E-001;-3.738294122740626E-003;-1.457379315979779E-003;
2.424166666666667E+009;1.524736583232880E-001;-1.097169294953346E-001;-3.865121863782406E-003;-1.405065529979765E-003;
2.424333333333334E+009;1.532933115959168E-001;-1.107545346021652E-001;-3.815255127847195E-003;-1.201046630740166E-003;
2.424500000000000E+009;1.540407687425613E-001;-1.117201149463654E-001;-3.859376069158316E-003;-9.551838156767190E-004;
2.424666666666667E+009;1.547350436449051E-001;-1.125502958893776E-001;-3.880314063280821E-003;-7.994174375198782E-004;
2.424833333333334E+009;1.552968770265579E-001;-1.135337948799133E-001;-3.804878098890185E-003;-6.220126524567604E-004;
2.425000000000000E+009;1.558558046817780E-001;-1.141972616314888E-001;-3.856345545500517E-003;-3.692339232657105E-004;
2.425166666666667E+009;1.561998128890991E-001;-1.148458346724510E-001;-3.616932779550552E-003;-4.098266654182226E-004;
2.425333333333334E+009;1.567409634590149E-001;-1.152914837002754E-001;-3.736044047400355E-003;-2.707074454519898E-004;
2.425500000000000E+009;1.573550254106522E-001;-1.158548519015312E-001;-3.808952169492841E-003;-6.373810174409300E-005;
2.425666666666667E+009;1.574359238147736E-001;-1.163864806294441E-001;-3.572234651073813E-003;2.514561347197741E-004;
2.425833333333334E+009;1.578538864850998E-001;-1.165499612689018E-001;-3.518877318128943E-003;3.190271963831037E-004;
2.426000000000000E+009;1.578934192657471E-001;-1.168518513441086E-001;-3.554076654836536E-003;4.698405682574958E-004;
2.426166666666667E+009;1.581617891788483E-001;-1.170457601547241E-001;-3.364873584359884E-003;6.780672119930387E-004;
2.426333333333334E+009;1.580455601215363E-001;-1.171926856040955E-001;-3.185402834787965E-003;8.531338535249233E-004;
2.426500000000000E+009;1.580624878406525E-001;-1.171742156147957E-001;-3.200486302375794E-003;8.766219252720475E-004;
2.426666666666667E+009;1.578636020421982E-001;-1.170507669448853E-001;-2.964781597256661E-003;9.902411838993430E-004;
2.426833333333334E+009;1.574634909629822E-001;-1.170895025134087E-001;-2.782433293759823E-003;1.125744311138988E-003;
2.427000000000000E+009;1.572251468896866E-001;-1.171505376696587E-001;-2.638695994392037E-003;1.085486845113337E-003;
2.427166666666667E+009;1.565642058849335E-001;-1.169416233897209E-001;-2.670160261914134E-003;1.217891694977880E-003;
2.427333333333334E+009;1.558476537466049E-001;-1.170253753662109E-001;-2.542997943237424E-003;1.330757979303598E-003;
2.427500000000000E+009;1.553317010402679E-001;-1.170933693647385E-001;-2.223270712420344E-003;1.322750351391733E-003;
2.427666666666667E+009;1.542972475290299E-001;-1.170661002397537E-001;-2.213443862274289E-003;1.283930614590645E-003;
