# Version 1.00
#
freq[Hz];re:Trc1_S11;im:Trc1_S11;re:Trc2_S21;im:Trc2_S21;
2.400000000000000E+009;1.556920260190964E-001;1.061276718974114E-001;-5.257047712802887E-003;3.842659993097186E-003;
2.400166666666667E+009;1.555714011192322E-001;1.038027852773666E-001;-5.255085881799460E-003;4.201046656817198E-003;
2.400333333333334E+009;1.555357426404953E-001;1.014607176184654E-001;-5.420264322310686E-003;4.391657188534737E-003;
2.400500000000000E+009;1.554969102144241E-001;9.862554818391800E-002;-5.432573612779379E-003;4.529170226305723E-003;
2.400666666666667E+009;1.555264890193939E-001;9.603063762187958E-002;-5.393343511968851E-003;4.822824615985155E-003;
2.400833333333334E+009;1.554419994354248E-001;9.310497343540192E-002;-5.221380386501551E-003;5.183130502700806E-003;
2.401000000000000E+009;1.557144969701767E-001;9.025864303112030E-002;-5.202250089496374E-003;5.469917319715023E-003;
2.401166666666667E+009;1.557833403348923E-001;8.751018345355988E-002;-4.957016557455063E-003;5.876275710761547E-003;
2.401333333333334E+009;1.561113297939301E-001;8.456532657146454E-002;-5.006821360439062E-003;6.129689514636993E-003;
2.401500000000000E+009;1.564426869153976E-001;8.159991353750229E-002;-4.834202118217945E-003;6.406112108379602E-003;
2.401666666666667E+009;1.567912697792053E-001;7.876055687665939E-002;-4.669374320656061E-003;6.775679532438517E-003;
2.401833333333334E+009;1.575064510107040E-001;7.589172571897507E-002;-4.232231527566910E-003;6.900399923324585E-003;
2.402000000000000E+009;1.581870019435883E-001;7.295718044042587E-002;-3.972098696976900E-003;7.187011651694775E-003;
2.402166666666667E+009;1.587656140327454E-001;7.059425115585327E-002;-3.650655038654804E-003;7.417927496135235E-003;
2.402333333333334E+009;1.597335636615753E-001;6.761300563812256E-002;-3.568680025637150E-003;7.432207465171814E-003;
2.402500000000000E+009;1.610036492347717E-001;6.525503098964691E-002;-3.324559889733791E-003;7.749400101602078E-003;
2.402666666666667E+009;1.619148701429367E-001;6.263685226440430E-002;-2.839028136804700E-003;8.094081655144692E-003;
2.402833333333334E+009;1.631360799074173E-001;6.019692867994309E-002;-2.590041141957045E-003;8.245479315519333E-003;
2.403000000000000E+009;1.645331829786301E-001;5.788601562380791E-002;-2.149963052943349E-003;8.337075822055340E-003;
2.403166666666667E+009;1.661359071731567E-001;5.577317997813225E-002;-1.873625325970352E-003;8.643838576972485E-003;
2.403333333333334E+009;1.676341891288757E-001;5.330387875437737E-002;-1.338006579317153E-003;8.574919775128365E-003;
2.403500000000000E+009;1.691994220018387E-001;5.127151682972908E-002;-9.017873671837151E-004;8.734074421226978E-003;
2.403666666666667E+009;1.709352135658264E-001;4.959166795015335E-002;-6.997797754593194E-004;8.778533898293972E-003;
2.403833333333334E+009;1.725056618452072E-001;4.751807078719139E-002;-2.355907636228949E-004;8.810958825051785E-003;
2.404000000000000E+009;1.739098429679871E-001;4.568424820899963E-002;3.017777635250241E-004;8.579677902162075E-003;
2.404166666666667E+009;1.756725758314133E-001;4.442334175109863E-002;7.125405827537179E-004;8.571935817599297E-003;
2.404333333333334E+009;1.771906465291977E-001;4.272107407450676E-002;1.186890644021332E-003;8.432818576693535E-003;
2.404500000000000E+009;1.787880361080170E-001;4.141643270850182E-002;1.463579596020281E-003;8.314404636621475E-003;
2.404666666666667E+009;1.803310364484787E-001;4.039790853857994E-002;1.943868235684931E-003;8.264086209237576E-003;
2.404833333333334E+009;1.819131523370743E-001;3.930900990962982E-002;2.117118798196316E-003;7.960243150591850E-003;
2.405000000000000E+009;1.832660883665085E-001;3.872944787144661E-002;2.471175277605653E-003;7.818077690899372E-003;
2.405166666666667E+009;1.847096383571625E-001;3.812117874622345E-002;2.800961257889867E-003;7.451954297721386E-003;
2.405333333333334E+009;1.859087198972702E-001;3.756330534815788E-002;2.991751069203019E-003;7.374356500804424E-003;
2.405500000000000E+009;1.874546855688095E-001;3.720179200172424E-002;2.920295344665647E-003;7.081169169396162E-003;
2.405666666666667E+009;1.885341554880142E-001;3.682734072208405E-002;3.405805444344878E-003;6.901247426867485E-003;
2.405833333333334E+009;1.897437274456024E-001;3.664218634366989E-002;3.530502784997225E-003;6.655969191342592E-003;
2.406000000000000E+009;1.907276809215546E-001;3.655220568180084E-002;3.605314763262868E-003;6.545247975736857E-003;
2.406166666666667E+009;1.916386783123016E-001;3.646352142095566E-002;3.971890546381474E-003;6.296769715845585E-003;
2.406333333333334E+009;1.924496442079544E-001;3.662998974323273E-002;3.962055314332247E-003;6.046804599463940E-003;
2.406500000000000E+009;1.932665556669235E-001;3.671372681856155E-002;4.073407500982285E-003;5.846641492098570E-003;
2.406666666666667E+009;1.938993930816650E-001;3.676398470997810E-002;4.346593283116818E-003;5.615685600787401E-003;
2.406833333333334E+009;1.943169683218002E-001;3.687682375311852E-002;4.356802441179752E-003;5.513885524123907E-003;
2.407000000000000E+009;1.947164833545685E-001;3.723037242889404E-002;4.606477916240692E-003;5.309506319463253E-003;
2.407166666666667E+009;1.949988752603531E-001;3.705657646059990E-002;4.579784348607063E-003;5.069790408015251E-003;
2.407333333333334E+009;1.948586702346802E-001;3.742263466119766E-002;4.641511477530003E-003;4.793844651430845E-003;
2.407500000000000E+009;1.947436183691025E-001;3.748561069369316E-002;4.803672432899475E-003;4.589888267219067E-003;
2.407666666666667E+009;1.947374939918518E-001;3.748477250337601E-002;4.783329088240862E-003;4.424220416694880E-003;
2.407833333333334E+009;1.943569332361221E-001;3.750171884894371E-002;4.926597233861685E-003;4.223273601382971E-003;
2.408000000000000E+009;1.942612230777741E-001;3.746968880295754E-002;4.938696045428515E-003;4.099782090634108E-003;
2.408166666666667E+009;1.936781108379364E-001;3.717445954680443E-002;4.864888265728951E-003;3.785522887483239E-003;
2.408333333333334E+009;1.932995468378067E-001;3.694161400198937E-002;4.882761742919684E-003;3.579703858122230E-003;
2.408500000000000E+009;1.925378739833832E-001;3.655208274722099E-002;4.668834153562784E-003;3.509754547849298E-003;
2.408666666666667E+009;1.919856220483780E-001;3.602840378880501E-002;4.866678733378649E-003;3.341892734169960E-003;
2.408833333333334E+009;1.912303268909454E-001;3.532247245311737E-002;4.741348791867495E-003;3.197493264451623E-003;
2.409000000000000E+009;1.902663558721542E-001;3.461179509758949E-002;4.653984215110540E-003;3.107109107077122E-003;
2.409166666666667E+009;1.894094198942184E-001;3.357416018843651E-002;4.761585965752602E-003;2.869407646358013E-003;
2.409333333333334E+009;1.885205358266830E-001;3.258873894810677E-002;4.782097879797220E-003;2.831359859555960E-003;
2.409500000000000E+009;1.873808801174164E-001;3.133553266525269E-002;4.691421519964933E-003;2.834499115124345E-003;
2.409666666666667E+009;1.864444166421890E-001;2.992721833288670E-002;4.654093645513058E-003;2.634753473103046E-003;
2.409833333333334E+009;1.854133009910584E-001;2.855954878032208E-002;4.472472239285708E-003;2.526884898543358E-003;
2.410000000000000E+009;1.843451410531998E-001;2.699029818177223E-002;4.382560029625893E-003;2.586791059002280E-003;
2.410166666666667E+009;1.834151297807694E-001;2.510665729641914E-002;4.415778443217278E-003;2.504442818462849E-003;
2.410333333333334E+009;1.825221627950668E-001;2.335895411670208E-002;4.537516739219427E-003;2.507848432287574E-003;
2.410500000000000E+009;1.816213876008987E-001;2.135075069963932E-002;4.607417155057192E-003;2.378120319917798E-003;
2.410666666666667E+009;1.806755363941193E-001;1.913439109921455E-002;4.524539224803448E-003;2.348939655348659E-003;
2.410833333333334E+009;1.800017505884171E-001;1.706501282751560E-002;4.575503990054131E-003;2.541193971410394E-003;
2.411000000000000E+009;1.793120950460434E-001;1.478473749011755E-002;4.564431961625814E-003;2.300169784575701E-003;
2.411166666666667E+009;1.786765754222870E-001;1.256221160292625E-002;4.673041868954897E-003;2.222279319539666E-003;
2.411333333333334E+009;1.782674640417099E-001;1.011301670223475E-002;4.699900280684233E-003;2.288962481543422E-003;
2.411500000000000E+009;1.777471899986267E-001;7.773302961140871E-003;4.851417616009712E-003;2.088961191475391E-003;
2.411666666666667E+009;1.775312721729279E-001;5.314561072736979E-003;4.824508447200060E-003;2.171815838664770E-003;
2.411833333333334E+009;1.773380935192108E-001;2.935658907517791E-003;4.776586312800646E-003;1.951404614374042E-003;
2.412000000000000E+009;1.773792058229446E-001;2.735479210969061E-004;4.848517477512360E-003;1.951399026438594E-003;
2.412166666666667E+009;1.775430887937546E-001;-1.744310487993062E-003;4.866616334766150E-003;1.823989092372358E-003;
2.412333333333334E+009;1.778605431318283E-001;-4.384885076433420E-003;4.927618429064751E-003;1.871841144748032E-003;
2.412500000000000E+009;1.783868074417114E-001;-6.910902447998524E-003;5.024883430451155E-003;1.584748621098697E-003;
2.412666666666667E+009;1.789576262235642E-001;-9.423912502825260E-003;5.044981371611357E-003;1.810546731576324E-003;
2.412833333333334E+009;1.797204762697220E-001;-1.168526988476515E-002;5.123981274664402E-003;1.588928978890181E-003;
2.413000000000000E+009;1.804737150669098E-001;-1.412379089742899E-002;5.069846753031015E-003;1.616306253708899E-003;
2.413166666666667E+009;1.811464875936508E-001;-1.630418933928013E-002;5.278138443827629E-003;1.483295694924891E-003;
2.413333333333334E+009;1.821531802415848E-001;-1.868608593940735E-002;5.386560689657927E-003;1.580731594003737E-003;
2.413500000000000E+009;1.833583414554596E-001;-2.100418694317341E-002;5.439373664557934E-003;1.338280853815377E-003;
2.413666666666667E+009;1.843506544828415E-001;-2.308585308492184E-002;5.674603860825300E-003;1.291568391025066E-003;
2.413833333333334E+009;1.855351477861404E-001;-2.503326907753944E-002;5.868206266313791E-003;1.063538133166730E-003;
2.414000000000000E+009;1.867199391126633E-001;-2.712463773787022E-002;5.778105929493904E-003;9.700140799395740E-004;
2.414166666666667E+009;1.879252642393112E-001;-2.887814491987228E-002;5.903251003473997E-003;1.038130256347358E-003;
2.414333333333334E+009;1.889346837997437E-001;-3.098054230213165E-002;5.989064462482929E-003;6.734135677106679E-004;
2.414500000000000E+009;1.903438568115234E-001;-3.230735659599304E-002;6.028097122907639E-003;4.766439960803837E-004;
2.414666666666667E+009;1.915252208709717E-001;-3.385563939809799E-002;6.122530438005924E-003;1.475002500228584E-004;
2.414833333333334E+009;1.926616728305817E-001;-3.512856364250183E-002;5.987379699945450E-003;1.844549988163635E-004;
2.415000000000000E+009;1.938257068395615E-001;-3.643482923507690E-002;6.057084538042545E-003;-1.599725874257274E-005;
2.415166666666667E+009;1.951550096273422E-001;-3.768169134855270E-002;6.273595150560141E-003;-2.146777551388368E-004;
2.415333333333334E+009;1.962080448865891E-001;-3.857762739062309E-002;6.146497093141079E-003;-2.626325585879386E-004;
2.415500000000000E+009;1.974214613437653E-001;-3.922493383288384E-002;6.373485550284386E-003;-3.959260648116469E-004;
2.415666666666667E+009;1.984412968158722E-001;-4.006163775920868E-002;6.306668743491173E-003;-6.621746579185128E-004;
2.415833333333334E+009;1.992954015731812E-001;-4.053898900747299E-002;6.287192925810814E-003;-8.311995770782232E-004;
2.416000000000000E+009;2.000572085380554E-001;-4.116547480225563E-002;6.394544616341591E-003;-1.017459202557802E-003;
2.416166666666667E+009;2.007373720407486E-001;-4.168972000479698E-002;6.463758647441864E-003;-1.301284064538777E-003;
2.416333333333334E+009;2.014041393995285E-001;-4.189445823431015E-002;6.500068586319685E-003;-1.423385227099061E-003;
2.416500000000000E+009;2.018438875675201E-001;-4.211662709712982E-002;6.496169138699770E-003;-1.569606363773346E-003;
2.416666666666667E+009;2.021804898977280E-001;-4.242162033915520E-002;6.605088245123625E-003;-1.925698597915471E-003;
2.416833333333334E+009;2.023986577987671E-001;-4.235633462667465E-002;6.485403515398502E-003;-2.164070960134268E-003;
2.417000000000000E+009;2.024782299995422E-001;-4.251491650938988E-002;6.560775451362133E-003;-2.344267675653100E-003;
2.417166666666667E+009;2.022241801023483E-001;-4.242528602480888E-002;6.596934981644154E-003;-2.670077607035637E-003;
2.417333333333334E+009;2.020197361707687E-001;-4.210180044174194E-002;6.414609961211681E-003;-3.095303196460009E-003;
2.417500000000000E+009;2.016723453998566E-001;-4.207840189337730E-002;6.353076081722975E-003;-3.152006305754185E-003;
2.417666666666667E+009;2.012599110603333E-001;-4.186708480119705E-002;6.248288787901402E-003;-3.371227765455842E-003;
2.417833333333334E+009;2.008285522460938E-001;-4.167892038822174E-002;6.143523380160332E-003;-3.655673237517476E-003;
2.418000000000000E+009;2.001093029975891E-001;-4.137827828526497E-002;5.973780527710915E-003;-3.884294070303440E-003;
2.418166666666667E+009;1.994800418615341E-001;-4.122998937964439E-002;6.064997054636478E-003;-4.161832854151726E-003;
2.418333333333334E+009;1.985800415277481E-001;-4.115932434797287E-002;5.702683236449957E-003;-4.494367633014917E-003;
2.418500000000000E+009;1.975225210189819E-001;-4.113465175032616E-002;5.640273913741112E-003;-4.537908826023340E-003;
2.418666666666667E+009;1.965437233448029E-001;-4.100504145026207E-002;5.521909799426794E-003;-4.529715050011873E-003;
2.418833333333334E+009;1.953390240669251E-001;-4.120800271630287E-002;5.365713965147734E-003;-5.052076652646065E-003;
2.419000000000000E+009;1.941131800413132E-001;-4.134895652532578E-002;5.096219945698977E-003;-5.045364610850811E-003;
2.419166666666667E+009;1.928717046976090E-001;-4.164049774408341E-002;5.042154807597399E-003;-5.290474742650986E-003;
2.419333333333334E+009;1.915039420127869E-001;-4.223367199301720E-002;4.755141679197550E-003;-5.588399246335030E-003;
2.419500000000000E+009;1.900690197944641E-001;-4.247125610709190E-002;4.470553714782000E-003;-5.637720692902803E-003;
2.419666666666667E+009;1.885446161031723E-001;-4.339481517672539E-002;4.298911429941654E-003;-5.688121076673269E-003;
2.419833333333334E+009;1.868358403444290E-001;-4.408188536763191E-002;4.130157642066479E-003;-5.879414733499289E-003;
2.420000000000000E+009;1.852915287017822E-001;-4.503615945577622E-002;3.867997322231531E-003;-6.066087167710066E-003;
2.420166666666667E+009;1.836538314819336E-001;-4.610869288444519E-002;3.682094626128674E-003;-6.214783061295748E-003;
2.420333333333334E+009;1.820917129516602E-001;-4.728943109512329E-002;3.396551823243499E-003;-6.094847340136766E-003;
2.420500000000000E+009;1.804509162902832E-001;-4.858432710170746E-002;3.162852255627513E-003;-6.177716422826052E-003;
2.420666666666667E+009;1.787031590938568E-001;-4.984641820192337E-002;3.016647184267640E-003;-6.298728752881289E-003;
2.420833333333334E+009;1.771818846464157E-001;-5.137156322598457E-002;2.870178082957864E-003;-6.380307488143444E-003;
2.421000000000000E+009;1.757978945970535E-001;-5.293325707316399E-002;2.615797799080610E-003;-6.425466854125261E-003;
2.421166666666667E+009;1.742814034223557E-001;-5.468520522117615E-002;2.403349149972200E-003;-6.555534433573484E-003;
2.421333333333334E+009;1.725463271141052E-001;-5.630690976977348E-002;2.107983222231269E-003;-6.506616715341806E-003;
2.421500000000000E+009;1.713165789842606E-001;-5.799742043018341E-002;1.975210383534432E-003;-6.548024248331785E-003;
2.421666666666667E+009;1.702780276536942E-001;-6.000645086169243E-002;1.660897512920201E-003;-6.526172161102295E-003;
2.421833333333334E+009;1.689146012067795E-001;-6.188692152500153E-002;1.370856072753668E-003;-6.590780336409807E-003;
2.422000000000000E+009;1.677782833576202E-001;-6.385017931461334E-002;1.233405782841146E-003;-6.721907760947943E-003;
2.422166666666667E+009;1.669105142354965E-001;-6.608519703149796E-002;1.083005568943918E-003;-6.620910950005055E-003;
2.422333333333334E+009;1.660065054893494E-001;-6.823946535587311E-002;8.778086048550904E-004;-6.632115691900253E-003;
2.422500000000000E+009;1.652834266424179E-001;-6.996224820613861E-002;4.978503566235304E-004;-6.456224247813225E-003;
2.422666666666667E+009;1.645341217517853E-001;-7.196812331676483E-002;3.862915618810803E-004;-6.434418261051178E-003;
2.422833333333334E+009;1.641712337732315E-001;-7.417947053909302E-002;3.747485970961861E-005;-6.531495600938797E-003;
2.423000000000000E+009;1.636998802423477E-001;-7.647669315338135E-002;-1.276535622309893E-004;-6.508754100650549E-003;
2.423166666666667E+009;1.632190048694611E-001;-7.832880318164825E-002;-4.714463721029460E-004;-6.341585889458656E-003;
2.423333333333334E+009;1.631889492273331E-001;-8.024277538061142E-002;-6.910345982760191E-004;-6.165101658552885E-003;
2.423500000000000E+009;1.630423963069916E-001;-8.217840641736984E-002;-9.493610123172402E-004;-6.003643386065960E-003;
2.423666666666667E+009;1.630183905363083E-001;-8.411525189876556E-002;-1.081388909369707E-003;-6.024912931025028E-003;
2.423833333333334E+009;1.629239320755005E-001;-8.590408414602280E-002;-1.331336330622435E-003;-5.799415521323681E-003;
2.424000000000000E+009;1.632121652364731E-001;-8.779770135879517E-002;-1.353407977148891E-003;-5.527670960873365E-003;
2.424166666666667E+009;1.632026582956314E-001;-8.935201168060303E-002;-1.531437854282558E-003;-5.503484047949314E-003;
2.424333333333334E+009;1.634902656078339E-001;-9.095596522092819E-002;-1.693763537332416E-003;-5.088442936539650E-003;
2.424500000000000E+009;1.637768000364304E-001;-9.275124967098236E-002;-1.767062698490918E-003;-5.117826163768768E-003;
2.424666666666667E+009;1.641629934310913E-001;-9.397552162408829E-002;-1.729202689602971E-003;-4.984534811228514E-003;
2.424833333333334E+009;1.646992564201355E-001;-9.535823017358780E-002;-1.821693498641253E-003;-4.804308526217938E-003;
2.425000000000000E+009;1.651089042425156E-001;-9.657905995845795E-002;-1.813214155845344E-003;-4.623134620487690E-003;
2.425166666666667E+009;1.654411256313324E-001;-9.765881299972534E-002;-1.902614487335086E-003;-4.637144971638918E-003;
2.425333333333334E+009;1.657368391752243E-001;-9.862525016069412E-002;-1.934726489707828E-003;-4.522086121141911E-003;
2.425500000000000E+009;1.661732792854309E-001;-9.955198317766190E-002;-1.884590950794518E-003;-4.367855377495289E-003;
2.425666666666667E+009;1.666896492242813E-001;-1.001737788319588E-001;-1.869697356596589E-003;-4.211900755763054E-003;
2.425833333333334E+009;1.670733839273453E-001;-1.010479927062988E-001;-1.941035850904882E-003;-4.138185642659664E-003;
2.426000000000000E+009;1.673746258020401E-001;-1.014203131198883E-001;-1.838622731156647E-003;-4.184626042842865E-003;
2.426166666666667E+009;1.678186953067780E-001;-1.019755080342293E-001;-1.862610341049731E-003;-4.024122841656208E-003;
2.426333333333334E+009;1.680415719747543E-001;-1.024146899580956E-001;-1.848288229666650E-003;-3.999459091573954E-003;
2.426500000000000E+009;1.684409826993942E-001;-1.027034819126129E-001;-1.962849404662848E-003;-4.027862101793289E-003;
2.426666666666667E+009;1.685970425605774E-001;-1.031405702233315E-001;-1.885126461274922E-003;-3.873640671372414E-003;
2.426833333333334E+009;1.688479930162430E-001;-1.032691746950150E-001;-1.987663097679615E-003;-4.091294482350349E-003;
2.427000000000000E+009;1.687874794006348E-001;-1.034652218222618E-001;-1.931469654664397E-003;-4.133125767111778E-003;
2.427166666666667E+009;1.688086390495300E-001;-1.035158261656761E-001;-1.906478777527809E-003;-4.067198373377323E-003;
2.427333333333334E+009;1.688493639230728E-001;-1.038592383265495E-001;-2.070510294288397E-003;-4.078973550349474E-003;
2.427500000000000E+009;1.684609800577164E-001;-1.040263473987579E-001;-2.314849058166146E-003;-4.085667897015810E-003;
2.427666666666667E+009;1.682618409395218E-001;-1.040074825286865E-001;-2.283028094097972E-003;-4.166784696280956E-003;
2.427833333333334E+009;1.678018271923065E-001;-1.041277498006821E-001;-2.380455844104290E-003;-4.208991304039955E-003;
