# Version 1.00
#
freq[Hz];re:Trc1_S11;im:Trc1_S11;re:Trc2_S21;im:Trc2_S21;
2.400000000000000E+009;1.553418040275574E-001;1.072465926408768E-001;-3.916205372661352E-003;6.777911912649870E-004;
2.400166666666667E+009;1.550236940383911E-001;1.049969419836998E-001;-3.925332799553871E-003;9.897665586322546E-004;
2.400333333333334E+009;1.552158594131470E-001;1.024246290326119E-001;-3.714122576639056E-003;9.186526876874268E-004;
2.400500000000000E+009;1.550884395837784E-001;9.977580606937408E-002;-3.799430327489972E-003;1.133291400037706E-003;
2.400666666666667E+009;1.552541106939316E-001;9.727367758750916E-002;-3.639006521552801E-003;1.253054477274418E-003;
2.400833333333334E+009;1.552314907312393E-001;9.441953152418137E-002;-3.747144946828485E-003;1.362795941531658E-003;
2.401000000000000E+009;1.554986387491226E-001;9.144012629985809E-002;-3.547008149325848E-003;1.467531546950340E-003;
2.401166666666667E+009;1.552866846323013E-001;8.853560686111450E-002;-3.570560365915299E-003;1.662044203840196E-003;
2.401333333333334E+009;1.559690535068512E-001;8.578839153051376E-002;-3.595148446038365E-003;1.722024171613157E-003;
2.401500000000000E+009;1.563009619712830E-001;8.290538936853409E-002;-3.529073903337121E-003;1.834016758948565E-003;
2.401666666666667E+009;1.565669924020767E-001;7.987986505031586E-002;-3.337809117510915E-003;1.942829811014235E-003;
2.401833333333334E+009;1.571320593357086E-001;7.722637057304382E-002;-3.449208801612258E-003;1.893473090603948E-003;
2.402000000000000E+009;1.581441164016724E-001;7.450853288173676E-002;-3.345953067764640E-003;2.179208677262068E-003;
2.402166666666667E+009;1.589643061161041E-001;7.183522731065750E-002;-3.243848681449890E-003;2.257403684780002E-003;
2.402333333333334E+009;1.598885208368301E-001;6.911404430866242E-002;-3.179159713909030E-003;2.223266987130046E-003;
2.402500000000000E+009;1.610069274902344E-001;6.655572354793549E-002;-3.255121875554323E-003;2.415227005258203E-003;
2.402666666666667E+009;1.623250693082809E-001;6.423617899417877E-002;-3.026358783245087E-003;2.420421456918120E-003;
2.402833333333334E+009;1.637075543403626E-001;6.164587289094925E-002;-2.990372478961945E-003;2.595898462459445E-003;
2.403000000000000E+009;1.651847958564758E-001;5.933632329106331E-002;-2.925406675785780E-003;2.439233707264066E-003;
2.403166666666667E+009;1.666250526905060E-001;5.720029026269913E-002;-2.984827617183328E-003;2.532173413783312E-003;
2.403333333333334E+009;1.682386845350266E-001;5.495406687259674E-002;-3.090741112828255E-003;2.769389888271689E-003;
2.403500000000000E+009;1.698991805315018E-001;5.282862484455109E-002;-3.032026579603553E-003;2.874773927032948E-003;
2.403666666666667E+009;1.716651171445847E-001;5.084367096424103E-002;-2.954556606709957E-003;2.872026292607188E-003;
2.403833333333334E+009;1.734275370836258E-001;4.899466037750244E-002;-2.798761939629912E-003;3.159263404086232E-003;
2.404000000000000E+009;1.747915297746658E-001;4.728467762470245E-002;-2.751778112724423E-003;3.171995282173157E-003;
2.404166666666667E+009;1.766041964292526E-001;4.554612934589386E-002;-2.808735473081470E-003;3.391581587493420E-003;
2.404333333333334E+009;1.782097071409226E-001;4.410897567868233E-002;-2.622642787173390E-003;3.608774393796921E-003;
2.404500000000000E+009;1.798044294118881E-001;4.274352267384529E-002;-2.407228108495474E-003;3.852735040709376E-003;
2.404666666666667E+009;1.815663129091263E-001;4.168194904923439E-002;-2.285107737407088E-003;3.947384189814329E-003;
2.404833333333334E+009;1.833073198795319E-001;4.059324413537979E-002;-2.020221902057529E-003;4.183344542980194E-003;
2.405000000000000E+009;1.845972537994385E-001;4.001924023032188E-002;-1.887376187369227E-003;4.121358040720224E-003;
2.405166666666667E+009;1.860647797584534E-001;3.916326910257340E-002;-1.623302465304732E-003;4.354810342192650E-003;
2.405333333333334E+009;1.875796467065811E-001;3.869812935590744E-002;-1.455196412280202E-003;4.267340060323477E-003;
2.405500000000000E+009;1.890109181404114E-001;3.831124305725098E-002;-1.312292995862663E-003;4.420775454491377E-003;
2.405666666666667E+009;1.902430653572083E-001;3.776938840746880E-002;-9.518375154584646E-004;4.461635835468769E-003;
2.405833333333334E+009;1.914011687040329E-001;3.756844624876976E-002;-8.079190738499165E-004;4.378401674330235E-003;
2.406000000000000E+009;1.925512701272965E-001;3.741225972771645E-002;-7.088166312314570E-004;4.375239368528128E-003;
2.406166666666667E+009;1.935561746358872E-001;3.736620023846626E-002;-5.516498349606991E-004;4.219820722937584E-003;
2.406333333333334E+009;1.945178210735321E-001;3.741899877786636E-002;-3.392800863366574E-004;4.292514640837908E-003;
2.406500000000000E+009;1.950817853212357E-001;3.735514730215073E-002;-1.760596205713227E-004;4.292399622499943E-003;
2.406666666666667E+009;1.958271116018295E-001;3.735926747322083E-002;-1.272151530429255E-005;4.053800832480192E-003;
2.406833333333334E+009;1.963199228048325E-001;3.742912039160729E-002;1.684032176854089E-004;4.235051572322846E-003;
2.407000000000000E+009;1.966982781887054E-001;3.763116523623467E-002;3.757642989512533E-004;4.115186631679535E-003;
2.407166666666667E+009;1.969708502292633E-001;3.734460100531578E-002;4.490443097893149E-004;3.995786421000958E-003;
2.407333333333334E+009;1.968555301427841E-001;3.743338957428932E-002;4.231372731737793E-004;3.882875433191657E-003;
2.407500000000000E+009;1.968308538198471E-001;3.761948645114899E-002;6.691662711091340E-004;3.860740689560771E-003;
2.407666666666667E+009;1.968257874250412E-001;3.759327530860901E-002;6.579100736416876E-004;3.714213147759438E-003;
2.407833333333334E+009;1.962993890047073E-001;3.743612021207809E-002;7.298279087990522E-004;3.641637973487377E-003;
2.408000000000000E+009;1.962960809469223E-001;3.736233711242676E-002;7.711510988883674E-004;3.748565446585417E-003;
2.408166666666667E+009;1.956387460231781E-001;3.702720627188683E-002;9.518006118014455E-004;3.692527534440160E-003;
2.408333333333334E+009;1.950866132974625E-001;3.661645948886871E-002;8.879706729203463E-004;3.543890081346035E-003;
2.408500000000000E+009;1.944015324115753E-001;3.618796914815903E-002;1.104429829865694E-003;3.498878097161651E-003;
2.408666666666667E+009;1.936714500188828E-001;3.556763380765915E-002;1.036159577779472E-003;3.478865139186382E-003;
2.408833333333334E+009;1.928323060274124E-001;3.492764756083489E-002;1.112509868107736E-003;3.429515985772014E-003;
2.409000000000000E+009;1.918905228376389E-001;3.385525941848755E-002;1.111792284063995E-003;3.310666419565678E-003;
2.409166666666667E+009;1.909475028514862E-001;3.301366418600082E-002;1.054768566973507E-003;3.215235657989979E-003;
2.409333333333334E+009;1.899281442165375E-001;3.212918341159821E-002;1.072771963663399E-003;3.248312044888735E-003;
2.409500000000000E+009;1.887747943401337E-001;3.065875172615051E-002;1.096301479265094E-003;3.379910020157695E-003;
2.409666666666667E+009;1.877277493476868E-001;2.935808710753918E-002;1.137692132033408E-003;3.439609659835696E-003;
2.409833333333334E+009;1.866301149129868E-001;2.774546667933464E-002;1.142148044891655E-003;3.468801034614444E-003;
2.410000000000000E+009;1.856854259967804E-001;2.613671496510506E-002;1.209192210808396E-003;3.409071359783411E-003;
2.410166666666667E+009;1.844694018363953E-001;2.428691089153290E-002;1.495245378464460E-003;3.448173170909286E-003;
2.410333333333334E+009;1.835367530584335E-001;2.263269387185574E-002;1.439284067600966E-003;3.490012139081955E-003;
2.410500000000000E+009;1.825245618820190E-001;2.066646516323090E-002;1.430590054951608E-003;3.469514427706599E-003;
2.410666666666667E+009;1.814712584018707E-001;1.836582832038403E-002;1.626854762434959E-003;3.626637859269977E-003;
2.410833333333334E+009;1.808013170957565E-001;1.627137139439583E-002;1.688832067884505E-003;3.710681805387139E-003;
2.411000000000000E+009;1.800365895032883E-001;1.389480940997601E-002;1.909184968098998E-003;3.522931598126888E-003;
2.411166666666667E+009;1.794365942478180E-001;1.189308427274227E-002;2.049542497843504E-003;3.678399836644530E-003;
2.411333333333334E+009;1.789060682058334E-001;9.351850487291813E-003;2.127339830622077E-003;3.626760095357895E-003;
2.411500000000000E+009;1.783140301704407E-001;6.905412301421166E-003;2.490010112524033E-003;3.542451653629541E-003;
2.411666666666667E+009;1.781974881887436E-001;4.559810273349285E-003;2.522937720641494E-003;3.528647590428591E-003;
2.411833333333334E+009;1.778973489999771E-001;2.113765105605125E-003;2.499484689906240E-003;3.466337686404586E-003;
2.412000000000000E+009;1.779992878437042E-001;-4.100260848645121E-004;2.864699577912688E-003;3.365659387782216E-003;
2.412166666666667E+009;1.780087202787399E-001;-2.713383873924613E-003;3.138240426778793E-003;3.287935629487038E-003;
2.412333333333334E+009;1.782437860965729E-001;-5.326520651578903E-003;3.238639794290066E-003;3.083598101511598E-003;
2.412500000000000E+009;1.785675138235092E-001;-7.693232037127018E-003;3.367401659488678E-003;3.043632023036480E-003;
2.412666666666667E+009;1.791326552629471E-001;-1.021773926913738E-002;3.463848959654570E-003;2.815874991938472E-003;
2.412833333333334E+009;1.798528730869293E-001;-1.247525308281183E-002;3.537740791216493E-003;2.749735722318292E-003;
2.413000000000000E+009;1.804587095975876E-001;-1.478570699691773E-002;3.749771276488900E-003;2.557411091402173E-003;
2.413166666666667E+009;1.812697947025299E-001;-1.730986125767231E-002;3.897631773725152E-003;2.303367247804999E-003;
2.413333333333334E+009;1.824257373809815E-001;-1.954407058656216E-002;3.936482127755880E-003;2.142206998541951E-003;
2.413500000000000E+009;1.831921190023422E-001;-2.171838469803333E-002;3.819856327027082E-003;1.967177493497729E-003;
2.413666666666667E+009;1.845615655183792E-001;-2.392399124801159E-002;3.879329888150096E-003;1.734597142785788E-003;
2.413833333333334E+009;1.856801062822342E-001;-2.581826411187649E-002;3.991477191448212E-003;1.646558055654168E-003;
2.414000000000000E+009;1.867596805095673E-001;-2.785675413906574E-002;3.952292259782553E-003;1.530657755210996E-003;
2.414166666666667E+009;1.881310641765595E-001;-2.971386164426804E-002;4.061546642333269E-003;1.181434956379235E-003;
2.414333333333334E+009;1.889508217573166E-001;-3.165149316191673E-002;4.036998376250267E-003;1.105122035369277E-003;
2.414500000000000E+009;1.904935240745544E-001;-3.304871544241905E-002;3.947234712541103E-003;9.921798482537270E-004;
2.414666666666667E+009;1.916030347347260E-001;-3.444349020719528E-002;3.983024973422289E-003;1.000770134851337E-003;
2.414833333333334E+009;1.927133351564407E-001;-3.593317419290543E-002;3.919259179383516E-003;7.885714876465499E-004;
2.415000000000000E+009;1.938305497169495E-001;-3.716829046607018E-002;3.967129159718752E-003;4.564419214148074E-004;
2.415166666666667E+009;1.950014680624008E-001;-3.809147700667381E-002;4.051296971738339E-003;4.776427231263369E-004;
2.415333333333334E+009;1.962314993143082E-001;-3.903934732079506E-002;3.906774800270796E-003;3.930005768779665E-004;
2.415500000000000E+009;1.972873955965042E-001;-3.973862528800964E-002;3.893894609063864E-003;1.424750225851312E-004;
2.415666666666667E+009;1.984378099441528E-001;-4.068829491734505E-002;3.912265412509441E-003;5.824387335451320E-005;
2.415833333333334E+009;1.992438137531281E-001;-4.119152575731278E-002;3.799034049734473E-003;4.401899059303105E-005;
2.416000000000000E+009;2.000297009944916E-001;-4.179082065820694E-002;3.829213790595532E-003;-2.034886128967628E-004;
2.416166666666667E+009;2.007464766502380E-001;-4.218532890081406E-002;3.909412305802107E-003;-2.590323565527797E-004;
2.416333333333334E+009;2.013743966817856E-001;-4.242845252156258E-002;3.693101694807410E-003;-3.022663877345622E-004;
2.416500000000000E+009;2.019215673208237E-001;-4.278101399540901E-002;3.704999340698123E-003;-3.424568567425013E-004;
2.416666666666667E+009;2.021889239549637E-001;-4.300474748015404E-002;3.622398711740971E-003;-3.476866113487631E-004;
2.416833333333334E+009;2.023951411247253E-001;-4.299195855855942E-002;3.637041896581650E-003;-5.782493972219527E-004;
2.417000000000000E+009;2.024183422327042E-001;-4.299629107117653E-002;3.594416426494718E-003;-5.994079401716590E-004;
2.417166666666667E+009;2.021913081407547E-001;-4.286499693989754E-002;3.659262554720044E-003;-5.984175950288773E-004;
2.417333333333334E+009;2.019866406917572E-001;-4.267033189535141E-002;3.614256856963038E-003;-8.530835038982332E-004;
2.417500000000000E+009;2.017179578542709E-001;-4.269910231232643E-002;3.596386406570673E-003;-8.023621048778296E-004;
2.417666666666667E+009;2.011985927820206E-001;-4.235763102769852E-002;3.510348731651902E-003;-9.782408596947789E-004;
2.417833333333334E+009;2.008436322212219E-001;-4.217296838760376E-002;3.656816668808460E-003;-1.034722779877484E-003;
2.418000000000000E+009;2.000299543142319E-001;-4.197873547673225E-002;3.571957349777222E-003;-1.201605075038970E-003;
2.418166666666667E+009;1.992856711149216E-001;-4.196997359395027E-002;3.429294330999255E-003;-1.299247960560024E-003;
2.418333333333334E+009;1.983152627944946E-001;-4.170947894454002E-002;3.440024564042687E-003;-1.494061667472124E-003;
2.418500000000000E+009;1.974123865365982E-001;-4.172332212328911E-002;3.387268632650375E-003;-1.553128822706640E-003;
2.418666666666667E+009;1.964717060327530E-001;-4.159966483712196E-002;3.368344157934189E-003;-1.647288212552667E-003;
2.418833333333334E+009;1.951505988836289E-001;-4.165722802281380E-002;3.162275999784470E-003;-1.759901759214699E-003;
2.419000000000000E+009;1.938638389110565E-001;-4.193425923585892E-002;3.188950708135963E-003;-1.759394770488143E-003;
2.419166666666667E+009;1.925940811634064E-001;-4.219180718064308E-002;3.130011726170778E-003;-1.886087819002569E-003;
2.419333333333334E+009;1.910895705223084E-001;-4.271293431520462E-002;2.792472951114178E-003;-1.984146656468511E-003;
2.419500000000000E+009;1.896704137325287E-001;-4.304349049925804E-002;2.857447834685445E-003;-1.955310348421335E-003;
2.419666666666667E+009;1.880670934915543E-001;-4.386516287922859E-002;2.846610266715288E-003;-1.912323408760130E-003;
2.419833333333334E+009;1.864458620548248E-001;-4.462400451302528E-002;2.780291019007564E-003;-2.013502875342965E-003;
2.420000000000000E+009;1.848524659872055E-001;-4.539565369486809E-002;2.522476483136416E-003;-2.020281972363591E-003;
2.420166666666667E+009;1.833049803972244E-001;-4.637019708752632E-002;2.589252311736345E-003;-1.941020018421114E-003;
2.420333333333334E+009;1.818355172872543E-001;-4.761720448732376E-002;2.521153073757887E-003;-2.016076585277915E-003;
2.420500000000000E+009;1.799406558275223E-001;-4.888277873396874E-002;2.550511620938778E-003;-1.950642326846719E-003;
2.420666666666667E+009;1.782280206680298E-001;-5.002304911613464E-002;2.591414377093315E-003;-2.018240280449390E-003;
2.420833333333334E+009;1.767773926258087E-001;-5.149097368121147E-002;2.603640779852867E-003;-2.085829852148891E-003;
2.421000000000000E+009;1.753129363059998E-001;-5.304943397641182E-002;2.422370715066791E-003;-2.037247410044074E-003;
2.421166666666667E+009;1.739958226680756E-001;-5.481792241334915E-002;2.559477230533958E-003;-2.164490986615419E-003;
2.421333333333334E+009;1.723277419805527E-001;-5.637704581022263E-002;2.664689440280199E-003;-2.322194632142782E-003;
2.421500000000000E+009;1.709240078926086E-001;-5.828462541103363E-002;2.460362622514367E-003;-2.464381279423833E-003;
2.421666666666667E+009;1.697724014520645E-001;-6.017423048615456E-002;2.347324276342988E-003;-2.403474878519774E-003;
2.421833333333334E+009;1.685546785593033E-001;-6.202077120542526E-002;2.388034481555224E-003;-2.642836887389422E-003;
2.422000000000000E+009;1.675227582454681E-001;-6.393469870090485E-002;2.342093037441373E-003;-2.768135396763682E-003;
2.422166666666667E+009;1.665446013212204E-001;-6.614290177822113E-002;2.225377596914768E-003;-2.684237435460091E-003;
2.422333333333334E+009;1.656082272529602E-001;-6.809427589178085E-002;2.094857394695282E-003;-2.883855253458023E-003;
2.422500000000000E+009;1.648683995008469E-001;-7.006501406431198E-002;2.091179601848126E-003;-2.955209696665406E-003;
2.422666666666667E+009;1.642304509878159E-001;-7.222665101289749E-002;2.090673195198178E-003;-2.952723996713758E-003;
2.422833333333334E+009;1.637578010559082E-001;-7.423859834671021E-002;2.034329809248447E-003;-3.099678549915552E-003;
2.423000000000000E+009;1.632204353809357E-001;-7.626257091760635E-002;1.762416562996805E-003;-3.238952020183206E-003;
2.423166666666667E+009;1.627567708492279E-001;-7.824524492025375E-002;1.751874340698123E-003;-3.266990417614579E-003;
2.423333333333334E+009;1.626451760530472E-001;-8.020395040512085E-002;1.650376245379448E-003;-3.342189360409975E-003;
2.423500000000000E+009;1.624132692813873E-001;-8.207577466964722E-002;1.499786740168929E-003;-3.366446122527123E-003;
2.423666666666667E+009;1.626148223876953E-001;-8.394430577754974E-002;1.267604180611670E-003;-3.451424883678556E-003;
2.423833333333334E+009;1.626655906438828E-001;-8.580774068832398E-002;1.242745784111321E-003;-3.495717421174049E-003;
2.424000000000000E+009;1.627544164657593E-001;-8.747933804988861E-002;1.054414082318544E-003;-3.503715153783560E-003;
2.424166666666667E+009;1.627636998891830E-001;-8.904317021369934E-002;9.421872673556209E-004;-3.595597343519330E-003;
2.424333333333334E+009;1.630156636238098E-001;-9.061410278081894E-002;6.437149713747203E-004;-3.618018236011267E-003;
2.424500000000000E+009;1.635245680809021E-001;-9.233372658491135E-002;6.779920076951385E-004;-3.599961288273335E-003;
2.424666666666667E+009;1.638154387474060E-001;-9.360004961490631E-002;4.491228319238871E-004;-3.648335346952081E-003;
2.424833333333334E+009;1.642710864543915E-001;-9.500621259212494E-002;2.206551580457017E-004;-3.653416642919183E-003;
2.425000000000000E+009;1.647728681564331E-001;-9.608402848243713E-002;2.156559203285724E-004;-3.584647551178932E-003;
2.425166666666667E+009;1.650110185146332E-001;-9.721730649471283E-002;7.456907042069361E-005;-3.550148569047451E-003;
2.425333333333334E+009;1.654065996408463E-001;-9.815584868192673E-002;3.603906952776015E-005;-3.481720574200153E-003;
2.425500000000000E+009;1.658605933189392E-001;-9.910351037979126E-002;-2.039501705439761E-004;-3.393257735297084E-003;
2.425666666666667E+009;1.662446707487106E-001;-9.981232881546021E-002;-3.368278848938644E-004;-3.461994463577867E-003;
2.425833333333334E+009;1.665721982717514E-001;-1.006764397025108E-001;-4.089898720849305E-004;-3.300598589703441E-003;
2.426000000000000E+009;1.670006513595581E-001;-1.011020243167877E-001;-6.150936242192984E-004;-3.260721452534199E-003;
2.426166666666667E+009;1.674102693796158E-001;-1.014441922307015E-001;-4.801172472070903E-004;-3.130953991785646E-003;
2.426333333333334E+009;1.675456911325455E-001;-1.020649001002312E-001;-7.626531878486276E-004;-3.034820547327399E-003;
2.426500000000000E+009;1.678834557533264E-001;-1.022819131612778E-001;-7.476761238649488E-004;-3.042721189558506E-003;
2.426666666666667E+009;1.681781858205795E-001;-1.026169583201408E-001;-8.070651092566550E-004;-3.077731700614095E-003;
2.426833333333334E+009;1.683803200721741E-001;-1.029804646968842E-001;-9.571649134159088E-004;-2.761680865660310E-003;
2.427000000000000E+009;1.683877706527710E-001;-1.031323522329330E-001;-8.443817496299744E-004;-2.870327793061733E-003;
2.427166666666667E+009;1.684930622577667E-001;-1.030844226479530E-001;-9.615819435566664E-004;-2.928354777395725E-003;
2.427333333333334E+009;1.683426797389984E-001;-1.034489572048187E-001;-1.023432007059455E-003;-2.851977013051510E-003;
2.427500000000000E+009;1.681196391582489E-001;-1.034796386957169E-001;-9.417027467861772E-004;-2.731961198151112E-003;
2.427666666666667E+009;1.677957177162170E-001;-1.036102697253227E-001;-1.063214614987373E-003;-2.691248431801796E-003;
2.427833333333334E+009;1.673711538314819E-001;-1.037346795201302E-001;-1.093910774216056E-003;-2.649850677698851E-003;
