# Version 1.00
#
freq[Hz];re:Trc1_S11;im:Trc1_S11;re:Trc2_S21;im:Trc2_S21;
2.400000000000000E+009;1.552994698286057E-001;1.070626303553581E-001;-3.785440931096673E-003;9.119841270148754E-004;
2.400166666666667E+009;1.550612002611160E-001;1.046308502554894E-001;-3.863619174808264E-003;7.895114831626415E-004;
2.400333333333334E+009;1.552191376686096E-001;1.022886559367180E-001;-3.849359229207039E-003;1.092255697585642E-003;
2.400500000000000E+009;1.551271378993988E-001;9.975419193506241E-002;-3.689032047986984E-003;1.106544048525393E-003;
2.400666666666667E+009;1.551106572151184E-001;9.724580496549606E-002;-3.793359268456698E-003;1.308599603362382E-003;
2.400833333333334E+009;1.551732718944550E-001;9.416100382804871E-002;-3.701189532876015E-003;1.277198898606002E-003;
2.401000000000000E+009;1.553917974233627E-001;9.124605357646942E-002;-3.538166405633092E-003;1.478912658058107E-003;
2.401166666666667E+009;1.554367840290070E-001;8.849715441465378E-002;-3.504705848172307E-003;1.514579402282834E-003;
2.401333333333334E+009;1.556985527276993E-001;8.568844199180603E-002;-3.424563445150852E-003;1.716725761070848E-003;
2.401500000000000E+009;1.559643894433975E-001;8.243846148252487E-002;-3.471070900559425E-003;1.897110952995718E-003;
2.401666666666667E+009;1.564965993165970E-001;7.971167564392090E-002;-3.412062069401145E-003;1.920893904753029E-003;
2.401833333333334E+009;1.570686995983124E-001;7.693568617105484E-002;-3.329748986288905E-003;1.827627304010093E-003;
2.402000000000000E+009;1.579815894365311E-001;7.435651123523712E-002;-3.206069115549326E-003;2.280998276546598E-003;
2.402166666666667E+009;1.586707979440689E-001;7.166586816310883E-002;-3.180228173732758E-003;2.281697001308203E-003;
2.402333333333334E+009;1.596569269895554E-001;6.903132796287537E-002;-3.115140367299318E-003;2.210135105997324E-003;
2.402500000000000E+009;1.609022468328476E-001;6.648705899715424E-002;-3.109928919002414E-003;2.323597669601440E-003;
2.402666666666667E+009;1.619963794946671E-001;6.400172412395477E-002;-2.920932369306684E-003;2.433510730043054E-003;
2.402833333333334E+009;1.631837636232376E-001;6.154491379857063E-002;-2.979743760079145E-003;2.367418492212892E-003;
2.403000000000000E+009;1.648437976837158E-001;5.923967435956001E-002;-2.917349571362138E-003;2.583251334726811E-003;
2.403166666666667E+009;1.666304618120194E-001;5.700710415840149E-002;-2.838953165337443E-003;2.450135070830584E-003;
2.403333333333334E+009;1.679652333259583E-001;5.469921231269836E-002;-2.775197383016348E-003;2.662000013515353E-003;
2.403500000000000E+009;1.695790290832520E-001;5.275518819689751E-002;-2.986595034599304E-003;2.656743396073580E-003;
2.403666666666667E+009;1.715618818998337E-001;5.072404816746712E-002;-2.722256351262331E-003;2.865525195375085E-003;
2.403833333333334E+009;1.731067299842835E-001;4.886603355407715E-002;-2.758824266493321E-003;2.993515459820628E-003;
2.404000000000000E+009;1.746755689382553E-001;4.720007628202438E-002;-2.634337870404124E-003;3.043344710022211E-003;
2.404166666666667E+009;1.764805316925049E-001;4.559723660349846E-002;-2.824736293405294E-003;3.288749372586608E-003;
2.404333333333334E+009;1.780984401702881E-001;4.392584785819054E-002;-2.411542693153024E-003;3.676091087982059E-003;
2.404500000000000E+009;1.795630156993866E-001;4.253993928432465E-002;-2.441248157992959E-003;3.712667617946863E-003;
2.404666666666667E+009;1.813501119613648E-001;4.157177731394768E-002;-2.249105134978890E-003;3.845101920887828E-003;
2.404833333333334E+009;1.830204427242279E-001;4.055128991603851E-002;-2.106426516547799E-003;3.993039485067129E-003;
2.405000000000000E+009;1.843898892402649E-001;3.981062024831772E-002;-1.947656041011214E-003;4.229007288813591E-003;
2.405166666666667E+009;1.858117580413818E-001;3.908994421362877E-002;-1.732992241159082E-003;4.216772038489580E-003;
2.405333333333334E+009;1.873227059841156E-001;3.869159892201424E-002;-1.393460319377482E-003;4.299054853618145E-003;
2.405500000000000E+009;1.886982172727585E-001;3.819857910275459E-002;-1.064707059413195E-003;4.292798228561878E-003;
2.405666666666667E+009;1.899712532758713E-001;3.778911754488945E-002;-1.033739652484655E-003;4.256213549524546E-003;
2.405833333333334E+009;1.911481469869614E-001;3.758988529443741E-002;-8.389524300582707E-004;4.451170098036528E-003;
2.406000000000000E+009;1.922122389078140E-001;3.741149976849556E-002;-5.395640619099140E-004;4.207588266581297E-003;
2.406166666666667E+009;1.932667791843414E-001;3.737713024020195E-002;-4.419686156325042E-004;4.227582365274429E-003;
2.406333333333334E+009;1.942285150289536E-001;3.728161007165909E-002;-2.704515063669533E-004;4.200728144496679E-003;
2.406500000000000E+009;1.949989646673203E-001;3.726713359355927E-002;-1.676447136560455E-004;4.218883346766233E-003;
2.406666666666667E+009;1.956118792295456E-001;3.738310560584068E-002;8.808542770566419E-005;4.110095556825399E-003;
2.406833333333334E+009;1.960710436105728E-001;3.750305995345116E-002;3.974467836087570E-005;4.130848683416843E-003;
2.407000000000000E+009;1.963581591844559E-001;3.745378926396370E-002;9.702931129140779E-005;4.093177616596222E-003;
2.407166666666667E+009;1.968380808830261E-001;3.725767508149147E-002;2.826602139975876E-004;3.866511397063732E-003;
2.407333333333334E+009;1.967341601848602E-001;3.748972713947296E-002;5.213670665398240E-004;3.836923046037555E-003;
2.407500000000000E+009;1.966008096933365E-001;3.767397254705429E-002;5.021023680455983E-004;3.935694694519043E-003;
2.407666666666667E+009;1.966657340526581E-001;3.757707402110100E-002;5.378918722271919E-004;3.882794175297022E-003;
2.407833333333334E+009;1.961022168397903E-001;3.735673800110817E-002;6.934701232239604E-004;3.595305839553475E-003;
2.408000000000000E+009;1.959865540266037E-001;3.715433552861214E-002;8.879795204848051E-004;3.613136243075132E-003;
2.408166666666667E+009;1.953440010547638E-001;3.699180483818054E-002;8.372362935915589E-004;3.597090952098370E-003;
2.408333333333334E+009;1.949169337749481E-001;3.638789802789688E-002;9.748203447088599E-004;3.496264340355992E-003;
2.408500000000000E+009;1.942356973886490E-001;3.619253262877464E-002;9.465869516134262E-004;3.536475356668234E-003;
2.408666666666667E+009;1.934149712324143E-001;3.568095713853836E-002;1.051154802553356E-003;3.546345978975296E-003;
2.408833333333334E+009;1.926682889461517E-001;3.493329137563705E-002;1.016494119539857E-003;3.217086894437671E-003;
2.409000000000000E+009;1.916551738977432E-001;3.392801061272621E-002;1.000686897896230E-003;3.376544220373035E-003;
2.409166666666667E+009;1.906538903713226E-001;3.306658938527107E-002;1.159823965281248E-003;3.213550895452499E-003;
2.409333333333334E+009;1.897241920232773E-001;3.206681832671166E-002;1.018228707835078E-003;3.427631221711636E-003;
2.409500000000000E+009;1.884095668792725E-001;3.076367639005184E-002;1.067266566678882E-003;3.323673037812114E-003;
2.409666666666667E+009;1.875167340040207E-001;2.933070808649063E-002;1.176010584458709E-003;3.277170471847057E-003;
2.409833333333334E+009;1.864058673381805E-001;2.786692976951599E-002;1.130772987380624E-003;3.349793842062354E-003;
2.410000000000000E+009;1.853442490100861E-001;2.634110674262047E-002;1.242842175997794E-003;3.284549573436379E-003;
2.410166666666667E+009;1.844911426305771E-001;2.439319714903832E-002;1.195015385746956E-003;3.481080755591393E-003;
2.410333333333334E+009;1.833225041627884E-001;2.272683754563332E-002;1.272811787202954E-003;3.423391841351986E-003;
2.410500000000000E+009;1.822248697280884E-001;2.081525884568691E-002;1.445743837393820E-003;3.562214318662882E-003;
2.410666666666667E+009;1.814107596874237E-001;1.852161437273026E-002;1.517217489890754E-003;3.489952068775892E-003;
2.410833333333334E+009;1.808480918407440E-001;1.639549247920513E-002;1.709530013613403E-003;3.511585760861635E-003;
2.411000000000000E+009;1.799467653036118E-001;1.411394216120243E-002;1.783156651072204E-003;3.489536698907614E-003;
2.411166666666667E+009;1.792955994606018E-001;1.192928384989500E-002;1.841484219767153E-003;3.477055579423904E-003;
2.411333333333334E+009;1.786826401948929E-001;9.339170530438423E-003;2.135484479367733E-003;3.541454672813416E-003;
2.411500000000000E+009;1.782222986221314E-001;6.934187840670347E-003;2.317714737728238E-003;3.550420748069882E-003;
2.411666666666667E+009;1.780462563037872E-001;4.675688687711954E-003;2.513206098228693E-003;3.491672221571207E-003;
2.411833333333334E+009;1.776929199695587E-001;2.436132635921240E-003;2.601699437946081E-003;3.338958136737347E-003;
2.412000000000000E+009;1.778730303049088E-001;-3.505914064589888E-004;2.764809643849731E-003;3.187115537002683E-003;
2.412166666666667E+009;1.778584867715836E-001;-2.554764505475760E-003;2.852566540241242E-003;3.324881428852677E-003;
2.412333333333334E+009;1.780935674905777E-001;-5.151754710823298E-003;3.119589993730187E-003;3.159450134262443E-003;
2.412500000000000E+009;1.784095317125320E-001;-7.306015584617853E-003;3.338249400258064E-003;2.940868260338903E-003;
2.412666666666667E+009;1.790082454681397E-001;-9.896560572087765E-003;3.259531222283840E-003;2.872301032766700E-003;
2.412833333333334E+009;1.797181963920593E-001;-1.242025569081307E-002;3.550373716279864E-003;2.748151775449514E-003;
2.413000000000000E+009;1.803078353404999E-001;-1.474987529218197E-002;3.737764200195670E-003;2.582205692306161E-003;
2.413166666666667E+009;1.812934577465057E-001;-1.688302680850029E-002;3.747671842575073E-003;2.318776212632656E-003;
2.413333333333334E+009;1.823070794343948E-001;-1.930199749767780E-002;3.902944037690759E-003;2.089454792439938E-003;
2.413500000000000E+009;1.831074059009552E-001;-2.152446843683720E-002;3.772950498387218E-003;2.053291536867619E-003;
2.413666666666667E+009;1.844088137149811E-001;-2.366083301603794E-002;3.939516842365265E-003;1.703485962934792E-003;
2.413833333333334E+009;1.855184733867645E-001;-2.562509849667549E-002;3.933634608983994E-003;1.633239793591201E-003;
2.414000000000000E+009;1.864533126354218E-001;-2.755055576562882E-002;3.843412268906832E-003;1.470914459787309E-003;
2.414166666666667E+009;1.877889186143875E-001;-2.928700856864452E-002;3.933401778340340E-003;1.386388670653105E-003;
2.414333333333334E+009;1.889663636684418E-001;-3.128628432750702E-002;3.774118144065142E-003;1.141318818554282E-003;
2.414500000000000E+009;1.902244240045548E-001;-3.281055018305779E-002;3.975711297243834E-003;1.087890472263098E-003;
2.414666666666667E+009;1.914479583501816E-001;-3.423339501023293E-002;3.878972260281444E-003;9.126550867222250E-004;
2.414833333333334E+009;1.926691681146622E-001;-3.559792786836624E-002;3.962920513004065E-003;7.096981280483306E-004;
2.415000000000000E+009;1.938387155532837E-001;-3.686340153217316E-002;3.927696030586958E-003;6.582526257261634E-004;
2.415166666666667E+009;1.949814110994339E-001;-3.784917667508125E-002;3.867493942379952E-003;4.874100850429386E-004;
2.415333333333334E+009;1.960501074790955E-001;-3.883026912808418E-002;4.047593101859093E-003;3.788819303736091E-004;
2.415500000000000E+009;1.972832232713699E-001;-3.956347703933716E-002;3.961243666708469E-003;2.828337601386011E-004;
2.415666666666667E+009;1.983509808778763E-001;-4.025532677769661E-002;3.917980939149857E-003;1.661548303673044E-004;
2.415833333333334E+009;1.991667300462723E-001;-4.089262709021568E-002;3.876296570524573E-003;4.273247395758517E-005;
2.416000000000000E+009;1.999448388814926E-001;-4.141758754849434E-002;3.913021180778742E-003;5.326895552570932E-005;
2.416166666666667E+009;2.007173746824265E-001;-4.196348413825035E-002;3.738908562809229E-003;-2.022248954745010E-004;
2.416333333333334E+009;2.013761997222900E-001;-4.221054166555405E-002;3.786640474572778E-003;-3.759701794479042E-004;
2.416500000000000E+009;2.018677741289139E-001;-4.243844002485275E-002;3.778475802391768E-003;-3.509432135615498E-004;
2.416666666666667E+009;2.022099792957306E-001;-4.267428070306778E-002;3.629436716437340E-003;-4.069233254995197E-004;
2.416833333333334E+009;2.022878676652908E-001;-4.276861995458603E-002;3.613480366766453E-003;-3.119129978585988E-004;
2.417000000000000E+009;2.026229649782181E-001;-4.278752580285072E-002;3.642846597358584E-003;-5.949940532445908E-004;
2.417166666666667E+009;2.021439522504807E-001;-4.262235388159752E-002;3.509583650156856E-003;-5.388678982853890E-004;
2.417333333333334E+009;2.020812928676605E-001;-4.252680391073227E-002;3.506191773340106E-003;-8.988382178358734E-004;
2.417500000000000E+009;2.017626315355301E-001;-4.242837429046631E-002;3.514510812237859E-003;-9.077259455807507E-004;
2.417666666666667E+009;2.012616991996765E-001;-4.217991977930069E-002;3.454282414168119E-003;-1.009614556096494E-003;
2.417833333333334E+009;2.007977813482285E-001;-4.205840453505516E-002;3.437781240791082E-003;-9.208062547259033E-004;
2.418000000000000E+009;2.002260237932205E-001;-4.170938581228256E-002;3.527743509039283E-003;-1.052030827850103E-003;
2.418166666666667E+009;1.993401497602463E-001;-4.167741164565086E-002;3.449205774813891E-003;-1.245331368409097E-003;
2.418333333333334E+009;1.984290033578873E-001;-4.160113260149956E-002;3.462363732978702E-003;-1.363661256618798E-003;
2.418500000000000E+009;1.974114775657654E-001;-4.144973680377007E-002;3.216386772692204E-003;-1.443323795683682E-003;
2.418666666666667E+009;1.964483410120010E-001;-4.136055707931519E-002;3.271753666922450E-003;-1.541926991194487E-003;
2.418833333333334E+009;1.952267289161682E-001;-4.159518331289291E-002;3.190002171322703E-003;-1.574819441884756E-003;
2.419000000000000E+009;1.939064115285873E-001;-4.170818999409676E-002;3.031875705346465E-003;-1.768014975823462E-003;
2.419166666666667E+009;1.926877051591873E-001;-4.192406684160233E-002;3.123681992292404E-003;-1.814661547541618E-003;
2.419333333333334E+009;1.911002546548843E-001;-4.255064576864243E-002;2.856622915714979E-003;-1.881625619716942E-003;
2.419500000000000E+009;1.897825747728348E-001;-4.300919920206070E-002;2.793075982481241E-003;-1.862054108642042E-003;
2.419666666666667E+009;1.881370842456818E-001;-4.360545054078102E-002;2.772325649857521E-003;-1.898463582620025E-003;
2.419833333333334E+009;1.865156590938568E-001;-4.434521868824959E-002;2.603436354547739E-003;-1.980907516553998E-003;
2.420000000000000E+009;1.850816309452057E-001;-4.525236040353775E-002;2.675891853868961E-003;-1.877172500826418E-003;
2.420166666666667E+009;1.834413558244705E-001;-4.615073278546333E-002;2.502901013940573E-003;-2.104493323713541E-003;
2.420333333333334E+009;1.816761642694473E-001;-4.750011116266251E-002;2.553833881393075E-003;-1.872667344287038E-003;
2.420500000000000E+009;1.802099049091339E-001;-4.873125255107880E-002;2.589411335065961E-003;-1.993125071749091E-003;
2.420666666666667E+009;1.784983575344086E-001;-4.975998029112816E-002;2.692806068807840E-003;-2.052727155387402E-003;
2.420833333333334E+009;1.768682003021240E-001;-5.135420337319374E-002;2.609760500490665E-003;-2.102921251207590E-003;
2.421000000000000E+009;1.754475533962250E-001;-5.289338529109955E-002;2.515599597245455E-003;-2.134855138137937E-003;
2.421166666666667E+009;1.741023808717728E-001;-5.463951081037521E-002;2.410953864455223E-003;-2.285886788740754E-003;
2.421333333333334E+009;1.724329739809036E-001;-5.613942816853523E-002;2.528633456677198E-003;-2.294018864631653E-003;
2.421500000000000E+009;1.710736453533173E-001;-5.820358917117119E-002;2.599393250420690E-003;-2.393299946561456E-003;
2.421666666666667E+009;1.697601675987244E-001;-6.010672077536583E-002;2.470608800649643E-003;-2.429990796372294E-003;
2.421833333333334E+009;1.687055081129074E-001;-6.180376559495926E-002;2.488663652911782E-003;-2.574240555986762E-003;
2.422000000000000E+009;1.675962954759598E-001;-6.377491354942322E-002;2.382623730227351E-003;-2.620232990011573E-003;
2.422166666666667E+009;1.666539460420609E-001;-6.578950583934784E-002;2.287884708493948E-003;-2.843641443178058E-003;
2.422333333333334E+009;1.657923758029938E-001;-6.812477111816406E-002;2.119651762768626E-003;-2.857811748981476E-003;
2.422500000000000E+009;1.651068776845932E-001;-6.993560492992401E-002;2.271365839987993E-003;-2.886038739234209E-003;
2.422666666666667E+009;1.644620746374130E-001;-7.197682559490204E-002;2.153352601453662E-003;-3.088155062869191E-003;
2.422833333333334E+009;1.637216359376907E-001;-7.408861070871353E-002;2.027562353760004E-003;-3.181998850777745E-003;
2.423000000000000E+009;1.633704155683518E-001;-7.615953683853149E-002;1.936706714332104E-003;-3.280076663941145E-003;
2.423166666666667E+009;1.630920320749283E-001;-7.818525284528732E-002;1.843845122493804E-003;-3.272781381383538E-003;
2.423333333333334E+009;1.628712415695190E-001;-8.012350648641586E-002;1.624685712158680E-003;-3.401910420507193E-003;
2.423500000000000E+009;1.627530306577683E-001;-8.203020691871643E-002;1.515168230980635E-003;-3.480200888589025E-003;
2.423666666666667E+009;1.627300083637238E-001;-8.383170515298843E-002;1.548441010527313E-003;-3.568483749404550E-003;
2.423833333333334E+009;1.626756042242050E-001;-8.561196923255920E-002;1.225694781169295E-003;-3.676878055557609E-003;
2.424000000000000E+009;1.628081053495407E-001;-8.734533935785294E-002;1.367916818708181E-003;-3.493093186989427E-003;
2.424166666666667E+009;1.631253808736801E-001;-8.903619647026062E-002;8.946592570282519E-004;-3.742833156138659E-003;
2.424333333333334E+009;1.633208692073822E-001;-9.068123996257782E-002;9.034704416990280E-004;-3.730617463588715E-003;
2.424500000000000E+009;1.635442674160004E-001;-9.232268482446671E-002;5.285571678541601E-004;-3.672987455502152E-003;
2.424666666666667E+009;1.638736426830292E-001;-9.372919797897339E-002;4.862642090301961E-004;-3.714041318744421E-003;
2.424833333333334E+009;1.644435226917267E-001;-9.482723474502564E-002;2.598445571493357E-004;-3.667077980935574E-003;
2.425000000000000E+009;1.648749858140945E-001;-9.618290513753891E-002;8.946673187892884E-005;-3.561635036021471E-003;
2.425166666666667E+009;1.651449352502823E-001;-9.714131057262421E-002;5.281363701215014E-005;-3.649121150374413E-003;
2.425333333333334E+009;1.653738319873810E-001;-9.816099703311920E-002;3.196452962583862E-005;-3.419737098738551E-003;
2.425500000000000E+009;1.658945381641388E-001;-9.912189096212387E-002;-5.030379179515876E-005;-3.415860934183002E-003;
2.425666666666667E+009;1.663512736558914E-001;-9.989570081233978E-002;-3.027309139724821E-004;-3.312438959255815E-003;
2.425833333333334E+009;1.666643023490906E-001;-1.006613075733185E-001;-4.318294522818178E-004;-3.290309803560376E-003;
2.426000000000000E+009;1.671538054943085E-001;-1.009618490934372E-001;-4.791991086676717E-004;-3.241969272494316E-003;
2.426166666666667E+009;1.676645129919052E-001;-1.015005186200142E-001;-3.118574968539178E-004;-3.200615756213665E-003;
2.426333333333334E+009;1.677164584398270E-001;-1.020307689905167E-001;-5.111698992550373E-004;-3.084566676989198E-003;
2.426500000000000E+009;1.681286096572876E-001;-1.023189872503281E-001;-6.838918779976666E-004;-2.945795422419906E-003;
2.426666666666667E+009;1.683163642883301E-001;-1.025745570659638E-001;-6.725115235894918E-004;-3.082268871366978E-003;
2.426833333333334E+009;1.685939729213715E-001;-1.028998494148254E-001;-7.036427268758416E-004;-2.893891418352723E-003;
2.427000000000000E+009;1.686046123504639E-001;-1.030761972069740E-001;-8.290247060358524E-004;-2.903350163251162E-003;
2.427166666666667E+009;1.686152815818787E-001;-1.030984148383141E-001;-7.582086836919189E-004;-2.794044557958841E-003;
2.427333333333334E+009;1.685370057821274E-001;-1.033529490232468E-001;-9.846684988588095E-004;-2.750100102275610E-003;
2.427500000000000E+009;1.681479066610336E-001;-1.034976691007614E-001;-9.286477579735220E-004;-2.816655440256000E-003;
2.427666666666667E+009;1.678480803966522E-001;-1.037301719188690E-001;-9.910934604704380E-004;-2.706585451960564E-003;
2.427833333333334E+009;1.675177067518234E-001;-1.036807596683502E-001;-1.027579652145505E-003;-2.583098597824574E-003;
