# Version 1.00
#
freq[Hz];re:Trc1_S11;im:Trc1_S11;re:Trc2_S21;im:Trc2_S21;
2.400000000000000E+009;1.564579904079437E-001;1.057178452610970E-001;1.805293024517596E-003;-2.940579550340772E-003;
2.400166666666667E+009;1.564792394638062E-001;1.033845841884613E-001;1.849688705988228E-003;-3.158728359267116E-003;
2.400333333333334E+009;1.567770689725876E-001;1.011383906006813E-001;1.784217543900013E-003;-3.129821270704269E-003;
2.400500000000000E+009;1.570644080638886E-001;9.861905872821808E-002;1.732749515213072E-003;-3.174364101141691E-003;
2.400666666666667E+009;1.572448313236237E-001;9.613746404647827E-002;1.505904947407544E-003;-3.318831557407975E-003;
2.400833333333334E+009;1.574657261371613E-001;9.347217530012131E-002;1.522531383670867E-003;-3.308133687824011E-003;
2.401000000000000E+009;1.575984358787537E-001;9.062206745147705E-002;1.303900266066194E-003;-3.453195793554187E-003;
2.401166666666667E+009;1.579700410366058E-001;8.807766437530518E-002;1.102035981602967E-003;-3.587558399885893E-003;
2.401333333333334E+009;1.583396643400192E-001;8.534382283687592E-002;1.136561622843146E-003;-3.805741667747498E-003;
2.401500000000000E+009;1.588513106107712E-001;8.288092166185379E-002;1.074635889381170E-003;-3.820145502686501E-003;
2.401666666666667E+009;1.593050807714462E-001;8.002252876758575E-002;8.581037982366979E-004;-3.844997612759471E-003;
2.401833333333334E+009;1.598567217588425E-001;7.773481309413910E-002;8.340064086951315E-004;-3.829593071714044E-003;
2.402000000000000E+009;1.606641411781311E-001;7.497165352106094E-002;6.856953259557486E-004;-4.128764849156141E-003;
2.402166666666667E+009;1.616586297750473E-001;7.272490859031677E-002;4.984221886843443E-004;-3.962441347539425E-003;
2.402333333333334E+009;1.625633686780930E-001;7.011821866035461E-002;2.349721617065370E-004;-4.163213539868593E-003;
2.402500000000000E+009;1.635623276233673E-001;6.778366118669510E-002;1.412002311553806E-004;-4.065533168613911E-003;
2.402666666666667E+009;1.645535975694656E-001;6.550004333257675E-002;2.842130015778821E-005;-4.378670826554298E-003;
2.402833333333334E+009;1.659539192914963E-001;6.330795586109161E-002;-1.602851843927056E-004;-4.276576917618513E-003;
2.403000000000000E+009;1.671281009912491E-001;6.108931079506874E-002;-4.147473082412034E-004;-4.247386474162340E-003;
2.403166666666667E+009;1.686545759439468E-001;5.919786542654038E-002;-5.101888091303408E-004;-4.292164929211140E-003;
2.403333333333334E+009;1.701442003250122E-001;5.706657469272614E-002;-7.017931202426553E-004;-4.303534515202045E-003;
2.403500000000000E+009;1.716391444206238E-001;5.512502044439316E-002;-8.474203641526401E-004;-4.215836059302092E-003;
2.403666666666667E+009;1.731595546007156E-001;5.336426571011543E-002;-1.032154075801373E-003;-4.263936541974545E-003;
2.403833333333334E+009;1.746529489755631E-001;5.166257172822952E-002;-1.272584893740714E-003;-4.187411628663540E-003;
2.404000000000000E+009;1.760551035404205E-001;4.990683123469353E-002;-1.330700702965260E-003;-3.994443453848362E-003;
2.404166666666667E+009;1.776440441608429E-001;4.858352988958359E-002;-1.559869269840419E-003;-4.035991150885820E-003;
2.404333333333334E+009;1.791311949491501E-001;4.696883633732796E-002;-1.677597058005631E-003;-4.056542180478573E-003;
2.404500000000000E+009;1.805149912834168E-001;4.569255560636520E-002;-1.677209977060556E-003;-3.954548854380846E-003;
2.404666666666667E+009;1.820583045482636E-001;4.461806267499924E-002;-2.033658092841506E-003;-4.004025366157293E-003;
2.404833333333334E+009;1.833974719047546E-001;4.347193613648415E-002;-2.156675327569246E-003;-3.954447805881500E-003;
2.405000000000000E+009;1.845222860574722E-001;4.257784038782120E-002;-2.399715594947338E-003;-3.916866146028042E-003;
2.405166666666667E+009;1.858092695474625E-001;4.189259931445122E-002;-2.609704155474901E-003;-3.749364987015724E-003;
2.405333333333334E+009;1.868985444307327E-001;4.150271043181419E-002;-2.761454088613391E-003;-3.743468550965190E-003;
2.405500000000000E+009;1.882152855396271E-001;4.088885337114334E-002;-2.947173779830337E-003;-3.528892761096358E-003;
2.405666666666667E+009;1.892727464437485E-001;4.034508392214775E-002;-3.156598657369614E-003;-3.359518013894558E-003;
2.405833333333334E+009;1.902520507574081E-001;4.004377499222755E-002;-3.234613453969359E-003;-3.119185566902161E-003;
2.406000000000000E+009;1.912084221839905E-001;3.972611576318741E-002;-3.558274358510971E-003;-2.913573523983359E-003;
2.406166666666667E+009;1.920578330755234E-001;3.963578864932060E-002;-3.635679371654987E-003;-2.766096731647849E-003;
2.406333333333334E+009;1.928322613239288E-001;3.953869640827179E-002;-3.777155652642250E-003;-2.617444377392530E-003;
2.406500000000000E+009;1.934555023908615E-001;3.925980255007744E-002;-3.923093434423208E-003;-2.283842768520117E-003;
2.406666666666667E+009;1.939355731010437E-001;3.925948590040207E-002;-3.943119663745165E-003;-2.071816939860582E-003;
2.406833333333334E+009;1.944295614957809E-001;3.901697322726250E-002;-4.155770875513554E-003;-1.921047340147197E-003;
2.407000000000000E+009;1.946791857481003E-001;3.895531967282295E-002;-3.995940554887056E-003;-1.556687988340855E-003;
2.407166666666667E+009;1.950016021728516E-001;3.867685049772263E-002;-4.063253290951252E-003;-1.271085580810905E-003;
2.407333333333334E+009;1.949120014905930E-001;3.880423679947853E-002;-3.908348735421896E-003;-1.216486445628107E-003;
2.407500000000000E+009;1.948531270027161E-001;3.861473128199577E-002;-4.011887125670910E-003;-9.366946760565043E-004;
2.407666666666667E+009;1.948564797639847E-001;3.836937993764877E-002;-3.935556393116713E-003;-8.515374502167106E-004;
2.407833333333334E+009;1.945569962263107E-001;3.802375867962837E-002;-3.970897290855646E-003;-6.513273110613227E-004;
2.408000000000000E+009;1.945267021656036E-001;3.780956566333771E-002;-3.811130532994866E-003;-6.112150149419904E-004;
2.408166666666667E+009;1.940082758665085E-001;3.719883039593697E-002;-3.737966064363718E-003;-3.700449306052178E-004;
2.408333333333334E+009;1.937405467033386E-001;3.665164113044739E-002;-3.854121314361692E-003;-2.122544246958569E-004;
2.408500000000000E+009;1.931397616863251E-001;3.605757653713226E-002;-3.544677747413516E-003;1.764826738508418E-004;
2.408666666666667E+009;1.925145536661148E-001;3.547639772295952E-002;-3.611152293160558E-003;1.784037303877994E-004;
2.408833333333334E+009;1.919942647218704E-001;3.458832949399948E-002;-3.333657514303923E-003;2.209910162491724E-004;
2.409000000000000E+009;1.911441534757614E-001;3.349198773503304E-002;-3.392846789211035E-003;4.083836975041777E-004;
2.409166666666667E+009;1.905311793088913E-001;3.257983550429344E-002;-3.271176014095545E-003;4.490931169129908E-004;
2.409333333333334E+009;1.897488683462143E-001;3.148641809821129E-002;-3.141385968774557E-003;5.891419132240117E-004;
2.409500000000000E+009;1.888113170862198E-001;3.005309775471687E-002;-2.895640442147851E-003;7.179481908679009E-004;
2.409666666666667E+009;1.880463659763336E-001;2.861306630074978E-002;-2.763071563094854E-003;7.366939098574221E-004;
2.409833333333334E+009;1.871652752161026E-001;2.720521576702595E-002;-2.600639825686812E-003;8.709541871212423E-004;
2.410000000000000E+009;1.864184439182282E-001;2.575207501649857E-002;-2.585903974249959E-003;8.653761469759047E-004;
2.410166666666667E+009;1.855587661266327E-001;2.390374802052975E-002;-2.526886295527220E-003;8.896204526536167E-004;
2.410333333333334E+009;1.847541481256485E-001;2.204023860394955E-002;-2.298159524798393E-003;8.121466962620616E-004;
2.410500000000000E+009;1.840554773807526E-001;2.036635018885136E-002;-2.325940178707242E-003;8.627027273178101E-004;
2.410666666666667E+009;1.832858920097351E-001;1.809887588024139E-002;-2.257592044770718E-003;9.371683700010181E-004;
2.410833333333334E+009;1.829148232936859E-001;1.607723720371723E-002;-2.221357310190797E-003;8.449394372291863E-004;
2.411000000000000E+009;1.823123842477799E-001;1.401177793741226E-002;-2.150483196601272E-003;8.257655426859856E-004;
2.411166666666667E+009;1.817246377468109E-001;1.199354976415634E-002;-2.101528691127896E-003;9.182807989418507E-004;
2.411333333333334E+009;1.813348680734634E-001;9.511200711131096E-003;-2.018475905060768E-003;8.004225674085319E-004;
2.411500000000000E+009;1.809904128313065E-001;7.400800473988056E-003;-2.032215241342783E-003;6.779344985261560E-004;
2.411666666666667E+009;1.809111535549164E-001;5.216734483838081E-003;-2.000652020797133E-003;6.784157594665885E-004;
2.411833333333334E+009;1.807778030633926E-001;3.031895495951176E-003;-1.913535292260349E-003;8.319474291056395E-004;
2.412000000000000E+009;1.810144484043121E-001;7.248749607242644E-004;-1.917962450534105E-003;8.201657328754664E-004;
2.412166666666667E+009;1.809966415166855E-001;-1.461755600757897E-003;-1.884218188934028E-003;6.060662562958896E-004;
2.412333333333334E+009;1.812669932842255E-001;-3.735984908416867E-003;-1.850707805715501E-003;6.089333910495043E-004;
2.412500000000000E+009;1.818563640117645E-001;-6.130632478743792E-003;-1.886328682303429E-003;5.905749858357012E-004;
2.412666666666667E+009;1.823400557041168E-001;-8.297467604279518E-003;-2.085421467199922E-003;5.811337614431977E-004;
2.412833333333334E+009;1.829272806644440E-001;-1.050026342272759E-002;-2.005510032176971E-003;7.251050556078553E-004;
2.413000000000000E+009;1.836242675781250E-001;-1.258876919746399E-002;-2.144898986443877E-003;6.137933814898133E-004;
2.413166666666667E+009;1.843747645616531E-001;-1.468833722174168E-002;-2.143787918612361E-003;7.103657117113471E-004;
2.413333333333334E+009;1.853786408901215E-001;-1.693716831505299E-002;-2.265704562887549E-003;7.800033781677485E-004;
2.413500000000000E+009;1.862420439720154E-001;-1.889503002166748E-002;-2.294398611411452E-003;7.445572991855443E-004;
2.413666666666667E+009;1.873008459806442E-001;-2.099450305104256E-002;-2.266150433570147E-003;7.928707054816186E-004;
2.413833333333334E+009;1.884264945983887E-001;-2.279418893158436E-002;-2.428553067147732E-003;9.645332465879619E-004;
2.414000000000000E+009;1.893240660429001E-001;-2.472921274602413E-002;-2.251936122775078E-003;9.549847454763949E-004;
2.414166666666667E+009;1.903765350580216E-001;-2.627925202250481E-002;-2.433437621220946E-003;1.090869656763971E-003;
2.414333333333334E+009;1.914343088865280E-001;-2.817420102655888E-002;-2.278366591781378E-003;1.222679391503334E-003;
2.414500000000000E+009;1.925341188907623E-001;-2.966186963021755E-002;-2.306859707459807E-003;1.401804271154106E-003;
2.414666666666667E+009;1.934871077537537E-001;-3.100308403372765E-002;-2.286667004227638E-003;1.386533374898136E-003;
2.414833333333334E+009;1.945461481809616E-001;-3.232403844594955E-002;-2.141548786312342E-003;1.420742017216981E-003;
2.415000000000000E+009;1.953467875719070E-001;-3.362991660833359E-002;-2.264030976220965E-003;1.452300813980401E-003;
2.415166666666667E+009;1.965627223253250E-001;-3.464961796998978E-002;-2.136091934517026E-003;1.369552337564528E-003;
2.415333333333334E+009;1.974788010120392E-001;-3.560464456677437E-002;-2.216077409684658E-003;1.612502499483526E-003;
2.415500000000000E+009;1.984019726514816E-001;-3.634548559784889E-002;-2.028899965807796E-003;1.521770027466118E-003;
2.415666666666667E+009;1.993651539087296E-001;-3.716406226158142E-002;-2.307691378518939E-003;1.637584995478392E-003;
2.415833333333334E+009;2.001219540834427E-001;-3.779801353812218E-002;-2.278818050399423E-003;1.679985085502267E-003;
2.416000000000000E+009;2.007483243942261E-001;-3.851658478379250E-002;-2.228834433481097E-003;1.784857129678130E-003;
2.416166666666667E+009;2.013773769140244E-001;-3.911024332046509E-002;-2.225660020485520E-003;2.017143880948424E-003;
2.416333333333334E+009;2.018115520477295E-001;-3.952910378575325E-002;-2.099642995744944E-003;2.155438996851444E-003;
2.416500000000000E+009;2.022035866975784E-001;-3.986933082342148E-002;-2.285255119204521E-003;2.318661194294691E-003;
2.416666666666667E+009;2.023806273937225E-001;-4.044379666447640E-002;-2.117146970704198E-003;2.619473496451974E-003;
2.416833333333334E+009;2.024872601032257E-001;-4.045490548014641E-002;-2.126653678715229E-003;2.693676389753819E-003;
2.417000000000000E+009;2.024705260992050E-001;-4.084096103906632E-002;-1.818536082282662E-003;2.831963123753667E-003;
2.417166666666667E+009;2.021706402301788E-001;-4.099847376346588E-002;-1.795478514395654E-003;2.944474807009101E-003;
2.417333333333334E+009;2.018108516931534E-001;-4.092940315604210E-002;-1.635624095797539E-003;3.092058701440692E-003;
2.417500000000000E+009;2.014176398515701E-001;-4.104927182197571E-002;-1.384107279591262E-003;3.064730670303106E-003;
2.417666666666667E+009;2.009384483098984E-001;-4.102916643023491E-002;-1.193043543025851E-003;3.061369759961963E-003;
2.417833333333334E+009;2.005767822265625E-001;-4.112415388226509E-002;-1.198646030388773E-003;3.210371593013406E-003;
2.418000000000000E+009;1.998973488807678E-001;-4.108152911067009E-002;-9.634294547140598E-004;3.118936438113451E-003;
2.418166666666667E+009;1.991729885339737E-001;-4.117910191416740E-002;-9.878537384793162E-004;3.082759445533156E-003;
2.418333333333334E+009;1.982834786176682E-001;-4.122707620263100E-002;-8.251151884905994E-004;3.132702782750130E-003;
2.418500000000000E+009;1.972942054271698E-001;-4.122808203101158E-002;-5.674345302395523E-004;3.267620457336307E-003;
2.418666666666667E+009;1.964503526687622E-001;-4.149257391691208E-002;-4.566729185171425E-004;3.243811894208193E-003;
2.418833333333334E+009;1.951674371957779E-001;-4.186272993683815E-002;-2.744335215538740E-004;3.210383933037520E-003;
2.419000000000000E+009;1.939659565687180E-001;-4.215093329548836E-002;-1.594956265762448E-004;3.417794592678547E-003;
2.419166666666667E+009;1.928671896457672E-001;-4.257781431078911E-002;-9.972605766961351E-005;3.215002361685038E-003;
2.419333333333334E+009;1.915718466043472E-001;-4.324393346905708E-002;-2.298430626979098E-004;3.252252005040646E-003;
2.419500000000000E+009;1.902855187654495E-001;-4.382534697651863E-002;1.391761761624366E-004;3.138542873784900E-003;
2.419666666666667E+009;1.888456791639328E-001;-4.467877745628357E-002;1.119748558267020E-004;3.110557328909636E-003;
2.419833333333334E+009;1.874385923147202E-001;-4.540517926216126E-002;3.801631100941449E-004;3.113977145403624E-003;
2.420000000000000E+009;1.857679486274719E-001;-4.632178321480751E-002;4.271417565178126E-004;3.076226450502873E-003;
2.420166666666667E+009;1.844372749328613E-001;-4.740131646394730E-002;5.609368672594428E-004;3.044604323804379E-003;
2.420333333333334E+009;1.830099821090698E-001;-4.849911853671074E-002;6.758381496183574E-004;2.996003488078713E-003;
2.420500000000000E+009;1.814946085214615E-001;-4.978230595588684E-002;7.478659972548485E-004;3.045581281185150E-003;
2.420666666666667E+009;1.801124662160873E-001;-5.104864016175270E-002;7.793210097588599E-004;2.872728742659092E-003;
2.420833333333334E+009;1.786549836397171E-001;-5.260964855551720E-002;9.360773838125169E-004;3.029011888429523E-003;
2.421000000000000E+009;1.772918701171875E-001;-5.390404537320137E-002;9.158162283711135E-004;2.701805904507637E-003;
2.421166666666667E+009;1.760061979293823E-001;-5.560934916138649E-002;1.105919829569757E-003;2.687415108084679E-003;
2.421333333333334E+009;1.746044605970383E-001;-5.703460425138474E-002;1.091098296456039E-003;2.753582550212741E-003;
2.421500000000000E+009;1.734051406383514E-001;-5.891904979944229E-002;1.171441748738289E-003;2.680531470105052E-003;
2.421666666666667E+009;1.723069995641708E-001;-6.061060354113579E-002;1.221770653501153E-003;2.579176565632224E-003;
2.421833333333334E+009;1.712528020143509E-001;-6.237267330288887E-002;1.427993644028902E-003;2.552130259573460E-003;
2.422000000000000E+009;1.702152192592621E-001;-6.413418799638748E-002;1.560559612698853E-003;2.352269832044840E-003;
2.422166666666667E+009;1.693425923585892E-001;-6.619918346405029E-002;1.604318153113127E-003;2.406288171187043E-003;
2.422333333333334E+009;1.685394048690796E-001;-6.807357817888260E-002;1.613603672012687E-003;2.363547449931502E-003;
2.422500000000000E+009;1.679542064666748E-001;-6.995100528001785E-002;1.502503058873117E-003;2.130002481862903E-003;
2.422666666666667E+009;1.671883314847946E-001;-7.173901796340942E-002;1.713764504529536E-003;2.174075460061431E-003;
2.422833333333334E+009;1.669538915157318E-001;-7.376993447542191E-002;1.798194134607911E-003;2.009045798331499E-003;
2.423000000000000E+009;1.664040237665176E-001;-7.560884207487106E-002;1.763387699611485E-003;1.874353853054345E-003;
2.423166666666667E+009;1.660389751195908E-001;-7.748736441135407E-002;1.751735340803862E-003;1.776837743818760E-003;
2.423333333333334E+009;1.658645570278168E-001;-7.938584685325623E-002;2.021577209234238E-003;1.732686767354608E-003;
2.423500000000000E+009;1.656368076801300E-001;-8.095080405473709E-002;1.927314908243716E-003;1.541507896035910E-003;
2.423666666666667E+009;1.658391207456589E-001;-8.293437957763672E-002;2.026420552283526E-003;1.626281184144318E-003;
2.423833333333334E+009;1.656767278909683E-001;-8.455459028482437E-002;2.064247848466039E-003;1.612824737094343E-003;
2.424000000000000E+009;1.657804697751999E-001;-8.612808585166931E-002;1.904362230561674E-003;1.431755372323096E-003;
2.424166666666667E+009;1.657806783914566E-001;-8.790323883295059E-002;2.084133913740516E-003;1.410897122696042E-003;
2.424333333333334E+009;1.659432798624039E-001;-8.927766233682632E-002;2.043018117547035E-003;1.326416269876063E-003;
2.424500000000000E+009;1.662852764129639E-001;-9.088810533285141E-002;2.110604429617524E-003;1.172489253804088E-003;
2.424666666666667E+009;1.663457155227661E-001;-9.225602447986603E-002;1.938307541422546E-003;1.044767908751965E-003;
2.424833333333334E+009;1.669097691774368E-001;-9.369748830795288E-002;2.171747619286180E-003;1.061210175976157E-003;
2.425000000000000E+009;1.671276539564133E-001;-9.473349153995514E-002;2.208501566201448E-003;6.771311745978892E-004;
2.425166666666667E+009;1.673640310764313E-001;-9.579826146364212E-002;2.154499059543014E-003;7.557342178188264E-004;
2.425333333333334E+009;1.675058156251907E-001;-9.687153995037079E-002;1.932092593051493E-003;8.195054251700640E-004;
2.425500000000000E+009;1.678785085678101E-001;-9.789258986711502E-002;2.195473993197084E-003;7.516921032220125E-004;
2.425666666666667E+009;1.681464016437531E-001;-9.851820766925812E-002;2.061383565887809E-003;5.087130703032017E-004;
2.425833333333334E+009;1.683760285377502E-001;-9.949986636638641E-002;2.067881869152188E-003;4.141620884183794E-004;
2.426000000000000E+009;1.687129437923431E-001;-9.995630383491516E-002;1.853113179095089E-003;3.930972889065743E-004;
2.426166666666667E+009;1.688971370458603E-001;-1.005774587392807E-001;2.006205264478922E-003;2.570867654867470E-004;
2.426333333333334E+009;1.689487993717194E-001;-1.010867431759834E-001;1.773230149410665E-003;3.744853020180017E-004;
2.426500000000000E+009;1.692887097597122E-001;-1.015786528587341E-001;1.820574980229139E-003;5.383032839745283E-004;
2.426666666666667E+009;1.694462001323700E-001;-1.020120829343796E-001;1.860226038843393E-003;4.091335576958954E-004;
2.426833333333334E+009;1.695746332406998E-001;-1.023278534412384E-001;1.777940313331783E-003;4.190093604847789E-004;
2.427000000000000E+009;1.694257855415344E-001;-1.027579009532929E-001;1.918888185173273E-003;3.211089351680130E-004;
2.427166666666667E+009;1.695469617843628E-001;-1.028888672590256E-001;1.899022492580116E-003;3.418502165004611E-004;
2.427333333333334E+009;1.693244129419327E-001;-1.033383831381798E-001;1.735371304675937E-003;1.795488351490349E-004;
2.427500000000000E+009;1.691571474075317E-001;-1.037036553025246E-001;1.906151184812188E-003;1.398446911480278E-004;
2.427666666666667E+009;1.688535213470459E-001;-1.037794053554535E-001;1.755779027007520E-003;1.768278743838891E-004;
2.427833333333334E+009;1.683925241231918E-001;-1.041060462594032E-001;1.722728251479566E-003;1.812777190934867E-004;
