# Version 1.00
#
freq[Hz];re:Trc1_S11;im:Trc1_S11;re:Trc2_S21;im:Trc2_S21;
2.400000000000000E+009;1.565506905317307E-001;1.054685488343239E-001;1.976469531655312E-003;-2.997108502313495E-003;
2.400166666666667E+009;1.563805639743805E-001;1.031524017453194E-001;1.722706831060350E-003;-2.886587521061301E-003;
2.400333333333334E+009;1.566281765699387E-001;1.008479893207550E-001;1.774442032910883E-003;-3.070748411118984E-003;
2.400500000000000E+009;1.565258204936981E-001;9.836671501398087E-002;1.803077757358551E-003;-3.145469352602959E-003;
2.400666666666667E+009;1.569979637861252E-001;9.593816101551056E-002;1.521596685051918E-003;-3.353237640112639E-003;
2.400833333333334E+009;1.571576148271561E-001;9.321647137403488E-002;1.468010828830302E-003;-3.242915263399482E-003;
2.401000000000000E+009;1.574636846780777E-001;9.054570645093918E-002;1.278093433938921E-003;-3.388202283531427E-003;
2.401166666666667E+009;1.577354669570923E-001;8.797711133956909E-002;1.478249207139015E-003;-3.463072702288628E-003;
2.401333333333334E+009;1.580569297075272E-001;8.543355762958527E-002;1.154163968749344E-003;-3.614742076024413E-003;
2.401500000000000E+009;1.587152779102325E-001;8.263073116540909E-002;1.258197589777410E-003;-3.781153354793787E-003;
2.401666666666667E+009;1.589937806129456E-001;7.990366965532303E-002;9.928969666361809E-004;-3.814891446381807E-003;
2.401833333333334E+009;1.595904380083084E-001;7.739204168319702E-002;8.182497113011777E-004;-3.806714201346040E-003;
2.402000000000000E+009;1.605880260467529E-001;7.494036108255386E-002;6.954725249670446E-004;-3.942808602005243E-003;
2.402166666666667E+009;1.612390875816345E-001;7.237481325864792E-002;6.119742174632847E-004;-4.015586338937283E-003;
2.402333333333334E+009;1.620900779962540E-001;6.989634782075882E-002;3.348056052345783E-004;-4.020608030259609E-003;
2.402500000000000E+009;1.632532030344009E-001;6.760650128126144E-002;2.498708781786263E-004;-4.162559751421213E-003;
2.402666666666667E+009;1.643391698598862E-001;6.533509492874146E-002;2.859892265405506E-005;-4.067243076860905E-003;
2.402833333333334E+009;1.654711812734604E-001;6.323332339525223E-002;-1.514768518973142E-004;-4.189312923699617E-003;
2.403000000000000E+009;1.670234054327011E-001;6.106386333703995E-002;-1.673759397817776E-004;-4.205928649753332E-003;
2.403166666666667E+009;1.684819310903549E-001;5.898969992995262E-002;-4.852732818108052E-004;-4.155919887125492E-003;
2.403333333333334E+009;1.697769910097122E-001;5.690272524952889E-002;-6.617925246246159E-004;-4.161320626735687E-003;
2.403500000000000E+009;1.714877337217331E-001;5.506289005279541E-002;-8.465842111036181E-004;-4.088712390512228E-003;
2.403666666666667E+009;1.729185134172440E-001;5.317892879247665E-002;-1.054390799254179E-003;-4.170002881437540E-003;
2.403833333333334E+009;1.744009703397751E-001;5.140879005193710E-002;-1.067414879798889E-003;-4.288039635866880E-003;
2.404000000000000E+009;1.757563501596451E-001;4.987722635269165E-002;-1.303958008065820E-003;-4.077837802469730E-003;
2.404166666666667E+009;1.773992031812668E-001;4.826872795820236E-002;-1.539205433800817E-003;-3.854646347463131E-003;
2.404333333333334E+009;1.789277046918869E-001;4.696374386548996E-002;-1.710298820398748E-003;-4.077182151377201E-003;
2.404500000000000E+009;1.802003085613251E-001;4.545003920793533E-002;-1.924308831803501E-003;-3.887919709086418E-003;
2.404666666666667E+009;1.817344427108765E-001;4.435381665825844E-002;-1.986584858968854E-003;-3.895490895956755E-003;
2.404833333333334E+009;1.831723600625992E-001;4.336044192314148E-002;-2.267000731080771E-003;-3.917042631655932E-003;
2.405000000000000E+009;1.842607408761978E-001;4.270397126674652E-002;-2.256877021864057E-003;-3.752414137125015E-003;
2.405166666666667E+009;1.856651455163956E-001;4.182890057563782E-002;-2.752495696768165E-003;-3.702074754983187E-003;
2.405333333333334E+009;1.867609173059464E-001;4.131164401769638E-002;-2.625507069751620E-003;-3.638021880760789E-003;
2.405500000000000E+009;1.878415048122406E-001;4.060363024473190E-002;-2.796197077259421E-003;-3.395638195797801E-003;
2.405666666666667E+009;1.888954788446426E-001;4.020585864782333E-002;-2.983139595016837E-003;-3.254765877500176E-003;
2.405833333333334E+009;1.900164037942886E-001;3.979112580418587E-002;-3.260619938373566E-003;-3.173366654664278E-003;
2.406000000000000E+009;1.908331066370010E-001;3.975444659590721E-002;-3.477111691609025E-003;-2.809479599818587E-003;
2.406166666666667E+009;1.918027251958847E-001;3.938602283596993E-002;-3.685544477775693E-003;-2.634712494909763E-003;
2.406333333333334E+009;1.925421208143234E-001;3.938804939389229E-002;-3.772946540266275E-003;-2.492120489478111E-003;
2.406500000000000E+009;1.930409669876099E-001;3.930710256099701E-002;-3.746360773220658E-003;-2.271102741360664E-003;
2.406666666666667E+009;1.936239451169968E-001;3.914909437298775E-002;-3.910422325134277E-003;-2.107465406879783E-003;
2.406833333333334E+009;1.941669136285782E-001;3.909627348184586E-002;-3.925700206309557E-003;-1.853212481364608E-003;
2.407000000000000E+009;1.944548934698105E-001;3.914663940668106E-002;-4.003067966550589E-003;-1.508713583461940E-003;
2.407166666666667E+009;1.946289092302322E-001;3.880706056952477E-002;-3.919341601431370E-003;-1.444736379198730E-003;
2.407333333333334E+009;1.946705132722855E-001;3.879217803478241E-002;-3.983531612902880E-003;-1.144436071626842E-003;
2.407500000000000E+009;1.946806609630585E-001;3.876061365008354E-002;-3.907051403075457E-003;-9.799277177080512E-004;
2.407666666666667E+009;1.946974247694016E-001;3.845814988017082E-002;-3.850423963740468E-003;-7.974145119078457E-004;
2.407833333333334E+009;1.942178308963776E-001;3.821648284792900E-002;-3.920432645827532E-003;-7.074103923514485E-004;
2.408000000000000E+009;1.942091733217239E-001;3.788115456700325E-002;-3.867573570460081E-003;-4.230664053466171E-004;
2.408166666666667E+009;1.938242614269257E-001;3.765313699841499E-002;-3.731467295438051E-003;-3.676630731206387E-004;
2.408333333333334E+009;1.935599893331528E-001;3.696154057979584E-002;-3.684759372845292E-003;-3.113175625912845E-004;
2.408500000000000E+009;1.929954588413239E-001;3.626467660069466E-002;-3.600211581215262E-003;-4.203903154120781E-005;
2.408666666666667E+009;1.924673765897751E-001;3.576706722378731E-002;-3.543325001373887E-003;2.038277452811599E-004;
2.408833333333334E+009;1.918520331382752E-001;3.492227941751480E-002;-3.434855956584215E-003;2.293568686582148E-004;
2.409000000000000E+009;1.911027133464813E-001;3.392040729522705E-002;-3.277477575466037E-003;3.405895840842277E-004;
2.409166666666667E+009;1.903127878904343E-001;3.289594128727913E-002;-3.111830679699779E-003;4.967892309650779E-004;
2.409333333333334E+009;1.897489279508591E-001;3.181131929159164E-002;-3.064228687435389E-003;5.524866865016520E-004;
2.409500000000000E+009;1.887059956789017E-001;3.045365214347839E-002;-2.991954796016216E-003;6.256704218685627E-004;
2.409666666666667E+009;1.879943013191223E-001;2.885735034942627E-002;-2.849658252671361E-003;6.390899652615190E-004;
2.409833333333334E+009;1.870714724063873E-001;2.752855233848095E-002;-2.648080699145794E-003;6.896262639202178E-004;
2.410000000000000E+009;1.864703446626663E-001;2.595909312367439E-002;-2.688292879611254E-003;6.805442390032113E-004;
2.410166666666667E+009;1.856261342763901E-001;2.417444437742233E-002;-2.370412927120924E-003;7.921552169136703E-004;
2.410333333333334E+009;1.848061084747315E-001;2.245902456343174E-002;-2.424972597509623E-003;7.272090297192335E-004;
2.410500000000000E+009;1.840545833110809E-001;2.055077068507671E-002;-2.423479687422514E-003;7.796351565048099E-004;
2.410666666666667E+009;1.832634508609772E-001;1.847021654248238E-002;-2.353533636778593E-003;6.981483311392367E-004;
2.410833333333334E+009;1.827545762062073E-001;1.630103960633278E-002;-2.163175726309419E-003;7.690181955695152E-004;
2.411000000000000E+009;1.822613030672073E-001;1.432861573994160E-002;-2.217993373051286E-003;7.218204555101693E-004;
2.411166666666667E+009;1.817440688610077E-001;1.222349610179663E-002;-2.121167024597526E-003;7.922321092337370E-004;
2.411333333333334E+009;1.813890635967255E-001;9.850398637354374E-003;-2.048680093139410E-003;5.711346748284996E-004;
2.411500000000000E+009;1.810728758573532E-001;7.638917770236731E-003;-1.916731474921107E-003;5.650478415191174E-004;
2.411666666666667E+009;1.811662465333939E-001;5.370662547647953E-003;-1.901025534607470E-003;6.958267767913640E-004;
2.411833333333334E+009;1.807857602834702E-001;3.148597432300448E-003;-1.953830942511559E-003;6.037732819095254E-004;
2.412000000000000E+009;1.809525191783905E-001;7.071212166920304E-004;-1.882493379525840E-003;6.004788447171450E-004;
2.412166666666667E+009;1.811314672231674E-001;-1.330073457211256E-003;-2.027308102697134E-003;6.352414493449032E-004;
2.412333333333334E+009;1.813936978578568E-001;-3.740718821063638E-003;-1.867064042016864E-003;4.836891603190452E-004;
2.412500000000000E+009;1.818201243877411E-001;-5.783894099295139E-003;-1.850703614763916E-003;5.830650334246457E-004;
2.412666666666667E+009;1.822602301836014E-001;-8.213814347982407E-003;-2.040399005636573E-003;4.762067692354322E-004;
2.412833333333334E+009;1.830868124961853E-001;-1.048132684081793E-002;-2.085396321490407E-003;4.344880289863795E-004;
2.413000000000000E+009;1.836539655923843E-001;-1.261959783732891E-002;-2.081237733364105E-003;3.900834708474577E-004;
2.413166666666667E+009;1.844582855701447E-001;-1.451884675770998E-002;-2.170705469325185E-003;4.822798655368388E-004;
2.413333333333334E+009;1.854656189680100E-001;-1.678715646266937E-002;-2.235827036201954E-003;5.971150239929557E-004;
2.413500000000000E+009;1.863371878862381E-001;-1.895783655345440E-002;-2.311456017196178E-003;5.955933011136949E-004;
2.413666666666667E+009;1.874280571937561E-001;-2.090984769165516E-002;-2.339625265449286E-003;8.034643833525479E-004;
2.413833333333334E+009;1.883377581834793E-001;-2.262051962316036E-002;-2.328334143385291E-003;9.248831775039434E-004;
2.414000000000000E+009;1.892672628164291E-001;-2.464480884373188E-002;-2.346136141568422E-003;7.765372283756733E-004;
2.414166666666667E+009;1.904159486293793E-001;-2.620173990726471E-002;-2.447239123284817E-003;1.049705198965967E-003;
2.414333333333334E+009;1.912865340709686E-001;-2.817775867879391E-002;-2.309215953573585E-003;1.118727377615869E-003;
2.414500000000000E+009;1.926034092903137E-001;-2.966393157839775E-002;-2.201674738898873E-003;1.254083472304046E-003;
2.414666666666667E+009;1.936131119728088E-001;-3.085999749600887E-002;-2.236715983599424E-003;1.186093664728105E-003;
2.414833333333334E+009;1.946373432874680E-001;-3.225284069776535E-002;-2.365676686167717E-003;1.181038911454380E-003;
2.415000000000000E+009;1.956450790166855E-001;-3.360583260655403E-002;-2.258203690871596E-003;1.399220433086157E-003;
2.415166666666667E+009;1.966240704059601E-001;-3.448911756277084E-002;-2.229612553492189E-003;1.370752579532564E-003;
2.415333333333334E+009;1.976013928651810E-001;-3.548064455389977E-002;-2.321738284081221E-003;1.375319436192513E-003;
2.415500000000000E+009;1.985798031091690E-001;-3.629034757614136E-002;-2.305368194356561E-003;1.488741021603346E-003;
2.415666666666667E+009;1.994500160217285E-001;-3.729965910315514E-002;-2.327379770576954E-003;1.587653532624245E-003;
2.415833333333334E+009;2.001735866069794E-001;-3.789588809013367E-002;-2.380004152655602E-003;1.724601257592440E-003;
2.416000000000000E+009;2.007415145635605E-001;-3.858091682195664E-002;-2.221950097009540E-003;1.951771439053118E-003;
2.416166666666667E+009;2.014172971248627E-001;-3.907301649451256E-002;-2.386197913438082E-003;2.045259578153491E-003;
2.416333333333334E+009;2.019764035940170E-001;-3.948540240526199E-002;-2.328561386093497E-003;2.113734139129520E-003;
2.416500000000000E+009;2.021849006414414E-001;-3.996807336807251E-002;-2.234512008726597E-003;2.276566345244646E-003;
2.416666666666667E+009;2.024495303630829E-001;-4.032346606254578E-002;-2.286701230332255E-003;2.472918946295977E-003;
2.416833333333334E+009;2.025392949581146E-001;-4.056846722960472E-002;-2.044225577265024E-003;2.758158603683114E-003;
2.417000000000000E+009;2.025339156389237E-001;-4.079034924507141E-002;-2.046834211796522E-003;2.667688066139817E-003;
2.417166666666667E+009;2.021311223506928E-001;-4.092753306031227E-002;-1.871412969194353E-003;2.917844569310546E-003;
2.417333333333334E+009;2.019957900047302E-001;-4.099223017692566E-002;-1.813104026950896E-003;3.102080896496773E-003;
2.417500000000000E+009;2.016832679510117E-001;-4.103965684771538E-002;-1.492185401730239E-003;2.982444595545530E-003;
2.417666666666667E+009;2.011039257049561E-001;-4.101828485727310E-002;-1.572674838826060E-003;3.133468329906464E-003;
2.417833333333334E+009;2.006286084651947E-001;-4.103743284940720E-002;-1.151047996245325E-003;3.167608287185431E-003;
2.418000000000000E+009;1.999127119779587E-001;-4.101131111383438E-002;-1.065239426679909E-003;3.040899522602558E-003;
2.418166666666667E+009;1.992235183715820E-001;-4.112251847982407E-002;-9.389112237840891E-004;3.293079556897283E-003;
2.418333333333334E+009;1.983758360147476E-001;-4.123295098543167E-002;-8.489242754876614E-004;3.369797952473164E-003;
2.418500000000000E+009;1.972239762544632E-001;-4.140538722276688E-002;-6.707289139740169E-004;3.131869947537780E-003;
2.418666666666667E+009;1.964041888713837E-001;-4.156297072768211E-002;-6.502440664917231E-004;3.247303422540426E-003;
2.418833333333334E+009;1.952191144227982E-001;-4.201365262269974E-002;-4.270476056262851E-004;3.251722315326333E-003;
2.419000000000000E+009;1.941613852977753E-001;-4.210846126079559E-002;-4.593607154674828E-004;3.149707103148103E-003;
2.419166666666667E+009;1.928553283214569E-001;-4.267370700836182E-002;-2.239315508631989E-004;3.218415658921003E-003;
2.419333333333334E+009;1.916584670543671E-001;-4.322481900453568E-002;3.539511089911684E-005;3.276075236499310E-003;
2.419500000000000E+009;1.901618540287018E-001;-4.378496110439301E-002;-1.325238990830258E-004;3.283269237726927E-003;
2.419666666666667E+009;1.888460814952850E-001;-4.466042295098305E-002;9.673835302237421E-005;3.264789935201407E-003;
2.419833333333334E+009;1.871892362833023E-001;-4.547221213579178E-002;2.518811088521034E-004;3.206764115020633E-003;
2.420000000000000E+009;1.859961450099945E-001;-4.636722803115845E-002;2.794000902213156E-004;3.023065393790603E-003;
2.420166666666667E+009;1.844348162412643E-001;-4.745473712682724E-002;4.439214826561511E-004;3.130720928311348E-003;
2.420333333333334E+009;1.831231862306595E-001;-4.862427711486816E-002;6.385607412084937E-004;3.108428092673421E-003;
2.420500000000000E+009;1.814714074134827E-001;-4.991666972637177E-002;7.177952793426812E-004;3.020839765667915E-003;
2.420666666666667E+009;1.799715757369995E-001;-5.090248957276344E-002;8.879278902895749E-004;2.869497751817107E-003;
2.420833333333334E+009;1.786140501499176E-001;-5.240233242511749E-002;8.147567277774215E-004;2.965565538033843E-003;
2.421000000000000E+009;1.773030608892441E-001;-5.395021662116051E-002;1.042035990394652E-003;2.773708896711469E-003;
2.421166666666667E+009;1.758927851915360E-001;-5.571742728352547E-002;9.896466508507729E-004;2.634298987686634E-003;
2.421333333333334E+009;1.745880693197250E-001;-5.707485228776932E-002;1.034393091686070E-003;2.660613041371107E-003;
2.421500000000000E+009;1.734968423843384E-001;-5.886429175734520E-002;1.263068523257971E-003;2.806045347824693E-003;
2.421666666666667E+009;1.721991449594498E-001;-6.078433990478516E-002;1.352244056761265E-003;2.615310950204730E-003;
2.421833333333334E+009;1.710926443338394E-001;-6.251959502696991E-002;1.485478831455112E-003;2.674003830179572E-003;
2.422000000000000E+009;1.702181398868561E-001;-6.421826034784317E-002;1.346481614746153E-003;2.402824582532048E-003;
2.422166666666667E+009;1.694197058677673E-001;-6.613583117723465E-002;1.433354802429676E-003;2.506751799955964E-003;
2.422333333333334E+009;1.685061603784561E-001;-6.796802580356598E-002;1.596600050106645E-003;2.258084248751402E-003;
2.422500000000000E+009;1.678404659032822E-001;-6.987449526786804E-002;1.674670260399580E-003;2.355922246351838E-003;
2.422666666666667E+009;1.672511547803879E-001;-7.164961844682694E-002;1.724650384858251E-003;2.272836863994598E-003;
2.422833333333334E+009;1.668548583984375E-001;-7.355729490518570E-002;1.618226757273078E-003;2.023736247792840E-003;
2.423000000000000E+009;1.663439869880676E-001;-7.567708194255829E-002;1.897922484204173E-003;2.114510163664818E-003;
2.423166666666667E+009;1.660027354955673E-001;-7.739724218845367E-002;1.860441523604095E-003;1.862931996583939E-003;
2.423333333333334E+009;1.656973659992218E-001;-7.929717004299164E-002;1.898117130622268E-003;1.907900790683925E-003;
2.423500000000000E+009;1.656208932399750E-001;-8.084297180175781E-002;1.829686691053212E-003;1.770643168129027E-003;
2.423666666666667E+009;1.657413840293884E-001;-8.276817947626114E-002;2.012009965255857E-003;1.569286221638322E-003;
2.423833333333334E+009;1.655892133712769E-001;-8.453395217657089E-002;1.982587389647961E-003;1.644167467020452E-003;
2.424000000000000E+009;1.658246666193008E-001;-8.606239408254623E-002;2.063851570710540E-003;1.433780998922885E-003;
2.424166666666667E+009;1.658553332090378E-001;-8.770900219678879E-002;1.996549544855952E-003;1.490406692028046E-003;
2.424333333333334E+009;1.659090965986252E-001;-8.912148326635361E-002;2.128448337316513E-003;1.401777146384120E-003;
2.424500000000000E+009;1.663146018981934E-001;-9.088979661464691E-002;2.171221887692809E-003;1.297338749282062E-003;
2.424666666666667E+009;1.663626581430435E-001;-9.217914193868637E-002;2.236386761069298E-003;1.310235355049372E-003;
2.424833333333334E+009;1.668247133493424E-001;-9.335742145776749E-002;1.985650975257158E-003;1.126442570239306E-003;
2.425000000000000E+009;1.670577526092529E-001;-9.460144490003586E-002;2.111783949658275E-003;1.071675680577755E-003;
2.425166666666667E+009;1.673105359077454E-001;-9.570960700511932E-002;2.149795182049274E-003;9.584620711393654E-004;
2.425333333333334E+009;1.675586402416229E-001;-9.669084101915360E-002;2.126570791006088E-003;8.774774614721537E-004;
2.425500000000000E+009;1.679670065641403E-001;-9.758203476667404E-002;2.089174697175622E-003;6.663927924819291E-004;
2.425666666666667E+009;1.682500988245010E-001;-9.836286306381226E-002;2.044991590082645E-003;6.563318311236799E-004;
2.425833333333334E+009;1.684031635522842E-001;-9.941243380308151E-002;2.124812686815858E-003;5.568079068325460E-004;
2.426000000000000E+009;1.687261611223221E-001;-9.984624385833740E-002;1.883037271909416E-003;3.549766843207181E-004;
2.426166666666667E+009;1.690142899751663E-001;-1.003934890031815E-001;1.911780564114451E-003;3.593908913899213E-004;
2.426333333333334E+009;1.690538227558136E-001;-1.010239422321320E-001;1.735737780109048E-003;5.151630030013621E-004;
2.426500000000000E+009;1.693345457315445E-001;-1.014330461621285E-001;1.959641929715872E-003;4.605037102010101E-004;
2.426666666666667E+009;1.695098131895065E-001;-1.018692925572395E-001;1.989434007555246E-003;4.629785544238985E-004;
2.426833333333334E+009;1.696756929159164E-001;-1.022709533572197E-001;1.779143814928830E-003;4.193405038677156E-004;
2.427000000000000E+009;1.696480661630631E-001;-1.026025041937828E-001;1.823665690608323E-003;4.082738887518644E-004;
2.427166666666667E+009;1.696856021881104E-001;-1.027552857995033E-001;1.898750080727041E-003;2.709036052692682E-004;
2.427333333333334E+009;1.694562137126923E-001;-1.032255217432976E-001;1.731799449771643E-003;3.857204283121973E-004;
2.427500000000000E+009;1.691964417695999E-001;-1.035436689853668E-001;1.742766937240958E-003;2.317125326953828E-004;
2.427666666666667E+009;1.689512282609940E-001;-1.037292703986168E-001;1.862293458543718E-003;2.985015744343400E-004;
2.427833333333334E+009;1.685200780630112E-001;-1.039939895272255E-001;1.713676960207522E-003;2.833757025655359E-004;
