# Version 1.00
#
freq[Hz];re:Trc1_S11;im:Trc1_S11;re:Trc2_S21;im:Trc2_S21;
2.400000000000000E+009;1.565477997064591E-001;1.055882424116135E-001;1.768183894455433E-003;-2.852681558579207E-003;
2.400166666666667E+009;1.564820706844330E-001;1.032458171248436E-001;1.808649045415223E-003;-3.038092283532023E-003;
2.400333333333334E+009;1.567630022764206E-001;1.010466665029526E-001;1.701521105132997E-003;-3.017138456925750E-003;
2.400500000000000E+009;1.569188684225082E-001;9.840210527181625E-002;1.755014993250370E-003;-3.251769812777638E-003;
2.400666666666667E+009;1.570516675710678E-001;9.618897736072540E-002;1.679532462731004E-003;-3.231730544939637E-003;
2.400833333333334E+009;1.573547124862671E-001;9.325356781482697E-002;1.428877585567534E-003;-3.312623128294945E-003;
2.401000000000000E+009;1.575809121131897E-001;9.064988791942596E-002;1.349911210127175E-003;-3.632598090916872E-003;
2.401166666666667E+009;1.577874273061752E-001;8.806889504194260E-002;1.358974725008011E-003;-3.595250658690929E-003;
2.401333333333334E+009;1.581741869449616E-001;8.528441935777664E-002;1.073821214959025E-003;-3.558491123840213E-003;
2.401500000000000E+009;1.587834656238556E-001;8.263117074966431E-002;1.102352514863014E-003;-3.635201370343566E-003;
2.401666666666667E+009;1.592396795749664E-001;7.997011393308640E-002;9.256475022993982E-004;-3.877872135490179E-003;
2.401833333333334E+009;1.596873998641968E-001;7.757905125617981E-002;8.322675130330026E-004;-3.842079313471913E-003;
2.402000000000000E+009;1.607222259044647E-001;7.490032911300659E-002;6.714489427395165E-004;-3.916646819561720E-003;
2.402166666666667E+009;1.615167707204819E-001;7.256773114204407E-002;5.347316036932170E-004;-3.915166482329369E-003;
2.402333333333334E+009;1.624774038791657E-001;7.007844746112824E-002;3.850320063065738E-004;-4.161484073847532E-003;
2.402500000000000E+009;1.636903882026672E-001;6.766577810049057E-002;6.553311686730012E-005;-4.236862994730473E-003;
2.402666666666667E+009;1.645803004503250E-001;6.537510454654694E-002;-4.055588215123862E-005;-4.073386546224356E-003;
2.402833333333334E+009;1.658323407173157E-001;6.329189985990524E-002;-1.719982101349160E-004;-4.199644085019827E-003;
2.403000000000000E+009;1.671070754528046E-001;6.099326536059380E-002;-3.902568132616580E-004;-4.125072155147791E-003;
2.403166666666667E+009;1.686928719282150E-001;5.904236063361168E-002;-5.531177739612758E-004;-4.276842344552279E-003;
2.403333333333334E+009;1.699208468198776E-001;5.686409026384354E-002;-6.830453639850020E-004;-4.201102070510387E-003;
2.403500000000000E+009;1.716039031744003E-001;5.512727051973343E-002;-7.054650923237205E-004;-4.103979095816612E-003;
2.403666666666667E+009;1.731580048799515E-001;5.317648127675057E-002;-8.964845910668373E-004;-4.039833322167397E-003;
2.403833333333334E+009;1.745770722627640E-001;5.164079368114471E-002;-1.141972141340375E-003;-4.187593236565590E-003;
2.404000000000000E+009;1.758547574281693E-001;4.982163757085800E-002;-1.271007466129959E-003;-4.074973054230213E-003;
2.404166666666667E+009;1.775094270706177E-001;4.828732833266258E-002;-1.533371745608747E-003;-4.081450402736664E-003;
2.404333333333334E+009;1.789451390504837E-001;4.680803418159485E-002;-1.747861271724105E-003;-3.858646843582392E-003;
2.404500000000000E+009;1.804938018321991E-001;4.554238915443420E-002;-1.635743421502411E-003;-3.881149226799607E-003;
2.404666666666667E+009;1.818030774593353E-001;4.433871805667877E-002;-1.811166061088443E-003;-4.083090927451849E-003;
2.404833333333334E+009;1.832103282213211E-001;4.327676445245743E-002;-2.089265966787934E-003;-4.009671043604612E-003;
2.405000000000000E+009;1.844806075096130E-001;4.274952784180641E-002;-2.328702015802264E-003;-3.894271329045296E-003;
2.405166666666667E+009;1.856540292501450E-001;4.199374839663506E-002;-2.603411208838224E-003;-3.696094267070293E-003;
2.405333333333334E+009;1.869505345821381E-001;4.127126932144165E-002;-2.627331297844648E-003;-3.652426181361079E-003;
2.405500000000000E+009;1.881083250045776E-001;4.085168614983559E-002;-2.932853996753693E-003;-3.589817788451910E-003;
2.405666666666667E+009;1.889757663011551E-001;4.042977094650269E-002;-3.296155482530594E-003;-3.172615077346563E-003;
2.405833333333334E+009;1.901556998491287E-001;4.009569063782692E-002;-3.300458425655961E-003;-3.214649390429258E-003;
2.406000000000000E+009;1.910075396299362E-001;3.977786377072334E-002;-3.568675136193633E-003;-3.086096374318004E-003;
2.406166666666667E+009;1.918363869190216E-001;3.948810324072838E-002;-3.619971219450235E-003;-2.735201735049486E-003;
2.406333333333334E+009;1.926155537366867E-001;3.934210166335106E-002;-3.806067164987326E-003;-2.568451454862952E-003;
2.406500000000000E+009;1.931867152452469E-001;3.929790109395981E-002;-3.779860446229577E-003;-2.211462706327438E-003;
2.406666666666667E+009;1.937788873910904E-001;3.925600275397301E-002;-4.062581807374954E-003;-1.937796478159726E-003;
2.406833333333334E+009;1.942702084779739E-001;3.908934816718102E-002;-3.963582683354616E-003;-1.869492349214852E-003;
2.407000000000000E+009;1.944869756698608E-001;3.919027000665665E-002;-3.863171441480517E-003;-1.719603198580444E-003;
2.407166666666667E+009;1.949060857295990E-001;3.875448182225227E-002;-4.019558895379305E-003;-1.464976812712848E-003;
2.407333333333334E+009;1.948379129171372E-001;3.884356468915939E-002;-3.927728161215782E-003;-1.184839755296707E-003;
2.407500000000000E+009;1.947435885667801E-001;3.866911306977272E-002;-3.827997017651796E-003;-1.121306675486267E-003;
2.407666666666667E+009;1.948209255933762E-001;3.835382312536240E-002;-3.923049196600914E-003;-8.536559762433171E-004;
2.407833333333334E+009;1.943378746509552E-001;3.815385326743126E-002;-3.765802830457687E-003;-7.406038930639625E-004;
2.408000000000000E+009;1.944738328456879E-001;3.783297538757324E-002;-3.837904660031200E-003;-5.249467212706804E-004;
2.408166666666667E+009;1.938742101192474E-001;3.739156201481819E-002;-3.852091729640961E-003;-2.403624966973439E-004;
2.408333333333334E+009;1.936638653278351E-001;3.674703836441040E-002;-3.575308248400688E-003;-1.753030519466847E-004;
2.408500000000000E+009;1.929606050252914E-001;3.628511354327202E-002;-3.664681222289801E-003;7.030824781395495E-005;
2.408666666666667E+009;1.924260854721069E-001;3.565979376435280E-002;-3.484220011159778E-003;1.866375969257206E-004;
2.408833333333334E+009;1.919400840997696E-001;3.479229286313057E-002;-3.493209369480610E-003;4.138572840020061E-004;
2.409000000000000E+009;1.912325173616409E-001;3.378580883145332E-002;-3.350383602082729E-003;4.216964007355273E-004;
2.409166666666667E+009;1.904780417680740E-001;3.270043060183525E-002;-3.254229668527842E-003;5.832948372699320E-004;
2.409333333333334E+009;1.897831708192825E-001;3.165789693593979E-002;-2.987002721056342E-003;6.604627124033868E-004;
2.409500000000000E+009;1.888009756803513E-001;3.028549253940582E-002;-2.966308966279030E-003;7.657799869775772E-004;
2.409666666666667E+009;1.881666034460068E-001;2.890717796981335E-002;-2.878620289266110E-003;7.178269443102181E-004;
2.409833333333334E+009;1.872073560953140E-001;2.736206911504269E-002;-2.634839387610555E-003;7.718915585428476E-004;
2.410000000000000E+009;1.864503920078278E-001;2.565149031579495E-002;-2.492927946150303E-003;6.731311441399157E-004;
2.410166666666667E+009;1.855158209800720E-001;2.399258129298687E-002;-2.397145144641399E-003;6.746958824805915E-004;
2.410333333333334E+009;1.848519146442413E-001;2.224467881023884E-002;-2.388557652011514E-003;7.747128256596625E-004;
2.410500000000000E+009;1.839756518602371E-001;2.044443041086197E-002;-2.246856223791838E-003;7.688271580263972E-004;
2.410666666666667E+009;1.833031177520752E-001;1.817162334918976E-002;-2.219761488959193E-003;8.506326121278107E-004;
2.410833333333334E+009;1.828146576881409E-001;1.622220501303673E-002;-2.287294715642929E-003;8.760932250879705E-004;
2.411000000000000E+009;1.823492944240570E-001;1.399461086839438E-002;-2.099153818562627E-003;6.232445011846721E-004;
2.411166666666667E+009;1.817064434289932E-001;1.196887250989676E-002;-2.108559245243669E-003;7.241315906867385E-004;
2.411333333333334E+009;1.814107596874237E-001;9.683825075626373E-003;-2.042023232206702E-003;6.926190690137446E-004;
2.411500000000000E+009;1.810103654861450E-001;7.436933461576700E-003;-1.974862534552813E-003;8.431389578618109E-004;
2.411666666666667E+009;1.809153556823731E-001;5.366266239434481E-003;-1.891758642159402E-003;6.674273172393441E-004;
2.411833333333334E+009;1.808038651943207E-001;3.215502947568893E-003;-1.947217504493892E-003;6.926460191607475E-004;
2.412000000000000E+009;1.809611320495606E-001;6.248147692531347E-004;-1.851456006988883E-003;6.833545048721135E-004;
2.412166666666667E+009;1.812422722578049E-001;-1.475151628255844E-003;-1.756991958245635E-003;6.969500100240111E-004;
2.412333333333334E+009;1.813349127769470E-001;-3.665487281978130E-003;-2.001315122470260E-003;5.249266396276653E-004;
2.412500000000000E+009;1.818045675754547E-001;-5.965362302958965E-003;-1.968214521184564E-003;4.381277249194682E-004;
2.412666666666667E+009;1.824836134910584E-001;-8.374301716685295E-003;-1.940741552971304E-003;4.351142852101475E-004;
2.412833333333334E+009;1.830485612154007E-001;-1.055723149329424E-002;-2.089482033625245E-003;5.740266060456634E-004;
2.413000000000000E+009;1.837135702371597E-001;-1.259571593254805E-002;-2.143832156434655E-003;5.184618639759719E-004;
2.413166666666667E+009;1.845386177301407E-001;-1.472888793796301E-002;-2.200815826654434E-003;6.837678956799209E-004;
2.413333333333334E+009;1.855602562427521E-001;-1.685356535017490E-002;-2.311246003955603E-003;5.818837671540678E-004;
2.413500000000000E+009;1.862918883562088E-001;-1.889378577470779E-002;-2.246532123535872E-003;8.032558253034949E-004;
2.413666666666667E+009;1.872696280479431E-001;-2.095301263034344E-002;-2.341861138120294E-003;8.400435908697546E-004;
2.413833333333334E+009;1.883733719587326E-001;-2.277396433055401E-002;-2.259302884340286E-003;7.643238059245050E-004;
2.414000000000000E+009;1.893612444400787E-001;-2.460918202996254E-002;-2.364029642194510E-003;1.084620947949588E-003;
2.414166666666667E+009;1.903260946273804E-001;-2.639352716505528E-002;-2.229737350717187E-003;1.008038874715567E-003;
2.414333333333334E+009;1.913703978061676E-001;-2.827190794050694E-002;-2.455071080476046E-003;1.155492383986712E-003;
2.414500000000000E+009;1.925192922353745E-001;-2.959904074668884E-002;-2.287446986883879E-003;1.275639748200774E-003;
2.414666666666667E+009;1.935776770114899E-001;-3.096357733011246E-002;-2.268130425363779E-003;1.200151746161282E-003;
2.414833333333334E+009;1.945291310548782E-001;-3.230578452348709E-002;-2.206922508776188E-003;1.289809355512261E-003;
2.415000000000000E+009;1.955921649932861E-001;-3.358670696616173E-002;-2.301026368513703E-003;1.284352736547589E-003;
2.415166666666667E+009;1.967206448316574E-001;-3.468287363648415E-002;-2.276230836287141E-003;1.436022343114018E-003;
2.415333333333334E+009;1.976297050714493E-001;-3.559568151831627E-002;-2.263853326439858E-003;1.434005913324654E-003;
2.415500000000000E+009;1.985056549310684E-001;-3.631955757737160E-002;-2.250179182738066E-003;1.484671607613564E-003;
2.415666666666667E+009;1.994583755731583E-001;-3.727900981903076E-002;-2.245940500870347E-003;1.569874119013548E-003;
2.415833333333334E+009;2.001080960035324E-001;-3.787712380290031E-002;-2.449378371238709E-003;1.741195446811616E-003;
2.416000000000000E+009;2.008145451545715E-001;-3.859530761837959E-002;-2.387630986049771E-003;1.655519474297762E-003;
2.416166666666667E+009;2.014197856187820E-001;-3.929002583026886E-002;-2.298585139214993E-003;1.980634173378348E-003;
2.416333333333334E+009;2.019044160842896E-001;-3.966000303626061E-002;-2.439207630231977E-003;2.081402810290456E-003;
2.416500000000000E+009;2.022251933813095E-001;-3.998168185353279E-002;-2.195201348513365E-003;2.429566113278270E-003;
2.416666666666667E+009;2.023819684982300E-001;-4.054547473788261E-002;-2.323168562725186E-003;2.565848175436258E-003;
2.416833333333334E+009;2.024147063493729E-001;-4.069889709353447E-002;-2.104897284880281E-003;2.676550298929215E-003;
2.417000000000000E+009;2.025120854377747E-001;-4.082003608345985E-002;-1.922300201840699E-003;2.802400616928935E-003;
2.417166666666667E+009;2.021595388650894E-001;-4.087300971150398E-002;-1.853339374065399E-003;2.940082224085927E-003;
2.417333333333334E+009;2.018685489892960E-001;-4.093160480260849E-002;-1.648698234930635E-003;3.101278562098742E-003;
2.417500000000000E+009;2.015050202608109E-001;-4.112191870808601E-002;-1.576569164171815E-003;3.132449230179191E-003;
2.417666666666667E+009;2.009987533092499E-001;-4.102518409490585E-002;-1.399331958964467E-003;3.228320041671395E-003;
2.417833333333334E+009;2.004786282777786E-001;-4.110444337129593E-002;-1.306411693803966E-003;3.086018841713667E-003;
2.418000000000000E+009;1.998922079801559E-001;-4.102534055709839E-002;-1.078263157978654E-003;3.150397678837180E-003;
2.418166666666667E+009;1.991066187620163E-001;-4.115056619048119E-002;-7.935069734230638E-004;3.153477329760790E-003;
2.418333333333334E+009;1.982773989439011E-001;-4.122031852602959E-002;-8.094754884950817E-004;3.131341189146042E-003;
2.418500000000000E+009;1.972442269325256E-001;-4.152239486575127E-002;-7.641080883331597E-004;3.144738730043173E-003;
2.418666666666667E+009;1.963859647512436E-001;-4.149856418371201E-002;-6.246682605706155E-004;3.177149454131723E-003;
2.418833333333334E+009;1.952913850545883E-001;-4.178499057888985E-002;-4.512953746598214E-004;3.255926538258791E-003;
2.419000000000000E+009;1.940613985061646E-001;-4.209787026047707E-002;-3.094620187766850E-004;3.265732899308205E-003;
2.419166666666667E+009;1.927387118339539E-001;-4.267580807209015E-002;-1.785417844075710E-004;3.251366550102830E-003;
2.419333333333334E+009;1.915719658136368E-001;-4.324604570865631E-002;-2.951237911474891E-005;3.226894652470946E-003;
2.419500000000000E+009;1.903294473886490E-001;-4.379861056804657E-002;8.455266652163118E-005;3.114879829809070E-003;
2.419666666666667E+009;1.887410283088684E-001;-4.470277205109596E-002;1.375386782456189E-004;3.150449832901359E-003;
2.419833333333334E+009;1.870996803045273E-001;-4.538629576563835E-002;2.283257927047089E-004;3.231493523344398E-003;
2.420000000000000E+009;1.858647912740707E-001;-4.643194377422333E-002;3.278583462815732E-004;3.139358479529619E-003;
2.420166666666667E+009;1.843898594379425E-001;-4.733379185199738E-002;5.186875932849944E-004;2.962659113109112E-003;
2.420333333333334E+009;1.829408705234528E-001;-4.857640713453293E-002;6.072719697840512E-004;3.069862257689238E-003;
2.420500000000000E+009;1.813464909791946E-001;-4.992901533842087E-002;6.394157535396516E-004;2.865243470296264E-003;
2.420666666666667E+009;1.799203753471375E-001;-5.093470960855484E-002;8.547359611839056E-004;2.972366521134973E-003;
2.420833333333334E+009;1.784862279891968E-001;-5.245779454708099E-002;8.699696627445519E-004;2.917882986366749E-003;
2.421000000000000E+009;1.772138327360153E-001;-5.390024185180664E-002;9.416748653165996E-004;2.897629281505942E-003;
2.421166666666667E+009;1.759295463562012E-001;-5.554703995585442E-002;1.075171981938183E-003;2.762583550065756E-003;
2.421333333333334E+009;1.744284182786942E-001;-5.713334679603577E-002;1.132509903982282E-003;2.813365776091814E-003;
2.421500000000000E+009;1.731930077075958E-001;-5.877733603119850E-002;1.211213762871921E-003;2.729224506765604E-003;
2.421666666666667E+009;1.721481382846832E-001;-6.062950938940048E-002;1.233230694197118E-003;2.699057105928659E-003;
2.421833333333334E+009;1.711658090353012E-001;-6.244077906012535E-002;1.454541925340891E-003;2.486564451828599E-003;
2.422000000000000E+009;1.701290905475617E-001;-6.401921808719635E-002;1.595937414094806E-003;2.471048617735505E-003;
2.422166666666667E+009;1.693879216909409E-001;-6.611528992652893E-002;1.564327627420425E-003;2.409026026725769E-003;
2.422333333333334E+009;1.685239970684052E-001;-6.808568537235260E-002;1.534951035864651E-003;2.315155696123838E-003;
2.422500000000000E+009;1.678902357816696E-001;-6.990551948547363E-002;1.710945507511497E-003;2.376890974119306E-003;
2.422666666666667E+009;1.671570688486099E-001;-7.161747664213181E-002;1.595965004526079E-003;2.362502506002784E-003;
2.422833333333334E+009;1.666127592325211E-001;-7.370136678218842E-002;1.796243130229414E-003;2.167852129787207E-003;
2.423000000000000E+009;1.663867235183716E-001;-7.557290792465210E-002;1.877528731711209E-003;2.043437445536256E-003;
2.423166666666667E+009;1.658931374549866E-001;-7.742484658956528E-002;1.837058342061937E-003;1.933732070028782E-003;
2.423333333333334E+009;1.657907068729401E-001;-7.932796329259872E-002;1.946257892996073E-003;1.941105118021369E-003;
2.423500000000000E+009;1.656651645898819E-001;-8.082205057144165E-002;1.838691299781203E-003;1.837923075072467E-003;
2.423666666666667E+009;1.657370775938034E-001;-8.277337998151779E-002;1.929715974256396E-003;1.726110931485891E-003;
2.423833333333334E+009;1.654422432184219E-001;-8.456329256296158E-002;1.859437907114625E-003;1.587742008268833E-003;
2.424000000000000E+009;1.656911671161652E-001;-8.624871820211411E-002;2.036249497905374E-003;1.479355734772980E-003;
2.424166666666667E+009;1.656856685876846E-001;-8.767817914485931E-002;2.004290465265513E-003;1.484661246649921E-003;
2.424333333333334E+009;1.659049093723297E-001;-8.917382359504700E-002;2.140925033017993E-003;1.392976380884647E-003;
2.424500000000000E+009;1.662863194942474E-001;-9.101802855730057E-002;1.996493199840188E-003;1.245948486030102E-003;
2.424666666666667E+009;1.663911938667297E-001;-9.214980155229569E-002;2.204874763265252E-003;1.229280955158174E-003;
2.424833333333334E+009;1.668282896280289E-001;-9.348185360431671E-002;2.206106903031468E-003;1.116541563533247E-003;
2.425000000000000E+009;1.671149134635925E-001;-9.465237706899643E-002;2.002567984163761E-003;9.663767996244133E-004;
2.425166666666667E+009;1.672324240207672E-001;-9.584815800189972E-002;2.070693066343665E-003;8.000035304576159E-004;
2.425333333333334E+009;1.674995124340057E-001;-9.686341136693955E-002;2.228620462119579E-003;6.926861242391169E-004;
2.425500000000000E+009;1.678393781185150E-001;-9.775041788816452E-002;2.118131145834923E-003;6.405756575986743E-004;
2.425666666666667E+009;1.680880188941956E-001;-9.853053838014603E-002;1.985484035685659E-003;5.775035242550075E-004;
2.425833333333334E+009;1.683963537216187E-001;-9.926676750183106E-002;2.031752839684486E-003;5.112958024255931E-004;
2.426000000000000E+009;1.687088012695313E-001;-9.980167448520660E-002;1.779075479134917E-003;6.331524928100407E-004;
2.426166666666667E+009;1.689945608377457E-001;-1.004918217658997E-001;1.814847462810576E-003;3.390678612049669E-004;
2.426333333333334E+009;1.689098626375198E-001;-1.009998619556427E-001;1.796276425011456E-003;3.527913650032133E-004;
2.426500000000000E+009;1.693071126937866E-001;-1.013539507985115E-001;1.794677344150841E-003;3.621318610385060E-004;
2.426666666666667E+009;1.694246083498001E-001;-1.018461883068085E-001;1.873626722954214E-003;4.079919308423996E-004;
2.426833333333334E+009;1.696721911430359E-001;-1.022586524486542E-001;1.711179385893047E-003;3.475550911389291E-004;
2.427000000000000E+009;1.695253998041153E-001;-1.026769131422043E-001;1.779363257810473E-003;3.090669051744044E-004;
2.427166666666667E+009;1.696004867553711E-001;-1.028368100523949E-001;1.792952069081366E-003;1.988977746805176E-004;
2.427333333333334E+009;1.693627238273621E-001;-1.031742617487907E-001;1.779046608135104E-003;2.957178221549839E-004;
2.427500000000000E+009;1.690924614667893E-001;-1.035870239138603E-001;1.719495630823076E-003;2.386859705438837E-004;
2.427666666666667E+009;1.687522828578949E-001;-1.037809997797012E-001;1.827199128456414E-003;1.494351017754525E-004;
2.427833333333334E+009;1.684142798185349E-001;-1.040758490562439E-001;1.713178586214781E-003;1.536878116894513E-004;
