# Version 1.00
#
freq[Hz];re:Trc1_S11;im:Trc1_S11;re:Trc2_S21;im:Trc2_S21;
2.400000000000000E+009;1.565575748682022E-001;1.056824997067452E-001;1.759068109095097E-003;-2.676079515367746E-003;
2.400166666666667E+009;1.563631296157837E-001;1.033384203910828E-001;2.026631729677320E-003;-3.011235268786550E-003;
2.400333333333334E+009;1.566321998834610E-001;1.011946573853493E-001;1.692353282123804E-003;-3.091404447332025E-003;
2.400500000000000E+009;1.568272560834885E-001;9.842797368764877E-002;1.602325821295381E-003;-3.435521852225065E-003;
2.400666666666667E+009;1.572136431932449E-001;9.615003317594528E-002;1.715166261419654E-003;-3.423821413889527E-003;
2.400833333333334E+009;1.572502851486206E-001;9.327897429466248E-002;1.473074313253164E-003;-3.235134528949857E-003;
2.401000000000000E+009;1.576889306306839E-001;9.055802971124649E-002;1.405368093401194E-003;-3.459761850535870E-003;
2.401166666666667E+009;1.578623056411743E-001;8.817727863788605E-002;1.204921980388463E-003;-3.661825088784099E-003;
2.401333333333334E+009;1.584549993276596E-001;8.542665839195252E-002;1.287090010009706E-003;-3.654245520010591E-003;
2.401500000000000E+009;1.587855666875839E-001;8.279809355735779E-002;1.051480532623828E-003;-3.753378055989742E-003;
2.401666666666667E+009;1.592730730772018E-001;8.030851185321808E-002;9.776139631867409E-004;-3.726740367710590E-003;
2.401833333333334E+009;1.598462760448456E-001;7.749021053314209E-002;8.053503115661442E-004;-3.862543264403939E-003;
2.402000000000000E+009;1.606815308332443E-001;7.497209310531616E-002;5.210635717958212E-004;-3.975650761276484E-003;
2.402166666666667E+009;1.613679826259613E-001;7.254475355148315E-002;3.849139611702412E-004;-4.041892010718584E-003;
2.402333333333334E+009;1.624359637498856E-001;7.008830457925797E-002;3.578402975108475E-004;-3.926600795239210E-003;
2.402500000000000E+009;1.634444147348404E-001;6.748102605342865E-002;6.745298014720902E-005;-4.022988956421614E-003;
2.402666666666667E+009;1.646915674209595E-001;6.540339440107346E-002;4.242980503477156E-005;-4.173578228801489E-003;
2.402833333333334E+009;1.659018546342850E-001;6.313521414995194E-002;-2.007164439419285E-004;-4.211390390992165E-003;
2.403000000000000E+009;1.672082692384720E-001;6.100600585341454E-002;-2.309004048584029E-004;-4.202322103083134E-003;
2.403166666666667E+009;1.687934398651123E-001;5.898996070027351E-002;-6.059728912077844E-004;-4.162033088505268E-003;
2.403333333333334E+009;1.700022667646408E-001;5.690674111247063E-002;-6.230710423551500E-004;-4.155603703111410E-003;
2.403500000000000E+009;1.716441661119461E-001;5.506672710180283E-002;-9.196758037433028E-004;-4.164204001426697E-003;
2.403666666666667E+009;1.733376979827881E-001;5.323476716876030E-002;-1.102373935282230E-003;-4.390929825603962E-003;
2.403833333333334E+009;1.747538000345230E-001;5.161831900477409E-002;-1.242703059688211E-003;-4.170299042016268E-003;
2.404000000000000E+009;1.761158853769302E-001;4.966752603650093E-002;-1.606397214345634E-003;-4.135197494179010E-003;
2.404166666666667E+009;1.776406019926071E-001;4.827570170164108E-002;-1.497803139500320E-003;-3.896567039191723E-003;
2.404333333333334E+009;1.790701150894165E-001;4.683867841959000E-002;-1.630956772714853E-003;-3.972398582845926E-003;
2.404500000000000E+009;1.804763823747635E-001;4.545800387859345E-002;-1.902008312754333E-003;-4.128205589950085E-003;
2.404666666666667E+009;1.819714456796646E-001;4.446089640259743E-002;-2.125457627698779E-003;-3.999717533588409E-003;
2.404833333333334E+009;1.832613646984100E-001;4.330367222428322E-002;-2.222744980826974E-003;-3.964718431234360E-003;
2.405000000000000E+009;1.843898743391037E-001;4.265817999839783E-002;-2.416715491563082E-003;-3.862919518724084E-003;
2.405166666666667E+009;1.858114898204804E-001;4.182042554020882E-002;-2.533200196921825E-003;-3.703539259731770E-003;
2.405333333333334E+009;1.869137287139893E-001;4.132256284356117E-002;-2.761685056611896E-003;-3.641682676970959E-003;
2.405500000000000E+009;1.881790161132813E-001;4.080567136406899E-002;-2.888675546273589E-003;-3.602127311751247E-003;
2.405666666666667E+009;1.891833543777466E-001;4.041330143809319E-002;-3.134281607344747E-003;-3.460678504779935E-003;
2.405833333333334E+009;1.902638822793961E-001;4.005182906985283E-002;-3.586845472455025E-003;-3.271787660196424E-003;
2.406000000000000E+009;1.911423206329346E-001;3.973665088415146E-002;-3.530261572450399E-003;-2.934596966952086E-003;
2.406166666666667E+009;1.919601261615753E-001;3.937507048249245E-002;-3.647039178758860E-003;-2.809866331517696E-003;
2.406333333333334E+009;1.928335130214691E-001;3.934988379478455E-002;-3.702057758346200E-003;-2.536850282922387E-003;
2.406500000000000E+009;1.933888047933579E-001;3.928015753626823E-002;-3.986002411693335E-003;-2.484750468283892E-003;
2.406666666666667E+009;1.939419209957123E-001;3.918989375233650E-002;-3.955282270908356E-003;-1.907284255139530E-003;
2.406833333333334E+009;1.943658739328384E-001;3.905604779720306E-002;-4.050836898386478E-003;-1.731797354295850E-003;
2.407000000000000E+009;1.946437656879425E-001;3.899370878934860E-002;-3.967380616813898E-003;-1.544434344395995E-003;
2.407166666666667E+009;1.949054747819901E-001;3.870810195803642E-002;-4.042402841150761E-003;-1.268004765734077E-003;
2.407333333333334E+009;1.948762834072113E-001;3.870208561420441E-002;-4.066109657287598E-003;-1.165365800261498E-003;
2.407500000000000E+009;1.948496848344803E-001;3.859189152717590E-002;-3.942486364394426E-003;-1.120995962992311E-003;
2.407666666666667E+009;1.949281990528107E-001;3.835205733776093E-002;-3.970909398049116E-003;-8.400310180149972E-004;
2.407833333333334E+009;1.944952011108398E-001;3.805113583803177E-002;-3.975445870310068E-003;-7.473821169696748E-004;
2.408000000000000E+009;1.944541037082672E-001;3.768776357173920E-002;-3.769918810576201E-003;-5.360693321563304E-004;
2.408166666666667E+009;1.940049082040787E-001;3.733380138874054E-002;-3.889545099809766E-003;-4.032443976029754E-004;
2.408333333333334E+009;1.936750710010529E-001;3.663416206836700E-002;-3.641681279987097E-003;-3.141219785902649E-004;
2.408500000000000E+009;1.930323392152786E-001;3.615499287843704E-002;-3.722437890246511E-003;1.804031671781559E-005;
2.408666666666667E+009;1.926075816154480E-001;3.550935536623001E-002;-3.485809080302715E-003;1.540641242172569E-004;
2.408833333333334E+009;1.920305043458939E-001;3.473288938403130E-002;-3.404595190659165E-003;2.051373885478824E-004;
2.409000000000000E+009;1.911809444427490E-001;3.364291042089462E-002;-3.448149189352989E-003;3.771633782889694E-004;
2.409166666666667E+009;1.904640942811966E-001;3.249573335051537E-002;-3.328508930280805E-003;5.781294312328100E-004;
2.409333333333334E+009;1.896346360445023E-001;3.155508264899254E-002;-3.314427798613906E-003;7.161747780628502E-004;
2.409500000000000E+009;1.887927353382111E-001;3.023816831409931E-002;-3.010625718161464E-003;6.799107068218291E-004;
2.409666666666667E+009;1.880497932434082E-001;2.870747633278370E-002;-2.939723199233413E-003;6.992918788455427E-004;
2.409833333333334E+009;1.871176213026047E-001;2.734939567744732E-002;-2.740000141784549E-003;8.429023437201977E-004;
2.410000000000000E+009;1.863873004913330E-001;2.559728175401688E-002;-2.671668771654367E-003;8.317026076838374E-004;
2.410166666666667E+009;1.857057958841324E-001;2.384743839502335E-002;-2.552795922383666E-003;8.158770506270230E-004;
2.410333333333334E+009;1.847393363714218E-001;2.218614704906941E-002;-2.473413944244385E-003;9.735204512253404E-004;
2.410500000000000E+009;1.839423477649689E-001;2.012021094560623E-002;-2.322481246665120E-003;8.115634554997087E-004;
2.410666666666667E+009;1.833107322454453E-001;1.812303625047207E-002;-2.264755545184016E-003;7.895047310739756E-004;
2.410833333333334E+009;1.828045696020126E-001;1.613331399857998E-002;-2.262574387714267E-003;7.883780053816736E-004;
2.411000000000000E+009;1.822460591793060E-001;1.405858155339956E-002;-2.186860889196396E-003;8.642388856969774E-004;
2.411166666666667E+009;1.816425621509552E-001;1.192496996372938E-002;-2.145757665857673E-003;7.936875917948782E-004;
2.411333333333334E+009;1.813677102327347E-001;9.615791030228138E-003;-2.109795343130827E-003;8.090464398264885E-004;
2.411500000000000E+009;1.810492575168610E-001;7.214456330984831E-003;-1.920881564728916E-003;7.548439316451550E-004;
2.411666666666667E+009;1.810711324214935E-001;5.200661253184080E-003;-1.930714119225740E-003;8.020671666599810E-004;
2.411833333333334E+009;1.806237697601318E-001;3.196690231561661E-003;-1.873829402029514E-003;6.913910037837923E-004;
2.412000000000000E+009;1.808549463748932E-001;5.715442821383476E-004;-1.978189917281270E-003;6.768365274183452E-004;
2.412166666666667E+009;1.809746325016022E-001;-1.438875915482640E-003;-1.924816984683275E-003;6.764905410818756E-004;
2.412333333333334E+009;1.812982112169266E-001;-3.804683452472091E-003;-2.015762496739626E-003;4.654974036384374E-004;
2.412500000000000E+009;1.818952858448029E-001;-6.265006493777037E-003;-1.959664281457663E-003;5.757978651672602E-004;
2.412666666666667E+009;1.823328584432602E-001;-8.283223025500774E-003;-1.892878557555378E-003;5.454506608657539E-004;
2.412833333333334E+009;1.828247159719467E-001;-1.051183231174946E-002;-2.071114955469966E-003;5.974755622446537E-004;
2.413000000000000E+009;1.838407814502716E-001;-1.274305861443281E-002;-1.996361883357167E-003;5.636349669657648E-004;
2.413166666666667E+009;1.843535900115967E-001;-1.474120002239943E-002;-2.191269304603338E-003;5.626616766676307E-004;
2.413333333333334E+009;1.854941546916962E-001;-1.682224683463574E-002;-2.260618610307574E-003;6.303635891526938E-004;
2.413500000000000E+009;1.861155033111572E-001;-1.904127933084965E-002;-2.282507019117475E-003;6.623693043366075E-004;
2.413666666666667E+009;1.872744858264923E-001;-2.095809578895569E-002;-2.263671485707164E-003;8.940440602600575E-004;
2.413833333333334E+009;1.882629096508026E-001;-2.279216051101685E-002;-2.273049205541611E-003;8.398244972340763E-004;
2.414000000000000E+009;1.894138455390930E-001;-2.476303279399872E-002;-2.328818896785379E-003;9.217693586833775E-004;
2.414166666666667E+009;1.903027594089508E-001;-2.630071900784969E-002;-2.388440771028400E-003;1.152757322415710E-003;
2.414333333333334E+009;1.914067715406418E-001;-2.817950025200844E-002;-2.329231938347220E-003;1.260385964997113E-003;
2.414500000000000E+009;1.923752278089523E-001;-2.944763377308846E-002;-2.287272363901138E-003;1.117033883929253E-003;
2.414666666666667E+009;1.934932917356491E-001;-3.107707574963570E-002;-2.193666528910399E-003;1.441881875507534E-003;
2.414833333333334E+009;1.944994479417801E-001;-3.233274072408676E-002;-2.190912142395973E-003;1.334895961917937E-003;
2.415000000000000E+009;1.954494416713715E-001;-3.357801213860512E-002;-2.187277423217893E-003;1.433675293810666E-003;
2.415166666666667E+009;1.965580284595490E-001;-3.479737415909767E-002;-2.248217817395926E-003;1.541347359307110E-003;
2.415333333333334E+009;1.975213289260864E-001;-3.561498597264290E-002;-2.244234783574939E-003;1.469044247642160E-003;
2.415500000000000E+009;1.984391063451767E-001;-3.635840117931366E-002;-2.283946843817830E-003;1.583388308063150E-003;
2.415666666666667E+009;1.993540674448013E-001;-3.724602609872818E-002;-2.304817549884319E-003;1.748797134496272E-003;
2.415833333333334E+009;2.001565545797348E-001;-3.785523772239685E-002;-2.259290777146816E-003;1.674694474786520E-003;
2.416000000000000E+009;2.007728815078735E-001;-3.846118226647377E-002;-2.189766149967909E-003;1.900330535136163E-003;
2.416166666666667E+009;2.012631297111511E-001;-3.917198255658150E-002;-2.119301818311214E-003;2.129764528945088E-003;
2.416333333333334E+009;2.019127905368805E-001;-3.960235044360161E-002;-2.399811288341880E-003;2.196500077843666E-003;
2.416500000000000E+009;2.022448480129242E-001;-3.992174938321114E-002;-2.247092779725790E-003;2.341438317671418E-003;
2.416666666666667E+009;2.024177610874176E-001;-4.045576974749565E-002;-2.050562761723995E-003;2.576943486928940E-003;
2.416833333333334E+009;2.025130540132523E-001;-4.055261611938477E-002;-2.050020731985569E-003;2.777569927275181E-003;
2.417000000000000E+009;2.025148570537567E-001;-4.090870916843414E-002;-1.932055922225118E-003;2.646393841132522E-003;
2.417166666666667E+009;2.021358460187912E-001;-4.086485132575035E-002;-1.727778813801706E-003;2.904870547354221E-003;
2.417333333333334E+009;2.018858045339584E-001;-4.092112556099892E-002;-1.499474281445146E-003;2.907536225393415E-003;
2.417500000000000E+009;2.015161514282227E-001;-4.111112654209137E-002;-1.371280173771083E-003;3.113520098850131E-003;
2.417666666666667E+009;2.009880542755127E-001;-4.110781103372574E-002;-1.168554532341659E-003;3.096726723015308E-003;
2.417833333333334E+009;2.005125433206558E-001;-4.103436321020126E-002;-1.242036814801395E-003;3.155819838866592E-003;
2.418000000000000E+009;1.998554915189743E-001;-4.101024940609932E-002;-8.797369664534926E-004;3.220357233658433E-003;
2.418166666666667E+009;1.990625411272049E-001;-4.113728925585747E-002;-9.415271924808621E-004;3.219641279429197E-003;
2.418333333333334E+009;1.981928199529648E-001;-4.120622202754021E-002;-8.045263239182532E-004;3.223556326702237E-003;
2.418500000000000E+009;1.972693204879761E-001;-4.134860634803772E-002;-6.637881160713732E-004;3.151082433760166E-003;
2.418666666666667E+009;1.964693516492844E-001;-4.152314364910126E-002;-4.209954349789769E-004;3.401233116164804E-003;
2.418833333333334E+009;1.952058970928192E-001;-4.178773611783981E-002;-3.778942336793989E-004;3.254451788961887E-003;
2.419000000000000E+009;1.941009163856506E-001;-4.206217080354691E-002;-2.141154545824975E-004;3.170274198055267E-003;
2.419166666666667E+009;1.926477849483490E-001;-4.265011847019196E-002;-1.099077053368092E-004;3.327040001749992E-003;
2.419333333333334E+009;1.915730983018875E-001;-4.320390149950981E-002;-5.357689587981440E-005;3.136447397992015E-003;
2.419500000000000E+009;1.903720349073410E-001;-4.376349970698357E-002;1.865843369159848E-004;3.189239883795381E-003;
2.419666666666667E+009;1.887984722852707E-001;-4.469407349824905E-002;9.911181405186653E-005;3.211298724636436E-003;
2.419833333333334E+009;1.872895509004593E-001;-4.541832581162453E-002;4.498661728575826E-004;3.104830160737038E-003;
2.420000000000000E+009;1.858686059713364E-001;-4.635903611779213E-002;4.125653649680316E-004;3.133172169327736E-003;
2.420166666666667E+009;1.844425201416016E-001;-4.735318943858147E-002;5.897745140828192E-004;3.035057568922639E-003;
2.420333333333334E+009;1.829224228858948E-001;-4.847301542758942E-002;5.667713703587651E-004;3.045891178771853E-003;
2.420500000000000E+009;1.815087944269180E-001;-4.982173070311546E-002;7.146034040488303E-004;3.029012354090810E-003;
2.420666666666667E+009;1.800557971000671E-001;-5.078881233930588E-002;7.819304591976106E-004;2.916149795055389E-003;
2.420833333333334E+009;1.786087751388550E-001;-5.243264511227608E-002;9.764909045770764E-004;2.934417221695185E-003;
2.421000000000000E+009;1.772187650203705E-001;-5.391095578670502E-002;1.047631027176976E-003;2.880680141970515E-003;
2.421166666666667E+009;1.760356724262238E-001;-5.555262416601181E-002;1.169973518699408E-003;2.789124613627791E-003;
2.421333333333334E+009;1.744658648967743E-001;-5.688295140862465E-002;1.238620723597705E-003;2.719939686357975E-003;
2.421500000000000E+009;1.732510924339294E-001;-5.893176794052124E-002;1.304121105931699E-003;2.651009242981672E-003;
2.421666666666667E+009;1.723276376724243E-001;-6.059548631310463E-002;1.185416942462325E-003;2.586201531812549E-003;
2.421833333333334E+009;1.711443215608597E-001;-6.238085031509399E-002;1.379855209961534E-003;2.460304880514741E-003;
2.422000000000000E+009;1.702148169279099E-001;-6.420677155256271E-002;1.500954269431531E-003;2.446224680170417E-003;
2.422166666666667E+009;1.694636195898056E-001;-6.612893193960190E-002;1.539353514090180E-003;2.420981181785464E-003;
2.422333333333334E+009;1.686220467090607E-001;-6.805036962032318E-002;1.647931174375117E-003;2.343279309570789E-003;
2.422500000000000E+009;1.678930073976517E-001;-6.990662962198257E-002;1.720353611744940E-003;2.271503908559680E-003;
2.422666666666667E+009;1.672757863998413E-001;-7.171355187892914E-002;1.711829681880772E-003;2.140860306099057E-003;
2.422833333333334E+009;1.668727248907089E-001;-7.371325790882111E-002;1.810950343497098E-003;2.056261291727424E-003;
2.423000000000000E+009;1.663999259471893E-001;-7.561868429183960E-002;1.881551463156939E-003;1.922312774695456E-003;
2.423166666666667E+009;1.660011857748032E-001;-7.741936296224594E-002;1.846697530709207E-003;1.935715670697391E-003;
2.423333333333334E+009;1.657432466745377E-001;-7.918700575828552E-002;1.857170020230115E-003;1.813287497498095E-003;
2.423500000000000E+009;1.656269282102585E-001;-8.089167624711990E-002;1.926611992530525E-003;1.794146606698632E-003;
2.423666666666667E+009;1.658291667699814E-001;-8.281468600034714E-002;2.035479759797454E-003;1.679357606917620E-003;
2.423833333333334E+009;1.657087057828903E-001;-8.441530913114548E-002;2.113142982125282E-003;1.521296100690961E-003;
2.424000000000000E+009;1.657459586858749E-001;-8.616123348474503E-002;2.000820823013783E-003;1.430080621503294E-003;
2.424166666666667E+009;1.658475250005722E-001;-8.772062510251999E-002;2.056005876511335E-003;1.453655306249857E-003;
2.424333333333334E+009;1.658952981233597E-001;-8.922740817070007E-002;1.895739231258631E-003;1.434938632883132E-003;
2.424500000000000E+009;1.661331802606583E-001;-9.083449095487595E-002;2.166110556572676E-003;1.057711895555258E-003;
2.424666666666667E+009;1.664841026067734E-001;-9.219970554113388E-002;2.286728005856276E-003;1.187063520774245E-003;
2.424833333333334E+009;1.669014543294907E-001;-9.348972141742706E-002;2.130380598828197E-003;9.878808632493019E-004;
2.425000000000000E+009;1.671749055385590E-001;-9.479771554470062E-002;2.161653945222497E-003;1.011573243886232E-003;
2.425166666666667E+009;1.672642379999161E-001;-9.580134600400925E-002;2.129587344825268E-003;8.110984344966710E-004;
2.425333333333334E+009;1.676274538040161E-001;-9.679864346981049E-002;1.990918070077896E-003;7.670636405237019E-004;
2.425500000000000E+009;1.679353415966034E-001;-9.789835661649704E-002;2.075064228847623E-003;5.984970484860241E-004;
2.425666666666667E+009;1.681314855813980E-001;-9.857033938169479E-002;2.182988217100501E-003;5.195058183744550E-004;
2.425833333333334E+009;1.683996617794037E-001;-9.957811981439591E-002;1.989991636946797E-003;5.781323998235166E-004;
2.426000000000000E+009;1.685664355754852E-001;-1.000585034489632E-001;2.060085302218795E-003;3.613001317717135E-004;
2.426166666666667E+009;1.690307855606079E-001;-1.004577279090881E-001;1.738261315040290E-003;2.311623393325135E-004;
2.426333333333334E+009;1.688662171363831E-001;-1.010681390762329E-001;1.863561454229057E-003;3.810943744610995E-004;
2.426500000000000E+009;1.692188978195190E-001;-1.014627516269684E-001;1.847691484726965E-003;3.792169154621661E-004;
2.426666666666667E+009;1.694075912237167E-001;-1.019164621829987E-001;1.879838644526899E-003;3.505438216961920E-004;
2.426833333333334E+009;1.695976853370667E-001;-1.023282334208489E-001;1.782011124305427E-003;1.856787130236626E-004;
2.427000000000000E+009;1.695047914981842E-001;-1.026919335126877E-001;1.596481772139669E-003;1.551907480461523E-004;
2.427166666666667E+009;1.694408953189850E-001;-1.028112471103668E-001;1.682517817243934E-003;2.984286111313850E-004;
2.427333333333334E+009;1.693203598260880E-001;-1.032917574048042E-001;1.830124412663281E-003;1.624208089197055E-004;
2.427500000000000E+009;1.690067052841187E-001;-1.035445854067802E-001;1.805240055546165E-003;8.196938142646104E-005;
2.427666666666667E+009;1.687598973512650E-001;-1.038514673709869E-001;1.822661375626922E-003;1.886694517452270E-004;
2.427833333333334E+009;1.683699935674667E-001;-1.041253879666328E-001;1.882871030829847E-003;2.348692942177877E-004;
