# Version 1.00
#
freq[Hz];re:Trc1_S11;im:Trc1_S11;re:Trc2_S21;im:Trc2_S21;
2.400000000000000E+009;1.563273966312408E-001;1.053781509399414E-001;1.964725786820054E-003;-2.736109076067805E-003;
2.400166666666667E+009;1.561598330736160E-001;1.030851900577545E-001;1.832546084187925E-003;-2.971053589135408E-003;
2.400333333333334E+009;1.565484851598740E-001;1.008842438459396E-001;1.725645852275193E-003;-3.150017233565450E-003;
2.400500000000000E+009;1.567052453756332E-001;9.823550283908844E-002;1.531537738628686E-003;-3.211793955415487E-003;
2.400666666666667E+009;1.568422615528107E-001;9.593278169631958E-002;1.533370697870851E-003;-3.419159678742290E-003;
2.400833333333334E+009;1.571313589811325E-001;9.325810521841049E-002;1.520860358141363E-003;-3.257275093346834E-003;
2.401000000000000E+009;1.573647409677506E-001;9.059750288724899E-002;1.307226251810789E-003;-3.482244210317731E-003;
2.401166666666667E+009;1.575899720191956E-001;8.777058124542236E-002;1.342350384220481E-003;-3.660209244117141E-003;
2.401333333333334E+009;1.578442752361298E-001;8.515337854623795E-002;1.315274275839329E-003;-3.664740826934576E-003;
2.401500000000000E+009;1.586719453334808E-001;8.254215866327286E-002;1.134718302637339E-003;-3.727552946656942E-003;
2.401666666666667E+009;1.589322984218597E-001;8.001279085874558E-002;1.027507591061294E-003;-3.883113618940115E-003;
2.401833333333334E+009;1.595203429460526E-001;7.736771553754807E-002;8.996573160402477E-004;-3.881139680743218E-003;
2.402000000000000E+009;1.604809612035751E-001;7.476719468832016E-002;6.551302503794432E-004;-3.896568901836872E-003;
2.402166666666667E+009;1.610758900642395E-001;7.252421975135803E-002;5.439341184683144E-004;-4.022920969873667E-003;
2.402333333333334E+009;1.621730774641037E-001;6.976444274187088E-002;3.501034225337207E-004;-4.091548267751932E-003;
2.402500000000000E+009;1.630292981863022E-001;6.747853755950928E-002;4.065290850121528E-004;-4.249376244843006E-003;
2.402666666666667E+009;1.640371531248093E-001;6.563211977481842E-002;1.388359232805669E-004;-4.265856929123402E-003;
2.402833333333334E+009;1.652661412954330E-001;6.315977126359940E-002;-1.099673027056269E-004;-4.178364761173725E-003;
2.403000000000000E+009;1.667477339506149E-001;6.104140356183052E-002;-2.695418952498585E-004;-4.303866531699896E-003;
2.403166666666667E+009;1.684931367635727E-001;5.890148133039475E-002;-4.298575222492218E-004;-4.127775784581900E-003;
2.403333333333334E+009;1.696618646383286E-001;5.700764805078507E-002;-6.260707159526646E-004;-4.254681523889303E-003;
2.403500000000000E+009;1.712367534637451E-001;5.501045659184456E-002;-8.643929613754153E-004;-4.256961867213249E-003;
2.403666666666667E+009;1.727499067783356E-001;5.315615609288216E-002;-1.120722969062626E-003;-4.214129876345396E-003;
2.403833333333334E+009;1.743579059839249E-001;5.150594562292099E-002;-1.225628075189889E-003;-4.087280482053757E-003;
2.404000000000000E+009;1.757451742887497E-001;4.977866262197495E-002;-1.198869780637324E-003;-4.052448086440563E-003;
2.404166666666667E+009;1.773028224706650E-001;4.830953106284142E-002;-1.467880792915821E-003;-4.058058839291334E-003;
2.404333333333334E+009;1.787896752357483E-001;4.680572450160980E-002;-1.707899384200573E-003;-4.035271238535643E-003;
2.404500000000000E+009;1.802023649215698E-001;4.555629566311836E-002;-1.839368487708271E-003;-3.940385766327381E-003;
2.404666666666667E+009;1.815633922815323E-001;4.456335678696632E-002;-2.026963979005814E-003;-4.015509970486164E-003;
2.404833333333334E+009;1.830789446830750E-001;4.335507377982140E-002;-2.258062828332186E-003;-3.889349056407809E-003;
2.405000000000000E+009;1.841550916433334E-001;4.251553490757942E-002;-2.116010291501880E-003;-3.826419357210398E-003;
2.405166666666667E+009;1.854630559682846E-001;4.193183779716492E-002;-2.649469068273902E-003;-3.911624196916819E-003;
2.405333333333334E+009;1.866713166236877E-001;4.136835038661957E-002;-2.918256213888526E-003;-3.505294676870108E-003;
2.405500000000000E+009;1.877852678298950E-001;4.078618064522743E-002;-3.117787186056376E-003;-3.660526126623154E-003;
2.405666666666667E+009;1.887988150119782E-001;4.021902009844780E-002;-3.132563084363937E-003;-3.243262413889170E-003;
2.405833333333334E+009;1.899771690368652E-001;3.996868804097176E-002;-3.484525484964252E-003;-3.237428376451135E-003;
2.406000000000000E+009;1.907837390899658E-001;3.972823917865753E-002;-3.492415416985750E-003;-2.874136902391911E-003;
2.406166666666667E+009;1.916026920080185E-001;3.938008844852448E-002;-3.557593328878284E-003;-2.704586600884795E-003;
2.406333333333334E+009;1.924260705709457E-001;3.935226052999497E-002;-3.664971794933081E-003;-2.674752147868276E-003;
2.406500000000000E+009;1.929862797260284E-001;3.914818540215492E-002;-3.860825905576348E-003;-2.096511423587799E-003;
2.406666666666667E+009;1.934628337621689E-001;3.910620510578156E-002;-4.022587556391954E-003;-2.051020506769419E-003;
2.406833333333334E+009;1.940563172101975E-001;3.908921033143997E-002;-3.748073242604733E-003;-1.894074841402471E-003;
2.407000000000000E+009;1.942217648029327E-001;3.910873830318451E-002;-3.960233181715012E-003;-1.542463898658752E-003;
2.407166666666667E+009;1.946633309125900E-001;3.868943825364113E-002;-3.925986122339964E-003;-1.277180970646441E-003;
2.407333333333334E+009;1.945507675409317E-001;3.877176716923714E-002;-4.022466018795967E-003;-1.147135859355331E-003;
2.407500000000000E+009;1.945588290691376E-001;3.863774240016937E-002;-3.845559200271964E-003;-1.099124550819397E-003;
2.407666666666667E+009;1.945162862539291E-001;3.845480829477310E-002;-3.953543491661549E-003;-1.001060940325260E-003;
2.407833333333334E+009;1.942252814769745E-001;3.815662860870361E-002;-3.900498850271106E-003;-6.979437312111259E-004;
2.408000000000000E+009;1.941886842250824E-001;3.787775337696075E-002;-3.834191709756851E-003;-4.377276054583490E-004;
2.408166666666667E+009;1.936611980199814E-001;3.747594729065895E-002;-3.786228131502867E-003;-4.263152950443327E-004;
2.408333333333334E+009;1.932688355445862E-001;3.677206858992577E-002;-3.742125118151307E-003;-1.953852915903553E-004;
2.408500000000000E+009;1.926937699317932E-001;3.642367199063301E-002;-3.609910141676664E-003;-2.876180587918498E-005;
2.408666666666667E+009;1.922964155673981E-001;3.574211150407791E-002;-3.703490365296602E-003;1.624106807867065E-004;
2.408833333333334E+009;1.917787641286850E-001;3.494918346405029E-002;-3.470604307949543E-003;2.726025704760104E-004;
2.409000000000000E+009;1.909853368997574E-001;3.372493013739586E-002;-3.457568585872650E-003;4.096221236977726E-004;
2.409166666666667E+009;1.902338862419128E-001;3.283463045954704E-002;-3.168591996654868E-003;5.757979815825820E-004;
2.409333333333334E+009;1.894840151071549E-001;3.178852051496506E-002;-3.116198582574725E-003;6.193709559738636E-004;
2.409500000000000E+009;1.885064244270325E-001;3.039827384054661E-002;-2.981520025059581E-003;7.349321967922151E-004;
2.409666666666667E+009;1.877588480710983E-001;2.895165234804153E-002;-2.727720653638244E-003;6.730621098540723E-004;
2.409833333333334E+009;1.868311613798142E-001;2.763941697776318E-002;-2.713014371693134E-003;8.520889095962048E-004;
2.410000000000000E+009;1.860966980457306E-001;2.609085664153099E-002;-2.668651286512613E-003;7.430792902596295E-004;
2.410166666666667E+009;1.852812469005585E-001;2.409144118428230E-002;-2.540147630497813E-003;8.621995802968741E-004;
2.410333333333334E+009;1.846061795949936E-001;2.251586690545082E-002;-2.327919704839587E-003;8.236935827881098E-004;
2.410500000000000E+009;1.837129741907120E-001;2.065557986497879E-002;-2.314597135409713E-003;8.039000094868243E-004;
2.410666666666667E+009;1.830682903528214E-001;1.845208741724491E-002;-2.317537320777774E-003;9.061787859536707E-004;
2.410833333333334E+009;1.825822740793228E-001;1.636775210499764E-002;-2.141521312296391E-003;9.330805041827261E-004;
2.411000000000000E+009;1.821378320455551E-001;1.433598715811968E-002;-2.115614013746381E-003;7.454012520611286E-004;
2.411166666666667E+009;1.814559400081635E-001;1.220168359577656E-002;-2.125385450199246E-003;6.888824864290655E-004;
2.411333333333334E+009;1.812748312950134E-001;9.903210215270519E-003;-1.977585023269057E-003;6.652522715739906E-004;
2.411500000000000E+009;1.808467209339142E-001;7.856131531298161E-003;-1.992802601307631E-003;8.068482275120914E-004;
2.411666666666667E+009;1.808514297008514E-001;5.643059033900499E-003;-1.941610476933420E-003;7.455792510882020E-004;
2.411833333333334E+009;1.804073750972748E-001;3.479394130408764E-003;-1.884765573777258E-003;7.206647424027324E-004;
2.412000000000000E+009;1.809311360120773E-001;9.629615233279765E-004;-1.813017181120813E-003;6.672306917607784E-004;
2.412166666666667E+009;1.809365004301071E-001;-1.048203324899077E-003;-1.905494485981762E-003;6.854208186268807E-004;
2.412333333333334E+009;1.812591552734375E-001;-3.414119593799114E-003;-1.921707182191312E-003;5.853394977748394E-004;
2.412500000000000E+009;1.815744936466217E-001;-5.816900171339512E-003;-1.946682576090097E-003;5.570384673774242E-004;
2.412666666666667E+009;1.821619272232056E-001;-7.983463816344738E-003;-1.997963292524219E-003;6.884855683892965E-004;
2.412833333333334E+009;1.828753352165222E-001;-1.018761843442917E-002;-2.114930888637900E-003;5.586361512541771E-004;
2.413000000000000E+009;1.835555136203766E-001;-1.221856940537691E-002;-2.175081288442016E-003;3.799852274823934E-004;
2.413166666666667E+009;1.843152046203613E-001;-1.441399194300175E-002;-2.150364918634296E-003;5.699470639228821E-004;
2.413333333333334E+009;1.851986944675446E-001;-1.658230274915695E-002;-2.303355373442173E-003;6.762636476196349E-004;
2.413500000000000E+009;1.861715763807297E-001;-1.863510161638260E-002;-2.332574222236872E-003;7.811078103259206E-004;
2.413666666666667E+009;1.872300654649735E-001;-2.069844678044319E-002;-2.296439372003079E-003;7.690981146879494E-004;
2.413833333333334E+009;1.879630088806152E-001;-2.259329333901405E-002;-2.292164368554950E-003;9.573959396220744E-004;
2.414000000000000E+009;1.891547590494156E-001;-2.437275834381580E-002;-2.440572250634432E-003;1.017516595311463E-003;
2.414166666666667E+009;1.902591735124588E-001;-2.599684707820416E-002;-2.392474794760346E-003;1.141706132330000E-003;
2.414333333333334E+009;1.912074536085129E-001;-2.794535085558891E-002;-2.469435334205627E-003;1.066074590198696E-003;
2.414500000000000E+009;1.923572868108749E-001;-2.928654104471207E-002;-2.271531149744988E-003;1.313099870458245E-003;
2.414666666666667E+009;1.936254352331162E-001;-3.060762956738472E-002;-2.189159626141191E-003;1.290638116188347E-003;
2.414833333333334E+009;1.945012956857681E-001;-3.205230832099915E-002;-2.262435853481293E-003;1.316821784712374E-003;
2.415000000000000E+009;1.954554617404938E-001;-3.321916237473488E-002;-2.274694386869669E-003;1.381871290504932E-003;
2.415166666666667E+009;1.965349167585373E-001;-3.440260887145996E-002;-2.161350566893816E-003;1.428902382031083E-003;
2.415333333333334E+009;1.975429058074951E-001;-3.518399596214294E-002;-2.086044987663627E-003;1.328560058027506E-003;
2.415500000000000E+009;1.985021382570267E-001;-3.599274158477783E-002;-2.294376259669662E-003;1.529292203485966E-003;
2.415666666666667E+009;1.992973387241364E-001;-3.696482256054878E-002;-2.253220183774829E-003;1.636767643503845E-003;
2.415833333333334E+009;2.001534998416901E-001;-3.746890276670456E-002;-2.369110472500324E-003;1.732569304294884E-003;
2.416000000000000E+009;2.007327824831009E-001;-3.816538676619530E-002;-2.232769737020135E-003;1.872765715233982E-003;
2.416166666666667E+009;2.013563513755798E-001;-3.890057653188705E-002;-2.378376666456461E-003;1.949153025634587E-003;
2.416333333333334E+009;2.018576264381409E-001;-3.922026604413986E-002;-2.207062905654311E-003;2.342407358810306E-003;
2.416500000000000E+009;2.022478729486466E-001;-3.956359252333641E-002;-2.256752457469702E-003;2.430190797895193E-003;
2.416666666666667E+009;2.024428546428680E-001;-4.010080173611641E-002;-2.264458686113358E-003;2.563601126894355E-003;
2.416833333333334E+009;2.025265842676163E-001;-4.033299908041954E-002;-2.080095699056983E-003;2.499487018212676E-003;
2.417000000000000E+009;2.025162130594254E-001;-4.055039584636688E-002;-1.848392072133720E-003;2.852160250768066E-003;
2.417166666666667E+009;2.022202312946320E-001;-4.069060459733009E-002;-1.868592225946486E-003;2.948986133560538E-003;
2.417333333333334E+009;2.019792050123215E-001;-4.075914621353149E-002;-1.660125679336488E-003;2.946195425465703E-003;
2.417500000000000E+009;2.016621381044388E-001;-4.082716256380081E-002;-1.522869104519486E-003;3.083535470068455E-003;
2.417666666666667E+009;2.011387497186661E-001;-4.088249430060387E-002;-1.342462142929435E-003;3.177575534209609E-003;
2.417833333333334E+009;2.006501257419586E-001;-4.078590497374535E-002;-1.206816988997161E-003;3.095989581197500E-003;
2.418000000000000E+009;1.999719440937042E-001;-4.068341478705406E-002;-1.014065928757191E-003;3.140710294246674E-003;
2.418166666666667E+009;1.992132812738419E-001;-4.085707664489746E-002;-8.541143615730107E-004;3.255927935242653E-003;
2.418333333333334E+009;1.982853412628174E-001;-4.095223546028137E-002;-6.844253512099385E-004;3.332611639052630E-003;
2.418500000000000E+009;1.973902136087418E-001;-4.110803455114365E-002;-5.219989106990397E-004;3.162944922223687E-003;
2.418666666666667E+009;1.965765953063965E-001;-4.109852015972138E-002;-6.790788611397147E-004;3.305691992864013E-003;
2.418833333333334E+009;1.953423619270325E-001;-4.157341644167900E-002;-5.617075366899371E-004;3.401718568056822E-003;
2.419000000000000E+009;1.941593289375305E-001;-4.185470938682556E-002;-2.099106641253457E-004;3.230749163776636E-003;
2.419166666666667E+009;1.929446458816528E-001;-4.237536340951920E-002;-2.335842727916315E-004;3.232407383620739E-003;
2.419333333333334E+009;1.916698813438416E-001;-4.301253333687782E-002;-7.738180283922702E-005;3.376024076715112E-003;
2.419500000000000E+009;1.903267949819565E-001;-4.353914037346840E-002;-9.029630746226758E-005;3.266387386247516E-003;
2.419666666666667E+009;1.889395117759705E-001;-4.442729428410530E-002;1.596982765477151E-004;3.261578269302845E-003;
2.419833333333334E+009;1.873827725648880E-001;-4.510979726910591E-002;3.473545366432518E-004;3.154270816594362E-003;
2.420000000000000E+009;1.860925406217575E-001;-4.610837623476982E-002;3.791144117712975E-004;3.138048341497779E-003;
2.420166666666667E+009;1.846256703138351E-001;-4.724108055233955E-002;5.374265601858497E-004;3.137580584734678E-003;
2.420333333333334E+009;1.831378638744354E-001;-4.821933805942535E-002;5.518242833204567E-004;3.012978471815586E-003;
2.420500000000000E+009;1.816347539424896E-001;-4.972920566797257E-002;6.541143520735204E-004;2.987388288602233E-003;
2.420666666666667E+009;1.802483946084976E-001;-5.075024068355560E-002;8.544173906557262E-004;3.114559687674046E-003;
2.420833333333334E+009;1.787238568067551E-001;-5.230766907334328E-002;8.798383059911430E-004;3.000750439241529E-003;
2.421000000000000E+009;1.774880737066269E-001;-5.381458997726440E-002;1.117877662181854E-003;2.878626110032201E-003;
2.421166666666667E+009;1.762212514877319E-001;-5.537149310112000E-002;1.156893093138933E-003;2.826305339112878E-003;
2.421333333333334E+009;1.747356802225113E-001;-5.680852383375168E-002;1.074422500096262E-003;2.756191650405526E-003;
2.421500000000000E+009;1.735109984874725E-001;-5.877594277262688E-002;1.234676805324853E-003;2.756786067038775E-003;
2.421666666666667E+009;1.724644005298615E-001;-6.054012477397919E-002;1.508666435256600E-003;2.685708692297339E-003;
2.421833333333334E+009;1.714961379766464E-001;-6.218248233199120E-002;1.452357275411487E-003;2.580598462373018E-003;
2.422000000000000E+009;1.704080849885941E-001;-6.393657624721527E-002;1.434712903574109E-003;2.440128475427628E-003;
2.422166666666667E+009;1.695546358823776E-001;-6.601779907941818E-002;1.617872039787471E-003;2.392064779996872E-003;
2.422333333333334E+009;1.687079519033432E-001;-6.770537793636322E-002;1.754247467033565E-003;2.264995826408267E-003;
2.422500000000000E+009;1.681666672229767E-001;-6.968816369771957E-002;1.778313773684204E-003;2.153011737391353E-003;
2.422666666666667E+009;1.674924790859222E-001;-7.161984592676163E-002;1.856600632891059E-003;2.295355079695582E-003;
2.422833333333334E+009;1.671481579542160E-001;-7.357674092054367E-002;1.702929381281138E-003;2.075057011097670E-003;
2.423000000000000E+009;1.664946675300598E-001;-7.544250786304474E-002;1.841398072429001E-003;2.011408563703299E-003;
2.423166666666667E+009;1.662697345018387E-001;-7.741793245077133E-002;1.964254304766655E-003;1.806735992431641E-003;
2.423333333333334E+009;1.659430861473084E-001;-7.901214063167572E-002;1.930788159370422E-003;1.790170324966312E-003;
2.423500000000000E+009;1.659849286079407E-001;-8.084957301616669E-002;1.929546822793782E-003;1.571999629959464E-003;
2.423666666666667E+009;1.660161912441254E-001;-8.277175575494766E-002;2.002679510042071E-003;1.701169880107045E-003;
2.423833333333334E+009;1.657886505126953E-001;-8.443565666675568E-002;2.010701457038522E-003;1.535775256343186E-003;
2.424000000000000E+009;1.659458279609680E-001;-8.621335029602051E-002;1.976171275600791E-003;1.517905271612108E-003;
2.424166666666667E+009;1.661165356636047E-001;-8.759935200214386E-002;1.995933242142201E-003;1.541435951367021E-003;
2.424333333333334E+009;1.662247925996780E-001;-8.919078111648560E-002;2.219899557530880E-003;1.289832172915340E-003;
2.424500000000000E+009;1.664054095745087E-001;-9.078840166330338E-002;2.093017334118486E-003;1.248719519935548E-003;
2.424666666666667E+009;1.665527969598770E-001;-9.212808310985565E-002;2.130137756466866E-003;1.180334831587970E-003;
2.424833333333334E+009;1.672300696372986E-001;-9.353075176477432E-002;2.248893724754453E-003;1.122315181419253E-003;
2.425000000000000E+009;1.672603040933609E-001;-9.473086148500443E-002;2.164549892768264E-003;9.367686579935253E-004;
2.425166666666667E+009;1.675868034362793E-001;-9.576287120580673E-002;2.144890604540706E-003;7.143877446651459E-004;
2.425333333333334E+009;1.678048670291901E-001;-9.683009982109070E-002;2.244135132059455E-003;9.028704953379929E-004;
2.425500000000000E+009;1.681336462497711E-001;-9.776451438665390E-002;2.094837604090571E-003;8.160485303960741E-004;
2.425666666666667E+009;1.683687865734100E-001;-9.844950586557388E-002;2.011039992794395E-003;7.967733545228839E-004;
2.425833333333334E+009;1.685342639684677E-001;-9.937918186187744E-002;2.052405150607228E-003;5.608092178590596E-004;
2.426000000000000E+009;1.688504517078400E-001;-9.990942478179932E-002;1.978651620447636E-003;4.787072830367833E-004;
2.426166666666667E+009;1.692018806934357E-001;-1.004887223243713E-001;1.887166639789939E-003;5.128152552060783E-004;
2.426333333333334E+009;1.691907495260239E-001;-1.011646240949631E-001;1.828675740398467E-003;5.400688969530165E-004;
2.426500000000000E+009;1.695358902215958E-001;-1.014596298336983E-001;1.984092639759183E-003;3.839082783088088E-004;
2.426666666666667E+009;1.696577519178391E-001;-1.019164323806763E-001;1.865001278929412E-003;4.981668316759169E-004;
2.426833333333334E+009;1.697855144739151E-001;-1.023507192730904E-001;1.882518059574068E-003;3.975876315962523E-004;
2.427000000000000E+009;1.697347313165665E-001;-1.026406362652779E-001;1.746387104503810E-003;3.020203439518809E-004;
2.427166666666667E+009;1.696709394454956E-001;-1.029087156057358E-001;1.808589673601091E-003;3.119159373454750E-004;
2.427333333333334E+009;1.695814728736877E-001;-1.033034026622772E-001;1.774192089214921E-003;1.930641155922785E-004;
2.427500000000000E+009;1.693228334188461E-001;-1.036307215690613E-001;1.934611354954541E-003;2.225667558377609E-004;
2.427666666666667E+009;1.690286099910736E-001;-1.038295999169350E-001;1.956909196451306E-003;1.600408140802756E-004;
2.427833333333334E+009;1.686368584632874E-001;-1.042031720280647E-001;1.861131284385920E-003;2.486616431269795E-004;
