# Version 1.00
#
freq[Hz];re:Trc1_S11;im:Trc1_S11;re:Trc2_S21;im:Trc2_S21;
2.400000000000000E+009;1.679417490959168E-001;4.658190906047821E-002;-2.550136065110564E-003;1.751737901940942E-003;
2.400166666666667E+009;1.689551174640656E-001;4.580767080187798E-002;-2.469497267156839E-003;1.700750319287181E-003;
2.400333333333334E+009;1.699073165655136E-001;4.445489123463631E-002;-2.343869535252452E-003;1.777364755980671E-003;
2.400500000000000E+009;1.709260195493698E-001;4.338145256042481E-002;-2.449772786349058E-003;1.411464298143983E-003;
2.400666666666667E+009;1.716626882553101E-001;4.244799911975861E-002;-2.544831018894911E-003;1.443131361156702E-003;
2.400833333333334E+009;1.725764423608780E-001;4.166214913129807E-002;-2.624379238113761E-003;1.582733471877873E-003;
2.401000000000000E+009;1.733412146568298E-001;4.077615588903427E-002;-2.442926168441773E-003;1.437642960809171E-003;
2.401166666666667E+009;1.741485446691513E-001;4.008569195866585E-002;-2.690747613087297E-003;1.357044558972120E-003;
2.401333333333334E+009;1.747941821813583E-001;3.921588510274887E-002;-2.718585543334484E-003;1.642428571358323E-003;
2.401500000000000E+009;1.756866574287415E-001;3.872814401984215E-002;-2.907376736402512E-003;1.603933167643845E-003;
2.401666666666667E+009;1.764119863510132E-001;3.811801597476006E-002;-2.825515111908317E-003;1.725623966194689E-003;
2.401833333333334E+009;1.769740134477615E-001;3.716794028878212E-002;-2.975633600726724E-003;1.763018430210650E-003;
2.402000000000000E+009;1.772566884756088E-001;3.676636517047882E-002;-2.956710988655686E-003;1.920587266795337E-003;
2.402166666666667E+009;1.777694374322891E-001;3.597716614603996E-002;-3.089419798925519E-003;2.029518363997340E-003;
2.402333333333334E+009;1.781611889600754E-001;3.530839085578919E-002;-3.045473480597138E-003;2.115775598213077E-003;
2.402500000000000E+009;1.787532716989517E-001;3.469731658697128E-002;-3.194891382008791E-003;2.293489407747984E-003;
2.402666666666667E+009;1.789537668228149E-001;3.422994166612625E-002;-3.182123880833387E-003;2.535855863243341E-003;
2.402833333333334E+009;1.792336255311966E-001;3.357803076505661E-002;-3.181349718943238E-003;2.570334821939468E-003;
2.403000000000000E+009;1.793055981397629E-001;3.264883160591126E-002;-3.112707054242492E-003;2.504128031432629E-003;
2.403166666666667E+009;1.793173551559448E-001;3.176777064800263E-002;-2.965157385915518E-003;2.721128752455115E-003;
2.403333333333334E+009;1.794066131114960E-001;3.092815354466438E-002;-2.988135442137718E-003;3.069590078666806E-003;
2.403500000000000E+009;1.792291849851608E-001;3.000776655972004E-002;-3.051535692065954E-003;3.148834686726332E-003;
2.403666666666667E+009;1.788959503173828E-001;2.888370677828789E-002;-3.126152558252215E-003;3.233401337638497E-003;
2.403833333333334E+009;1.788560301065445E-001;2.794891595840454E-002;-2.998819807544351E-003;3.515073331072927E-003;
2.404000000000000E+009;1.785746961832047E-001;2.695554681122303E-002;-2.882695756852627E-003;3.765647066757083E-003;
2.404166666666667E+009;1.781099140644074E-001;2.572470158338547E-002;-2.813336905092001E-003;3.739127889275551E-003;
2.404333333333334E+009;1.777888536453247E-001;2.461445890367031E-002;-2.823490183800459E-003;3.955840133130550E-003;
2.404500000000000E+009;1.772537976503372E-001;2.313745208084583E-002;-2.685968764126301E-003;4.160120617598295E-003;
2.404666666666667E+009;1.768731772899628E-001;2.169156633317471E-002;-2.568221418187022E-003;4.323669709265232E-003;
2.404833333333334E+009;1.764794588088989E-001;2.042411454021931E-002;-2.311630873009563E-003;4.484971985220909E-003;
2.405000000000000E+009;1.760252416133881E-001;1.889405399560928E-002;-2.100890036672354E-003;4.819978494197130E-003;
2.405166666666667E+009;1.755546629428864E-001;1.732459105551243E-002;-2.160301664844155E-003;4.872447811067104E-003;
2.405333333333334E+009;1.750687807798386E-001;1.568905636668205E-002;-1.728279981762171E-003;5.187167786061764E-003;
2.405500000000000E+009;1.746932268142700E-001;1.425340957939625E-002;-1.629135687835515E-003;5.212867166846991E-003;
2.405666666666667E+009;1.743909269571304E-001;1.256772596389055E-002;-1.224568346515298E-003;5.200068466365337E-003;
2.405833333333334E+009;1.739402264356613E-001;1.074485667049885E-002;-1.014224719256163E-003;5.390732083469629E-003;
2.406000000000000E+009;1.737382709980011E-001;8.774442598223686E-003;-8.386521949432790E-004;5.542968865483999E-003;
2.406166666666667E+009;1.733489781618118E-001;7.156536448746920E-003;-6.309283198788762E-004;5.594855640083551E-003;
2.406333333333334E+009;1.733028590679169E-001;5.200435407459736E-003;-2.149952051695436E-004;5.599301308393478E-003;
2.406500000000000E+009;1.730348765850067E-001;3.237418830394745E-003;4.450728374649771E-005;5.556169431656599E-003;
2.406666666666667E+009;1.728688180446625E-001;1.348500489257276E-003;2.245792420580983E-004;5.709075834602118E-003;
2.406833333333334E+009;1.728718876838684E-001;-7.058435003273189E-004;5.696963053196669E-004;5.705718416720629E-003;
2.407000000000000E+009;1.729609221220017E-001;-2.858515596017242E-003;8.135720272548497E-004;5.656727124005556E-003;
2.407166666666667E+009;1.730481237173080E-001;-4.846955183893442E-003;1.061385730281472E-003;5.496297031641007E-003;
2.407333333333334E+009;1.731845289468765E-001;-6.962020881474018E-003;1.194128417409957E-003;5.490670446306467E-003;
2.407500000000000E+009;1.733871698379517E-001;-9.054404683411121E-003;1.529401517473161E-003;5.331168882548809E-003;
2.407666666666667E+009;1.737187653779984E-001;-1.100567076355219E-002;1.653621904551983E-003;5.196327343583107E-003;
2.407833333333334E+009;1.738440245389938E-001;-1.306439656764269E-002;1.909986604005098E-003;5.166389048099518E-003;
2.408000000000000E+009;1.741206645965576E-001;-1.527503598481417E-002;2.211109502241015E-003;5.038466770201922E-003;
2.408166666666667E+009;1.744591891765595E-001;-1.715071313083172E-002;2.497376641258597E-003;4.816123750060797E-003;
2.408333333333334E+009;1.750279963016510E-001;-1.910668984055519E-002;2.629166468977928E-003;4.552971106022596E-003;
2.408500000000000E+009;1.752658635377884E-001;-2.090605534613133E-002;2.782210474833846E-003;4.453314933925867E-003;
2.408666666666667E+009;1.757732778787613E-001;-2.294684574007988E-002;2.892188029363751E-003;4.315566271543503E-003;
2.408833333333334E+009;1.759846657514572E-001;-2.462450973689556E-002;3.046562429517508E-003;4.238925874233246E-003;
2.409000000000000E+009;1.763875633478165E-001;-2.627126127481461E-002;3.112616948783398E-003;3.996463492512703E-003;
2.409166666666667E+009;1.768060177564621E-001;-2.799876779317856E-002;3.162910463288426E-003;3.853554371744394E-003;
2.409333333333334E+009;1.773333251476288E-001;-2.941146306693554E-002;3.281646640971303E-003;3.699141321703792E-003;
2.409500000000000E+009;1.775178909301758E-001;-3.071396797895432E-002;3.225407795980573E-003;3.505311207845807E-003;
2.409666666666667E+009;1.778302341699600E-001;-3.198532015085220E-002;3.378349123522639E-003;3.498244797810912E-003;
2.409833333333334E+009;1.782171428203583E-001;-3.289438039064407E-002;3.458019811660051E-003;3.227201523259282E-003;
2.410000000000000E+009;1.789792925119400E-001;-3.380807489156723E-002;3.601636039093137E-003;3.059803275391460E-003;
2.410166666666667E+009;1.793182492256165E-001;-3.483130782842636E-002;3.659604117274284E-003;3.189259674400091E-003;
2.410333333333334E+009;1.797017306089401E-001;-3.572196885943413E-002;3.693718696013093E-003;2.871702192351222E-003;
2.410500000000000E+009;1.800747215747833E-001;-3.646985813975334E-002;3.705937648192048E-003;2.686286345124245E-003;
2.410666666666667E+009;1.802382022142410E-001;-3.736203908920288E-002;3.875165712088347E-003;2.589451149106026E-003;
2.410833333333334E+009;1.807315945625305E-001;-3.787069395184517E-002;4.023207817226648E-003;2.514637773856521E-003;
2.411000000000000E+009;1.810689568519592E-001;-3.834773600101471E-002;3.881842363625765E-003;2.324886154383421E-003;
2.411166666666667E+009;1.813869476318359E-001;-3.894037380814552E-002;4.100521560758352E-003;2.254602732136846E-003;
2.411333333333334E+009;1.814181506633759E-001;-3.956466913223267E-002;4.132148809731007E-003;1.900366391055286E-003;
2.411500000000000E+009;1.817026883363724E-001;-4.011511057615280E-002;4.101582337170839E-003;1.899748924188316E-003;
2.411666666666667E+009;1.816028654575348E-001;-4.048918560147286E-002;4.147164057940245E-003;1.681971363723278E-003;
2.411833333333334E+009;1.815858036279678E-001;-4.089473187923431E-002;4.174264613538981E-003;1.395244384184480E-003;
2.412000000000000E+009;1.815325319766998E-001;-4.125279188156128E-002;4.189723171293736E-003;1.297860639169812E-003;
2.412166666666667E+009;1.811885833740234E-001;-4.179337248206139E-002;4.154037218540907E-003;1.049585873261094E-003;
2.412333333333334E+009;1.809626072645187E-001;-4.191246628761292E-002;4.208521451801062E-003;9.689045837149024E-004;
2.412500000000000E+009;1.804428696632385E-001;-4.240982607007027E-002;4.101586993783712E-003;8.610752993263304E-004;
2.412666666666667E+009;1.797806024551392E-001;-4.288298636674881E-002;4.055426456034184E-003;6.778406677767634E-004;
2.412833333333334E+009;1.792306751012802E-001;-4.332457482814789E-002;4.023377783596516E-003;5.453855264931917E-004;
2.413000000000000E+009;1.785154938697815E-001;-4.369992390275002E-002;3.939260262995958E-003;4.317522398196161E-004;
2.413166666666667E+009;1.776682883501053E-001;-4.418757185339928E-002;3.902221098542213E-003;4.381588369142264E-004;
2.413333333333334E+009;1.766238212585449E-001;-4.461095482110977E-002;3.755847224965692E-003;4.158071824349463E-004;
2.413500000000000E+009;1.758896410465241E-001;-4.512546956539154E-002;3.753985045477748E-003;2.595637633930892E-004;
2.413666666666667E+009;1.747726052999497E-001;-4.556939378380776E-002;3.824104322120547E-003;2.742075303103775E-004;
2.413833333333334E+009;1.737398803234100E-001;-4.616901651024818E-002;3.652664367109537E-003;1.225875603267923E-004;
2.414000000000000E+009;1.724894344806671E-001;-4.691836982965469E-002;3.648195648565888E-003;2.266543597215787E-004;
2.414166666666667E+009;1.714844107627869E-001;-4.751576483249664E-002;3.468054812401533E-003;1.156491634901613E-004;
2.414333333333334E+009;1.704867780208588E-001;-4.854656755924225E-002;3.675023326650262E-003;9.060423508344684E-006;
2.414500000000000E+009;1.693846434354782E-001;-4.917797446250916E-002;3.547780215740204E-003;9.528824193694163E-006;
2.414666666666667E+009;1.680501699447632E-001;-5.016627907752991E-002;3.542520105838776E-003;8.556928514735773E-005;
2.414833333333334E+009;1.667529493570328E-001;-5.112018436193466E-002;3.594839246943593E-003;4.234311927575618E-005;
2.415000000000000E+009;1.655956059694290E-001;-5.231834575533867E-002;3.514677984640002E-003;1.789863381418400E-005;
2.415166666666667E+009;1.643989831209183E-001;-5.347387120127678E-002;3.595722140744329E-003;-1.667590986471623E-004;
2.415333333333334E+009;1.632213741540909E-001;-5.478849634528160E-002;3.621563082560897E-003;-1.617702218936756E-004;
2.415500000000000E+009;1.620969325304031E-001;-5.623128265142441E-002;3.711358178406954E-003;-8.693136624060571E-005;
2.415666666666667E+009;1.608572900295258E-001;-5.757806450128555E-002;3.782392712309957E-003;-1.161102773039602E-004;
2.415833333333334E+009;1.599184274673462E-001;-5.924285948276520E-002;3.879615804180503E-003;-1.415713923051953E-004;
2.416000000000000E+009;1.587338447570801E-001;-6.082782894372940E-002;4.017320927232504E-003;-2.739740011747927E-004;
2.416166666666667E+009;1.578832715749741E-001;-6.249195709824562E-002;3.984712529927492E-003;-3.691921301651746E-004;
2.416333333333334E+009;1.569220721721649E-001;-6.424409151077271E-002;4.164096899330616E-003;-4.283020680304617E-004;
2.416500000000000E+009;1.558530926704407E-001;-6.615106761455536E-002;4.276949912309647E-003;-4.052704316563904E-004;
2.416666666666667E+009;1.550028771162033E-001;-6.782773882150650E-002;4.135484341531992E-003;-6.061080493964255E-004;
2.416833333333334E+009;1.542315632104874E-001;-6.995417177677155E-002;4.182351753115654E-003;-8.585400064475834E-004;
2.417000000000000E+009;1.532216817140579E-001;-7.177411764860153E-002;4.297725390642881E-003;-1.078914618119597E-003;
2.417166666666667E+009;1.525394171476364E-001;-7.356785982847214E-002;4.488884937018156E-003;-1.173547934740782E-003;
2.417333333333334E+009;1.519927680492401E-001;-7.547979801893234E-002;4.378066863864660E-003;-1.506325439549983E-003;
2.417500000000000E+009;1.513705700635910E-001;-7.750578969717026E-002;4.356862045824528E-003;-1.632902771234512E-003;
2.417666666666667E+009;1.509862244129181E-001;-7.924992591142654E-002;4.503454081714153E-003;-1.695307786576450E-003;
2.417833333333334E+009;1.504497379064560E-001;-8.095415681600571E-002;4.398906603455544E-003;-2.089903689920902E-003;
2.418000000000000E+009;1.500843167304993E-001;-8.285906910896301E-002;4.470198880881071E-003;-2.147269900888205E-003;
2.418166666666667E+009;1.497177630662918E-001;-8.447566628456116E-002;4.423291422426701E-003;-2.388383029028773E-003;
2.418333333333334E+009;1.498354971408844E-001;-8.642417192459106E-002;4.411290399730206E-003;-2.660138299688697E-003;
2.418500000000000E+009;1.494614183902741E-001;-8.789481222629547E-002;4.237438552081585E-003;-2.943628933280706E-003;
2.418666666666667E+009;1.495093554258347E-001;-8.938276022672653E-002;4.091341048479080E-003;-3.117074025794864E-003;
2.418833333333334E+009;1.493322402238846E-001;-9.083905816078186E-002;3.853176487609744E-003;-3.408592427149415E-003;
2.419000000000000E+009;1.492780447006226E-001;-9.231623262166977E-002;3.785231616348028E-003;-3.581283846870065E-003;
2.419166666666667E+009;1.493940204381943E-001;-9.338614344596863E-002;3.701619105413556E-003;-3.783482126891613E-003;
2.419333333333334E+009;1.493566334247589E-001;-9.449476748704910E-002;3.523693885654211E-003;-3.917666152119637E-003;
2.419500000000000E+009;1.495698243379593E-001;-9.565924853086472E-002;3.275123424828053E-003;-4.025140311568975E-003;
2.419666666666667E+009;1.498317122459412E-001;-9.653376787900925E-002;2.994802547618747E-003;-4.275148734450340E-003;
2.419833333333334E+009;1.500642895698547E-001;-9.727137535810471E-002;2.876449609175324E-003;-4.424367100000382E-003;
2.420000000000000E+009;1.502235829830170E-001;-9.799826890230179E-002;2.649078378453851E-003;-4.345227032899857E-003;
2.420166666666667E+009;1.504706293344498E-001;-9.859039634466171E-002;2.412613714113832E-003;-4.412177018821240E-003;
2.420333333333334E+009;1.508444845676422E-001;-9.902753680944443E-002;2.097857650369406E-003;-4.577576182782650E-003;
2.420500000000000E+009;1.511838436126709E-001;-9.930580854415894E-002;2.031421288847923E-003;-4.429575055837631E-003;
2.420666666666667E+009;1.512933075428009E-001;-9.945081919431686E-002;1.783508225344122E-003;-4.742073826491833E-003;
2.420833333333334E+009;1.517827808856964E-001;-9.971509873867035E-002;1.721982378512621E-003;-4.818475805222988E-003;
2.421000000000000E+009;1.518162935972214E-001;-9.984317421913147E-002;1.396748004481196E-003;-4.741011187434197E-003;
2.421166666666667E+009;1.521624326705933E-001;-9.981112182140350E-002;1.275988528504968E-003;-4.654357675462961E-003;
2.421333333333334E+009;1.524345576763153E-001;-1.000162288546562E-001;1.109154312871397E-003;-4.734613001346588E-003;
2.421500000000000E+009;1.523507535457611E-001;-9.974399209022522E-002;9.926427155733109E-004;-4.769528750330210E-003;
2.421666666666667E+009;1.524958759546280E-001;-9.971987456083298E-002;6.911946693435311E-004;-4.668128676712513E-003;
2.421833333333334E+009;1.525637507438660E-001;-9.947525709867477E-002;5.999071290716529E-004;-4.863638896495104E-003;
2.422000000000000E+009;1.523854285478592E-001;-9.941060841083527E-002;3.307552251499146E-004;-4.747443832457066E-003;
2.422166666666667E+009;1.521992534399033E-001;-9.915957599878311E-002;2.393001050222665E-004;-4.797723144292831E-003;
2.422333333333334E+009;1.519787162542343E-001;-9.871871769428253E-002;-1.405218790750951E-004;-4.834694787859917E-003;
2.422500000000000E+009;1.512669026851654E-001;-9.833241999149323E-002;-1.834948052419350E-004;-4.839476197957993E-003;
2.422666666666667E+009;1.506629586219788E-001;-9.800384938716888E-002;-4.402724443934858E-004;-4.861775320023298E-003;
2.422833333333334E+009;1.502003520727158E-001;-9.790368378162384E-002;-6.461854791268706E-004;-4.746612161397934E-003;
2.423000000000000E+009;1.494161039590836E-001;-9.755226969718933E-002;-9.115454740822315E-004;-4.594586323946714E-003;
2.423166666666667E+009;1.485985070466995E-001;-9.710476547479630E-002;-1.100600115023553E-003;-4.567557014524937E-003;
2.423333333333334E+009;1.476908773183823E-001;-9.663522988557816E-002;-1.038198824971914E-003;-4.527456592768431E-003;
2.423500000000000E+009;1.466168314218521E-001;-9.638516604900360E-002;-1.338134054094553E-003;-4.486463498324156E-003;
2.423666666666667E+009;1.454087346792221E-001;-9.625507146120071E-002;-1.449192641302943E-003;-4.233604297041893E-003;
2.423833333333334E+009;1.444165259599686E-001;-9.597145766019821E-002;-1.680717454291880E-003;-4.104802850633860E-003;
2.424000000000000E+009;1.429957449436188E-001;-9.565208852291107E-002;-1.792736118659377E-003;-4.148013889789581E-003;
2.424166666666667E+009;1.415248662233353E-001;-9.553245455026627E-002;-1.795807271264494E-003;-3.987772855907679E-003;
2.424333333333334E+009;1.405019462108612E-001;-9.532808512449265E-002;-2.094799885526300E-003;-3.804258769378066E-003;
2.424500000000000E+009;1.390350162982941E-001;-9.541344642639160E-002;-2.079766709357500E-003;-3.510475391522050E-003;
2.424666666666667E+009;1.375997215509415E-001;-9.535402059555054E-002;-2.220423892140389E-003;-3.257361240684986E-003;
2.424833333333334E+009;1.361418664455414E-001;-9.555368870496750E-002;-2.283394569531083E-003;-3.275522729381919E-003;
2.425000000000000E+009;1.346491724252701E-001;-9.584737569093704E-002;-2.414838178083301E-003;-3.268465632572770E-003;
2.425166666666667E+009;1.331547051668167E-001;-9.623537957668304E-002;-2.357150195166469E-003;-2.852890174835920E-003;
2.425333333333334E+009;1.316457688808441E-001;-9.676233679056168E-002;-2.288917079567909E-003;-2.936784178018570E-003;
2.425500000000000E+009;1.302282512187958E-001;-9.749101102352142E-002;-2.386071253567934E-003;-2.523947972804308E-003;
2.425666666666667E+009;1.286236345767975E-001;-9.811288863420487E-002;-2.413763199001551E-003;-2.424338599666953E-003;
2.425833333333334E+009;1.271932423114777E-001;-9.896927326917648E-002;-2.268736017867923E-003;-2.286131028085947E-003;
2.426000000000000E+009;1.257547587156296E-001;-1.000610664486885E-001;-2.244271105155349E-003;-2.242654096335173E-003;
2.426166666666667E+009;1.246872022747994E-001;-1.011154353618622E-001;-2.357410499826074E-003;-2.152095083147287E-003;
2.426333333333334E+009;1.230735778808594E-001;-1.022605299949646E-001;-2.217750530689955E-003;-2.022106200456619E-003;
2.426500000000000E+009;1.218987107276917E-001;-1.034798473119736E-001;-2.201363909989595E-003;-1.854624599218369E-003;
2.426666666666667E+009;1.207938641309738E-001;-1.048992350697517E-001;-2.055045915767551E-003;-1.881589414551854E-003;
2.426833333333334E+009;1.195689961314201E-001;-1.062858253717423E-001;-2.031127922236919E-003;-1.861086464487016E-003;
2.427000000000000E+009;1.184372082352638E-001;-1.079515144228935E-001;-1.890359912067652E-003;-1.915963483043015E-003;
2.427166666666667E+009;1.175269559025765E-001;-1.093548834323883E-001;-1.912630628794432E-003;-1.833357498981059E-003;
2.427333333333334E+009;1.164155825972557E-001;-1.110417768359184E-001;-1.815707772038877E-003;-1.840034849010408E-003;
2.427500000000000E+009;1.158141940832138E-001;-1.128191426396370E-001;-1.719154301099479E-003;-2.003199188038707E-003;
2.427666666666667E+009;1.149623915553093E-001;-1.143952161073685E-001;-1.757567166350782E-003;-1.982078887522221E-003;
