# Version 1.00
#
freq[Hz];re:Trc1_S11;im:Trc1_S11;re:Trc2_S21;im:Trc2_S21;
2.400000000000000E+009;1.605999469757080E-001;5.709792301058769E-002;3.627722151577473E-003;1.504751620814204E-003;
2.400166666666667E+009;1.607066690921783E-001;5.567513406276703E-002;3.751028096303344E-003;1.458863262087107E-003;
2.400333333333334E+009;1.608460098505020E-001;5.357431620359421E-002;3.814466763287783E-003;1.375741325318813E-003;
2.400500000000000E+009;1.609754711389542E-001;5.181181803345680E-002;3.905049525201321E-003;1.335125532932580E-003;
2.400666666666667E+009;1.610912382602692E-001;4.989270493388176E-002;3.910925704985857E-003;1.298782532103360E-003;
2.400833333333334E+009;1.611701101064682E-001;4.823960363864899E-002;4.125749226659536E-003;1.348523772321641E-003;
2.401000000000000E+009;1.614396423101425E-001;4.630319774150848E-002;4.100773017853499E-003;1.113691134378314E-003;
2.401166666666667E+009;1.616792231798172E-001;4.439954087138176E-002;4.340411163866520E-003;1.032816246151924E-003;
2.401333333333334E+009;1.619575768709183E-001;4.254006966948509E-002;4.292871337383986E-003;8.822716772556305E-004;
2.401500000000000E+009;1.623643487691879E-001;4.072595760226250E-002;4.445725586265326E-003;8.465509745292366E-004;
2.401666666666667E+009;1.627442240715027E-001;3.896081075072289E-002;4.584779962897301E-003;6.863136659376323E-004;
2.401833333333334E+009;1.631054878234863E-001;3.702438995242119E-002;4.565755371004343E-003;4.549056757241488E-004;
2.402000000000000E+009;1.634989678859711E-001;3.531425073742867E-002;4.699427634477615E-003;4.993013571947813E-004;
2.402166666666667E+009;1.639407575130463E-001;3.330261260271072E-002;4.725446924567223E-003;1.665893651079387E-004;
2.402333333333334E+009;1.642789095640183E-001;3.176541253924370E-002;4.908629227429628E-003;5.306284219841473E-005;
2.402500000000000E+009;1.651759594678879E-001;3.022540919482708E-002;4.833123646676540E-003;4.379025995149277E-005;
2.402666666666667E+009;1.657960712909699E-001;2.868559397757053E-002;4.878931213170290E-003;-1.230053603649139E-004;
2.402833333333334E+009;1.664497256278992E-001;2.701414190232754E-002;4.949856083840132E-003;-4.019918269477785E-004;
2.403000000000000E+009;1.669857501983643E-001;2.558571659028530E-002;4.986002575606108E-003;-4.219215479679406E-004;
2.403166666666667E+009;1.677807569503784E-001;2.419789135456085E-002;4.900752566754818E-003;-7.652024505659938E-004;
2.403333333333334E+009;1.685107052326202E-001;2.288708277046681E-002;5.027834791690111E-003;-9.394672815687954E-004;
2.403500000000000E+009;1.692642718553543E-001;2.152404189109802E-002;4.937736317515373E-003;-1.028791768476367E-003;
2.403666666666667E+009;1.699737310409546E-001;2.022987045347691E-002;4.848129581660032E-003;-1.385340234264731E-003;
2.403833333333334E+009;1.707079857587814E-001;1.910300366580486E-002;4.813744220882654E-003;-1.671644509769976E-003;
2.404000000000000E+009;1.715108305215836E-001;1.813972555100918E-002;4.905431065708399E-003;-1.720651402138174E-003;
2.404166666666667E+009;1.721271276473999E-001;1.721689105033875E-002;4.661208018660545E-003;-1.843140576966107E-003;
2.404333333333334E+009;1.728520542383194E-001;1.610605046153069E-002;4.523123614490032E-003;-2.299273153766990E-003;
2.404500000000000E+009;1.734532564878464E-001;1.513019390404224E-002;4.527600947767496E-003;-2.355317585170269E-003;
2.404666666666667E+009;1.741994470357895E-001;1.438678801059723E-002;4.307140596210957E-003;-2.431951928883791E-003;
2.404833333333334E+009;1.747903227806091E-001;1.386887021362782E-002;4.400930367410183E-003;-2.642799168825150E-003;
2.405000000000000E+009;1.755442619323731E-001;1.304265484213829E-002;4.030386917293072E-003;-2.847938798367977E-003;
2.405166666666667E+009;1.759370863437653E-001;1.234673429280520E-002;3.906461875885725E-003;-2.818873152136803E-003;
2.405333333333334E+009;1.765294820070267E-001;1.168121770024300E-002;3.678724635392427E-003;-2.995628165081143E-003;
2.405500000000000E+009;1.770612895488739E-001;1.124921161681414E-002;3.510970855131745E-003;-3.124119713902473E-003;
2.405666666666667E+009;1.774128526449204E-001;1.085451059043407E-002;3.421136643737555E-003;-3.273430978879333E-003;
2.405833333333334E+009;1.777207106351852E-001;1.040148921310902E-002;3.059732262045145E-003;-3.327902406454086E-003;
2.406000000000000E+009;1.779875606298447E-001;9.900844655930996E-003;3.029273590072990E-003;-3.227111184969544E-003;
2.406166666666667E+009;1.782087832689285E-001;9.637831710278988E-003;2.916739089414477E-003;-3.328582970425487E-003;
2.406333333333334E+009;1.785684078931809E-001;9.265041910111904E-003;2.775936387479305E-003;-3.280838020145893E-003;
2.406500000000000E+009;1.785398572683334E-001;8.771887049078941E-003;2.723732730373740E-003;-3.413073020055890E-003;
2.406666666666667E+009;1.784615218639374E-001;8.443105965852737E-003;2.452195156365633E-003;-3.373559564352036E-003;
2.406833333333334E+009;1.786196231842041E-001;7.948195561766625E-003;2.320829546079040E-003;-3.370526712387800E-003;
2.407000000000000E+009;1.786003559827805E-001;7.446856703609228E-003;2.366084605455399E-003;-3.332448890432715E-003;
2.407166666666667E+009;1.784110069274902E-001;7.024162448942661E-003;2.392634283751249E-003;-3.331032115966082E-003;
2.407333333333334E+009;1.782253235578537E-001;6.525381468236446E-003;2.270387019962072E-003;-3.321791300550103E-003;
2.407500000000000E+009;1.779417991638184E-001;5.971475038677454E-003;2.162120072171092E-003;-3.396660555154085E-003;
2.407666666666667E+009;1.776824593544006E-001;5.303423851728439E-003;1.858450123108923E-003;-3.517976962029934E-003;
2.407833333333334E+009;1.771692484617233E-001;4.627890419214964E-003;1.841656281612814E-003;-3.447185270488262E-003;
2.408000000000000E+009;1.768396049737930E-001;3.832691116258502E-003;1.873762812465429E-003;-3.450902411714196E-003;
2.408166666666667E+009;1.763993352651596E-001;3.255098592489958E-003;1.761009334586561E-003;-3.414414590224624E-003;
2.408333333333334E+009;1.760656237602234E-001;2.419736236333847E-003;1.659760950133205E-003;-3.409906988963485E-003;
2.408500000000000E+009;1.755045652389526E-001;1.360711525194347E-003;1.601311145350337E-003;-3.429253585636616E-003;
2.408666666666667E+009;1.750232279300690E-001;2.854984486475587E-004;1.411119592376053E-003;-3.391196718439460E-003;
2.408833333333334E+009;1.742209196090698E-001;-6.663618260063231E-004;1.407271018251777E-003;-3.294449532404542E-003;
2.409000000000000E+009;1.736929416656494E-001;-1.762909232638776E-003;1.343445270322263E-003;-3.411361947655678E-003;
2.409166666666667E+009;1.732640415430069E-001;-3.119498491287231E-003;1.211058581247926E-003;-3.393324557691813E-003;
2.409333333333334E+009;1.727730631828308E-001;-4.532494116574526E-003;1.080343732610345E-003;-3.454565536230803E-003;
2.409500000000000E+009;1.720498949289322E-001;-5.928524769842625E-003;1.066692522726953E-003;-3.443774068728089E-003;
2.409666666666667E+009;1.715651601552963E-001;-7.237788289785385E-003;9.969975799322128E-004;-3.485312685370445E-003;
2.409833333333334E+009;1.708167046308518E-001;-8.580862544476986E-003;1.087567536160350E-003;-3.378211753442884E-003;
2.410000000000000E+009;1.704454869031906E-001;-1.024917606264353E-002;1.053978223353624E-003;-3.414675127714872E-003;
2.410166666666667E+009;1.698971241712570E-001;-1.176445093005896E-002;1.039250753819943E-003;-3.354920074343681E-003;
2.410333333333334E+009;1.693242192268372E-001;-1.338786631822586E-002;9.910051012411714E-004;-3.407856216654182E-003;
2.410500000000000E+009;1.690626293420792E-001;-1.531936880201101E-002;1.004210091196001E-003;-3.397694788873196E-003;
2.410666666666667E+009;1.687052398920059E-001;-1.696435548365116E-002;9.254622855223715E-004;-3.404850373044610E-003;
2.410833333333334E+009;1.683807373046875E-001;-1.880928874015808E-002;8.418636862188578E-004;-3.290424821898341E-003;
2.411000000000000E+009;1.682138442993164E-001;-2.055836841464043E-002;8.528985781595111E-004;-3.392681246623397E-003;
2.411166666666667E+009;1.680190116167069E-001;-2.244532480835915E-002;7.080410141497850E-004;-3.503137966617942E-003;
2.411333333333334E+009;1.679191142320633E-001;-2.425393648445606E-002;7.800219464115799E-004;-3.474630182608962E-003;
2.411500000000000E+009;1.677994877099991E-001;-2.637392282485962E-002;6.609259871765971E-004;-3.687323536723852E-003;
2.411666666666667E+009;1.676821857690811E-001;-2.807911857962608E-002;6.619648193009198E-004;-3.480692161247134E-003;
2.411833333333334E+009;1.677908152341843E-001;-2.982370369136334E-002;5.904803401790559E-004;-3.585136495530605E-003;
2.412000000000000E+009;1.680531650781632E-001;-3.189273178577423E-002;6.051789387129247E-004;-3.633720101788640E-003;
2.412166666666667E+009;1.680663079023361E-001;-3.378077596426010E-002;4.173030029051006E-004;-3.741072723641992E-003;
2.412333333333334E+009;1.685297787189484E-001;-3.552671894431114E-002;3.447667404543608E-004;-3.863595658913255E-003;
2.412500000000000E+009;1.687495410442352E-001;-3.725388273596764E-002;2.675292489584535E-004;-3.912329673767090E-003;
2.412666666666667E+009;1.690059900283814E-001;-3.932014107704163E-002;2.743344521149993E-004;-4.002505913376808E-003;
2.412833333333334E+009;1.695844680070877E-001;-4.080567508935928E-002;1.994784397538751E-004;-4.017479252070189E-003;
2.413000000000000E+009;1.699133217334747E-001;-4.251515492796898E-002;3.880568328895606E-005;-4.146951250731945E-003;
2.413166666666667E+009;1.702235490083695E-001;-4.416364803910255E-002;-2.071402850560844E-004;-4.088105633854866E-003;
2.413333333333334E+009;1.706957817077637E-001;-4.573114588856697E-002;-4.623140557669103E-004;-4.256908781826496E-003;
2.413500000000000E+009;1.712881326675415E-001;-4.716287925839424E-002;-4.177135706413537E-004;-4.125871229916811E-003;
2.413666666666667E+009;1.718305945396423E-001;-4.851681739091873E-002;-5.627966020256281E-004;-4.311674274504185E-003;
2.413833333333334E+009;1.721396595239639E-001;-4.998742789030075E-002;-8.287543314509094E-004;-4.418390803039074E-003;
2.414000000000000E+009;1.727208644151688E-001;-5.127273499965668E-002;-9.996945736929774E-004;-4.232442472130060E-003;
2.414166666666667E+009;1.732294559478760E-001;-5.240636691451073E-002;-1.117775100283325E-003;-4.229888319969177E-003;
2.414333333333334E+009;1.737946122884750E-001;-5.349558964371681E-002;-1.295328955166042E-003;-4.314452409744263E-003;
2.414500000000000E+009;1.743710786104202E-001;-5.454831942915916E-002;-1.413955353200436E-003;-4.133187234401703E-003;
2.414666666666667E+009;1.748163104057312E-001;-5.556513741612434E-002;-1.613332075066865E-003;-4.218601156026125E-003;
2.414833333333334E+009;1.750693321228027E-001;-5.654609203338623E-002;-1.631753402762115E-003;-4.104764666408300E-003;
2.415000000000000E+009;1.756024062633514E-001;-5.724056810140610E-002;-2.010952448472381E-003;-3.937477711588144E-003;
2.415166666666667E+009;1.759171485900879E-001;-5.781634896993637E-002;-1.980059780180454E-003;-3.960244823247194E-003;
2.415333333333334E+009;1.763281375169754E-001;-5.859234184026718E-002;-2.098249504342675E-003;-3.650382859632373E-003;
2.415500000000000E+009;1.765085011720657E-001;-5.907736346125603E-002;-2.256810665130615E-003;-3.664011368528009E-003;
2.415666666666667E+009;1.766248643398285E-001;-5.947708711028099E-002;-2.445291494950652E-003;-3.689616685733199E-003;
2.415833333333334E+009;1.769230365753174E-001;-5.997186526656151E-002;-2.547513460740447E-003;-3.641638671979308E-003;
2.416000000000000E+009;1.767865717411041E-001;-6.040386483073235E-002;-2.598399762064219E-003;-3.577614901587367E-003;
2.416166666666667E+009;1.769483834505081E-001;-6.079194694757462E-002;-2.662971150130034E-003;-3.339444054290652E-003;
2.416333333333334E+009;1.767474263906479E-001;-6.100629270076752E-002;-2.657215343788266E-003;-3.171658841893077E-003;
2.416500000000000E+009;1.765827834606171E-001;-6.134616583585739E-002;-2.953168936073780E-003;-3.151603974401951E-003;
2.416666666666667E+009;1.763059943914414E-001;-6.152401119470596E-002;-2.987445564940572E-003;-3.129955613985658E-003;
2.416833333333334E+009;1.758570820093155E-001;-6.185594946146011E-002;-3.128388198092580E-003;-2.970577683299780E-003;
2.417000000000000E+009;1.753652989864349E-001;-6.207731738686562E-002;-3.165864152833819E-003;-2.791912062093616E-003;
2.417166666666667E+009;1.748779714107513E-001;-6.232088804244995E-002;-3.091565100476146E-003;-2.643986139446497E-003;
2.417333333333334E+009;1.741634160280228E-001;-6.241969391703606E-002;-3.145653055980802E-003;-2.557959407567978E-003;
2.417500000000000E+009;1.736334860324860E-001;-6.277135014533997E-002;-3.281994489952922E-003;-2.551132347434759E-003;
2.417666666666667E+009;1.729467958211899E-001;-6.289693713188171E-002;-3.264944069087505E-003;-2.423079218715429E-003;
2.417833333333334E+009;1.719795018434525E-001;-6.320884078741074E-002;-3.391957143321633E-003;-2.317137550562620E-003;
2.418000000000000E+009;1.711455732584000E-001;-6.347505748271942E-002;-3.462990280240774E-003;-2.306075533851981E-003;
2.418166666666667E+009;1.700940728187561E-001;-6.375383585691452E-002;-3.493690863251686E-003;-2.021763240918517E-003;
2.418333333333334E+009;1.693109124898911E-001;-6.426306068897247E-002;-3.433572826907039E-003;-2.144079655408859E-003;
2.418500000000000E+009;1.680594533681870E-001;-6.477093696594238E-002;-3.560680430382490E-003;-1.877840608358383E-003;
2.418666666666667E+009;1.671220958232880E-001;-6.520935893058777E-002;-3.637935733422637E-003;-1.733136828988791E-003;
2.418833333333334E+009;1.658582836389542E-001;-6.578823179006577E-002;-3.436435014009476E-003;-1.664358074776828E-003;
2.419000000000000E+009;1.644895672798157E-001;-6.633935123682022E-002;-3.594749839976430E-003;-1.702819601632655E-003;
2.419166666666667E+009;1.632943004369736E-001;-6.705058366060257E-002;-3.754737786948681E-003;-1.712879864498973E-003;
2.419333333333334E+009;1.619674116373062E-001;-6.763650476932526E-002;-3.782177343964577E-003;-1.537693315185607E-003;
2.419500000000000E+009;1.608043313026428E-001;-6.867076456546783E-002;-3.802548162639141E-003;-1.523631974123418E-003;
2.419666666666667E+009;1.598640233278275E-001;-6.962924450635910E-002;-3.810236696153879E-003;-1.411623670719564E-003;
2.419833333333334E+009;1.585845053195953E-001;-7.038831710815430E-002;-3.778728190809488E-003;-1.277590054087341E-003;
2.420000000000000E+009;1.573764532804489E-001;-7.148632407188416E-002;-3.808320499956608E-003;-1.305086188949645E-003;
2.420166666666667E+009;1.563553959131241E-001;-7.271070778369904E-002;-3.973485436290503E-003;-1.162727130576968E-003;
2.420333333333334E+009;1.552180200815201E-001;-7.402740418910980E-002;-4.087804816663265E-003;-9.624061058275402E-004;
2.420500000000000E+009;1.542503088712692E-001;-7.507772743701935E-002;-4.053641576319933E-003;-7.174963830038905E-004;
2.420666666666667E+009;1.531715989112854E-001;-7.640656083822250E-002;-3.965631593018770E-003;-7.062978111207485E-004;
2.420833333333334E+009;1.523104906082153E-001;-7.784274965524674E-002;-4.027767106890678E-003;-7.682156283408403E-004;
2.421000000000000E+009;1.512918323278427E-001;-7.930587977170944E-002;-4.135702271014452E-003;-5.401062662713230E-004;
2.421166666666667E+009;1.506098061800003E-001;-8.081674575805664E-002;-4.120422061532736E-003;-3.834834496956319E-004;
2.421333333333334E+009;1.500151604413986E-001;-8.233100920915604E-002;-4.068773239850998E-003;-2.800200600177050E-004;
2.421500000000000E+009;1.492720097303391E-001;-8.394066244363785E-002;-4.087598994374275E-003;-1.794593117665499E-004;
2.421666666666667E+009;1.488467752933502E-001;-8.564371615648270E-002;-4.140065517276526E-003;1.038426271406934E-004;
2.421833333333334E+009;1.482333689928055E-001;-8.729970455169678E-002;-4.182053729891777E-003;1.267769985133782E-004;
2.422000000000000E+009;1.478464305400848E-001;-8.905094116926193E-002;-4.248990677297115E-003;2.572997182141990E-004;
2.422166666666667E+009;1.473785340785980E-001;-9.093875437974930E-002;-4.294704180210829E-003;4.319579747971147E-004;
2.422333333333334E+009;1.472457945346832E-001;-9.217124432325363E-002;-4.236562643200159E-003;6.382797728292644E-004;
2.422500000000000E+009;1.470321863889694E-001;-9.408079087734222E-002;-4.177970811724663E-003;5.411075544543564E-004;
2.422666666666667E+009;1.468227505683899E-001;-9.578003734350205E-002;-4.001559223979712E-003;7.417462184093893E-004;
2.422833333333334E+009;1.470154523849487E-001;-9.767157584428787E-002;-4.037727601826191E-003;8.618602878414094E-004;
2.423000000000000E+009;1.468353271484375E-001;-9.905438870191574E-002;-4.090908449143171E-003;1.129326876252890E-003;
2.423166666666667E+009;1.470147818326950E-001;-1.008285656571388E-001;-4.085624590516090E-003;1.113703125156462E-003;
2.423333333333334E+009;1.472868174314499E-001;-1.022578477859497E-001;-4.042672459036112E-003;1.162065542303026E-003;
2.423500000000000E+009;1.474061757326126E-001;-1.039266660809517E-001;-3.828044980764389E-003;1.402637804858387E-003;
2.423666666666667E+009;1.474288851022720E-001;-1.055862084031105E-001;-3.898204769939184E-003;1.600949210114777E-003;
2.423833333333334E+009;1.478409171104431E-001;-1.070824787020683E-001;-3.941767849028111E-003;1.747300266288221E-003;
2.424000000000000E+009;1.481041759252548E-001;-1.082801967859268E-001;-3.800041740760207E-003;1.886933110654354E-003;
2.424166666666667E+009;1.482946574687958E-001;-1.096262559294701E-001;-3.727359697222710E-003;1.944918534718454E-003;
2.424333333333334E+009;1.489464193582535E-001;-1.107569411396980E-001;-3.725858405232430E-003;2.092788461595774E-003;
2.424500000000000E+009;1.492152810096741E-001;-1.120076626539230E-001;-3.515461925417185E-003;2.231536433100700E-003;
2.424666666666667E+009;1.496801376342773E-001;-1.128885149955750E-001;-3.648285521194339E-003;2.509683137759566E-003;
2.424833333333334E+009;1.498874127864838E-001;-1.140341609716415E-001;-3.375317202880979E-003;2.512591192498803E-003;
2.425000000000000E+009;1.503438353538513E-001;-1.149689033627510E-001;-3.326925216242671E-003;2.820385619997978E-003;
2.425166666666667E+009;1.505737155675888E-001;-1.158632785081863E-001;-3.271040972322226E-003;2.743931021541357E-003;
2.425333333333334E+009;1.509592980146408E-001;-1.166493147611618E-001;-2.973143244162202E-003;3.040731651708484E-003;
2.425500000000000E+009;1.513008326292038E-001;-1.173881515860558E-001;-2.903018845245242E-003;3.017799695953727E-003;
2.425666666666667E+009;1.514084786176682E-001;-1.180370226502419E-001;-2.815741579979658E-003;3.193336771801114E-003;
2.425833333333334E+009;1.515442132949829E-001;-1.185230240225792E-001;-2.613780321553350E-003;3.328643040731549E-003;
2.426000000000000E+009;1.517137885093689E-001;-1.191083267331123E-001;-2.373536583036184E-003;3.367967205122113E-003;
2.426166666666667E+009;1.519661396741867E-001;-1.195421144366264E-001;-2.322852844372392E-003;3.388345474377275E-003;
2.426333333333334E+009;1.518969386816025E-001;-1.199787184596062E-001;-2.122751902788878E-003;3.349505830556154E-003;
2.426500000000000E+009;1.518321484327316E-001;-1.201922297477722E-001;-1.797317876480520E-003;3.482752246782184E-003;
2.426666666666667E+009;1.518601924180985E-001;-1.202942654490471E-001;-1.706791110336781E-003;3.543010214343667E-003;
2.426833333333334E+009;1.516789644956589E-001;-1.205278486013413E-001;-1.556045259349048E-003;3.466835943982005E-003;
2.427000000000000E+009;1.512969434261322E-001;-1.208596378564835E-001;-1.345919561572373E-003;3.588019870221615E-003;
2.427166666666667E+009;1.508955210447311E-001;-1.208329945802689E-001;-1.344954245723784E-003;3.483308944851160E-003;
2.427333333333334E+009;1.503923684358597E-001;-1.210046559572220E-001;-1.112775527872145E-003;3.533320734277368E-003;
2.427500000000000E+009;1.500313878059387E-001;-1.211844980716705E-001;-1.090264180675149E-003;3.624482778832316E-003;
2.427666666666667E+009;1.494346708059311E-001;-1.213955953717232E-001;-8.419963414780796E-004;3.517626784741879E-003;
