# Version 1.00
#
freq[Hz];re:Trc1_S11;im:Trc1_S11;re:Trc2_S21;im:Trc2_S21;
2.400000000000000E+009;1.604849994182587E-001;5.693642050027847E-002;3.375638276338577E-003;1.326728845015168E-003;
2.400166666666667E+009;1.606429666280747E-001;5.553889274597168E-002;3.625628771260381E-003;1.385218929499388E-003;
2.400333333333334E+009;1.606359034776688E-001;5.366731435060501E-002;3.817517543211579E-003;1.384549424983561E-003;
2.400500000000000E+009;1.609045267105103E-001;5.186849460005760E-002;3.773581702262163E-003;1.366445794701576E-003;
2.400666666666667E+009;1.611436456441879E-001;4.978641122579575E-002;3.957029432058334E-003;1.377708511427045E-003;
2.400833333333334E+009;1.613040268421173E-001;4.837909340858460E-002;3.946562763303518E-003;1.281510805711150E-003;
2.401000000000000E+009;1.614020764827728E-001;4.635781049728394E-002;4.106912761926651E-003;1.178565435111523E-003;
2.401166666666667E+009;1.615847051143646E-001;4.436425492167473E-002;4.237270448356867E-003;1.173261902295053E-003;
2.401333333333334E+009;1.619750112295151E-001;4.261485114693642E-002;4.328601062297821E-003;9.620962082408369E-004;
2.401500000000000E+009;1.625549942255020E-001;4.060405120253563E-002;4.302780609577894E-003;8.832294843159616E-004;
2.401666666666667E+009;1.626609712839127E-001;3.885474056005478E-002;4.722853191196919E-003;9.516488062217832E-004;
2.401833333333334E+009;1.632330864667893E-001;3.703510016202927E-002;4.783729556947947E-003;5.851965397596359E-004;
2.402000000000000E+009;1.634311079978943E-001;3.516252338886261E-002;4.706769715994597E-003;4.566373245324940E-004;
2.402166666666667E+009;1.639661043882370E-001;3.348308056592941E-002;4.718673415482044E-003;3.839475102722645E-004;
2.402333333333334E+009;1.643545031547546E-001;3.184933587908745E-002;4.844702314585447E-003;2.242396149085835E-004;
2.402500000000000E+009;1.653256416320801E-001;3.006802126765251E-002;4.865847527980804E-003;7.004920917097479E-005;
2.402666666666667E+009;1.656308323144913E-001;2.859238162636757E-002;4.954207222908735E-003;-2.205072087235749E-004;
2.402833333333334E+009;1.663874983787537E-001;2.707730606198311E-002;4.880980588495731E-003;-3.888332867063582E-004;
2.403000000000000E+009;1.670249998569489E-001;2.556815743446350E-002;4.970110952854157E-003;-5.527210887521505E-004;
2.403166666666667E+009;1.677575856447220E-001;2.439535968005657E-002;4.970421083271503E-003;-7.340659503825009E-004;
2.403333333333334E+009;1.685079634189606E-001;2.300657145678997E-002;5.106441210955381E-003;-9.753218037076294E-004;
2.403500000000000E+009;1.692439913749695E-001;2.172479592263699E-002;5.002409219741821E-003;-1.282248529605568E-003;
2.403666666666667E+009;1.699727624654770E-001;2.049848996102810E-002;4.895717836916447E-003;-1.446724636480212E-003;
2.403833333333334E+009;1.708452701568604E-001;1.930543594062328E-002;4.903978668153286E-003;-1.637303037568927E-003;
2.404000000000000E+009;1.714990884065628E-001;1.816110685467720E-002;4.746013786643744E-003;-1.789701869711280E-003;
2.404166666666667E+009;1.722074151039124E-001;1.710446737706661E-002;4.780424293130636E-003;-1.968526979908347E-003;
2.404333333333334E+009;1.728005111217499E-001;1.637429930269718E-002;4.551307763904333E-003;-2.259582513943315E-003;
2.404500000000000E+009;1.735235601663590E-001;1.514342799782753E-002;4.497105255723000E-003;-2.236269647255540E-003;
2.404666666666667E+009;1.741228252649307E-001;1.450756378471851E-002;4.149933811277151E-003;-2.518768655136228E-003;
2.404833333333334E+009;1.747349947690964E-001;1.382637675851584E-002;4.027983173727989E-003;-2.710002474486828E-003;
2.405000000000000E+009;1.755076944828033E-001;1.305290870368481E-002;4.110987298190594E-003;-2.833668608218432E-003;
2.405166666666667E+009;1.758900731801987E-001;1.242369599640369E-002;3.713653655722737E-003;-2.915790770202875E-003;
2.405333333333334E+009;1.765601783990860E-001;1.166407577693462E-002;3.714858088642359E-003;-3.110604826360941E-003;
2.405500000000000E+009;1.769658327102661E-001;1.128582563251257E-002;3.583633340895176E-003;-3.032664069905877E-003;
2.405666666666667E+009;1.773293465375900E-001;1.083676889538765E-002;3.379095345735550E-003;-3.151118755340576E-003;
2.405833333333334E+009;1.775786280632019E-001;1.045577600598335E-002;3.332463791593909E-003;-3.381266491487622E-003;
2.406000000000000E+009;1.780143678188324E-001;9.966013021767139E-003;3.097673878073692E-003;-3.417320549488068E-003;
2.406166666666667E+009;1.780187040567398E-001;9.545337408781052E-003;2.874538069590926E-003;-3.410663455724716E-003;
2.406333333333334E+009;1.784339994192123E-001;9.206520393490791E-003;2.673895331099629E-003;-3.442914457991719E-003;
2.406500000000000E+009;1.785864681005478E-001;8.820306509733200E-003;2.589297946542501E-003;-3.424540394917131E-003;
2.406666666666667E+009;1.783849447965622E-001;8.424971252679825E-003;2.554209902882576E-003;-3.580988151952624E-003;
2.406833333333334E+009;1.784987747669220E-001;7.969061844050884E-003;2.508561825379729E-003;-3.545864950865507E-003;
2.407000000000000E+009;1.784193962812424E-001;7.427600212395191E-003;2.298246370628476E-003;-3.490676404908299E-003;
2.407166666666667E+009;1.784361600875855E-001;7.148411124944687E-003;2.134576207026839E-003;-3.601280273869634E-003;
2.407333333333334E+009;1.780652105808258E-001;6.507984828203917E-003;2.128038089722395E-003;-3.478962229564786E-003;
2.407500000000000E+009;1.778615713119507E-001;6.121153477579355E-003;2.120320918038487E-003;-3.515760181471705E-003;
2.407666666666667E+009;1.775624603033066E-001;5.468341056257486E-003;1.957256812602282E-003;-3.440176136791706E-003;
2.407833333333334E+009;1.771577447652817E-001;4.725995939224958E-003;1.791552640497685E-003;-3.655501641333103E-003;
2.408000000000000E+009;1.767108440399170E-001;3.955048974603415E-003;1.679666573181748E-003;-3.512843046337366E-003;
2.408166666666667E+009;1.764293015003204E-001;3.257855540141463E-003;1.635757507756352E-003;-3.405890194699168E-003;
2.408333333333334E+009;1.759699434041977E-001;2.488029422238469E-003;1.625758362933993E-003;-3.467016853392124E-003;
2.408500000000000E+009;1.754583716392517E-001;1.431738142855465E-003;1.447066199034452E-003;-3.398746019229293E-003;
2.408666666666667E+009;1.748888045549393E-001;3.730427706614137E-004;1.487187924794853E-003;-3.473466262221336E-003;
2.408833333333334E+009;1.742656230926514E-001;-5.983034498058260E-004;1.397482352331281E-003;-3.454258898273110E-003;
2.409000000000000E+009;1.736280918121338E-001;-1.768462592735887E-003;1.215033116750419E-003;-3.402407979592681E-003;
2.409166666666667E+009;1.731272488832474E-001;-2.988290041685104E-003;1.140150823630393E-003;-3.373699495568872E-003;
2.409333333333334E+009;1.726698279380798E-001;-4.297995008528233E-003;1.169895753264427E-003;-3.409145632758737E-003;
2.409500000000000E+009;1.721355319023132E-001;-5.750019103288651E-003;1.130858901888132E-003;-3.344135358929634E-003;
2.409666666666667E+009;1.712471246719360E-001;-7.192057557404041E-003;1.073156716302037E-003;-3.422048175707459E-003;
2.409833333333334E+009;1.708113253116608E-001;-8.515495806932449E-003;1.002263859845698E-003;-3.341677831485868E-003;
2.410000000000000E+009;1.704096496105194E-001;-1.024704333394766E-002;9.069385705515742E-004;-3.340747440233827E-003;
2.410166666666667E+009;1.699037849903107E-001;-1.175460964441299E-002;8.406541892327368E-004;-3.296397393569350E-003;
2.410333333333334E+009;1.692963242530823E-001;-1.345181372016668E-002;8.343025110661984E-004;-3.346501849591732E-003;
2.410500000000000E+009;1.690540313720703E-001;-1.516157481819391E-002;9.754215134307742E-004;-3.392264014109969E-003;
2.410666666666667E+009;1.685289591550827E-001;-1.698817871510983E-002;7.799405721016228E-004;-3.404360497370362E-003;
2.410833333333334E+009;1.684930026531220E-001;-1.881112903356552E-002;8.709777612239122E-004;-3.340874332934618E-003;
2.411000000000000E+009;1.682406663894653E-001;-2.049573324620724E-002;7.851916598156095E-004;-3.400938585400581E-003;
2.411166666666667E+009;1.680024266242981E-001;-2.246713824570179E-002;6.539055611938238E-004;-3.443457651883364E-003;
2.411333333333334E+009;1.678218543529511E-001;-2.432433143258095E-002;7.205077563412488E-004;-3.395015839487314E-003;
2.411500000000000E+009;1.676750034093857E-001;-2.631076052784920E-002;7.714780513197184E-004;-3.669745055958629E-003;
2.411666666666667E+009;1.679258197546005E-001;-2.805943787097931E-002;5.211014649830759E-004;-3.479385282844305E-003;
2.411833333333334E+009;1.678194254636765E-001;-2.991881966590881E-002;7.599895470775664E-004;-3.612325293943286E-003;
2.412000000000000E+009;1.680707931518555E-001;-3.183002024888992E-002;4.843419010285288E-004;-3.669871715828776E-003;
2.412166666666667E+009;1.681484580039978E-001;-3.376122936606407E-002;5.133165977895260E-004;-3.771177260205150E-003;
2.412333333333334E+009;1.686230003833771E-001;-3.554796800017357E-002;3.177110047545284E-004;-3.785089589655399E-003;
2.412500000000000E+009;1.685842424631119E-001;-3.729994222521782E-002;3.799602563958615E-004;-3.902905853465200E-003;
2.412666666666667E+009;1.689248085021973E-001;-3.930090367794037E-002;5.364334720070474E-005;-3.971628844738007E-003;
2.412833333333334E+009;1.696590036153793E-001;-4.087184742093086E-002;9.962157491827384E-005;-4.019722808152437E-003;
2.413000000000000E+009;1.698096990585327E-001;-4.253223910927773E-002;2.068407047772780E-005;-4.186250735074282E-003;
2.413166666666667E+009;1.702788770198822E-001;-4.418308660387993E-002;-1.944382383953780E-004;-4.298464395105839E-003;
2.413333333333334E+009;1.706871837377548E-001;-4.571828246116638E-002;-4.232616338413209E-004;-4.179428331553936E-003;
2.413500000000000E+009;1.713574975728989E-001;-4.732050746679306E-002;-5.692804697901011E-004;-4.145003389567137E-003;
2.413666666666667E+009;1.717662811279297E-001;-4.863907024264336E-002;-5.689640529453754E-004;-4.335504490882158E-003;
2.413833333333334E+009;1.722427457571030E-001;-4.991009458899498E-002;-9.587134700268507E-004;-4.312980920076370E-003;
2.414000000000000E+009;1.724985986948013E-001;-5.130299180746079E-002;-9.711734019219875E-004;-4.131766036152840E-003;
2.414166666666667E+009;1.733422279357910E-001;-5.240708962082863E-002;-1.212203176692128E-003;-4.252538084983826E-003;
2.414333333333334E+009;1.737986356019974E-001;-5.357265844941139E-002;-1.319435890763998E-003;-4.150072112679482E-003;
2.414500000000000E+009;1.743310242891312E-001;-5.452213436365128E-002;-1.341608585789800E-003;-4.192452412098646E-003;
2.414666666666667E+009;1.748000234365463E-001;-5.545983836054802E-002;-1.461785635910928E-003;-3.933897707611322E-003;
2.414833333333334E+009;1.751099824905396E-001;-5.634097009897232E-002;-1.876396359875798E-003;-3.842526348307729E-003;
2.415000000000000E+009;1.755806207656860E-001;-5.716118961572647E-002;-1.912443782202900E-003;-3.883714089170098E-003;
2.415166666666667E+009;1.758159697055817E-001;-5.778881162405014E-002;-2.028382383286953E-003;-3.751447889953852E-003;
2.415333333333334E+009;1.762836128473282E-001;-5.851218104362488E-002;-2.119226846843958E-003;-3.769705304875970E-003;
2.415500000000000E+009;1.764895170927048E-001;-5.910777673125267E-002;-2.183666452765465E-003;-3.812470007687807E-003;
2.415666666666667E+009;1.765350848436356E-001;-5.947701260447502E-002;-2.368367509916425E-003;-3.686116077005863E-003;
2.415833333333334E+009;1.767314523458481E-001;-5.990659818053246E-002;-2.511173486709595E-003;-3.507351037114859E-003;
2.416000000000000E+009;1.766942292451859E-001;-6.040394306182861E-002;-2.706548664718866E-003;-3.476435551419854E-003;
2.416166666666667E+009;1.768117100000382E-001;-6.066239997744560E-002;-2.651925431564450E-003;-3.284868784248829E-003;
2.416333333333334E+009;1.767283678054810E-001;-6.094357743859291E-002;-2.833489794284105E-003;-3.203145461156964E-003;
2.416500000000000E+009;1.764717400074005E-001;-6.132847070693970E-002;-2.854739548638463E-003;-3.263119142502546E-003;
2.416666666666667E+009;1.761420816183090E-001;-6.144683063030243E-002;-3.004060126841068E-003;-3.077095374464989E-003;
2.416833333333334E+009;1.759575009346008E-001;-6.181686371564865E-002;-2.953438553959131E-003;-2.965312218293548E-003;
2.417000000000000E+009;1.753381341695786E-001;-6.197970360517502E-002;-3.105304436758161E-003;-2.926276763901115E-003;
2.417166666666667E+009;1.748888343572617E-001;-6.212326139211655E-002;-3.187683178111911E-003;-2.565812319517136E-003;
2.417333333333334E+009;1.743752509355545E-001;-6.222331151366234E-002;-3.374811261892319E-003;-2.567791845649481E-003;
2.417500000000000E+009;1.734256446361542E-001;-6.264857947826386E-002;-3.258663695305586E-003;-2.596350619569421E-003;
2.417666666666667E+009;1.728766858577728E-001;-6.270006299018860E-002;-3.201250685378909E-003;-2.403419231995940E-003;
2.417833333333334E+009;1.719959080219269E-001;-6.304170191287994E-002;-3.495522076264024E-003;-2.434718888252974E-003;
2.418000000000000E+009;1.710293889045715E-001;-6.347549706697464E-002;-3.537878394126892E-003;-2.283618319779635E-003;
2.418166666666667E+009;1.700521856546402E-001;-6.363854557275772E-002;-3.641662420704961E-003;-2.125935629010201E-003;
2.418333333333334E+009;1.693100333213806E-001;-6.408023089170456E-002;-3.534799441695213E-003;-1.866574748419225E-003;
2.418500000000000E+009;1.681194305419922E-001;-6.459462642669678E-002;-3.599393181502819E-003;-1.900328090414405E-003;
2.418666666666667E+009;1.671488732099533E-001;-6.504757702350617E-002;-3.567241830751300E-003;-1.771297305822372E-003;
2.418833333333334E+009;1.657411009073257E-001;-6.559729576110840E-002;-3.547665895894170E-003;-1.722123939543963E-003;
2.419000000000000E+009;1.646440923213959E-001;-6.631566584110260E-002;-3.668577410280705E-003;-1.715748803690076E-003;
2.419166666666667E+009;1.634891927242279E-001;-6.694684922695160E-002;-3.638420486822724E-003;-1.474413322284818E-003;
2.419333333333334E+009;1.621897667646408E-001;-6.762237101793289E-002;-3.646585857495666E-003;-1.480313600040972E-003;
2.419500000000000E+009;1.610451340675354E-001;-6.860812753438950E-002;-3.772347932681441E-003;-1.419735024683178E-003;
2.419666666666667E+009;1.599907130002976E-001;-6.959263235330582E-002;-3.792384872213006E-003;-1.345433178357780E-003;
2.419833333333334E+009;1.587451845407486E-001;-7.056877762079239E-002;-3.974617924541235E-003;-1.225878018885851E-003;
2.420000000000000E+009;1.576025038957596E-001;-7.155153900384903E-002;-3.933445084840059E-003;-1.111411023885012E-003;
2.420166666666667E+009;1.562124490737915E-001;-7.269953936338425E-002;-3.969744313508272E-003;-1.051879371516407E-003;
2.420333333333334E+009;1.551731526851654E-001;-7.399727404117584E-002;-4.054247867316008E-003;-9.103759657591581E-004;
2.420500000000000E+009;1.543654501438141E-001;-7.498223334550858E-002;-3.854745300486684E-003;-7.642643176950514E-004;
2.420666666666667E+009;1.533298492431641E-001;-7.639260590076447E-002;-3.995887003839016E-003;-7.192367338575423E-004;
2.420833333333334E+009;1.522997915744782E-001;-7.779048383235931E-002;-4.075994249433279E-003;-6.440936122089624E-004;
2.421000000000000E+009;1.514539271593094E-001;-7.931864261627197E-002;-4.066924098879099E-003;-5.781641229987145E-004;
2.421166666666667E+009;1.506846547126770E-001;-8.095319569110870E-002;-4.064808133989573E-003;-3.534251882229000E-004;
2.421333333333334E+009;1.499616354703903E-001;-8.247119188308716E-002;-4.075604025274515E-003;-3.138165338896215E-004;
2.421500000000000E+009;1.492371410131455E-001;-8.386224508285523E-002;-4.045490641146898E-003;-3.710495948325843E-004;
2.421666666666667E+009;1.488067507743835E-001;-8.563892543315888E-002;-4.156786017119885E-003;-6.448449130402878E-005;
2.421833333333334E+009;1.481796205043793E-001;-8.732611685991287E-002;-4.045407287776470E-003;2.902695850934833E-004;
2.422000000000000E+009;1.476223617792130E-001;-8.891285210847855E-002;-4.049590788781643E-003;8.665266796015203E-005;
2.422166666666667E+009;1.474020481109619E-001;-9.084584563970566E-002;-4.020116291940212E-003;3.918229194823653E-004;
2.422333333333334E+009;1.471257060766220E-001;-9.228637069463730E-002;-4.199622198939323E-003;4.490957944653928E-004;
2.422500000000000E+009;1.468400061130524E-001;-9.407482296228409E-002;-4.136466886848211E-003;5.659908638335764E-004;
2.422666666666667E+009;1.467719823122025E-001;-9.563871473073959E-002;-4.102286417037249E-003;8.249499951489270E-004;
2.422833333333334E+009;1.467794030904770E-001;-9.745049476623535E-002;-3.973560407757759E-003;8.769191335886717E-004;
2.423000000000000E+009;1.466804742813110E-001;-9.914585947990418E-002;-3.877635812386870E-003;9.955894201993942E-004;
2.423166666666667E+009;1.469030827283859E-001;-1.007637977600098E-001;-3.975535742938519E-003;1.091344049200416E-003;
2.423333333333334E+009;1.471107304096222E-001;-1.022055670619011E-001;-3.878368996083736E-003;1.083351322449744E-003;
2.423500000000000E+009;1.473016589879990E-001;-1.038626879453659E-001;-3.749550087377429E-003;1.300347968935967E-003;
2.423666666666667E+009;1.474154740571976E-001;-1.055724099278450E-001;-3.728545969352126E-003;1.513450406491756E-003;
2.423833333333334E+009;1.477635949850082E-001;-1.067950055003166E-001;-3.890064079314470E-003;1.745192101225257E-003;
2.424000000000000E+009;1.480496078729630E-001;-1.082034930586815E-001;-3.802909050136805E-003;1.734945690259337E-003;
2.424166666666667E+009;1.483936309814453E-001;-1.094221696257591E-001;-3.705621464177966E-003;1.906225341372192E-003;
2.424333333333334E+009;1.488512009382248E-001;-1.106590107083321E-001;-3.739629173651338E-003;2.127971732988954E-003;
2.424500000000000E+009;1.491967588663101E-001;-1.119744032621384E-001;-3.625255776569247E-003;2.317154314368963E-003;
2.424666666666667E+009;1.496763527393341E-001;-1.128297969698906E-001;-3.512127557769418E-003;2.449477789923549E-003;
2.424833333333334E+009;1.499322205781937E-001;-1.138800904154778E-001;-3.510580863803625E-003;2.474624197930098E-003;
2.425000000000000E+009;1.502937823534012E-001;-1.150570437312126E-001;-3.407560521736741E-003;2.662953222170472E-003;
2.425166666666667E+009;1.505889594554901E-001;-1.157340854406357E-001;-3.222210099920631E-003;2.800026908516884E-003;
2.425333333333334E+009;1.509179472923279E-001;-1.165812090039253E-001;-2.976370509713888E-003;2.829456236213446E-003;
2.425500000000000E+009;1.513906866312027E-001;-1.173070147633553E-001;-2.811396494507790E-003;3.010384971275926E-003;
2.425666666666667E+009;1.513170599937439E-001;-1.178925409913063E-001;-2.643273910507560E-003;3.113880055025220E-003;
2.425833333333334E+009;1.515050828456879E-001;-1.185249611735344E-001;-2.613324904814363E-003;3.235605545341969E-003;
2.426000000000000E+009;1.516842991113663E-001;-1.189823597669601E-001;-2.444400452077389E-003;3.290209919214249E-003;
2.426166666666667E+009;1.520577073097229E-001;-1.194521635770798E-001;-2.137727336958051E-003;3.293235087767243E-003;
2.426333333333334E+009;1.517729014158249E-001;-1.198127344250679E-001;-2.143892226740718E-003;3.496169112622738E-003;
2.426500000000000E+009;1.518392860889435E-001;-1.201022192835808E-001;-1.968348398804665E-003;3.433490637689829E-003;
2.426666666666667E+009;1.518794298171997E-001;-1.202578619122505E-001;-1.755832112394273E-003;3.438546787947416E-003;
2.426833333333334E+009;1.515966802835465E-001;-1.206234768033028E-001;-1.439181272871792E-003;3.393525490537286E-003;
2.427000000000000E+009;1.514165997505188E-001;-1.207867860794067E-001;-1.292134518735111E-003;3.531079040840268E-003;
2.427166666666667E+009;1.510116308927536E-001;-1.208201944828033E-001;-1.202390529215336E-003;3.548097098246217E-003;
2.427333333333334E+009;1.504587978124619E-001;-1.210809424519539E-001;-1.102136797271669E-003;3.601508447900415E-003;
2.427500000000000E+009;1.500897109508514E-001;-1.211912706494331E-001;-8.937640232034028E-004;3.413162427023053E-003;
2.427666666666667E+009;1.493772417306900E-001;-1.212803125381470E-001;-8.248437079600990E-004;3.368876408785582E-003;
