# Version 1.00
#
freq[Hz];re:Trc1_S11;im:Trc1_S11;re:Trc2_S21;im:Trc2_S21;
2.400000000000000E+009;1.605406254529953E-001;5.707689374685288E-002;3.575037233531475E-003;1.438031671568751E-003;
2.400166666666667E+009;1.606795489788055E-001;5.543173104524612E-002;3.621748648583889E-003;1.607106067240238E-003;
2.400333333333334E+009;1.607954949140549E-001;5.383384972810745E-002;3.931944724172354E-003;1.383912400342524E-003;
2.400500000000000E+009;1.610193848609924E-001;5.199505388736725E-002;3.832583781331778E-003;1.345696975477040E-003;
2.400666666666667E+009;1.609449386596680E-001;5.009182915091515E-002;3.879479831084609E-003;1.240793964825571E-003;
2.400833333333334E+009;1.612970829010010E-001;4.832287132740021E-002;3.995036240667105E-003;1.288389670662582E-003;
2.401000000000000E+009;1.615879982709885E-001;4.633934795856476E-002;4.161555320024490E-003;1.312250969931483E-003;
2.401166666666667E+009;1.618594825267792E-001;4.443968832492828E-002;4.330658819526434E-003;1.115122693590820E-003;
2.401333333333334E+009;1.619797796010971E-001;4.263525828719139E-002;4.422409925609827E-003;1.113773323595524E-003;
2.401500000000000E+009;1.623816788196564E-001;4.068269208073616E-002;4.336650948971510E-003;1.013470347970724E-003;
2.401666666666667E+009;1.628548800945282E-001;3.890294581651688E-002;4.660325124859810E-003;6.859587156213820E-004;
2.401833333333334E+009;1.629577726125717E-001;3.711274266242981E-002;4.687440581619740E-003;7.598317461088300E-004;
2.402000000000000E+009;1.635969430208206E-001;3.534839302301407E-002;4.793534521013498E-003;4.232165229041129E-004;
2.402166666666667E+009;1.640049517154694E-001;3.350765630602837E-002;4.744850099086762E-003;4.713441303465515E-004;
2.402333333333334E+009;1.643752008676529E-001;3.188613057136536E-002;5.146382842212915E-003;1.674157392699271E-004;
2.402500000000000E+009;1.652646213769913E-001;3.024427779018879E-002;4.863702692091465E-003;1.498285200796090E-006;
2.402666666666667E+009;1.657353192567825E-001;2.868003025650978E-002;4.817759152501822E-003;-2.084392908727750E-004;
2.402833333333334E+009;1.663721799850464E-001;2.708477713167667E-002;4.952938295900822E-003;-3.735464415512979E-004;
2.403000000000000E+009;1.670963317155838E-001;2.595829404890537E-002;4.930310882627964E-003;-4.393509880173951E-004;
2.403166666666667E+009;1.678715199232101E-001;2.425650134682655E-002;5.046273581683636E-003;-6.970572285354137E-004;
2.403333333333334E+009;1.685571521520615E-001;2.294561080634594E-002;5.066626239567995E-003;-1.051872386597097E-003;
2.403500000000000E+009;1.690408885478973E-001;2.166694775223732E-002;4.874490201473236E-003;-1.129552605561912E-003;
2.403666666666667E+009;1.698758751153946E-001;2.033366076648235E-002;4.834932275116444E-003;-1.188033143989742E-003;
2.403833333333334E+009;1.708976924419403E-001;1.921017467975617E-002;4.759713541716337E-003;-1.647940953262150E-003;
2.404000000000000E+009;1.714867800474167E-001;1.798402331769466E-002;4.774795379489660E-003;-1.866220962256193E-003;
2.404166666666667E+009;1.721891909837723E-001;1.712825335562229E-002;4.808401223272085E-003;-1.973957289010286E-003;
2.404333333333334E+009;1.728668957948685E-001;1.614826731383801E-002;4.654704593122006E-003;-2.123886253684759E-003;
2.404500000000000E+009;1.734442114830017E-001;1.524613052606583E-002;4.528585821390152E-003;-2.401903970167041E-003;
2.404666666666667E+009;1.743054687976837E-001;1.450207270681858E-002;4.359264392405748E-003;-2.439379692077637E-003;
2.404833333333334E+009;1.747880727052689E-001;1.364130992442370E-002;4.309992771595717E-003;-2.586969174444675E-003;
2.405000000000000E+009;1.755227148532867E-001;1.295584253966808E-002;4.109245259314776E-003;-2.844229573383927E-003;
2.405166666666667E+009;1.760078370571137E-001;1.236841082572937E-002;3.925735130906105E-003;-2.937497338280082E-003;
2.405333333333334E+009;1.766397804021835E-001;1.172789279371500E-002;3.805360523983836E-003;-2.991728018969297E-003;
2.405500000000000E+009;1.770324259996414E-001;1.128833834081888E-002;3.579467069357634E-003;-3.100582398474217E-003;
2.405666666666667E+009;1.774876564741135E-001;1.089764200150967E-002;3.429698990657926E-003;-3.231724724173546E-003;
2.405833333333334E+009;1.775891184806824E-001;1.044358406215906E-002;3.325568046420813E-003;-3.177036298438907E-003;
2.406000000000000E+009;1.780219525098801E-001;9.925382211804390E-003;3.175556659698486E-003;-3.302452620118856E-003;
2.406166666666667E+009;1.781348139047623E-001;9.693707339465618E-003;2.812279155477881E-003;-3.350481623783708E-003;
2.406333333333334E+009;1.783947646617889E-001;9.269240312278271E-003;2.679565222933888E-003;-3.340716473758221E-003;
2.406500000000000E+009;1.786311268806458E-001;8.867169730365276E-003;2.700319979339838E-003;-3.344348864629865E-003;
2.406666666666667E+009;1.784364879131317E-001;8.411876857280731E-003;2.588070230558515E-003;-3.321217373013496E-003;
2.406833333333334E+009;1.785364598035812E-001;7.996959611773491E-003;2.459107199683785E-003;-3.442678367719054E-003;
2.407000000000000E+009;1.785538345575333E-001;7.525675464421511E-003;2.369243418797851E-003;-3.287584753707051E-003;
2.407166666666667E+009;1.785024404525757E-001;7.118077017366886E-003;2.395006362348795E-003;-3.453734563663602E-003;
2.407333333333334E+009;1.781610995531082E-001;6.443955935537815E-003;2.167044905945659E-003;-3.374436171725392E-003;
2.407500000000000E+009;1.779109090566635E-001;6.006293464452028E-003;2.035303507000208E-003;-3.316393587738276E-003;
2.407666666666667E+009;1.775370836257935E-001;5.391226150095463E-003;1.999867148697376E-003;-3.394784172996879E-003;
2.407833333333334E+009;1.771529912948608E-001;4.729853942990303E-003;1.820828765630722E-003;-3.463735338300467E-003;
2.408000000000000E+009;1.766965985298157E-001;3.908841405063868E-003;1.787916524335742E-003;-3.555727656930685E-003;
2.408166666666667E+009;1.763471066951752E-001;3.258923534303904E-003;1.807434950023890E-003;-3.461761632934213E-003;
2.408333333333334E+009;1.760248690843582E-001;2.345976652577519E-003;1.724450150504708E-003;-3.532507922500372E-003;
2.408500000000000E+009;1.753964424133301E-001;1.401626272127032E-003;1.501287682913244E-003;-3.534029005095363E-003;
2.408666666666667E+009;1.749533414840698E-001;3.607189573813230E-004;1.520350109785795E-003;-3.405124880373478E-003;
2.408833333333334E+009;1.742255985736847E-001;-6.621477077715099E-004;1.478524995036423E-003;-3.517565317451954E-003;
2.409000000000000E+009;1.736625134944916E-001;-1.899046706967056E-003;1.332990126684308E-003;-3.472101874649525E-003;
2.409166666666667E+009;1.731191575527191E-001;-3.055771812796593E-003;1.235301024280489E-003;-3.669195808470249E-003;
2.409333333333334E+009;1.726825535297394E-001;-4.342185333371162E-003;1.274872687645257E-003;-3.439519088715315E-003;
2.409500000000000E+009;1.719953119754791E-001;-5.871846806257963E-003;1.141805434599519E-003;-3.394131315872073E-003;
2.409666666666667E+009;1.714252531528473E-001;-7.212700322270393E-003;1.045672805048525E-003;-3.332784399390221E-003;
2.409833333333334E+009;1.710057705640793E-001;-8.576673455536366E-003;1.008907682262361E-003;-3.452617907896638E-003;
2.410000000000000E+009;1.705982983112335E-001;-1.023093052208424E-002;9.721151436679065E-004;-3.508653491735458E-003;
2.410166666666667E+009;1.699051111936569E-001;-1.174756605178118E-002;1.018518814817071E-003;-3.422190202400088E-003;
2.410333333333334E+009;1.693978756666184E-001;-1.351817790418863E-002;8.904660935513675E-004;-3.369037061929703E-003;
2.410500000000000E+009;1.691405028104782E-001;-1.518565043807030E-002;8.829069556668401E-004;-3.269167151302099E-003;
2.410666666666667E+009;1.686059534549713E-001;-1.718388311564922E-002;7.598320371471345E-004;-3.367908298969269E-003;
2.410833333333334E+009;1.683320105075836E-001;-1.870078034698963E-002;8.743063081055880E-004;-3.346226876601577E-003;
2.411000000000000E+009;1.681099534034729E-001;-2.047418430447578E-002;8.015937637537718E-004;-3.337452188134193E-003;
2.411166666666667E+009;1.678712517023087E-001;-2.241089753806591E-002;7.015123264864087E-004;-3.438006853684783E-003;
2.411333333333334E+009;1.678955554962158E-001;-2.420927211642265E-002;7.889332482591271E-004;-3.485200926661491E-003;
2.411500000000000E+009;1.678048372268677E-001;-2.624238282442093E-002;6.854808889329433E-004;-3.634241875261068E-003;
2.411666666666667E+009;1.678975075483322E-001;-2.793279290199280E-002;7.468379917554557E-004;-3.590371692553163E-003;
2.411833333333334E+009;1.678100675344467E-001;-3.000624105334282E-002;5.229349480941892E-004;-3.691879566758871E-003;
2.412000000000000E+009;1.680467724800110E-001;-3.189839422702789E-002;6.586730596609414E-004;-3.731586271896958E-003;
2.412166666666667E+009;1.682586818933487E-001;-3.377449139952660E-002;4.956171615049243E-004;-3.738629864528775E-003;
2.412333333333334E+009;1.685049235820770E-001;-3.546903282403946E-002;3.655433538369834E-004;-3.864090656861663E-003;
2.412500000000000E+009;1.686451435089111E-001;-3.726863861083984E-002;5.018391530029476E-004;-3.934035543352366E-003;
2.412666666666667E+009;1.691313683986664E-001;-3.911179304122925E-002;3.494904667604715E-004;-3.925947938114405E-003;
2.412833333333334E+009;1.695732325315476E-001;-4.081480205059052E-002;8.073127537500113E-005;-4.108056426048279E-003;
2.413000000000000E+009;1.697538495063782E-001;-4.266128689050674E-002;-5.002594480174594E-005;-4.239092580974102E-003;
2.413166666666667E+009;1.703372001647949E-001;-4.395968466997147E-002;-7.342066237470135E-005;-4.183440469205380E-003;
2.413333333333334E+009;1.707969456911087E-001;-4.585353285074234E-002;-3.207709523849189E-004;-4.268554504960775E-003;
2.413500000000000E+009;1.712338179349899E-001;-4.729445651173592E-002;-4.088406567461789E-004;-4.299896303564310E-003;
2.413666666666667E+009;1.716868132352829E-001;-4.867270588874817E-002;-5.138347041793168E-004;-4.208310507237911E-003;
2.413833333333334E+009;1.722983717918396E-001;-4.995683208107948E-002;-7.729804492555559E-004;-4.273852333426476E-003;
2.414000000000000E+009;1.726368963718414E-001;-5.125109106302261E-002;-8.840565569698811E-004;-4.192698746919632E-003;
2.414166666666667E+009;1.733250468969345E-001;-5.247595533728600E-002;-1.072341343387961E-003;-4.280970897525549E-003;
2.414333333333334E+009;1.737752854824066E-001;-5.368448793888092E-002;-1.415811595506966E-003;-4.270688164979219E-003;
2.414500000000000E+009;1.743260473012924E-001;-5.453757569193840E-002;-1.424040645360947E-003;-4.102773033082485E-003;
2.414666666666667E+009;1.747958362102509E-001;-5.551032349467278E-002;-1.547927735373378E-003;-4.095713142305613E-003;
2.414833333333334E+009;1.750637888908386E-001;-5.650612339377403E-002;-1.705855247564614E-003;-4.073878284543753E-003;
2.415000000000000E+009;1.756253391504288E-001;-5.731828883290291E-002;-1.871375367045403E-003;-3.935551270842552E-003;
2.415166666666667E+009;1.758081316947937E-001;-5.783404782414436E-002;-1.967237330973148E-003;-3.831990063190460E-003;
2.415333333333334E+009;1.761553883552551E-001;-5.854303389787674E-002;-2.185930730774999E-003;-3.837365424260497E-003;
2.415500000000000E+009;1.764605045318604E-001;-5.901048332452774E-002;-2.342830412089825E-003;-3.640721319243312E-003;
2.415666666666667E+009;1.766014397144318E-001;-5.957639217376709E-002;-2.299403306096792E-003;-3.582919714972377E-003;
2.415833333333334E+009;1.768492758274078E-001;-6.002087146043778E-002;-2.338560763746500E-003;-3.472551004961133E-003;
2.416000000000000E+009;1.766414791345596E-001;-6.041350960731506E-002;-2.656994387507439E-003;-3.414139617234469E-003;
2.416166666666667E+009;1.769166439771652E-001;-6.079253554344177E-002;-2.733969362452626E-003;-3.395935287699103E-003;
2.416333333333334E+009;1.766673922538757E-001;-6.098133698105812E-002;-2.849728800356388E-003;-3.314627567306161E-003;
2.416500000000000E+009;1.764544844627380E-001;-6.125618889927864E-002;-2.959275851026177E-003;-3.161445725709200E-003;
2.416666666666667E+009;1.761483103036881E-001;-6.146715581417084E-002;-2.991180634126067E-003;-3.012189641594887E-003;
2.416833333333334E+009;1.759865731000900E-001;-6.181048601865768E-002;-3.172801341861486E-003;-3.030575113371015E-003;
2.417000000000000E+009;1.753184050321579E-001;-6.209997832775116E-002;-3.138378728181124E-003;-2.861476503312588E-003;
2.417166666666667E+009;1.748054325580597E-001;-6.209413707256317E-002;-3.328563412651420E-003;-2.639737678691745E-003;
2.417333333333334E+009;1.743356436491013E-001;-6.231064721941948E-002;-3.302599070593715E-003;-2.821429632604122E-003;
2.417500000000000E+009;1.735373437404633E-001;-6.271054595708847E-002;-3.234516130760312E-003;-2.436685375869274E-003;
2.417666666666667E+009;1.729149967432022E-001;-6.284551322460175E-002;-3.290837863460183E-003;-2.451169304549694E-003;
2.417833333333334E+009;1.720909178256989E-001;-6.304697692394257E-002;-3.408378222957254E-003;-2.298104343935847E-003;
2.418000000000000E+009;1.710031926631928E-001;-6.352022290229797E-002;-3.436265746131539E-003;-2.214879263192415E-003;
2.418166666666667E+009;1.700860559940338E-001;-6.369361281394959E-002;-3.548204666003585E-003;-2.097842283546925E-003;
2.418333333333334E+009;1.692813485860825E-001;-6.415761262178421E-002;-3.572313115000725E-003;-1.961470581591129E-003;
2.418500000000000E+009;1.680836379528046E-001;-6.456477940082550E-002;-3.511885413900018E-003;-1.979340799152851E-003;
2.418666666666667E+009;1.670903414487839E-001;-6.509807705879211E-002;-3.585333237424493E-003;-1.819861936382949E-003;
2.418833333333334E+009;1.657015830278397E-001;-6.567758321762085E-002;-3.598988521844149E-003;-1.740808016620576E-003;
2.419000000000000E+009;1.646297127008438E-001;-6.633633375167847E-002;-3.569571534171701E-003;-1.687353476881981E-003;
2.419166666666667E+009;1.634333729743958E-001;-6.700815260410309E-002;-3.676197258755565E-003;-1.481074606999755E-003;
2.419333333333334E+009;1.619879454374313E-001;-6.762444227933884E-002;-3.806063206866384E-003;-1.639808295294642E-003;
2.419500000000000E+009;1.610199511051178E-001;-6.860805302858353E-002;-3.765560686588287E-003;-1.387665164656937E-003;
2.419666666666667E+009;1.598371416330338E-001;-6.945303827524185E-002;-3.725384594872594E-003;-1.401506364345551E-003;
2.419833333333334E+009;1.584932953119278E-001;-7.045113295316696E-002;-3.891013097018004E-003;-1.204926986247301E-003;
2.420000000000000E+009;1.575157493352890E-001;-7.151249796152115E-002;-4.079449456185103E-003;-1.109798438847065E-003;
2.420166666666667E+009;1.562093496322632E-001;-7.277773320674896E-002;-3.979306668043137E-003;-9.457026026211679E-004;
2.420333333333334E+009;1.552164852619171E-001;-7.388681173324585E-002;-3.988637123256922E-003;-9.049086947925389E-004;
2.420500000000000E+009;1.542471498250961E-001;-7.512871176004410E-002;-3.909242805093527E-003;-9.238644852302969E-004;
2.420666666666667E+009;1.532409340143204E-001;-7.630850374698639E-002;-4.053706768900156E-003;-7.582736434414983E-004;
2.420833333333334E+009;1.523575335741043E-001;-7.777289301156998E-002;-4.111766349524260E-003;-5.848099826835096E-004;
2.421000000000000E+009;1.514006853103638E-001;-7.935999333858490E-002;-4.004686139523983E-003;-5.211852840147913E-004;
2.421166666666667E+009;1.506979465484619E-001;-8.089714497327805E-002;-4.268992692232132E-003;-3.999008622486144E-004;
2.421333333333334E+009;1.500908881425858E-001;-8.246310055255890E-002;-4.098335281014442E-003;-2.539888373576105E-004;
2.421500000000000E+009;1.491671204566956E-001;-8.405914902687073E-002;-4.094917792826891E-003;-3.889730214723386E-005;
2.421666666666667E+009;1.486848145723343E-001;-8.555415272712708E-002;-3.976456820964813E-003;-2.386919732089154E-006;
2.421833333333334E+009;1.482542902231216E-001;-8.734016865491867E-002;-4.316169302910566E-003;1.356012508040294E-004;
2.422000000000000E+009;1.476514786481857E-001;-8.907488733530045E-002;-4.166087135672569E-003;1.616227818885818E-004;
2.422166666666667E+009;1.474731713533402E-001;-9.079189598560333E-002;-4.169987048953772E-003;3.426496987231076E-004;
2.422333333333334E+009;1.471582353115082E-001;-9.237785637378693E-002;-4.144586157053709E-003;4.552535829134285E-004;
2.422500000000000E+009;1.469859033823013E-001;-9.398738294839859E-002;-4.108843859285116E-003;5.698446184396744E-004;
2.422666666666667E+009;1.467251330614090E-001;-9.587209671735764E-002;-4.000381100922823E-003;6.981046171858907E-004;
2.422833333333334E+009;1.468299031257629E-001;-9.752263873815537E-002;-4.106651525944471E-003;8.331932476721704E-004;
2.423000000000000E+009;1.468186676502228E-001;-9.904980659484863E-002;-3.987857140600681E-003;9.809460025280714E-004;
2.423166666666667E+009;1.470579802989960E-001;-1.008119657635689E-001;-3.977239131927490E-003;1.196826342493296E-003;
2.423333333333334E+009;1.471137702465057E-001;-1.022460386157036E-001;-3.971515223383904E-003;1.202956074848771E-003;
2.423500000000000E+009;1.472908705472946E-001;-1.038947775959969E-001;-3.884411184117198E-003;1.440947293303907E-003;
2.423666666666667E+009;1.473299413919449E-001;-1.054784655570984E-001;-3.946778364479542E-003;1.556771690957248E-003;
2.423833333333334E+009;1.477892249822617E-001;-1.069055274128914E-001;-3.826240543276072E-003;1.656035427004099E-003;
2.424000000000000E+009;1.479953676462174E-001;-1.080565005540848E-001;-3.768869442865253E-003;1.769448164850473E-003;
2.424166666666667E+009;1.482671201229096E-001;-1.094908490777016E-001;-3.744351444765925E-003;1.977079315111041E-003;
2.424333333333334E+009;1.488333493471146E-001;-1.106564551591873E-001;-3.570331260561943E-003;1.982841640710831E-003;
2.424500000000000E+009;1.492061465978622E-001;-1.118666827678680E-001;-3.564432263374329E-003;2.347567817196250E-003;
2.424666666666667E+009;1.496103554964066E-001;-1.128858774900436E-001;-3.588531399145722E-003;2.441224874928594E-003;
2.424833333333334E+009;1.497773677110672E-001;-1.139857545495033E-001;-3.444174071773887E-003;2.587466035038233E-003;
2.425000000000000E+009;1.502903252840042E-001;-1.148976832628250E-001;-3.303893841803074E-003;2.664383267983794E-003;
2.425166666666667E+009;1.504996269941330E-001;-1.158877611160278E-001;-3.224129555746913E-003;2.711039036512375E-003;
2.425333333333334E+009;1.507929265499115E-001;-1.165303587913513E-001;-3.006077138707042E-003;3.045799210667610E-003;
2.425500000000000E+009;1.512101739645004E-001;-1.172252297401428E-001;-3.014480927959085E-003;2.905580680817366E-003;
2.425666666666667E+009;1.513316780328751E-001;-1.180113777518272E-001;-2.739972667768598E-003;3.106929361820221E-003;
2.425833333333334E+009;1.516365855932236E-001;-1.184641346335411E-001;-2.623839071020484E-003;3.350618761032820E-003;
2.426000000000000E+009;1.516734361648560E-001;-1.191107481718063E-001;-2.421071985736489E-003;3.516450291499496E-003;
2.426166666666667E+009;1.519375592470169E-001;-1.195030882954598E-001;-2.201946219429374E-003;3.344218246638775E-003;
2.426333333333334E+009;1.518697291612625E-001;-1.197720170021057E-001;-2.124659018591046E-003;3.306406084448099E-003;
2.426500000000000E+009;1.519356071949005E-001;-1.201213225722313E-001;-1.968155615031719E-003;3.357908688485622E-003;
2.426666666666667E+009;1.518657505512238E-001;-1.202308088541031E-001;-1.803906750865281E-003;3.500653430819511E-003;
2.426833333333334E+009;1.515996456146240E-001;-1.205293685197830E-001;-1.614727196283639E-003;3.413909347727895E-003;
2.427000000000000E+009;1.513454616069794E-001;-1.208623051643372E-001;-1.606932724826038E-003;3.450480056926608E-003;
2.427166666666667E+009;1.509755849838257E-001;-1.207806840538979E-001;-1.259652199223638E-003;3.583643585443497E-003;
2.427333333333334E+009;1.504726856946945E-001;-1.210337877273560E-001;-1.011668122373521E-003;3.488095710054040E-003;
2.427500000000000E+009;1.501019150018692E-001;-1.211670860648155E-001;-1.010779058560729E-003;3.444953355938196E-003;
2.427666666666667E+009;1.493487358093262E-001;-1.212993860244751E-001;-7.841660990379751E-004;3.370460588485003E-003;
