# Version 1.00
#
freq[Hz];re:Trc1_S11;im:Trc1_S11;re:Trc2_S21;im:Trc2_S21;
2.400000000000000E+009;1.565137952566147E-001;6.008592247962952E-002;2.099065342918038E-003;4.731175431516022E-004;
2.400166666666667E+009;1.563704311847687E-001;5.836033076047897E-002;2.581720473244786E-003;5.310344859026372E-004;
2.400333333333334E+009;1.564463675022125E-001;5.627326294779778E-002;2.361541846767068E-003;2.798972127493471E-004;
2.400500000000000E+009;1.567487567663193E-001;5.433779954910278E-002;2.444432815536857E-003;2.550381468608975E-004;
2.400666666666667E+009;1.569166034460068E-001;5.216098204255104E-002;2.397609641775489E-003;2.169598737964407E-004;
2.400833333333334E+009;1.572120040655136E-001;5.013002082705498E-002;2.508227946236730E-003;2.114347298629582E-004;
2.401000000000000E+009;1.574711799621582E-001;4.810647666454315E-002;2.387451473623514E-003;-1.954239269252867E-005;
2.401166666666667E+009;1.579672247171402E-001;4.611460864543915E-002;2.425593556836247E-003;1.061068833223544E-004;
2.401333333333334E+009;1.582654863595963E-001;4.405542835593224E-002;2.415565541014075E-003;1.073657258530147E-004;
2.401500000000000E+009;1.588771790266037E-001;4.186354205012322E-002;2.264041220769286E-003;6.123944331193343E-005;
2.401666666666667E+009;1.593839377164841E-001;4.010698944330216E-002;2.243537921458483E-003;-4.491459549171850E-005;
2.401833333333334E+009;1.602882742881775E-001;3.798138350248337E-002;2.481686649844050E-003;-2.732539724092931E-005;
2.402000000000000E+009;1.605270504951477E-001;3.624706715345383E-002;2.151506254449487E-003;-3.636691690189764E-005;
2.402166666666667E+009;1.612247377634049E-001;3.445132449269295E-002;2.142771380022168E-003;-3.084331692662090E-004;
2.402333333333334E+009;1.619866639375687E-001;3.277245163917542E-002;2.395495539531112E-003;-2.371472364757210E-004;
2.402500000000000E+009;1.629638224840164E-001;3.112971410155296E-002;2.286261413246393E-003;-2.724743681028485E-004;
2.402666666666667E+009;1.637423634529114E-001;2.960375696420670E-002;2.351643284782767E-003;-3.829840570688248E-004;
2.402833333333334E+009;1.645863801240921E-001;2.800612710416317E-002;2.124168910086155E-003;-1.872742141131312E-004;
2.403000000000000E+009;1.655390858650208E-001;2.686802856624126E-002;2.134200185537338E-003;-3.875456168316305E-004;
2.403166666666667E+009;1.665977239608765E-001;2.540246210992336E-002;2.179559553042054E-003;-4.493616288527846E-004;
2.403333333333334E+009;1.676160395145416E-001;2.410406433045864E-002;2.137449802830815E-003;-4.523309471551329E-004;
2.403500000000000E+009;1.683915257453919E-001;2.296930737793446E-002;2.134438604116440E-003;-4.293987294659019E-004;
2.403666666666667E+009;1.692988723516464E-001;2.172645740211010E-002;2.228515688329935E-003;-3.389576158951968E-004;
2.403833333333334E+009;1.704676896333695E-001;2.075947634875774E-002;2.143613062798977E-003;-5.651588435284793E-004;
2.404000000000000E+009;1.713887453079224E-001;1.981775835156441E-002;2.295878250151873E-003;-3.443105088081211E-004;
2.404166666666667E+009;1.723596602678299E-001;1.882472075521946E-002;2.291192067787051E-003;-6.374942604452372E-004;
2.404333333333334E+009;1.731412559747696E-001;1.819873228669167E-002;2.007806207984686E-003;-5.938918911851943E-004;
2.404500000000000E+009;1.738915294408798E-001;1.736361347138882E-002;2.105935011059046E-003;-5.148061900399625E-004;
2.404666666666667E+009;1.749268323183060E-001;1.682690903544426E-002;2.243141643702984E-003;-6.860964931547642E-004;
2.404833333333334E+009;1.757677346467972E-001;1.629479415714741E-002;2.106927800923586E-003;-7.682205759920180E-004;
2.405000000000000E+009;1.762894541025162E-001;1.582733914256096E-002;2.322286367416382E-003;-7.040961645543575E-004;
2.405166666666667E+009;1.770392358303070E-001;1.541177276521921E-002;2.223019953817129E-003;-6.559736793860793E-004;
2.405333333333334E+009;1.775945276021957E-001;1.486891694366932E-002;2.279025968164206E-003;-8.535027736797929E-004;
2.405500000000000E+009;1.782231926918030E-001;1.457212772220373E-002;2.176087349653244E-003;-8.638352737762034E-004;
2.405666666666667E+009;1.786317974328995E-001;1.423798035830259E-002;2.127652522176504E-003;-6.978654419071972E-004;
2.405833333333334E+009;1.789528876543045E-001;1.394433993846178E-002;2.158674877136946E-003;-9.604960796423256E-004;
2.406000000000000E+009;1.794779598712921E-001;1.356526743620634E-002;2.236157888546586E-003;-9.188929107040167E-004;
2.406166666666667E+009;1.795507371425629E-001;1.344215311110020E-002;2.169056795537472E-003;-1.096358173526824E-003;
2.406333333333334E+009;1.797977089881897E-001;1.318024750798941E-002;2.260878216475248E-003;-1.008848892524838E-003;
2.406500000000000E+009;1.798289418220520E-001;1.288778334856033E-002;2.165326382964850E-003;-1.153197605162859E-003;
2.406666666666667E+009;1.797031164169312E-001;1.260288991034031E-002;2.317281672731042E-003;-1.194654381833971E-003;
2.406833333333334E+009;1.797148436307907E-001;1.212787162512541E-002;2.202932722866535E-003;-1.202099258080125E-003;
2.407000000000000E+009;1.796057075262070E-001;1.177938375622034E-002;2.332025906071067E-003;-1.269421889446676E-003;
2.407166666666667E+009;1.795328557491303E-001;1.144337467849255E-002;2.333084121346474E-003;-1.338754198513925E-003;
2.407333333333334E+009;1.790900677442551E-001;1.080109085887671E-002;2.314744750037789E-003;-1.427471172064543E-003;
2.407500000000000E+009;1.787356287240982E-001;1.037068571895361E-002;2.351663308218122E-003;-1.552213681861758E-003;
2.407666666666667E+009;1.784311681985855E-001;9.813367389142513E-003;2.270226832479239E-003;-1.753568067215383E-003;
2.407833333333334E+009;1.778023093938828E-001;8.943161927163601E-003;2.180540235713124E-003;-1.524972030892968E-003;
2.408000000000000E+009;1.772969961166382E-001;8.131999522447586E-003;2.235528081655502E-003;-1.796766184270382E-003;
2.408166666666667E+009;1.767034679651260E-001;7.552943658083677E-003;2.254276769235730E-003;-1.815194846130908E-003;
2.408333333333334E+009;1.762273162603378E-001;6.407287903130055E-003;2.287013223394752E-003;-1.751210074871779E-003;
2.408500000000000E+009;1.755803525447846E-001;5.403698887676001E-003;2.166205551475287E-003;-1.913081970997155E-003;
2.408666666666667E+009;1.748088151216507E-001;4.261780995875597E-003;2.287144772708416E-003;-2.166182035580277E-003;
2.408833333333334E+009;1.742620468139648E-001;3.146051196381450E-003;2.045638859272003E-003;-2.124446677044034E-003;
2.409000000000000E+009;1.733347326517105E-001;1.772112795151770E-003;2.060381229966879E-003;-2.193297259509563E-003;
2.409166666666667E+009;1.729116439819336E-001;3.518840821925551E-004;2.127974061295390E-003;-2.320977160707116E-003;
2.409333333333334E+009;1.723566800355911E-001;-1.090921461582184E-003;2.041858155280352E-003;-2.508432371541858E-003;
2.409500000000000E+009;1.715832352638245E-001;-2.803445560857654E-003;1.973212929442525E-003;-2.540124580264092E-003;
2.409666666666667E+009;1.709124594926834E-001;-4.207496531307697E-003;1.996922073885799E-003;-2.544431947171688E-003;
2.409833333333334E+009;1.702717691659927E-001;-5.781378131359816E-003;2.068499568849802E-003;-2.708153566345573E-003;
2.410000000000000E+009;1.697788238525391E-001;-7.595145609229803E-003;1.924854004755616E-003;-2.758303191512823E-003;
2.410166666666667E+009;1.694670766592026E-001;-9.312192909419537E-003;1.758980564773083E-003;-2.939602127298713E-003;
2.410333333333334E+009;1.688539832830429E-001;-1.106894854456186E-002;1.807177206501365E-003;-2.972503658384085E-003;
2.410500000000000E+009;1.684942543506622E-001;-1.300881803035736E-002;1.800982048735023E-003;-3.017743118107319E-003;
2.410666666666667E+009;1.681400388479233E-001;-1.511015929281712E-002;1.651827013120055E-003;-3.203201806172729E-003;
2.410833333333334E+009;1.680022627115250E-001;-1.681572198867798E-002;1.466397778131068E-003;-3.259396413341165E-003;
2.411000000000000E+009;1.677347868680954E-001;-1.883423887193203E-002;1.448514172807336E-003;-3.412738675251603E-003;
2.411166666666667E+009;1.676199436187744E-001;-2.072700858116150E-002;1.092886785045266E-003;-3.494744654744864E-003;
2.411333333333334E+009;1.675100624561310E-001;-2.286701835691929E-002;1.221978454850614E-003;-3.642181400209665E-003;
2.411500000000000E+009;1.675640940666199E-001;-2.484440244734287E-002;1.043644617311657E-003;-3.663461422547698E-003;
2.411666666666667E+009;1.678865104913712E-001;-2.675830200314522E-002;9.507289505563676E-004;-3.727234899997711E-003;
2.411833333333334E+009;1.680808514356613E-001;-2.869601547718048E-002;6.479850271716714E-004;-3.765393514186144E-003;
2.412000000000000E+009;1.683595329523087E-001;-3.060735762119293E-002;6.526307552121580E-004;-4.026051145046949E-003;
2.412166666666667E+009;1.683745235204697E-001;-3.257404640316963E-002;4.955301992595196E-004;-3.892760025337338E-003;
2.412333333333334E+009;1.691523194313049E-001;-3.418760374188423E-002;3.206188848707825E-004;-3.968384582549334E-003;
2.412500000000000E+009;1.694374680519104E-001;-3.622131422162056E-002;1.782455510692671E-004;-3.996682818979025E-003;
2.412666666666667E+009;1.699196547269821E-001;-3.806848824024200E-002;7.168160664150491E-006;-3.986025694757700E-003;
2.412833333333334E+009;1.705268621444702E-001;-3.977783769369125E-002;-1.522613893030211E-004;-4.038018640130758E-003;
2.413000000000000E+009;1.711116731166840E-001;-4.126447811722755E-002;-3.992575220763683E-004;-4.004728514701128E-003;
2.413166666666667E+009;1.716026961803436E-001;-4.282693937420845E-002;-3.430317738093436E-004;-4.130864515900612E-003;
2.413333333333334E+009;1.720258146524429E-001;-4.433429986238480E-002;-6.471422384493053E-004;-3.849730361253023E-003;
2.413500000000000E+009;1.728319525718689E-001;-4.583844542503357E-002;-8.114961674436927E-004;-3.833436872810125E-003;
2.413666666666667E+009;1.734072268009186E-001;-4.716251790523529E-002;-1.015461864881218E-003;-3.773800097405911E-003;
2.413833333333334E+009;1.740029901266098E-001;-4.852228239178658E-002;-1.155043602921069E-003;-3.879119874909520E-003;
2.414000000000000E+009;1.742396950721741E-001;-4.971667379140854E-002;-1.218020799569786E-003;-3.885756013914943E-003;
2.414166666666667E+009;1.752761453390122E-001;-5.081253871321678E-002;-1.376890693791211E-003;-3.764658002182841E-003;
2.414333333333334E+009;1.757331788539887E-001;-5.184544250369072E-002;-1.600818475708365E-003;-3.507617861032486E-003;
2.414500000000000E+009;1.763579696416855E-001;-5.275363847613335E-002;-1.776606310158968E-003;-3.586360719054937E-003;
2.414666666666667E+009;1.769008338451386E-001;-5.343382060527802E-002;-1.627383753657341E-003;-3.497561672702432E-003;
2.414833333333334E+009;1.772272586822510E-001;-5.431422963738442E-002;-1.863526180386543E-003;-3.433008212596178E-003;
2.415000000000000E+009;1.776355057954788E-001;-5.484932661056519E-002;-2.197476103901863E-003;-3.359008580446243E-003;
2.415166666666667E+009;1.779037564992905E-001;-5.549379438161850E-002;-2.228826750069857E-003;-3.405267139896751E-003;
2.415333333333334E+009;1.783426403999329E-001;-5.608193948864937E-002;-2.165312878787518E-003;-3.138117492198944E-003;
2.415500000000000E+009;1.784537434577942E-001;-5.652466043829918E-002;-2.316760132089257E-003;-3.158234991133213E-003;
2.415666666666667E+009;1.785810142755508E-001;-5.686222761869431E-002;-2.321087056770921E-003;-3.049322171136737E-003;
2.415833333333334E+009;1.786639392375946E-001;-5.729313194751740E-002;-2.519169589504600E-003;-2.951018745079637E-003;
2.416000000000000E+009;1.785828322172165E-001;-5.749452114105225E-002;-2.549999160692096E-003;-2.763105323538184E-003;
2.416166666666667E+009;1.785900592803955E-001;-5.790367722511292E-002;-2.721036784350872E-003;-2.758309012278915E-003;
2.416333333333334E+009;1.783462166786194E-001;-5.800855904817581E-002;-2.779777627438307E-003;-2.683330327272415E-003;
2.416500000000000E+009;1.779512912034988E-001;-5.830491706728935E-002;-2.953053917735815E-003;-2.622673520818353E-003;
2.416666666666667E+009;1.774973124265671E-001;-5.839299038052559E-002;-2.939755795523524E-003;-2.532480983063579E-003;
2.416833333333334E+009;1.772013157606125E-001;-5.873773992061615E-002;-3.031679894775152E-003;-2.217750297859311E-003;
2.417000000000000E+009;1.763624101877213E-001;-5.897118523716927E-002;-3.120141802355647E-003;-2.267946489155293E-003;
2.417166666666667E+009;1.758931130170822E-001;-5.904742702841759E-002;-3.086181124672294E-003;-2.085309941321611E-003;
2.417333333333334E+009;1.750602573156357E-001;-5.929252877831459E-002;-3.247786546126008E-003;-2.078746445477009E-003;
2.417500000000000E+009;1.741554886102676E-001;-5.967454239726067E-002;-3.235804615542293E-003;-1.890091341920197E-003;
2.417666666666667E+009;1.734632104635239E-001;-5.975984409451485E-002;-3.303227946162224E-003;-1.743561937473714E-003;
2.417833333333334E+009;1.724151670932770E-001;-6.032807752490044E-002;-3.212656825780869E-003;-1.726268790662289E-003;
2.418000000000000E+009;1.712570339441299E-001;-6.078816577792168E-002;-3.219029400497675E-003;-1.660941867157817E-003;
2.418166666666667E+009;1.702102273702622E-001;-6.087852641940117E-002;-3.306695958599448E-003;-1.479693921282888E-003;
2.418333333333334E+009;1.692935675382614E-001;-6.153696402907372E-002;-3.297650255262852E-003;-1.350798993371427E-003;
2.418500000000000E+009;1.680005490779877E-001;-6.215251982212067E-002;-3.468372626230121E-003;-1.444149645976722E-003;
2.418666666666667E+009;1.669716089963913E-001;-6.287322938442230E-002;-3.289766144007444E-003;-1.242578378878534E-003;
2.418833333333334E+009;1.655922234058380E-001;-6.363965570926666E-002;-3.437761217355728E-003;-1.336053828708828E-003;
2.419000000000000E+009;1.641769409179688E-001;-6.435039639472961E-002;-3.558150725439191E-003;-1.101642032153904E-003;
2.419166666666667E+009;1.630282700061798E-001;-6.510980427265167E-002;-3.467138623818755E-003;-1.025098492391408E-003;
2.419333333333334E+009;1.615426540374756E-001;-6.600143760442734E-002;-3.442568937316537E-003;-9.564755600877106E-004;
2.419500000000000E+009;1.604755669832230E-001;-6.728103011846542E-002;-3.512954805046320E-003;-8.965393062680960E-004;
2.419666666666667E+009;1.595101952552795E-001;-6.821631640195847E-002;-3.479080740362406E-003;-6.752318586222827E-004;
2.419833333333334E+009;1.581611633300781E-001;-6.942532211542130E-002;-3.552900394424796E-003;-6.978117744438350E-004;
2.420000000000000E+009;1.571144610643387E-001;-7.058011740446091E-002;-3.640636568889022E-003;-5.940367118455470E-004;
2.420166666666667E+009;1.559977978467941E-001;-7.190112769603729E-002;-3.685521893203259E-003;-5.359295173548162E-004;
2.420333333333334E+009;1.550822854042053E-001;-7.318902760744095E-002;-3.735842648893595E-003;-4.636725643649697E-004;
2.420500000000000E+009;1.541593372821808E-001;-7.445056736469269E-002;-3.679411718621850E-003;-3.891127998940647E-004;
2.420666666666667E+009;1.533239185810089E-001;-7.596077769994736E-002;-3.555494360625744E-003;-2.442009572405368E-004;
2.420833333333334E+009;1.524966508150101E-001;-7.769934087991715E-002;-3.697373205795884E-003;-1.968832948477939E-004;
2.421000000000000E+009;1.516253948211670E-001;-7.924033701419830E-002;-3.864752128720284E-003;6.363806460285559E-005;
2.421166666666667E+009;1.512490957975388E-001;-8.075327426195145E-002;-3.935312852263451E-003;2.279345790157095E-004;
2.421333333333334E+009;1.507510691881180E-001;-8.254057168960571E-002;-3.773619886487722E-003;3.156575257889926E-004;
2.421500000000000E+009;1.502933949232101E-001;-8.414082229137421E-002;-3.765120869502425E-003;3.425087488722056E-004;
2.421666666666667E+009;1.498514264822006E-001;-8.584351092576981E-002;-3.894450375810266E-003;4.573940532281995E-004;
2.421833333333334E+009;1.495517939329147E-001;-8.758480101823807E-002;-3.900377778336406E-003;5.302712670527399E-004;
2.422000000000000E+009;1.493433862924576E-001;-8.923648297786713E-002;-3.869970561936498E-003;6.455303519032896E-004;
2.422166666666667E+009;1.492994129657745E-001;-9.104388207197189E-002;-3.912567626684904E-003;8.781192591413856E-004;
2.422333333333334E+009;1.493737846612930E-001;-9.254784882068634E-002;-3.965209703892469E-003;9.750019526109099E-004;
2.422500000000000E+009;1.493458747863770E-001;-9.405089169740677E-002;-3.700620261952281E-003;1.167461974546313E-003;
2.422666666666667E+009;1.495506018400192E-001;-9.571589529514313E-002;-3.773929318413138E-003;1.372823724523187E-003;
2.422833333333334E+009;1.496634483337402E-001;-9.747765958309174E-002;-3.758382285013795E-003;1.447143731638789E-003;
2.423000000000000E+009;1.498600393533707E-001;-9.893826395273209E-002;-3.792438888922334E-003;1.727557275444269E-003;
2.423166666666667E+009;1.503446549177170E-001;-1.005632355809212E-001;-3.673717146739364E-003;1.786538166925311E-003;
2.423333333333334E+009;1.509005725383759E-001;-1.019683629274368E-001;-3.577238181605935E-003;2.031964017078280E-003;
2.423500000000000E+009;1.512641906738281E-001;-1.033461689949036E-001;-3.637819783762097E-003;2.122088102623820E-003;
2.423666666666667E+009;1.514890491962433E-001;-1.048837676644325E-001;-3.571643028408289E-003;2.358835656195879E-003;
2.423833333333334E+009;1.522173285484314E-001;-1.061194911599159E-001;-3.351483494043350E-003;2.528835088014603E-003;
2.424000000000000E+009;1.526245921850205E-001;-1.072090566158295E-001;-3.235981334000826E-003;2.555004786700010E-003;
2.424166666666667E+009;1.530100703239441E-001;-1.084121912717819E-001;-3.186171408742666E-003;2.856764709576964E-003;
2.424333333333334E+009;1.536431759595871E-001;-1.093526259064674E-001;-2.837300999090076E-003;2.807319862768054E-003;
2.424500000000000E+009;1.542069017887116E-001;-1.104448735713959E-001;-2.839402295649052E-003;3.162355162203312E-003;
2.424666666666667E+009;1.547475755214691E-001;-1.112096980214119E-001;-2.826015930622816E-003;3.228773362934589E-003;
2.424833333333334E+009;1.552204042673111E-001;-1.119938418269157E-001;-2.645573811605573E-003;3.224480431526899E-003;
2.425000000000000E+009;1.556352078914642E-001;-1.127862036228180E-001;-2.580320695415139E-003;3.389630001038313E-003;
2.425166666666667E+009;1.559787243604660E-001;-1.134246140718460E-001;-2.168927807360888E-003;3.451040713116527E-003;
2.425333333333334E+009;1.563270986080170E-001;-1.139779537916184E-001;-1.912604901008308E-003;3.470534458756447E-003;
2.425500000000000E+009;1.566246598958969E-001;-1.145693585276604E-001;-1.866550999693573E-003;3.595675574615598E-003;
2.425666666666667E+009;1.567054837942123E-001;-1.149877533316612E-001;-1.696367864497006E-003;3.478914964944124E-003;
2.425833333333334E+009;1.568994671106339E-001;-1.153287962079048E-001;-1.586848404258490E-003;3.613374195992947E-003;
2.426000000000000E+009;1.568971276283264E-001;-1.158735826611519E-001;-1.452709781005979E-003;3.627594327554107E-003;
2.426166666666667E+009;1.571080237627029E-001;-1.160775646567345E-001;-1.178605947643518E-003;3.658643923699856E-003;
2.426333333333334E+009;1.570206880569458E-001;-1.163397431373596E-001;-1.130475662648678E-003;3.645061980932951E-003;
2.426500000000000E+009;1.569281816482544E-001;-1.164156869053841E-001;-8.853476610966027E-004;3.541329875588417E-003;
2.426666666666667E+009;1.567260921001434E-001;-1.165104061365128E-001;-7.053341832943261E-004;3.535745199769735E-003;
2.426833333333334E+009;1.563119143247604E-001;-1.166639253497124E-001;-6.065369234420359E-004;3.506080014631152E-003;
2.427000000000000E+009;1.558178216218948E-001;-1.168681085109711E-001;-3.673523024190217E-004;3.444410394877195E-003;
2.427166666666667E+009;1.551804691553116E-001;-1.168682426214218E-001;-1.459354098187760E-004;3.349843667820096E-003;
2.427333333333334E+009;1.545979082584381E-001;-1.169901043176651E-001;-2.323661465197802E-004;3.448955481871963E-003;
2.427500000000000E+009;1.539953351020813E-001;-1.171043813228607E-001;-6.725342245772481E-005;3.430800279602408E-003;
2.427666666666667E+009;1.531281024217606E-001;-1.172706708312035E-001;1.078514542314224E-004;3.203947562724352E-003;
