# Version 1.00
#
freq[Hz];re:Trc1_S11;im:Trc1_S11;re:Trc2_S21;im:Trc2_S21;
2.400000000000000E+009;1.564832031726837E-001;6.006151065230370E-002;2.623115666210651E-003;6.403849110938609E-004;
2.400166666666667E+009;1.564311683177948E-001;5.837861821055412E-002;2.474220236763358E-003;5.744298105128110E-004;
2.400333333333334E+009;1.564692854881287E-001;5.625879392027855E-002;2.571734134107828E-003;3.916592686437070E-004;
2.400500000000000E+009;1.568672508001328E-001;5.433915555477142E-002;2.557702595368028E-003;2.502127317711711E-004;
2.400666666666667E+009;1.569056361913681E-001;5.216042324900627E-002;2.521210815757513E-003;2.984005841426551E-004;
2.400833333333334E+009;1.573621034622192E-001;5.024960264563561E-002;2.532718004658818E-003;1.435135636711493E-004;
2.401000000000000E+009;1.575965285301209E-001;4.808265715837479E-002;2.408024854958057E-003;5.771509313490242E-005;
2.401166666666667E+009;1.579869985580444E-001;4.604069516062737E-002;2.394804731011391E-003;9.599407349014655E-006;
2.401333333333334E+009;1.581517308950424E-001;4.404066130518913E-002;2.410857472568750E-003;8.308738324558362E-005;
2.401500000000000E+009;1.588090211153030E-001;4.191691428422928E-002;2.371266717091203E-003;-3.361515700817108E-005;
2.401666666666667E+009;1.594943702220917E-001;4.005556553602219E-002;2.474159467965365E-003;-9.138586028711870E-005;
2.401833333333334E+009;1.600267589092255E-001;3.794633597135544E-002;2.425587736070156E-003;-3.578558389563114E-004;
2.402000000000000E+009;1.604888886213303E-001;3.620157763361931E-002;2.282535890117288E-003;-1.820673642214388E-004;
2.402166666666667E+009;1.612829416990280E-001;3.437827527523041E-002;2.420961624011397E-003;-1.722484157653526E-004;
2.402333333333334E+009;1.619729250669479E-001;3.262833133339882E-002;2.506810938939452E-003;-1.449458941351622E-004;
2.402500000000000E+009;1.631568372249603E-001;3.102136030793190E-002;2.379408339038491E-003;-2.813707687892020E-004;
2.402666666666667E+009;1.638779044151306E-001;2.957468666136265E-002;2.196427434682846E-003;-2.719220647122711E-004;
2.402833333333334E+009;1.646960526704788E-001;2.796574309468269E-002;2.202799078077078E-003;-4.498907364904881E-004;
2.403000000000000E+009;1.655823290348053E-001;2.665870264172554E-002;2.327583963051438E-003;-3.909155784640461E-004;
2.403166666666667E+009;1.665437966585159E-001;2.528028562664986E-002;2.318992046639323E-003;-4.203041316941381E-004;
2.403333333333334E+009;1.677040904760361E-001;2.401434071362019E-002;2.124297898262739E-003;-4.889039555564523E-004;
2.403500000000000E+009;1.683181226253510E-001;2.288493514060974E-002;2.129711909219623E-003;-5.018924130126834E-004;
2.403666666666667E+009;1.693999618291855E-001;2.179044857621193E-002;2.278898842632771E-003;-5.517995450645685E-004;
2.403833333333334E+009;1.704690903425217E-001;2.065262198448181E-002;2.179499017074704E-003;-6.926429341547191E-004;
2.404000000000000E+009;1.713092625141144E-001;1.981103233993053E-002;2.177681075409055E-003;-6.095423595979810E-004;
2.404166666666667E+009;1.723372191190720E-001;1.895960234105587E-002;2.251420868560672E-003;-7.147315773181617E-004;
2.404333333333334E+009;1.732147783041000E-001;1.819148845970631E-002;2.151747234165669E-003;-6.925758789293468E-004;
2.404500000000000E+009;1.738020181655884E-001;1.735206134617329E-002;2.194324741140008E-003;-6.809867336414754E-004;
2.404666666666667E+009;1.748150140047073E-001;1.675313338637352E-002;2.100503304973245E-003;-7.962243980728090E-004;
2.404833333333334E+009;1.756613999605179E-001;1.630637608468533E-002;2.243821742013097E-003;-7.657949463464320E-004;
2.405000000000000E+009;1.764025390148163E-001;1.565222442150116E-002;2.365154214203358E-003;-6.247592391446233E-004;
2.405166666666667E+009;1.769735664129257E-001;1.537916995584965E-002;2.344285137951374E-003;-9.096049470826984E-004;
2.405333333333334E+009;1.777399331331253E-001;1.482573244720697E-002;2.236940665170550E-003;-8.153552189469338E-004;
2.405500000000000E+009;1.782318204641342E-001;1.457682251930237E-002;2.187882782891393E-003;-9.153278660960496E-004;
2.405666666666667E+009;1.787144392728806E-001;1.436625327914953E-002;2.140648430213332E-003;-8.940281113609672E-004;
2.405833333333334E+009;1.789097487926483E-001;1.395975146442652E-002;2.380612073466182E-003;-8.374241879209876E-004;
2.406000000000000E+009;1.795040369033814E-001;1.359521970152855E-002;2.174440771341324E-003;-1.083099981769919E-003;
2.406166666666667E+009;1.794256418943405E-001;1.348900049924851E-002;2.276972634717822E-003;-1.132877776399255E-003;
2.406333333333334E+009;1.798333674669266E-001;1.316626649349928E-002;2.243410330265760E-003;-1.202940242365003E-003;
2.406500000000000E+009;1.798296421766281E-001;1.275163237005472E-002;2.252565464004874E-003;-1.160491141490638E-003;
2.406666666666667E+009;1.797207742929459E-001;1.258981600403786E-002;2.375347074121237E-003;-1.193938776850700E-003;
2.406833333333334E+009;1.796793937683106E-001;1.204474642872810E-002;2.333376090973616E-003;-1.399083412252367E-003;
2.407000000000000E+009;1.796407699584961E-001;1.170449145138264E-002;2.446081023663282E-003;-1.353656640276313E-003;
2.407166666666667E+009;1.794348657131195E-001;1.140689942985773E-002;2.449188847094774E-003;-1.365661504678428E-003;
2.407333333333334E+009;1.790589541196823E-001;1.068475563079119E-002;2.404210856184363E-003;-1.646371325477958E-003;
2.407500000000000E+009;1.787882447242737E-001;1.039326656609774E-002;2.329767215996981E-003;-1.528523047454655E-003;
2.407666666666667E+009;1.784445792436600E-001;9.789963252842426E-003;2.316129626706243E-003;-1.583991688676179E-003;
2.407833333333334E+009;1.777458786964417E-001;8.784083649516106E-003;2.322923624888063E-003;-1.754153403453529E-003;
2.408000000000000E+009;1.772558540105820E-001;7.987509481608868E-003;2.304323948919773E-003;-1.782953739166260E-003;
2.408166666666667E+009;1.767225265502930E-001;7.393568754196167E-003;2.151706023141742E-003;-1.920801820233464E-003;
2.408333333333334E+009;1.763631701469421E-001;6.435479968786240E-003;2.149884821847081E-003;-1.967427553609014E-003;
2.408500000000000E+009;1.754795014858246E-001;5.239344201982021E-003;2.295315964147449E-003;-2.144784200936556E-003;
2.408666666666667E+009;1.747995167970657E-001;3.980563487857580E-003;2.285452792420983E-003;-2.110446104779840E-003;
2.408833333333334E+009;1.740795373916626E-001;2.990178763866425E-003;2.278314204886556E-003;-2.221436239778996E-003;
2.409000000000000E+009;1.733797192573547E-001;1.732684671878815E-003;2.163403667509556E-003;-2.325023990124464E-003;
2.409166666666667E+009;1.728945225477219E-001;3.138848114758730E-004;2.225402742624283E-003;-2.304707886651158E-003;
2.409333333333334E+009;1.721605062484741E-001;-1.205295906402171E-003;2.215705113485456E-003;-2.691021421924233E-003;
2.409500000000000E+009;1.715335249900818E-001;-2.727761631831527E-003;2.073623705655336E-003;-2.647756133228540E-003;
2.409666666666667E+009;1.708617061376572E-001;-4.239877685904503E-003;1.952163060195744E-003;-2.655013697221875E-003;
2.409833333333334E+009;1.701920330524445E-001;-5.898941773921251E-003;1.741840038448572E-003;-2.739393152296543E-003;
2.410000000000000E+009;1.697296798229218E-001;-7.704202551394701E-003;1.920182956382632E-003;-2.877139253541827E-003;
2.410166666666667E+009;1.694118827581406E-001;-9.427936747670174E-003;1.792366034351289E-003;-3.106633201241493E-003;
2.410333333333334E+009;1.688164919614792E-001;-1.106139086186886E-002;1.704339403659105E-003;-3.060280345380306E-003;
2.410500000000000E+009;1.683417558670044E-001;-1.309970393776894E-002;1.701141591183841E-003;-3.097872948274016E-003;
2.410666666666667E+009;1.680554896593094E-001;-1.516490709036589E-002;1.584034878760576E-003;-3.267732914537191E-003;
2.410833333333334E+009;1.679680496454239E-001;-1.691741682589054E-002;1.496676588431001E-003;-3.343203803524375E-003;
2.411000000000000E+009;1.677428185939789E-001;-1.884427852928639E-002;1.259039388969541E-003;-3.414416220039129E-003;
2.411166666666667E+009;1.675359606742859E-001;-2.101893536746502E-002;1.299603027291596E-003;-3.563522128388286E-003;
2.411333333333334E+009;1.675174385309219E-001;-2.266434952616692E-002;1.156007638201118E-003;-3.767624730244279E-003;
2.411500000000000E+009;1.676809191703796E-001;-2.486392110586166E-002;9.697510977275670E-004;-3.813776420429349E-003;
2.411666666666667E+009;1.678584665060043E-001;-2.683861367404461E-002;8.556883549317718E-004;-3.663733135908842E-003;
2.411833333333334E+009;1.677835285663605E-001;-2.863801643252373E-002;6.997141172178090E-004;-3.762140637263656E-003;
2.412000000000000E+009;1.683149933815002E-001;-3.068561293184757E-002;5.869032465852797E-004;-3.884991630911827E-003;
2.412166666666667E+009;1.683562099933624E-001;-3.261682391166687E-002;3.296523645985872E-004;-3.954607527703047E-003;
2.412333333333334E+009;1.689122021198273E-001;-3.415295854210854E-002;1.521008962299675E-004;-4.025608301162720E-003;
2.412500000000000E+009;1.693324297666550E-001;-3.606238216161728E-002;7.398632442345843E-005;-4.079946316778660E-003;
2.412666666666667E+009;1.697866618633270E-001;-3.798133134841919E-002;-7.312745583476499E-005;-4.119184799492359E-003;
2.412833333333334E+009;1.703945845365524E-001;-3.972889482975006E-002;-1.352351682726294E-004;-4.093743395060301E-003;
2.413000000000000E+009;1.709740906953812E-001;-4.123386740684509E-002;-4.903210792690516E-004;-3.952460829168558E-003;
2.413166666666667E+009;1.713388860225678E-001;-4.286757111549377E-002;-6.453852984122932E-004;-4.031048156321049E-003;
2.413333333333334E+009;1.720023602247238E-001;-4.437899589538574E-002;-5.921678966842592E-004;-4.111824091523886E-003;
2.413500000000000E+009;1.726898699998856E-001;-4.593439772725105E-002;-9.517824510112405E-004;-4.028364550322294E-003;
2.413666666666667E+009;1.733984053134918E-001;-4.741689190268517E-002;-1.093127182684839E-003;-3.962127491831780E-003;
2.413833333333334E+009;1.739498972892761E-001;-4.833228141069412E-002;-1.103922026231885E-003;-3.970697056502104E-003;
2.414000000000000E+009;1.745459884405136E-001;-4.962820559740067E-002;-1.467227120883763E-003;-3.864638740196824E-003;
2.414166666666667E+009;1.752435415983200E-001;-5.068730562925339E-002;-1.492829178459942E-003;-3.758746432140470E-003;
2.414333333333334E+009;1.757759153842926E-001;-5.187242105603218E-002;-1.666733995079994E-003;-3.811433911323547E-003;
2.414500000000000E+009;1.765051782131195E-001;-5.285824835300446E-002;-1.568548032082617E-003;-3.724112873896956E-003;
2.414666666666667E+009;1.769415289163590E-001;-5.355899780988693E-002;-1.894113374873996E-003;-3.444005036726594E-003;
2.414833333333334E+009;1.772270798683167E-001;-5.432193726301193E-002;-1.888427301310003E-003;-3.471176838502288E-003;
2.415000000000000E+009;1.775716245174408E-001;-5.482440069317818E-002;-2.225956646725535E-003;-3.398913191631436E-003;
2.415166666666667E+009;1.779139637947083E-001;-5.555975809693337E-002;-2.130469772964716E-003;-3.459853120148182E-003;
2.415333333333334E+009;1.783336997032166E-001;-5.604943260550499E-002;-2.343606669455767E-003;-3.202273743227124E-003;
2.415500000000000E+009;1.784778386354446E-001;-5.649518966674805E-002;-2.457058988511562E-003;-3.251275746151805E-003;
2.415666666666667E+009;1.786292046308518E-001;-5.690276250243187E-002;-2.408595755696297E-003;-3.096004948019981E-003;
2.415833333333334E+009;1.786534786224365E-001;-5.731188878417015E-002;-2.417253097519279E-003;-3.018189221620560E-003;
2.416000000000000E+009;1.784548461437225E-001;-5.762286111712456E-002;-2.710805507376790E-003;-2.724121091887355E-003;
2.416166666666667E+009;1.786235570907593E-001;-5.774389207363129E-002;-2.928062574937940E-003;-2.844827249646187E-003;
2.416333333333334E+009;1.784223169088364E-001;-5.807233974337578E-002;-2.960626035928726E-003;-2.638979349285364E-003;
2.416500000000000E+009;1.780725568532944E-001;-5.827382206916809E-002;-3.065297612920404E-003;-2.555971732363105E-003;
2.416666666666667E+009;1.775420606136322E-001;-5.843394994735718E-002;-2.996258903294802E-003;-2.481525996699929E-003;
2.416833333333334E+009;1.772226989269257E-001;-5.877047777175903E-002;-3.101431531831622E-003;-2.424715086817741E-003;
2.417000000000000E+009;1.764529347419739E-001;-5.884407088160515E-002;-3.237435827031732E-003;-2.310233889147639E-003;
2.417166666666667E+009;1.758459657430649E-001;-5.904863402247429E-002;-3.232024610042572E-003;-2.123096026480198E-003;
2.417333333333334E+009;1.751648932695389E-001;-5.934672430157661E-002;-3.277441253885627E-003;-2.049730392172933E-003;
2.417500000000000E+009;1.742647588253021E-001;-5.974702164530754E-002;-3.326665377244353E-003;-2.043736865743995E-003;
2.417666666666667E+009;1.734060347080231E-001;-5.987861007452011E-002;-3.247634507715702E-003;-1.704740454442799E-003;
2.417833333333334E+009;1.723890900611877E-001;-6.031062081456184E-002;-3.359552007168531E-003;-1.712374505586922E-003;
2.418000000000000E+009;1.713007837533951E-001;-6.086090952157974E-002;-3.335894783958793E-003;-1.644844887778163E-003;
2.418166666666667E+009;1.702050566673279E-001;-6.110031530261040E-002;-3.534947289153934E-003;-1.485768356360495E-003;
2.418333333333334E+009;1.692936569452286E-001;-6.162415072321892E-002;-3.498925827443600E-003;-1.467565423808992E-003;
2.418500000000000E+009;1.679528355598450E-001;-6.231750547885895E-002;-3.577452851459384E-003;-1.379466033540666E-003;
2.418666666666667E+009;1.669613867998123E-001;-6.304885447025299E-002;-3.519850317388773E-003;-1.164740882813931E-003;
2.418833333333334E+009;1.655758321285248E-001;-6.356499344110489E-002;-3.532675560563803E-003;-1.026560552418232E-003;
2.419000000000000E+009;1.642016917467117E-001;-6.441744416952133E-002;-3.538352204486728E-003;-8.790440624579787E-004;
2.419166666666667E+009;1.629627645015717E-001;-6.527832895517349E-002;-3.585766768082976E-003;-9.691687300801277E-004;
2.419333333333334E+009;1.616327464580536E-001;-6.585831195116043E-002;-3.602903569117189E-003;-8.607050403952599E-004;
2.419500000000000E+009;1.604753881692886E-001;-6.724398583173752E-002;-3.648875514045358E-003;-8.490553591400385E-004;
2.419666666666667E+009;1.594122946262360E-001;-6.828996539115906E-002;-3.666487988084555E-003;-6.747972802259028E-004;
2.419833333333334E+009;1.580358296632767E-001;-6.922581791877747E-002;-3.776665078476071E-003;-6.604162626899779E-004;
2.420000000000000E+009;1.570962667465210E-001;-7.061765342950821E-002;-3.634509164839983E-003;-5.693914135918021E-004;
2.420166666666667E+009;1.560641080141068E-001;-7.193873077630997E-002;-3.781427862122655E-003;-5.775316385552287E-004;
2.420333333333334E+009;1.551847904920578E-001;-7.337639480829239E-002;-3.813106101006270E-003;-4.116935597267002E-004;
2.420500000000000E+009;1.541481763124466E-001;-7.460962980985642E-002;-3.748388728126884E-003;-2.332131407456473E-004;
2.420666666666667E+009;1.532824337482452E-001;-7.604400813579559E-002;-3.857917618006468E-003;-1.881201169453561E-004;
2.420833333333334E+009;1.524410247802734E-001;-7.755392044782639E-002;-3.966748714447022E-003;-1.884851735667326E-005;
2.421000000000000E+009;1.515994071960449E-001;-7.917255163192749E-002;-3.863614052534103E-003;7.388390804408118E-005;
2.421166666666667E+009;1.512241512537003E-001;-8.075717091560364E-002;-3.893869230523706E-003;2.488647005520761E-004;
2.421333333333334E+009;1.507658511400223E-001;-8.239770680665970E-002;-3.824028419330716E-003;2.837037027347833E-004;
2.421500000000000E+009;1.501043140888214E-001;-8.402454107999802E-002;-3.928149119019508E-003;3.466074413154274E-004;
2.421666666666667E+009;1.497295349836350E-001;-8.572256565093994E-002;-3.715905826538801E-003;5.877550574950874E-004;
2.421833333333334E+009;1.496961116790772E-001;-8.746322244405747E-002;-3.872752888128161E-003;7.653899956494570E-004;
2.422000000000000E+009;1.493949145078659E-001;-8.905430883169174E-002;-3.950072452425957E-003;8.606669143773615E-004;
2.422166666666667E+009;1.492423564195633E-001;-9.113254398107529E-002;-3.843327285721898E-003;1.060169888660312E-003;
2.422333333333334E+009;1.494681686162949E-001;-9.263525903224945E-002;-3.796188859269023E-003;1.042985939420760E-003;
2.422500000000000E+009;1.493533849716187E-001;-9.413956105709076E-002;-3.804090432822704E-003;1.227145199663937E-003;
2.422666666666667E+009;1.494993269443512E-001;-9.598165750503540E-002;-3.916088026016951E-003;1.487686764448881E-003;
2.422833333333334E+009;1.497337371110916E-001;-9.752964973449707E-002;-3.835037816315889E-003;1.712763216346502E-003;
2.423000000000000E+009;1.500075608491898E-001;-9.908600896596909E-002;-3.769343020394445E-003;1.914983731694520E-003;
2.423166666666667E+009;1.504964828491211E-001;-1.007110401988030E-001;-3.678272245451808E-003;2.007843228057027E-003;
2.423333333333334E+009;1.509457677602768E-001;-1.018236204981804E-001;-3.729608142748475E-003;2.186005236580968E-003;
2.423500000000000E+009;1.513058841228485E-001;-1.034165471792221E-001;-3.424503607675433E-003;2.190348459407687E-003;
2.423666666666667E+009;1.516586095094681E-001;-1.050320118665695E-001;-3.480523126199842E-003;2.556034363806248E-003;
2.423833333333334E+009;1.522802412509918E-001;-1.062121614813805E-001;-3.367733675986528E-003;2.644133288413286E-003;
2.424000000000000E+009;1.526235342025757E-001;-1.073939874768257E-001;-3.226426197215915E-003;2.739951480180025E-003;
2.424166666666667E+009;1.531484723091126E-001;-1.085304319858551E-001;-3.065814264118671E-003;2.875201404094696E-003;
2.424333333333334E+009;1.537193804979324E-001;-1.093999594449997E-001;-2.882328117266297E-003;3.116203239187598E-003;
2.424500000000000E+009;1.542875468730927E-001;-1.105542555451393E-001;-2.750117797404528E-003;3.178866812959313E-003;
2.424666666666667E+009;1.547515392303467E-001;-1.112745106220245E-001;-2.670551650226116E-003;3.319693729281426E-003;
2.424833333333334E+009;1.551800966262817E-001;-1.121214255690575E-001;-2.425306709483266E-003;3.252263879403472E-003;
2.425000000000000E+009;1.556344479322434E-001;-1.129510924220085E-001;-2.249699085950851E-003;3.336767898872495E-003;
2.425166666666667E+009;1.558238118886948E-001;-1.135402247309685E-001;-2.203966025263071E-003;3.375443862751126E-003;
2.425333333333334E+009;1.562822908163071E-001;-1.142260357737541E-001;-1.970410579815507E-003;3.458345774561167E-003;
2.425500000000000E+009;1.565855294466019E-001;-1.147186383605003E-001;-1.683912123553455E-003;3.529405221343041E-003;
2.425666666666667E+009;1.565672904253006E-001;-1.150790899991989E-001;-1.506307628005743E-003;3.688975702971220E-003;
2.425833333333334E+009;1.568581014871597E-001;-1.155334860086441E-001;-1.486350083723664E-003;3.533818060532212E-003;
2.426000000000000E+009;1.570325940847397E-001;-1.159691810607910E-001;-1.240609679371119E-003;3.686933778226376E-003;
2.426166666666667E+009;1.569892317056656E-001;-1.161979958415031E-001;-9.829057380557060E-004;3.566741710528731E-003;
2.426333333333334E+009;1.568487733602524E-001;-1.164184063673019E-001;-8.758254116401076E-004;3.600286319851875E-003;
2.426500000000000E+009;1.567563265562058E-001;-1.164562478661537E-001;-7.678563706576824E-004;3.666225587949157E-003;
2.426666666666667E+009;1.566259115934372E-001;-1.165553629398346E-001;-7.181424880400300E-004;3.626901190727949E-003;
2.426833333333334E+009;1.562316715717316E-001;-1.167541295289993E-001;-4.615444340743125E-004;3.490866627544165E-003;
2.427000000000000E+009;1.557489633560181E-001;-1.169594526290894E-001;-2.599956060294062E-004;3.537317970767617E-003;
2.427166666666667E+009;1.552452892065048E-001;-1.168957650661469E-001;-2.290403499500826E-004;3.549792803823948E-003;
2.427333333333334E+009;1.545935869216919E-001;-1.170697584748268E-001;-2.947804750874639E-005;3.466557012870908E-003;
2.427500000000000E+009;1.540049761533737E-001;-1.172450929880142E-001;1.485188386141090E-005;3.177474252879620E-003;
2.427666666666667E+009;1.530080139636993E-001;-1.174105927348137E-001;-5.776849502581172E-005;3.302511526271701E-003;
