# Version 1.00
#
freq[Hz];re:Trc1_S11;im:Trc1_S11;re:Trc2_S21;im:Trc2_S21;
2.400000000000000E+009;1.576085984706879E-001;6.228236481547356E-002;-7.278103294083849E-005;1.132447272539139E-003;
2.400166666666667E+009;1.575386673212051E-001;6.086722761392593E-002;-5.973167208139785E-005;1.129552256315947E-003;
2.400333333333334E+009;1.574691236019135E-001;5.894279479980469E-002;1.473395677749068E-004;1.099463319405913E-003;
2.400500000000000E+009;1.573958992958069E-001;5.677579715847969E-002;1.527284039184451E-004;1.091988408006728E-003;
2.400666666666667E+009;1.573961675167084E-001;5.476112291216850E-002;1.740228981361724E-005;1.070583937689662E-003;
2.400833333333334E+009;1.574848741292954E-001;5.297449231147766E-002;6.811349885538220E-005;1.272327266633511E-003;
2.401000000000000E+009;1.577767878770828E-001;5.087818577885628E-002;1.955904008354992E-004;1.169751863926649E-003;
2.401166666666667E+009;1.578149348497391E-001;4.877028986811638E-002;2.918513564509340E-005;9.973786072805524E-004;
2.401333333333334E+009;1.579292863607407E-001;4.667462781071663E-002;1.796241267584264E-004;9.978755842894316E-004;
2.401500000000000E+009;1.583376526832581E-001;4.461593553423882E-002;1.165925277746283E-004;1.028562663123012E-003;
2.401666666666667E+009;1.585665345191956E-001;4.273473098874092E-002;1.249088381882757E-004;1.184044638648629E-003;
2.401833333333334E+009;1.590819805860519E-001;4.062131419777870E-002;1.296058962907409E-005;1.028474536724389E-003;
2.402000000000000E+009;1.594247519969940E-001;3.871541470289230E-002;1.372088154312223E-004;1.260200049728155E-003;
2.402166666666667E+009;1.600148230791092E-001;3.635523840785027E-002;6.929916708031669E-005;1.051381579600275E-003;
2.402333333333334E+009;1.605471074581146E-001;3.457496315240860E-002;6.212831067387015E-005;1.201451639644802E-003;
2.402500000000000E+009;1.616593897342682E-001;3.284823521971703E-002;2.421462559141219E-004;1.056565321050584E-003;
2.402666666666667E+009;1.621598303318024E-001;3.114039823412895E-002;1.064318785211071E-004;1.339846756309271E-003;
2.402833333333334E+009;1.628975123167038E-001;2.932308055460453E-002;3.110379475401714E-005;1.277972129173577E-003;
2.403000000000000E+009;1.636772602796555E-001;2.780403383076191E-002;1.017973700072616E-004;1.511931768618524E-003;
2.403166666666667E+009;1.646039485931397E-001;2.632958069443703E-002;2.605017216410488E-004;1.488289679400623E-003;
2.403333333333334E+009;1.654742658138275E-001;2.479891106486321E-002;2.002334949793294E-004;1.483379513956606E-003;
2.403500000000000E+009;1.663827598094940E-001;2.337000705301762E-002;4.404381033964455E-004;1.605949015356600E-003;
2.403666666666667E+009;1.673201769590378E-001;2.188884466886520E-002;3.555328294169158E-004;1.661011832766235E-003;
2.403833333333334E+009;1.684496700763702E-001;2.077417820692062E-002;5.363340023905039E-004;1.687336829490960E-003;
2.404000000000000E+009;1.694464236497879E-001;1.962989009916782E-002;3.540184407029301E-004;1.857282593846321E-003;
2.404166666666667E+009;1.704185605049133E-001;1.840569451451302E-002;6.387630128301680E-004;1.776320510543883E-003;
2.404333333333334E+009;1.714242249727249E-001;1.743651553988457E-002;6.625584792345762E-004;1.837425632402301E-003;
2.404500000000000E+009;1.723262518644333E-001;1.643981225788593E-002;8.668876835145056E-004;1.897191512398422E-003;
2.404666666666667E+009;1.731844097375870E-001;1.562087330967188E-002;9.244370157830417E-004;1.946417847648263E-003;
2.404833333333334E+009;1.742267906665802E-001;1.493181288242340E-002;1.011127373203635E-003;1.906291348859668E-003;
2.405000000000000E+009;1.751627027988434E-001;1.424091774970293E-002;1.102990820072591E-003;2.103538019582629E-003;
2.405166666666667E+009;1.760464608669281E-001;1.353238616138697E-002;1.124692033044994E-003;1.997130457311869E-003;
2.405333333333334E+009;1.768214106559753E-001;1.269659772515297E-002;1.525558182038367E-003;1.942233880981803E-003;
2.405500000000000E+009;1.775497943162918E-001;1.257455442100763E-002;1.460607163608074E-003;1.940061687491834E-003;
2.405666666666667E+009;1.780745834112167E-001;1.208419725298882E-002;1.574615482240915E-003;1.935189124196768E-003;
2.405833333333334E+009;1.787052154541016E-001;1.167440414428711E-002;1.680527580901980E-003;1.871984801255167E-003;
2.406000000000000E+009;1.793077439069748E-001;1.103202439844608E-002;2.034521428868175E-003;1.794983167201281E-003;
2.406166666666667E+009;1.796489655971527E-001;1.099921669811010E-002;2.029513707384467E-003;1.945162308402360E-003;
2.406333333333334E+009;1.802086830139160E-001;1.062265131622553E-002;2.083091065287590E-003;1.690493198111653E-003;
2.406500000000000E+009;1.805139482021332E-001;1.037033554166555E-002;2.267041476443410E-003;1.624519587494433E-003;
2.406666666666667E+009;1.805225312709808E-001;1.011309213936329E-002;2.391109475865960E-003;1.503958483226597E-003;
2.406833333333334E+009;1.807529777288437E-001;9.664532728493214E-003;2.635613083839417E-003;1.360635389573872E-003;
2.407000000000000E+009;1.808182150125504E-001;9.362558834254742E-003;2.648523775860667E-003;1.340789953246713E-003;
2.407166666666667E+009;1.809048354625702E-001;9.145862422883511E-003;2.852800767868757E-003;1.355328597128391E-003;
2.407333333333334E+009;1.806043237447739E-001;8.650728501379490E-003;2.802559873089194E-003;1.207517110742629E-003;
2.407500000000000E+009;1.804963946342468E-001;8.207675069570541E-003;2.856970299035311E-003;1.038943300954998E-003;
2.407666666666667E+009;1.802803426980972E-001;7.838869467377663E-003;2.959413919597864E-003;1.036047353409231E-003;
2.407833333333334E+009;1.797147393226624E-001;7.262267637997866E-003;2.988614840433002E-003;9.474607068113983E-004;
2.408000000000000E+009;1.795446574687958E-001;6.586179137229919E-003;3.033699234947562E-003;7.141336682252586E-004;
2.408166666666667E+009;1.790807545185089E-001;6.161041557788849E-003;3.231125418096781E-003;6.189015693962574E-004;
2.408333333333334E+009;1.787472069263458E-001;5.342891439795494E-003;3.197633894160390E-003;6.159361219033599E-004;
2.408500000000000E+009;1.780433654785156E-001;4.480994306504726E-003;3.325416706502438E-003;3.366000019013882E-004;
2.408666666666667E+009;1.775038838386536E-001;3.449972253292799E-003;3.150114091113210E-003;2.146514452761039E-004;
2.408833333333334E+009;1.765956729650497E-001;2.623282605782151E-003;3.460591426119208E-003;1.336153654847294E-004;
2.409000000000000E+009;1.760302931070328E-001;1.644296920858324E-003;3.448945935815573E-003;-7.129341975087300E-005;
2.409166666666667E+009;1.754173338413239E-001;4.448851395864040E-004;3.544567618519068E-003;-2.280648914165795E-004;
2.409333333333334E+009;1.746682375669479E-001;-8.875592029653490E-004;3.412114456295967E-003;-3.123351489193738E-004;
2.409500000000000E+009;1.740058660507202E-001;-2.194150816649199E-003;3.508942900225520E-003;-4.518094065133482E-004;
2.409666666666667E+009;1.732188016176224E-001;-3.635208355262876E-003;3.553355578333139E-003;-6.149383843876422E-004;
2.409833333333334E+009;1.724985688924789E-001;-5.115947686135769E-003;3.610858926549554E-003;-8.061298285610974E-004;
2.410000000000000E+009;1.718693375587463E-001;-6.424643564969301E-003;3.520163707435131E-003;-8.732865680940449E-004;
2.410166666666667E+009;1.712445616722107E-001;-8.092888630926609E-003;3.487078472971916E-003;-1.116074738092721E-003;
2.410333333333334E+009;1.706918627023697E-001;-9.733838960528374E-003;3.610065905377269E-003;-1.163247157819569E-003;
2.410500000000000E+009;1.701517552137375E-001;-1.154601573944092E-002;3.424285678192973E-003;-1.509454450570047E-003;
2.410666666666667E+009;1.696517169475555E-001;-1.338209491223097E-002;3.595671383664012E-003;-1.591252628713846E-003;
2.410833333333334E+009;1.692529618740082E-001;-1.514484733343124E-002;3.449417417868972E-003;-1.862599165178835E-003;
2.411000000000000E+009;1.687585413455963E-001;-1.707430928945541E-002;3.278981428593397E-003;-2.046857960522175E-003;
2.411166666666667E+009;1.684250980615616E-001;-1.895410008728504E-002;3.255731193348765E-003;-2.134870970621705E-003;
2.411333333333334E+009;1.681631505489349E-001;-2.093481458723545E-002;3.208645386621356E-003;-2.221749629825354E-003;
2.411500000000000E+009;1.677545458078384E-001;-2.282042987644672E-002;3.165253903716803E-003;-2.315284684300423E-003;
2.411666666666667E+009;1.680993437767029E-001;-2.472813241183758E-002;2.981883240863681E-003;-2.764206379652023E-003;
2.411833333333334E+009;1.678895056247711E-001;-2.678382582962513E-002;2.908399561420083E-003;-2.783008385449648E-003;
2.412000000000000E+009;1.680427491664887E-001;-2.870344929397106E-002;2.716668881475925E-003;-3.022912889719009E-003;
2.412166666666667E+009;1.680064946413040E-001;-3.061400912702084E-002;2.699477365240455E-003;-3.285280661657453E-003;
2.412333333333334E+009;1.683082282543182E-001;-3.267488628625870E-002;2.443743404000998E-003;-3.173177596181631E-003;
2.412500000000000E+009;1.682810783386231E-001;-3.450114652514458E-002;2.345339162275195E-003;-3.385761985555291E-003;
2.412666666666667E+009;1.686826646327972E-001;-3.638482466340065E-002;2.225178061053157E-003;-3.577567171305418E-003;
2.412833333333334E+009;1.690576225519180E-001;-3.832168132066727E-002;2.137413248419762E-003;-3.545310581102967E-003;
2.413000000000000E+009;1.695313900709152E-001;-3.998961672186852E-002;1.830076100304723E-003;-3.760565537959337E-003;
2.413166666666667E+009;1.698548048734665E-001;-4.165535420179367E-002;1.703414367511869E-003;-3.781115636229515E-003;
2.413333333333334E+009;1.701215952634811E-001;-4.342773556709290E-002;1.590314786881208E-003;-3.892994718626142E-003;
2.413500000000000E+009;1.708290576934815E-001;-4.505964368581772E-002;1.349173253402114E-003;-3.919584676623344E-003;
2.413666666666667E+009;1.714039444923401E-001;-4.653307795524597E-002;1.121877576224506E-003;-4.091043490916491E-003;
2.413833333333334E+009;1.717748939990997E-001;-4.814723506569862E-002;1.048014033585787E-003;-3.962259273976088E-003;
2.414000000000000E+009;1.723715960979462E-001;-4.934199526906014E-002;7.140472298488021E-004;-4.024126566946507E-003;
2.414166666666667E+009;1.731787174940109E-001;-5.063112452626228E-002;4.730625660158694E-004;-4.120544996112585E-003;
2.414333333333334E+009;1.736019551753998E-001;-5.180272832512856E-002;4.920419887639582E-004;-4.052344243973494E-003;
2.414500000000000E+009;1.743941903114319E-001;-5.299512296915054E-002;1.665075542405248E-004;-4.063238855451345E-003;
2.414666666666667E+009;1.746756583452225E-001;-5.403174832463265E-002;-4.181443000561558E-005;-4.052136559039354E-003;
2.414833333333334E+009;1.751864552497864E-001;-5.498792976140976E-002;-1.836430747061968E-004;-4.172808490693569E-003;
2.415000000000000E+009;1.756884902715683E-001;-5.586715415120125E-002;-5.069114849902690E-004;-4.038012120872736E-003;
2.415166666666667E+009;1.761788576841354E-001;-5.643807724118233E-002;-6.076831487007439E-004;-3.921845462173224E-003;
2.415333333333334E+009;1.765677332878113E-001;-5.731532350182533E-002;-8.415561751462519E-004;-3.857780946418643E-003;
2.415500000000000E+009;1.769215762615204E-001;-5.773530527949333E-002;-9.866295149549842E-004;-3.818865632638335E-003;
2.415666666666667E+009;1.772007495164871E-001;-5.824303254485130E-002;-9.430528152734041E-004;-3.933930769562721E-003;
2.415833333333334E+009;1.775527745485306E-001;-5.875347927212715E-002;-1.328139216639102E-003;-3.660343354567885E-003;
2.416000000000000E+009;1.774794459342957E-001;-5.915482714772224E-002;-1.382110291160643E-003;-3.665399504825473E-003;
2.416166666666667E+009;1.776459366083145E-001;-5.955256521701813E-002;-1.573393819853663E-003;-3.651494160294533E-003;
2.416333333333334E+009;1.775657236576080E-001;-5.997223034501076E-002;-1.780107268132269E-003;-3.611523192375898E-003;
2.416500000000000E+009;1.775159239768982E-001;-6.020759791135788E-002;-1.839307253248990E-003;-3.425792325288057E-003;
2.416666666666667E+009;1.772747635841370E-001;-6.038525700569153E-002;-1.920799957588315E-003;-3.178586019203067E-003;
2.416833333333334E+009;1.770897805690765E-001;-6.073582917451859E-002;-2.091008471325040E-003;-3.208900801837444E-003;
2.417000000000000E+009;1.766242980957031E-001;-6.094863638281822E-002;-2.243891824036837E-003;-2.949521644040942E-003;
2.417166666666667E+009;1.762257367372513E-001;-6.099374964833260E-002;-2.307361457496882E-003;-2.874690340831876E-003;
2.417333333333334E+009;1.756052076816559E-001;-6.125258654356003E-002;-2.250052057206631E-003;-2.899864688515663E-003;
2.417500000000000E+009;1.749465167522430E-001;-6.163507327437401E-002;-2.444120589643717E-003;-2.644281834363937E-003;
2.417666666666667E+009;1.744233816862106E-001;-6.169796362519264E-002;-2.460284857079387E-003;-2.514278050512075E-003;
2.417833333333334E+009;1.735456883907318E-001;-6.192840263247490E-002;-2.628260292112827E-003;-2.373308641836047E-003;
2.418000000000000E+009;1.725964099168778E-001;-6.243434920907021E-002;-2.496637171134353E-003;-2.460758667439222E-003;
2.418166666666667E+009;1.717097610235214E-001;-6.254127621650696E-002;-2.682645106688142E-003;-2.279735868796706E-003;
2.418333333333334E+009;1.708507090806961E-001;-6.301564723253250E-002;-2.726179081946611E-003;-2.208324382081628E-003;
2.418500000000000E+009;1.698176711797714E-001;-6.346639245748520E-002;-2.781893825158477E-003;-2.054776297882199E-003;
2.418666666666667E+009;1.686521172523499E-001;-6.393633782863617E-002;-2.819103654474020E-003;-2.025297842919827E-003;
2.418833333333334E+009;1.674318462610245E-001;-6.457701325416565E-002;-2.739374525845051E-003;-1.829441287554801E-003;
2.419000000000000E+009;1.661399453878403E-001;-6.515101343393326E-002;-2.672495786100626E-003;-1.831264817155898E-003;
2.419166666666667E+009;1.649935394525528E-001;-6.581304222345352E-002;-2.871995326131582E-003;-1.752906013280153E-003;
2.419333333333334E+009;1.637446582317352E-001;-6.644499301910400E-002;-2.777924528345466E-003;-1.512559712864459E-003;
2.419500000000000E+009;1.625911146402359E-001;-6.741021573543549E-002;-2.827933058142662E-003;-1.607787329703569E-003;
2.419666666666667E+009;1.614546924829483E-001;-6.835097819566727E-002;-2.835412509739399E-003;-1.471294206567109E-003;
2.419833333333334E+009;1.602337807416916E-001;-6.915772706270218E-002;-2.921176841482520E-003;-1.434778445400298E-003;
2.420000000000000E+009;1.592080146074295E-001;-7.033753395080566E-002;-3.033664077520371E-003;-1.316603971645236E-003;
2.420166666666667E+009;1.579259186983109E-001;-7.139575481414795E-002;-3.015159862115979E-003;-1.291163964197040E-003;
2.420333333333334E+009;1.568526327610016E-001;-7.270801067352295E-002;-3.002730663865805E-003;-1.331402454525232E-003;
2.420500000000000E+009;1.557475030422211E-001;-7.387196272611618E-002;-3.077490488067269E-003;-1.121304696425796E-003;
2.420666666666667E+009;1.548162251710892E-001;-7.523098587989807E-002;-3.040546784177423E-003;-1.169048249721527E-003;
2.420833333333334E+009;1.540233790874481E-001;-7.658365368843079E-002;-3.152383724227548E-003;-9.960850002244115E-004;
2.421000000000000E+009;1.530855596065521E-001;-7.829373329877853E-002;-3.148366929963231E-003;-8.294216240756214E-004;
2.421166666666667E+009;1.524184644222260E-001;-7.967816293239594E-002;-3.224986605346203E-003;-8.184910402633250E-004;
2.421333333333334E+009;1.517204344272614E-001;-8.115036785602570E-002;-3.309726016595960E-003;-5.227259825915098E-004;
2.421500000000000E+009;1.510668247938156E-001;-8.288463950157166E-002;-3.255429910495877E-003;-5.440012901090086E-004;
2.421666666666667E+009;1.506596207618713E-001;-8.466614782810211E-002;-3.346904413774610E-003;-4.746917693410069E-004;
2.421833333333334E+009;1.501276195049286E-001;-8.616117388010025E-002;-3.437882754951716E-003;-3.702391404658556E-004;
2.422000000000000E+009;1.497710347175598E-001;-8.785863220691681E-002;-3.458516905084252E-003;-2.843278343789280E-004;
2.422166666666667E+009;1.495397388935089E-001;-8.989046514034271E-002;-3.456508275121450E-003;-2.391820817138068E-005;
2.422333333333334E+009;1.493780016899109E-001;-9.133531153202057E-002;-3.602088894695044E-003;-1.566793798701838E-005;
2.422500000000000E+009;1.491562873125076E-001;-9.299675375223160E-002;-3.548537613824010E-003;1.954427862074226E-004;
2.422666666666667E+009;1.491431891918182E-001;-9.476727992296219E-002;-3.433628706261516E-003;4.219028633087874E-004;
2.422833333333334E+009;1.493775099515915E-001;-9.645106643438339E-002;-3.497034078463912E-003;5.889981985092163E-004;
2.423000000000000E+009;1.494915485382080E-001;-9.822621196508408E-002;-3.558332799002528E-003;7.301531150005758E-004;
2.423166666666667E+009;1.497467607259750E-001;-9.984430670738220E-002;-3.517532953992486E-003;8.690199465490878E-004;
2.423333333333334E+009;1.501945555210114E-001;-1.012692004442215E-001;-3.500664606690407E-003;1.110893557779491E-003;
2.423500000000000E+009;1.503523141145706E-001;-1.029027178883553E-001;-3.295941045507789E-003;1.307783066295087E-003;
2.423666666666667E+009;1.505135446786881E-001;-1.045543849468231E-001;-3.267654450610280E-003;1.303359866142273E-003;
2.423833333333334E+009;1.510166078805924E-001;-1.058853939175606E-001;-3.135649720206857E-003;1.402389490976930E-003;
2.424000000000000E+009;1.513562500476837E-001;-1.071145907044411E-001;-3.199144266545773E-003;1.660049660131335E-003;
2.424166666666667E+009;1.518514156341553E-001;-1.084484681487083E-001;-3.025450045242906E-003;1.843843609094620E-003;
2.424333333333334E+009;1.524346470832825E-001;-1.094916835427284E-001;-2.858353313058615E-003;2.184188459068537E-003;
2.424500000000000E+009;1.529221683740616E-001;-1.107544153928757E-001;-2.683245344087482E-003;2.197140827775002E-003;
2.424666666666667E+009;1.533893644809723E-001;-1.117188781499863E-001;-2.593379933387041E-003;2.432899316772819E-003;
2.424833333333334E+009;1.538135409355164E-001;-1.127483695745468E-001;-2.418690593913198E-003;2.401542617008090E-003;
2.425000000000000E+009;1.543812602758408E-001;-1.137351468205452E-001;-2.324084518477321E-003;2.543912036344409E-003;
2.425166666666667E+009;1.546420007944107E-001;-1.144695356488228E-001;-2.052224008366466E-003;2.573311561718583E-003;
2.425333333333334E+009;1.551044732332230E-001;-1.150932684540749E-001;-2.012868179008365E-003;2.783051691949368E-003;
2.425500000000000E+009;1.555518060922623E-001;-1.159329563379288E-001;-1.866912120021880E-003;2.734668785706163E-003;
2.425666666666667E+009;1.556254923343658E-001;-1.163526400923729E-001;-1.581937074661255E-003;2.906628418713808E-003;
2.425833333333334E+009;1.559789329767227E-001;-1.169540211558342E-001;-1.376552274450660E-003;2.923979191109538E-003;
2.426000000000000E+009;1.560393273830414E-001;-1.174798011779785E-001;-1.367113436572254E-003;2.904821885749698E-003;
2.426166666666667E+009;1.562881469726563E-001;-1.178429797291756E-001;-1.036382280290127E-003;2.776953391730785E-003;
2.426333333333334E+009;1.561850011348724E-001;-1.181757748126984E-001;-8.308153483085334E-004;2.803439740091562E-003;
2.426500000000000E+009;1.564177572727203E-001;-1.183736398816109E-001;-7.755528204143047E-004;2.677145879715681E-003;
2.426666666666667E+009;1.563863903284073E-001;-1.184206306934357E-001;-5.357092013582587E-004;2.735566115006805E-003;
2.426833333333334E+009;1.560420989990234E-001;-1.186608821153641E-001;-4.923029919154942E-004;2.836029510945082E-003;
2.427000000000000E+009;1.557621806859970E-001;-1.188486292958260E-001;-3.731502802111208E-004;2.645521191880107E-003;
2.427166666666667E+009;1.553241461515427E-001;-1.188527494668961E-001;-1.238355616806075E-004;2.616221783682704E-003;
2.427333333333334E+009;1.548511683940888E-001;-1.188642755150795E-001;-7.260664278874174E-005;2.533709164708853E-003;
2.427500000000000E+009;1.543992906808853E-001;-1.189057826995850E-001;3.580610064091161E-005;2.422489691525698E-003;
2.427666666666667E+009;1.536460071802139E-001;-1.191064193844795E-001;1.659533154452220E-004;2.387580927461386E-003;
