# Version 1.00
#
freq[Hz];re:Trc1_S11;im:Trc1_S11;re:Trc2_S21;im:Trc2_S21;
2.400000000000000E+009;1.576342582702637E-001;6.250600516796112E-002;-3.983358037658036E-004;1.223376370035112E-003;
2.400166666666667E+009;1.575165092945099E-001;6.093592569231987E-002;-2.263666538055986E-004;1.251349924132228E-003;
2.400333333333334E+009;1.574051827192307E-001;5.881596356630325E-002;-2.771486761048436E-004;1.470660674385727E-003;
2.400500000000000E+009;1.573303192853928E-001;5.696756020188332E-002;-2.964428276754916E-004;1.443839399144054E-003;
2.400666666666667E+009;1.572592556476593E-001;5.495333299040794E-002;-2.630094240885228E-004;1.324770157225430E-003;
2.400833333333334E+009;1.574895828962326E-001;5.309561640024185E-002;-2.462041156832129E-004;1.347967539913952E-003;
2.401000000000000E+009;1.575647145509720E-001;5.102903768420219E-002;-1.700654102023691E-004;1.331652747467160E-003;
2.401166666666667E+009;1.578332632780075E-001;4.887188971042633E-002;-1.914978638524190E-004;1.458558486774564E-003;
2.401333333333334E+009;1.578861474990845E-001;4.693698883056641E-002;-1.884271914605051E-004;1.456468948163092E-003;
2.401500000000000E+009;1.582937240600586E-001;4.475014284253120E-002;-7.523703970946372E-005;1.416000071913004E-003;
2.401666666666667E+009;1.586196720600128E-001;4.288734868168831E-002;-1.167684895335697E-004;1.420979038812220E-003;
2.401833333333334E+009;1.590227633714676E-001;4.061055928468704E-002;-1.881268399301916E-004;1.590127125382423E-003;
2.402000000000000E+009;1.594287902116776E-001;3.868015483021736E-002;-1.162785556516610E-004;1.437951810657978E-003;
2.402166666666667E+009;1.600597947835922E-001;3.661291301250458E-002;-1.146609865827486E-004;1.596883754245937E-003;
2.402333333333334E+009;1.606674492359161E-001;3.491227701306343E-002;-1.047683545039035E-004;1.601760508492589E-003;
2.402500000000000E+009;1.615539193153381E-001;3.302721679210663E-002;-4.516738772508688E-005;1.678336295299232E-003;
2.402666666666667E+009;1.620140969753265E-001;3.126702085137367E-002;-1.638542585169489E-006;1.707477844320238E-003;
2.402833333333334E+009;1.628203094005585E-001;2.955738641321659E-002;-9.013291855808348E-005;1.771323033608496E-003;
2.403000000000000E+009;1.637855619192123E-001;2.786551602184773E-002;1.419819454895333E-004;1.746603054925799E-003;
2.403166666666667E+009;1.644963622093201E-001;2.624386548995972E-002;1.710305368760601E-004;1.838435768149793E-003;
2.403333333333334E+009;1.655171960592270E-001;2.494774013757706E-002;1.583730772836134E-004;1.947816228494048E-003;
2.403500000000000E+009;1.663829684257507E-001;2.341153100132942E-002;2.021581894950941E-004;1.979108434170485E-003;
2.403666666666667E+009;1.675077080726624E-001;2.205152064561844E-002;3.350678889546543E-004;2.087756991386414E-003;
2.403833333333334E+009;1.685174107551575E-001;2.074642665684223E-002;4.726667830254883E-004;2.120758173987269E-003;
2.404000000000000E+009;1.696028709411621E-001;1.947936043143272E-002;5.935307126492262E-004;2.192503074184060E-003;
2.404166666666667E+009;1.704652160406113E-001;1.853991113603115E-002;5.898171220906079E-004;2.210259437561035E-003;
2.404333333333334E+009;1.715250909328461E-001;1.743947528302670E-002;9.034725371748209E-004;2.212399384006858E-003;
2.404500000000000E+009;1.723733544349670E-001;1.639182120561600E-002;8.633129764348269E-004;2.226571086794138E-003;
2.404666666666667E+009;1.733365356922150E-001;1.566581241786480E-002;1.187186222523451E-003;2.260713372379541E-003;
2.404833333333334E+009;1.742563545703888E-001;1.476930454373360E-002;1.126711256802082E-003;2.432174049317837E-003;
2.405000000000000E+009;1.752401739358902E-001;1.407437305897474E-002;1.213584793731570E-003;2.256855601444840E-003;
2.405166666666667E+009;1.759471893310547E-001;1.353429537266493E-002;1.405437942594290E-003;2.397827804088593E-003;
2.405333333333334E+009;1.769303381443024E-001;1.279827393591404E-002;1.586470054462552E-003;2.364730462431908E-003;
2.405500000000000E+009;1.775906980037689E-001;1.249065529555082E-002;1.797119970433414E-003;2.302513923496008E-003;
2.405666666666667E+009;1.781767308712006E-001;1.190909091383219E-002;1.953813945874572E-003;2.098294673487544E-003;
2.405833333333334E+009;1.785820424556732E-001;1.165985316038132E-002;1.880360650829971E-003;2.183318836614490E-003;
2.406000000000000E+009;1.793087869882584E-001;1.126890815794468E-002;2.220099326223135E-003;2.009990159422159E-003;
2.406166666666667E+009;1.796613484621048E-001;1.103420089930296E-002;2.246718620881438E-003;1.892720814794302E-003;
2.406333333333334E+009;1.801412552595139E-001;1.074277330189943E-002;2.256883773952723E-003;1.996525330469012E-003;
2.406500000000000E+009;1.804015338420868E-001;1.024869550019503E-002;2.516864100471139E-003;1.842287252657116E-003;
2.406666666666667E+009;1.805008053779602E-001;1.007881667464972E-002;2.604153007268906E-003;1.734945923089981E-003;
2.406833333333334E+009;1.807592660188675E-001;9.692204184830189E-003;2.789868507534266E-003;1.734297024086118E-003;
2.407000000000000E+009;1.808614432811737E-001;9.459413588047028E-003;2.847135765478015E-003;1.492981566116214E-003;
2.407166666666667E+009;1.808391958475113E-001;9.125536307692528E-003;2.993228379637003E-003;1.484037027694285E-003;
2.407333333333334E+009;1.807743757963181E-001;8.600600063800812E-003;3.255591960623860E-003;1.333147520199418E-003;
2.407500000000000E+009;1.805267482995987E-001;8.256788365542889E-003;3.165621310472488E-003;1.165833557024598E-003;
2.407666666666667E+009;1.803013682365418E-001;7.949664257466793E-003;3.263498889282346E-003;1.151251490227878E-003;
2.407833333333334E+009;1.799071878194809E-001;7.145326118916273E-003;3.333766013383865E-003;8.400763617828488E-004;
2.408000000000000E+009;1.795511096715927E-001;6.640106439590454E-003;3.292562672868371E-003;8.279444882646203E-004;
2.408166666666667E+009;1.791082918643951E-001;6.026687566190958E-003;3.497051540762186E-003;7.869234541431069E-004;
2.408333333333334E+009;1.786574572324753E-001;5.236732773482800E-003;3.439778462052345E-003;4.865667142439634E-004;
2.408500000000000E+009;1.780717074871063E-001;4.439809359610081E-003;3.474228782579303E-003;4.893783479928970E-004;
2.408666666666667E+009;1.774260401725769E-001;3.598219249397516E-003;3.622795920819044E-003;2.093342482112348E-004;
2.408833333333334E+009;1.767583638429642E-001;2.469170140102506E-003;3.580864984542131E-003;1.270684297196567E-004;
2.409000000000000E+009;1.760997325181961E-001;1.425517140887678E-003;3.577942727133632E-003;-5.205446313993889E-007;
2.409166666666667E+009;1.752554923295975E-001;2.021194231929258E-004;3.766338806599379E-003;-2.101893478538841E-004;
2.409333333333334E+009;1.748411655426025E-001;-8.861671667546034E-004;3.815520321950316E-003;-2.673850685823709E-004;
2.409500000000000E+009;1.739165186882019E-001;-2.350860740989447E-003;3.724838839843869E-003;-5.760140484198928E-004;
2.409666666666667E+009;1.733046472072601E-001;-3.639634000137448E-003;3.777164267376065E-003;-6.704912520945072E-004;
2.409833333333334E+009;1.724535375833511E-001;-4.887274000793695E-003;3.895437112078071E-003;-7.696545799262822E-004;
2.410000000000000E+009;1.720066964626312E-001;-6.472855806350708E-003;3.740634536370635E-003;-9.493081015534699E-004;
2.410166666666667E+009;1.713430881500244E-001;-8.152469061315060E-003;3.931073006242514E-003;-1.160805928520858E-003;
2.410333333333334E+009;1.706913262605667E-001;-9.871874935925007E-003;3.740619635209441E-003;-1.353957457467914E-003;
2.410500000000000E+009;1.700244098901749E-001;-1.158848870545626E-002;3.605855396017432E-003;-1.482647494412959E-003;
2.410666666666667E+009;1.695776432752609E-001;-1.356864906847477E-002;3.685306990519166E-003;-1.710624550469220E-003;
2.410833333333334E+009;1.691548526287079E-001;-1.504258718341589E-002;3.667795099318028E-003;-1.742020016536117E-003;
2.411000000000000E+009;1.687340140342712E-001;-1.704134978353977E-002;3.660578979179263E-003;-2.072890754789114E-003;
2.411166666666667E+009;1.684091240167618E-001;-1.899752579629421E-002;3.601679578423500E-003;-2.245503012090921E-003;
2.411333333333334E+009;1.680469214916229E-001;-2.089745178818703E-002;3.578575095161796E-003;-2.411491470411420E-003;
2.411500000000000E+009;1.677846014499664E-001;-2.290111780166626E-002;3.435651771724224E-003;-2.532967133447528E-003;
2.411666666666667E+009;1.678615808486939E-001;-2.489517815411091E-002;3.067726967856288E-003;-2.866056747734547E-003;
2.411833333333334E+009;1.677846014499664E-001;-2.666600979864597E-002;3.092044033110142E-003;-3.031285945326090E-003;
2.412000000000000E+009;1.679634898900986E-001;-2.876641042530537E-002;3.051307052373886E-003;-3.170889336615801E-003;
2.412166666666667E+009;1.679100245237351E-001;-3.079292923212051E-002;2.875914564356208E-003;-3.234368748962879E-003;
2.412333333333334E+009;1.682877242565155E-001;-3.255849331617355E-002;2.690813038498163E-003;-3.432591678574681E-003;
2.412500000000000E+009;1.683062463998795E-001;-3.439659997820854E-002;2.618202241137624E-003;-3.530927468091250E-003;
2.412666666666667E+009;1.686754524707794E-001;-3.654442727565765E-002;2.541190246120095E-003;-3.617642680183053E-003;
2.412833333333334E+009;1.691285371780396E-001;-3.828148171305656E-002;2.243273891508579E-003;-3.863089717924595E-003;
2.413000000000000E+009;1.694230437278748E-001;-3.995284065604210E-002;1.983700785785914E-003;-3.860834520310164E-003;
2.413166666666667E+009;1.698402017354965E-001;-4.175916314125061E-002;1.919253845699132E-003;-4.080224316567183E-003;
2.413333333333334E+009;1.701891273260117E-001;-4.346882924437523E-002;1.620510127395392E-003;-4.099966958165169E-003;
2.413500000000000E+009;1.708103865385056E-001;-4.507440328598023E-002;1.384301111102104E-003;-4.110347013920546E-003;
2.413666666666667E+009;1.714340895414352E-001;-4.668750241398811E-002;1.360817463137209E-003;-4.201082978397608E-003;
2.413833333333334E+009;1.719053536653519E-001;-4.792433977127075E-002;1.177994417957962E-003;-4.299338441342115E-003;
2.414000000000000E+009;1.721303164958954E-001;-4.945815727114677E-002;9.583134669810534E-004;-4.264789633452892E-003;
2.414166666666667E+009;1.730081439018250E-001;-5.067449435591698E-002;6.318004452623427E-004;-4.285871051251888E-003;
2.414333333333334E+009;1.736687719821930E-001;-5.191426724195480E-002;4.972443566657603E-004;-4.303182940930128E-003;
2.414500000000000E+009;1.742587685585022E-001;-5.291770771145821E-002;4.071609582751989E-004;-4.264807794243097E-003;
2.414666666666667E+009;1.746819615364075E-001;-5.396084114909172E-002;1.056863839039579E-004;-4.313653800636530E-003;
2.414833333333334E+009;1.752449721097946E-001;-5.479245632886887E-002;-1.109379445551895E-004;-4.350626375526190E-003;
2.415000000000000E+009;1.756324172019959E-001;-5.565929412841797E-002;-2.851024328265339E-004;-4.073583520948887E-003;
2.415166666666667E+009;1.760612130165100E-001;-5.657319724559784E-002;-4.571358149405569E-004;-4.185382276773453E-003;
2.415333333333334E+009;1.766079217195511E-001;-5.718390271067619E-002;-7.954859174787998E-004;-4.147590603679419E-003;
2.415500000000000E+009;1.768714785575867E-001;-5.768899619579315E-002;-8.919450920075178E-004;-4.040380939841270E-003;
2.415666666666667E+009;1.771442443132401E-001;-5.828310549259186E-002;-1.185670727863908E-003;-3.986082039773464E-003;
2.415833333333334E+009;1.775141954421997E-001;-5.888082832098007E-002;-1.401975168846548E-003;-3.972131293267012E-003;
2.416000000000000E+009;1.774760037660599E-001;-5.922770500183106E-002;-1.416164217516780E-003;-3.854821901768446E-003;
2.416166666666667E+009;1.777013838291168E-001;-5.948762223124504E-002;-1.621701871044934E-003;-3.660097019746900E-003;
2.416333333333334E+009;1.774057298898697E-001;-5.978041887283325E-002;-1.722169108688831E-003;-3.646715776994824E-003;
2.416500000000000E+009;1.774927228689194E-001;-6.011848524212837E-002;-1.838243566453457E-003;-3.463314380496740E-003;
2.416666666666667E+009;1.772498190402985E-001;-6.035195291042328E-002;-1.940705464221537E-003;-3.424017690122128E-003;
2.416833333333334E+009;1.770834624767304E-001;-6.060929968953133E-002;-2.207403536885977E-003;-3.203966422006488E-003;
2.417000000000000E+009;1.765849441289902E-001;-6.085062026977539E-002;-2.235483843833208E-003;-3.203544532880187E-003;
2.417166666666667E+009;1.761539578437805E-001;-6.094282865524292E-002;-2.208184450864792E-003;-3.236558288335800E-003;
2.417333333333334E+009;1.756486445665360E-001;-6.112209707498550E-002;-2.385978819802404E-003;-2.917144680395722E-003;
2.417500000000000E+009;1.749434173107147E-001;-6.162715330719948E-002;-2.461222000420094E-003;-2.839355729520321E-003;
2.417666666666667E+009;1.743519455194473E-001;-6.165689975023270E-002;-2.471276558935642E-003;-2.608919283375144E-003;
2.417833333333334E+009;1.735850274562836E-001;-6.185350939631462E-002;-2.503184834495187E-003;-2.663536928594112E-003;
2.418000000000000E+009;1.725512742996216E-001;-6.245048716664314E-002;-2.571069635450840E-003;-2.326013287529349E-003;
2.418166666666667E+009;1.717149317264557E-001;-6.248628720641136E-002;-2.640055259689689E-003;-2.286486327648163E-003;
2.418333333333334E+009;1.709978580474854E-001;-6.294525414705277E-002;-2.644131192937493E-003;-2.226797863841057E-003;
2.418500000000000E+009;1.697757989168167E-001;-6.331526488065720E-002;-2.784718526527286E-003;-2.094982890412211E-003;
2.418666666666667E+009;1.687162965536118E-001;-6.390389055013657E-002;-2.791752573102713E-003;-2.077147364616394E-003;
2.418833333333334E+009;1.673224419355393E-001;-6.436831504106522E-002;-2.809072844684124E-003;-1.950034755282104E-003;
2.419000000000000E+009;1.661703437566757E-001;-6.497142463922501E-002;-2.916212193667889E-003;-1.863749814219773E-003;
2.419166666666667E+009;1.650263220071793E-001;-6.573336571455002E-002;-3.020778298377991E-003;-1.803258084692061E-003;
2.419333333333334E+009;1.636929810047150E-001;-6.631868332624435E-002;-3.044087905436754E-003;-1.878213719464839E-003;
2.419500000000000E+009;1.626186072826386E-001;-6.728956848382950E-002;-2.945741638541222E-003;-1.657131244428456E-003;
2.419666666666667E+009;1.614842116832733E-001;-6.814841181039810E-002;-3.022413235157728E-003;-1.598681090399623E-003;
2.419833333333334E+009;1.602296978235245E-001;-6.926152110099793E-002;-2.993660746142268E-003;-1.535999472253025E-003;
2.420000000000000E+009;1.591571718454361E-001;-7.028232514858246E-002;-3.090992104262114E-003;-1.497850287705660E-003;
2.420166666666667E+009;1.580433845520020E-001;-7.139407843351364E-002;-3.055014414712787E-003;-1.430931966751814E-003;
2.420333333333334E+009;1.568564921617508E-001;-7.263256609439850E-002;-3.069765632972121E-003;-1.328354701399803E-003;
2.420500000000000E+009;1.559848487377167E-001;-7.384949922561646E-002;-3.101289505138993E-003;-1.159823616035283E-003;
2.420666666666667E+009;1.549436002969742E-001;-7.516279071569443E-002;-3.207207191735506E-003;-1.091603073291481E-003;
2.420833333333334E+009;1.540334969758987E-001;-7.661676406860352E-002;-3.135890699923039E-003;-9.939487790688872E-004;
2.421000000000000E+009;1.531182080507278E-001;-7.810764014720917E-002;-3.224399639293551E-003;-9.326948202215135E-004;
2.421166666666667E+009;1.524227559566498E-001;-7.963519543409348E-002;-3.298137802630663E-003;-7.322476594708860E-004;
2.421333333333334E+009;1.518485844135284E-001;-8.134005963802338E-002;-3.390878904610872E-003;-8.085436420515180E-004;
2.421500000000000E+009;1.510717868804932E-001;-8.292929828166962E-002;-3.400582121685147E-003;-5.381269729696214E-004;
2.421666666666667E+009;1.506174504756928E-001;-8.454554527997971E-002;-3.491029608994722E-003;-5.153139936737716E-004;
2.421833333333334E+009;1.501198112964630E-001;-8.609334379434586E-002;-3.559108823537827E-003;-4.896053578704596E-004;
2.422000000000000E+009;1.497774422168732E-001;-8.780433237552643E-002;-3.764793742448092E-003;-3.046822675969452E-004;
2.422166666666667E+009;1.495739221572876E-001;-8.979457616806030E-002;-3.550359280779958E-003;-1.851706765592098E-004;
2.422333333333334E+009;1.494420319795609E-001;-9.129557013511658E-002;-3.565565915778279E-003;2.664737439772580E-005;
2.422500000000000E+009;1.492416262626648E-001;-9.295520931482315E-002;-3.630905644968152E-003;1.063814124790952E-004;
2.422666666666667E+009;1.492479890584946E-001;-9.478273987770081E-002;-3.534166840836406E-003;2.236065920442343E-004;
2.422833333333334E+009;1.492587774991989E-001;-9.644483774900436E-002;-3.610442625358701E-003;4.370890383142978E-004;
2.423000000000000E+009;1.493178904056549E-001;-9.809664636850357E-002;-3.513812785968185E-003;6.676407065242529E-004;
2.423166666666667E+009;1.496668606996536E-001;-9.988331794738770E-002;-3.537977347150445E-003;8.358650375157595E-004;
2.423333333333334E+009;1.501300483942032E-001;-1.012196913361549E-001;-3.554857568815351E-003;9.968817466869950E-004;
2.423500000000000E+009;1.502742171287537E-001;-1.027599573135376E-001;-3.547834930941463E-003;1.069701975211501E-003;
2.423666666666667E+009;1.506312489509583E-001;-1.044506132602692E-001;-3.350953105837107E-003;1.142767141573131E-003;
2.423833333333334E+009;1.511419564485550E-001;-1.059374064207077E-001;-3.346084617078304E-003;1.409126911312342E-003;
2.424000000000000E+009;1.513859629631043E-001;-1.069453582167625E-001;-3.205655841156840E-003;1.744278357364237E-003;
2.424166666666667E+009;1.519380807876587E-001;-1.084109917283058E-001;-3.163631772622466E-003;1.815307070501149E-003;
2.424333333333334E+009;1.524906605482101E-001;-1.095714271068573E-001;-3.068647813051939E-003;1.950361416675150E-003;
2.424500000000000E+009;1.529468894004822E-001;-1.107305511832237E-001;-2.938870107755065E-003;2.037555910646915E-003;
2.424666666666667E+009;1.534989029169083E-001;-1.117393150925636E-001;-2.749278675764799E-003;2.296724356710911E-003;
2.424833333333334E+009;1.536943912506104E-001;-1.127168238162994E-001;-2.607657806947827E-003;2.254972700029612E-003;
2.425000000000000E+009;1.543958783149719E-001;-1.136963739991188E-001;-2.559680957347155E-003;2.429862041026354E-003;
2.425166666666667E+009;1.546974182128906E-001;-1.145546063780785E-001;-2.270237077027559E-003;2.609164454042912E-003;
2.425333333333334E+009;1.551793217658997E-001;-1.151779890060425E-001;-2.105388557538390E-003;2.636558143422008E-003;
2.425500000000000E+009;1.555584073066711E-001;-1.159452795982361E-001;-1.860833726823330E-003;2.579718595370650E-003;
2.425666666666667E+009;1.556803286075592E-001;-1.164957359433174E-001;-1.769159222021699E-003;2.733591245487332E-003;
2.425833333333334E+009;1.560867428779602E-001;-1.169841289520264E-001;-1.702177105471492E-003;2.903326647356153E-003;
2.426000000000000E+009;1.561607718467712E-001;-1.174681112170219E-001;-1.340729766525328E-003;2.772724954411387E-003;
2.426166666666667E+009;1.564278602600098E-001;-1.177854239940643E-001;-1.265293802134693E-003;2.722014207392931E-003;
2.426333333333334E+009;1.564272344112396E-001;-1.181179285049439E-001;-1.168547431007028E-003;2.689292887225747E-003;
2.426500000000000E+009;1.564384698867798E-001;-1.182414218783379E-001;-7.703026058152318E-004;2.872382290661335E-003;
2.426666666666667E+009;1.564840972423554E-001;-1.185085177421570E-001;-7.815582212060690E-004;2.708699787035584E-003;
2.426833333333334E+009;1.561279296875000E-001;-1.186381801962853E-001;-7.475538877770305E-004;2.626000670716167E-003;
2.427000000000000E+009;1.558128297328949E-001;-1.188316121697426E-001;-5.600448930636048E-004;2.673183800652623E-003;
2.427166666666667E+009;1.554131954908371E-001;-1.187729910016060E-001;-3.396063402760774E-004;2.606119960546494E-003;
2.427333333333334E+009;1.548512130975723E-001;-1.189141720533371E-001;-2.386246051173657E-004;2.504502190276980E-003;
2.427500000000000E+009;1.544353216886520E-001;-1.190091073513031E-001;-1.571017201058567E-004;2.612290671095252E-003;
2.427666666666667E+009;1.537681072950363E-001;-1.192562207579613E-001;-1.176972946268506E-004;2.381334779784083E-003;
