# Version 1.00
#
freq[Hz];re:Trc1_S11;im:Trc1_S11;re:Trc2_S21;im:Trc2_S21;
2.400000000000000E+009;1.520805507898331E-001;1.158216893672943E-001;4.245681688189507E-003;7.315072696655989E-003;
2.400166666666667E+009;1.516997218132019E-001;1.136686354875565E-001;4.354365170001984E-003;7.054042071104050E-003;
2.400333333333334E+009;1.515730470418930E-001;1.112853065133095E-001;4.465955775231123E-003;6.732407025992870E-003;
2.400500000000000E+009;1.514091044664383E-001;1.087432354688644E-001;4.608535673469305E-003;6.687868386507034E-003;
2.400666666666667E+009;1.515830308198929E-001;1.063871011137962E-001;4.783825483173132E-003;6.527798250317574E-003;
2.400833333333334E+009;1.513656377792358E-001;1.037169471383095E-001;4.845292307436466E-003;6.375785451382399E-003;
2.401000000000000E+009;1.514091044664383E-001;1.006965488195419E-001;4.891670309007168E-003;6.092025432735682E-003;
2.401166666666667E+009;1.513405144214630E-001;9.805671870708466E-002;4.982556216418743E-003;6.024620961397886E-003;
2.401333333333334E+009;1.519131362438202E-001;9.521790593862534E-002;5.152415949851275E-003;5.821100901812315E-003;
2.401500000000000E+009;1.520221978425980E-001;9.217550605535507E-002;5.217525176703930E-003;5.919871851801872E-003;
2.401666666666667E+009;1.522846221923828E-001;8.932656794786453E-002;5.398028995841742E-003;5.641331430524588E-003;
2.401833333333334E+009;1.530023217201233E-001;8.652380108833313E-002;5.487744696438313E-003;5.726591218262911E-003;
2.402000000000000E+009;1.538285017013550E-001;8.372236043214798E-002;5.744492169469595E-003;5.649109836667776E-003;
2.402166666666667E+009;1.544963568449020E-001;8.101128041744232E-002;5.937303882092238E-003;5.579420365393162E-003;
2.402333333333334E+009;1.556590199470520E-001;7.812863588333130E-002;6.012344267219305E-003;5.508042871952057E-003;
2.402500000000000E+009;1.569210141897202E-001;7.564540952444077E-002;6.137358956038952E-003;5.146784707903862E-003;
2.402666666666667E+009;1.581115722656250E-001;7.306510955095291E-002;6.703051738440990E-003;5.009356420487166E-003;
2.402833333333334E+009;1.594735532999039E-001;7.050047069787979E-002;6.736321374773979E-003;4.977298434823751E-003;
2.403000000000000E+009;1.612215042114258E-001;6.793332099914551E-002;7.147150114178658E-003;4.768652375787497E-003;
2.403166666666667E+009;1.628795564174652E-001;6.561375409364700E-002;7.500011473894119E-003;4.572892095893621E-003;
2.403333333333334E+009;1.646347492933273E-001;6.305558234453201E-002;7.653406355530024E-003;4.161936696618795E-003;
2.403500000000000E+009;1.666160821914673E-001;6.066172942519188E-002;8.019639179110527E-003;4.140327684581280E-003;
2.403666666666667E+009;1.685502976179123E-001;5.876320973038673E-002;8.174709044396877E-003;3.720276989042759E-003;
2.403833333333334E+009;1.704509109258652E-001;5.669258162379265E-002;8.444709703326225E-003;3.058998845517635E-003;
2.404000000000000E+009;1.721524596214294E-001;5.474983528256416E-002;8.668977767229080E-003;2.833522390574217E-003;
2.404166666666667E+009;1.741361916065216E-001;5.288844183087349E-002;8.570442907512188E-003;2.290851902216673E-003;
2.404333333333334E+009;1.761918514966965E-001;5.126018449664116E-002;8.613597601652145E-003;2.015516860410571E-003;
2.404500000000000E+009;1.779574900865555E-001;4.956920817494392E-002;8.740422315895557E-003;1.674812636338174E-003;
2.404666666666667E+009;1.800559312105179E-001;4.831871017813683E-002;8.659693412482739E-003;1.330220140516758E-003;
2.404833333333334E+009;1.817975640296936E-001;4.703452810645104E-002;8.670747280120850E-003;9.330682223662734E-004;
2.405000000000000E+009;1.833802908658981E-001;4.618129879236221E-002;8.550207130610943E-003;4.827437223866582E-004;
2.405166666666667E+009;1.852987408638001E-001;4.523583501577377E-002;8.539612405002117E-003;3.037206770386547E-004;
2.405333333333334E+009;1.868585348129273E-001;4.452854767441750E-002;8.528393693268299E-003;-8.282326598418877E-005;
2.405500000000000E+009;1.886638402938843E-001;4.410791024565697E-002;8.505875244736671E-003;-2.469670725986362E-004;
2.405666666666667E+009;1.902602761983872E-001;4.360513389110565E-002;8.453170768916607E-003;-5.299358745105565E-004;
2.405833333333334E+009;1.917996704578400E-001;4.315843433141708E-002;8.470958098769188E-003;-8.581541478633881E-004;
2.406000000000000E+009;1.930382698774338E-001;4.277121648192406E-002;8.277287706732750E-003;-1.106950570829213E-003;
2.406166666666667E+009;1.944002509117127E-001;4.266484081745148E-002;8.373219519853592E-003;-1.352365245111287E-003;
2.406333333333334E+009;1.956899911165237E-001;4.260728135704994E-002;8.197652176022530E-003;-1.688222982920706E-003;
2.406500000000000E+009;1.966774463653565E-001;4.262755066156387E-002;8.129323832690716E-003;-2.085398649796844E-003;
2.406666666666667E+009;1.977318823337555E-001;4.265774041414261E-002;8.107424713671207E-003;-2.242141170427203E-003;
2.406833333333334E+009;1.984270066022873E-001;4.264193773269653E-002;8.208908140659332E-003;-2.594260033220053E-003;
2.407000000000000E+009;1.988866329193115E-001;4.273467510938644E-002;7.892054505646229E-003;-2.886854577809572E-003;
2.407166666666667E+009;1.996447592973709E-001;4.265595600008965E-002;7.783344481140375E-003;-3.221011254936457E-003;
2.407333333333334E+009;1.998053640127182E-001;4.269639402627945E-002;7.749894168227911E-003;-3.523219376802445E-003;
2.407500000000000E+009;1.998265087604523E-001;4.298229143023491E-002;7.445777300745249E-003;-3.754230681806803E-003;
2.407666666666667E+009;1.999972909688950E-001;4.283995553851128E-002;7.401250302791596E-003;-3.956439439207315E-003;
2.407833333333334E+009;1.996778696775436E-001;4.264021664857864E-002;7.054896093904972E-003;-4.202582407742739E-003;
2.408000000000000E+009;1.995861381292343E-001;4.263572394847870E-002;6.841077003628016E-003;-4.507252480834723E-003;
2.408166666666667E+009;1.991130411624908E-001;4.242548346519470E-002;6.794584449380636E-003;-4.738973919302225E-003;
2.408333333333334E+009;1.988456398248673E-001;4.189118742942810E-002;6.592811085283756E-003;-4.880559165030718E-003;
2.408500000000000E+009;1.979726105928421E-001;4.184532538056374E-002;6.270088721066713E-003;-4.929321352392435E-003;
2.408666666666667E+009;1.973411887884140E-001;4.136905446648598E-002;5.987176671624184E-003;-5.128937773406506E-003;
2.408833333333334E+009;1.966387182474136E-001;4.075788334012032E-002;5.854365415871143E-003;-5.473529919981957E-003;
2.409000000000000E+009;1.956868320703507E-001;3.989273309707642E-002;5.571314599364996E-003;-5.502793006598949E-003;
2.409166666666667E+009;1.945505887269974E-001;3.910646960139275E-002;5.386847071349621E-003;-5.681246053427458E-003;
2.409333333333334E+009;1.934208720922470E-001;3.823846206068993E-002;5.093572195619345E-003;-5.809214431792498E-003;
2.409500000000000E+009;1.923265606164932E-001;3.700171411037445E-002;4.934852477163076E-003;-5.728740710765123E-003;
2.409666666666667E+009;1.910990029573441E-001;3.574957698583603E-002;4.767659585922957E-003;-5.940455477684736E-003;
2.409833333333334E+009;1.896916478872299E-001;3.443697094917297E-002;4.552718251943588E-003;-6.073741707950831E-003;
2.410000000000000E+009;1.885264068841934E-001;3.301966562867165E-002;4.300697240978479E-003;-6.095063872635365E-003;
2.410166666666667E+009;1.875298172235489E-001;3.114548884332180E-002;4.117430187761784E-003;-6.194296758621931E-003;
2.410333333333334E+009;1.862115412950516E-001;2.953462116420269E-002;3.973365295678377E-003;-6.168432999402285E-003;
2.410500000000000E+009;1.849356144666672E-001;2.776546217501164E-002;3.758689155802131E-003;-6.335615180432797E-003;
2.410666666666667E+009;1.837664842605591E-001;2.560681849718094E-002;3.429733449593186E-003;-6.430805195122957E-003;
2.410833333333334E+009;1.830242425203323E-001;2.350731752812862E-002;3.295511472970247E-003;-6.396359298378229E-003;
2.411000000000000E+009;1.821355074644089E-001;2.124798670411110E-002;3.155015874654055E-003;-6.361188832670450E-003;
2.411166666666667E+009;1.809993237257004E-001;1.915533281862736E-002;3.146478207781911E-003;-6.518603302538395E-003;
2.411333333333334E+009;1.805101186037064E-001;1.657466962933540E-002;2.888563089072704E-003;-6.726598367094994E-003;
2.411500000000000E+009;1.797346025705338E-001;1.412187609821558E-002;2.627545269206166E-003;-6.552018690854311E-003;
2.411666666666667E+009;1.791757643222809E-001;1.182888168841600E-002;2.502015326172113E-003;-6.688777357339859E-003;
2.411833333333334E+009;1.787099093198776E-001;9.319004602730274E-003;2.236582804471254E-003;-6.706154905259609E-003;
2.412000000000000E+009;1.787710487842560E-001;6.671835668385029E-003;2.106513129547238E-003;-6.672196090221405E-003;
2.412166666666667E+009;1.786371171474457E-001;4.229362588375807E-003;2.039854414761066E-003;-6.789926439523697E-003;
2.412333333333334E+009;1.784590035676956E-001;1.639144378714263E-003;1.573581248521805E-003;-6.630769465118647E-003;
2.412500000000000E+009;1.786813586950302E-001;-9.508242364972830E-004;1.499018864706159E-003;-6.791739724576473E-003;
2.412666666666667E+009;1.791348606348038E-001;-3.624241566285491E-003;1.512859249487519E-003;-6.858136970549822E-003;
2.412833333333334E+009;1.795714795589447E-001;-6.191158667206764E-003;1.324311248026788E-003;-6.909632589668036E-003;
2.413000000000000E+009;1.801233738660812E-001;-8.641447871923447E-003;1.027078484185040E-003;-6.926959380507469E-003;
2.413166666666667E+009;1.806748956441879E-001;-1.106746122241020E-002;9.232719312421978E-004;-7.050875108689070E-003;
2.413333333333334E+009;1.818228065967560E-001;-1.355874724686146E-002;9.505471680313349E-004;-7.058397401124239E-003;
2.413500000000000E+009;1.825541406869888E-001;-1.601299270987511E-002;6.665241671726108E-004;-7.225113920867443E-003;
2.413666666666667E+009;1.836717724800110E-001;-1.832863688468933E-002;4.580580571200699E-004;-7.221048232167959E-003;
2.413833333333334E+009;1.848107874393463E-001;-2.062513865530491E-002;1.240154524566606E-004;-7.405998185276985E-003;
2.414000000000000E+009;1.857529133558273E-001;-2.265366725623608E-002;-1.428679388482124E-004;-7.386580109596252E-003;
2.414166666666667E+009;1.870471537113190E-001;-2.457438595592976E-002;-4.033343866467476E-004;-7.530780043452978E-003;
2.414333333333334E+009;1.880805790424347E-001;-2.684237249195576E-002;-6.397633696906269E-004;-7.565740030258894E-003;
2.414500000000000E+009;1.894067078828812E-001;-2.849620953202248E-002;-9.091747342608869E-004;-7.691996637731791E-003;
2.414666666666667E+009;1.905845999717712E-001;-3.006354719400406E-002;-1.295384368859232E-003;-7.591946050524712E-003;
2.414833333333334E+009;1.917642951011658E-001;-3.164631873369217E-002;-1.725937589071691E-003;-7.698193658143282E-003;
2.415000000000000E+009;1.928947418928146E-001;-3.311836346983910E-002;-1.869386062026024E-003;-7.447646465152502E-003;
2.415166666666667E+009;1.943608373403549E-001;-3.434176370501518E-002;-2.380809979513288E-003;-7.412957493215799E-003;
2.415333333333334E+009;1.955396533012390E-001;-3.529692441225052E-002;-2.666490152478218E-003;-7.168282754719257E-003;
2.415500000000000E+009;1.967405229806900E-001;-3.624987602233887E-002;-2.992057939991355E-003;-7.105420343577862E-003;
2.415666666666667E+009;1.978297978639603E-001;-3.706167638301849E-002;-3.195798024535179E-003;-6.949180737137795E-003;
2.415833333333334E+009;1.988449841737747E-001;-3.759402409195900E-002;-3.478940809145570E-003;-6.911751814186573E-003;
2.416000000000000E+009;1.997712999582291E-001;-3.847412392497063E-002;-3.683902090415359E-003;-6.747222971171141E-003;
2.416166666666667E+009;2.005484402179718E-001;-3.895170614123344E-002;-3.773580770939589E-003;-6.464230827987194E-003;
2.416333333333334E+009;2.014055550098419E-001;-3.926583379507065E-002;-3.969795536249876E-003;-6.261041853576899E-003;
2.416500000000000E+009;2.020540535449982E-001;-3.938728198409081E-002;-4.305006004869938E-003;-6.075658369809389E-003;
2.416666666666667E+009;2.024278342723846E-001;-3.965938836336136E-002;-4.458455834537745E-003;-5.996290594339371E-003;
2.416833333333334E+009;2.028188109397888E-001;-3.963905945420265E-002;-4.588035400956869E-003;-5.877532530575991E-003;
2.417000000000000E+009;2.031406462192535E-001;-3.972523659467697E-002;-4.700624849647284E-003;-5.597541574388742E-003;
2.417166666666667E+009;2.029813528060913E-001;-3.950073570013046E-002;-4.913629032671452E-003;-5.528815090656281E-003;
2.417333333333334E+009;2.029872536659241E-001;-3.917431086301804E-002;-4.926766734570265E-003;-5.449020769447088E-003;
2.417500000000000E+009;2.027950435876846E-001;-3.907007351517677E-002;-5.235753953456879E-003;-5.373891908675432E-003;
2.417666666666667E+009;2.024509608745575E-001;-3.863782435655594E-002;-5.308556370437145E-003;-5.134354811161757E-003;
2.417833333333334E+009;2.021836340427399E-001;-3.822781145572662E-002;-5.564939696341753E-003;-4.979095421731472E-003;
2.418000000000000E+009;2.018070667982101E-001;-3.775636106729507E-002;-5.720458924770355E-003;-5.010467022657394E-003;
2.418166666666667E+009;2.010834217071533E-001;-3.747638314962387E-002;-5.944233853369951E-003;-4.804020281881094E-003;
2.418333333333334E+009;2.003134787082672E-001;-3.717791661620140E-002;-6.087277550250292E-003;-4.501187242567539E-003;
2.418500000000000E+009;1.995128244161606E-001;-3.687392920255661E-002;-6.363152526319027E-003;-4.254488274455071E-003;
2.418666666666667E+009;1.986164748668671E-001;-3.659062832593918E-002;-6.587059237062931E-003;-4.208964761346579E-003;
2.418833333333334E+009;1.975255459547043E-001;-3.663140907883644E-002;-6.828606128692627E-003;-3.683120012283325E-003;
2.419000000000000E+009;1.961461454629898E-001;-3.647959232330322E-002;-6.961925886571407E-003;-3.378049470484257E-003;
2.419166666666667E+009;1.952345669269562E-001;-3.664208576083183E-002;-7.028099149465561E-003;-3.163903485983610E-003;
2.419333333333334E+009;1.938199847936630E-001;-3.674947470426559E-002;-7.136702537536621E-003;-2.702038036659360E-003;
2.419500000000000E+009;1.923800706863403E-001;-3.704627603292465E-002;-7.267497014254332E-003;-2.305652247741818E-003;
2.419666666666667E+009;1.908001750707626E-001;-3.770908713340759E-002;-7.324266713112593E-003;-2.062414074316621E-003;
2.419833333333334E+009;1.892635524272919E-001;-3.815936669707298E-002;-7.362294010818005E-003;-1.801744452677667E-003;
2.420000000000000E+009;1.876732409000397E-001;-3.870489075779915E-002;-7.271873299032450E-003;-1.288244733586907E-003;
2.420166666666667E+009;1.860495656728745E-001;-3.959595039486885E-002;-7.295415736734867E-003;-1.102877547964454E-003;
2.420333333333334E+009;1.843683719635010E-001;-4.063714668154717E-002;-7.158477324992418E-003;-8.773190784268081E-004;
2.420500000000000E+009;1.826416403055191E-001;-4.175636544823647E-002;-7.039202842861414E-003;-5.611216183751822E-004;
2.420666666666667E+009;1.809293925762177E-001;-4.269208014011383E-002;-6.927005480974913E-003;-4.252606595400721E-004;
2.420833333333334E+009;1.791757494211197E-001;-4.416295513510704E-002;-6.820409558713436E-003;-2.064646105282009E-004;
2.421000000000000E+009;1.776040941476822E-001;-4.564460739493370E-002;-6.725083105266094E-003;-1.242378784809262E-004;
2.421166666666667E+009;1.760006994009018E-001;-4.713936150074005E-002;-6.648248061537743E-003;1.190140101243742E-004;
2.421333333333334E+009;1.741820573806763E-001;-4.855469614267349E-002;-6.532862316817045E-003;1.731003139866516E-004;
2.421500000000000E+009;1.728142648935318E-001;-5.025423690676689E-002;-6.545852404087782E-003;3.536842705216259E-004;
2.421666666666667E+009;1.714610010385513E-001;-5.234318971633911E-002;-6.484000943601131E-003;4.922126536257565E-004;
2.421833333333334E+009;1.699773669242859E-001;-5.413926765322685E-002;-6.309251766651869E-003;5.511871422640979E-004;
2.422000000000000E+009;1.688346266746521E-001;-5.581139773130417E-002;-6.505750585347414E-003;7.599453092552722E-004;
2.422166666666667E+009;1.678557842969894E-001;-5.803232640028000E-002;-6.313002202659845E-003;8.953034994192421E-004;
2.422333333333334E+009;1.668092608451843E-001;-6.000505760312080E-002;-6.419643759727478E-003;1.061097020283341E-003;
2.422500000000000E+009;1.660069674253464E-001;-6.185851991176605E-002;-6.351774558424950E-003;1.079982845112681E-003;
2.422666666666667E+009;1.650673896074295E-001;-6.400573253631592E-002;-6.253547966480255E-003;1.306309713982046E-003;
2.422833333333334E+009;1.646972745656967E-001;-6.605895608663559E-002;-6.415555253624916E-003;1.510240137577057E-003;
2.423000000000000E+009;1.639478951692581E-001;-6.804698705673218E-002;-6.251032464206219E-003;1.683507114648819E-003;
2.423166666666667E+009;1.635852754116058E-001;-7.017598301172257E-002;-6.352022755891085E-003;2.014314522966743E-003;
2.423333333333334E+009;1.633688807487488E-001;-7.219704985618591E-002;-6.227515637874603E-003;2.109551569446921E-003;
2.423500000000000E+009;1.632461994886398E-001;-7.402411848306656E-002;-6.131200585514307E-003;2.284973859786987E-003;
2.423666666666667E+009;1.634459197521210E-001;-7.613120973110199E-002;-6.052301730960608E-003;2.625457011163235E-003;
2.423833333333334E+009;1.632868498563767E-001;-7.813787460327148E-002;-6.074595265090466E-003;2.792836865410209E-003;
2.424000000000000E+009;1.634538620710373E-001;-7.989968359470367E-002;-6.093767005950213E-003;2.975886687636375E-003;
2.424166666666667E+009;1.635426580905914E-001;-8.174827694892883E-002;-5.891678854823113E-003;3.157876664772630E-003;
2.424333333333334E+009;1.639441400766373E-001;-8.345185220241547E-002;-5.731586832553148E-003;3.541544312611222E-003;
2.424500000000000E+009;1.642882525920868E-001;-8.536650240421295E-002;-5.656647495925427E-003;3.647802630439401E-003;
2.424666666666667E+009;1.646772176027298E-001;-8.683234453201294E-002;-5.409643054008484E-003;4.063760396093130E-003;
2.424833333333334E+009;1.654864996671677E-001;-8.811412751674652E-002;-5.306658335030079E-003;3.986241761595011E-003;
2.425000000000000E+009;1.659607142210007E-001;-8.952836692333221E-002;-5.140938330441713E-003;4.119218792766333E-003;
2.425166666666667E+009;1.663999259471893E-001;-9.069034457206726E-002;-4.980482626706362E-003;4.527478013187647E-003;
2.425333333333334E+009;1.669538468122482E-001;-9.172892570495606E-002;-4.772655665874481E-003;4.515575245022774E-003;
2.425500000000000E+009;1.676094681024551E-001;-9.283278137445450E-002;-4.512110725045204E-003;4.614556208252907E-003;
2.425666666666667E+009;1.682578176259995E-001;-9.362934529781342E-002;-4.328671377152205E-003;4.729427397251129E-003;
2.425833333333334E+009;1.688274741172791E-001;-9.457954764366150E-002;-4.215503111481667E-003;4.905547481030226E-003;
2.426000000000000E+009;1.696716845035553E-001;-9.513731300830841E-002;-4.062211140990257E-003;4.852621350437403E-003;
2.426166666666667E+009;1.702179312705994E-001;-9.575132280588150E-002;-3.843946848064661E-003;5.118924193084240E-003;
2.426333333333334E+009;1.705541908740997E-001;-9.640752524137497E-002;-3.761560423299670E-003;5.160694010555744E-003;
2.426500000000000E+009;1.712707877159119E-001;-9.681887924671173E-002;-3.519866382703185E-003;5.253713577985764E-003;
2.426666666666667E+009;1.717972606420517E-001;-9.718039631843567E-002;-3.349368693307042E-003;5.341370124369860E-003;
2.426833333333334E+009;1.723112463951111E-001;-9.749703109264374E-002;-3.106313291937113E-003;5.411103833466768E-003;
2.427000000000000E+009;1.727597266435623E-001;-9.790156781673431E-002;-2.869739895686507E-003;5.631315987557173E-003;
2.427166666666667E+009;1.730193048715591E-001;-9.796340018510819E-002;-2.769368002191186E-003;5.480573046952486E-003;
2.427333333333334E+009;1.731283813714981E-001;-9.827123582363129E-002;-2.530511468648911E-003;5.651867017149925E-003;
2.427500000000000E+009;1.732124686241150E-001;-9.851351380348206E-002;-2.430232241749764E-003;5.614525172859430E-003;
2.427666666666667E+009;1.731269508600235E-001;-9.860321134328842E-002;-2.186282770708203E-003;5.659755785018206E-003;
