# Version 1.00
#
freq[Hz];re:Trc1_S11;im:Trc1_S11;re:Trc2_S21;im:Trc2_S21;
2.400000000000000E+009;1.512884795665741E-001;1.160928681492806E-001;4.176379647105932E-003;7.161549758166075E-003;
2.400166666666667E+009;1.510118693113327E-001;1.138614639639854E-001;4.388270433992147E-003;7.046875078231096E-003;
2.400333333333334E+009;1.509523242712021E-001;1.115977168083191E-001;4.501016810536385E-003;6.769085768610239E-003;
2.400500000000000E+009;1.508398503065109E-001;1.091260090470314E-001;4.852464888244867E-003;6.746747065335512E-003;
2.400666666666667E+009;1.508227884769440E-001;1.066149845719338E-001;4.662108141928911E-003;6.544554606080055E-003;
2.400833333333334E+009;1.507810652256012E-001;1.038838848471642E-001;4.715451970696449E-003;6.341245491057634E-003;
2.401000000000000E+009;1.509147733449936E-001;1.011272966861725E-001;4.970101173967123E-003;6.319128908216953E-003;
2.401166666666667E+009;1.507486999034882E-001;9.814032912254334E-002;4.977178759872913E-003;6.097471807152033E-003;
2.401333333333334E+009;1.510851383209229E-001;9.568992257118225E-002;5.092351697385311E-003;5.974948406219482E-003;
2.401500000000000E+009;1.515063345432282E-001;9.252450615167618E-002;5.285786464810371E-003;5.978862289339304E-003;
2.401666666666667E+009;1.518976986408234E-001;8.965958654880524E-002;5.102812312543392E-003;5.809731315821409E-003;
2.401833333333334E+009;1.522885560989380E-001;8.697282522916794E-002;5.398258101195097E-003;5.679037421941757E-003;
2.402000000000000E+009;1.531309336423874E-001;8.420257270336151E-002;5.601090844720602E-003;5.722520407289267E-003;
2.402166666666667E+009;1.541194766759872E-001;8.139845728874207E-002;5.930153187364340E-003;5.597047042101622E-003;
2.402333333333334E+009;1.550692915916443E-001;7.869988679885864E-002;6.145355291664600E-003;5.587602965533733E-003;
2.402500000000000E+009;1.563375294208527E-001;7.598683238029480E-002;6.476073991507292E-003;5.435870029032230E-003;
2.402666666666667E+009;1.574801951646805E-001;7.365000247955322E-002;6.587729789316654E-003;5.319280084222555E-003;
2.402833333333334E+009;1.590738296508789E-001;7.093538343906403E-002;6.924407556653023E-003;5.025403108447790E-003;
2.403000000000000E+009;1.605919152498245E-001;6.841251999139786E-002;7.251858711242676E-003;4.988200496882200E-003;
2.403166666666667E+009;1.623969525098801E-001;6.608589738607407E-002;7.469670381397009E-003;4.644755739718676E-003;
2.403333333333334E+009;1.640945822000504E-001;6.367190927267075E-002;7.602322846651077E-003;4.396189004182816E-003;
2.403500000000000E+009;1.660348773002625E-001;6.134557723999023E-002;8.119081147015095E-003;3.983342088758946E-003;
2.403666666666667E+009;1.679513752460480E-001;5.926617980003357E-002;8.280534297227860E-003;3.503232728689909E-003;
2.403833333333334E+009;1.699035912752152E-001;5.719169974327087E-002;8.401991799473763E-003;3.213901072740555E-003;
2.404000000000000E+009;1.714513748884201E-001;5.513921380043030E-002;8.479936979711056E-003;2.848902251571417E-003;
2.404166666666667E+009;1.735752820968628E-001;5.349132046103478E-002;8.422683924436569E-003;2.221202710643411E-003;
2.404333333333334E+009;1.754128783941269E-001;5.178730934858322E-002;8.553422056138516E-003;2.038622274994850E-003;
2.404500000000000E+009;1.772751361131668E-001;5.014443024992943E-002;8.697026409208775E-003;1.673102495260537E-003;
2.404666666666667E+009;1.793029457330704E-001;4.888777062296867E-002;8.639067411422730E-003;1.279638265259564E-003;
2.404833333333334E+009;1.813684105873108E-001;4.760244861245155E-002;8.641627617180347E-003;9.388265316374600E-004;
2.405000000000000E+009;1.829107850790024E-001;4.677749425172806E-002;8.696120232343674E-003;6.530901300720871E-004;
2.405166666666667E+009;1.846887767314911E-001;4.575767740607262E-002;8.667879737913609E-003;2.984681050293148E-004;
2.405333333333334E+009;1.863666623830795E-001;4.523197934031487E-002;8.599678054451942E-003;3.987501258961856E-005;
2.405500000000000E+009;1.881870627403259E-001;4.464170336723328E-002;8.583002723753452E-003;-2.306845708517358E-004;
2.405666666666667E+009;1.898090839385986E-001;4.420633241534233E-002;8.531425148248673E-003;-6.748191080987454E-004;
2.405833333333334E+009;1.914247125387192E-001;4.385257512331009E-002;8.457665331661701E-003;-1.004246412776411E-003;
2.406000000000000E+009;1.927729249000549E-001;4.360054433345795E-002;8.515269495546818E-003;-1.243964536115527E-003;
2.406166666666667E+009;1.939738094806671E-001;4.327778518199921E-002;8.431856520473957E-003;-1.469343900680542E-003;
2.406333333333334E+009;1.952602267265320E-001;4.331400990486145E-002;8.361819200217724E-003;-1.775946584530175E-003;
2.406500000000000E+009;1.963988244533539E-001;4.325288534164429E-002;8.300804533064365E-003;-2.019695704802871E-003;
2.406666666666667E+009;1.973258405923843E-001;4.327459260821343E-002;8.108533918857575E-003;-2.384633058682084E-003;
2.406833333333334E+009;1.981027871370316E-001;4.323632642626762E-002;8.037466555833817E-003;-2.749561332166195E-003;
2.407000000000000E+009;1.987062692642212E-001;4.341466724872589E-002;7.986421696841717E-003;-3.137134714052081E-003;
2.407166666666667E+009;1.992913931608200E-001;4.322807118296623E-002;7.879308424890041E-003;-3.272715955972672E-003;
2.407333333333334E+009;1.994977146387100E-001;4.340734705328941E-002;7.726701442152262E-003;-3.494610777124763E-003;
2.407500000000000E+009;1.997332572937012E-001;4.350695386528969E-002;7.502594031393528E-003;-3.801173530519009E-003;
2.407666666666667E+009;1.998563706874847E-001;4.352100193500519E-002;7.230570074170828E-003;-3.917464520782232E-003;
2.407833333333334E+009;1.995702385902405E-001;4.341255128383637E-002;7.202447392046452E-003;-4.317618906497955E-003;
2.408000000000000E+009;1.996072530746460E-001;4.331574961543083E-002;6.991080939769745E-003;-4.600819665938616E-003;
2.408166666666667E+009;1.991266161203384E-001;4.307629540562630E-002;6.811470258980990E-003;-4.748203791677952E-003;
2.408333333333334E+009;1.986538320779800E-001;4.275637120008469E-002;6.550207268446684E-003;-5.016402341425419E-003;
2.408500000000000E+009;1.981434673070908E-001;4.244011640548706E-002;6.312740501016378E-003;-5.144404247403145E-003;
2.408666666666667E+009;1.973492503166199E-001;4.203889518976212E-002;6.155445706099272E-003;-5.388899706304073E-003;
2.408833333333334E+009;1.966934204101563E-001;4.130139946937561E-002;5.835042335093021E-003;-5.454130470752716E-003;
2.409000000000000E+009;1.956736147403717E-001;4.061482474207878E-002;5.662200972437859E-003;-5.614224355667830E-003;
2.409166666666667E+009;1.945745795965195E-001;3.973075002431870E-002;5.345433484762907E-003;-5.719332490116358E-003;
2.409333333333334E+009;1.935555934906006E-001;3.895948082208633E-002;5.068631842732430E-003;-5.987409502267838E-003;
2.409500000000000E+009;1.923789083957672E-001;3.774959221482277E-002;4.857093095779419E-003;-6.117845419794321E-003;
2.409666666666667E+009;1.911978721618652E-001;3.645804524421692E-002;4.658328369259834E-003;-6.016183178871870E-003;
2.409833333333334E+009;1.899339705705643E-001;3.504040464758873E-002;4.451083950698376E-003;-6.249294616281986E-003;
2.410000000000000E+009;1.885738521814346E-001;3.351319581270218E-002;4.378887359052897E-003;-6.209177430719137E-003;
2.410166666666667E+009;1.874352097511292E-001;3.182866424322128E-002;4.090567585080862E-003;-6.254664156585932E-003;
2.410333333333334E+009;1.862638890743256E-001;3.017984330654144E-002;3.840797580778599E-003;-6.355124525725842E-003;
2.410500000000000E+009;1.849408149719238E-001;2.851328440010548E-002;3.556886455044150E-003;-6.371119990944862E-003;
2.410666666666667E+009;1.840046048164368E-001;2.623756788671017E-002;3.519556252285838E-003;-6.441990379244089E-003;
2.410833333333334E+009;1.832230091094971E-001;2.418773621320725E-002;3.276832634583116E-003;-6.428696215152741E-003;
2.411000000000000E+009;1.819983273744583E-001;2.203752472996712E-002;3.138793865218759E-003;-6.512736435979605E-003;
2.411166666666667E+009;1.812717169523239E-001;1.993356272578239E-002;2.968539716675878E-003;-6.523198913782835E-003;
2.411333333333334E+009;1.807874441146851E-001;1.733699254691601E-002;2.669918350875378E-003;-6.603380665183067E-003;
2.411500000000000E+009;1.799704134464264E-001;1.480629108846188E-002;2.546724630519748E-003;-6.661056540906429E-003;
2.411666666666667E+009;1.796659082174301E-001;1.261961553245783E-002;2.482337411493063E-003;-6.637504324316979E-003;
2.411833333333334E+009;1.791202723979950E-001;1.002286560833454E-002;2.168894046917558E-003;-6.615403573960066E-003;
2.412000000000000E+009;1.791318356990814E-001;7.474023848772049E-003;2.052781172096729E-003;-6.731811910867691E-003;
2.412166666666667E+009;1.789140552282333E-001;4.845740273594856E-003;1.849023276008666E-003;-6.739829201251268E-003;
2.412333333333334E+009;1.790946573019028E-001;2.387698739767075E-003;1.683843787759543E-003;-6.774454843252897E-003;
2.412500000000000E+009;1.791932284832001E-001;-2.050908951787278E-004;1.580107375048101E-003;-6.916972808539867E-003;
2.412666666666667E+009;1.793584078550339E-001;-3.047483740374446E-003;1.463024411350489E-003;-6.888273172080517E-003;
2.412833333333334E+009;1.802292913198471E-001;-5.588172934949398E-003;1.271782093681395E-003;-6.853458937257528E-003;
2.413000000000000E+009;1.807968467473984E-001;-8.120823651552200E-003;1.005366211757064E-003;-6.963500753045082E-003;
2.413166666666667E+009;1.813029944896698E-001;-1.049987692385912E-002;9.288022411055863E-004;-7.103005889803171E-003;
2.413333333333334E+009;1.822256594896317E-001;-1.299921795725822E-002;6.561120972037315E-004;-7.134993094950914E-003;
2.413500000000000E+009;1.830414086580277E-001;-1.557415258139372E-002;5.179819418117404E-004;-7.170567754656076E-003;
2.413666666666667E+009;1.841991990804672E-001;-1.786203309893608E-002;3.248112916480750E-004;-7.196625694632530E-003;
2.413833333333334E+009;1.851878762245178E-001;-2.002344280481339E-002;1.103572212741710E-004;-7.341010961681604E-003;
2.414000000000000E+009;1.862259209156036E-001;-2.213440090417862E-002;-1.540762605145574E-004;-7.317297626286745E-003;
2.414166666666667E+009;1.875656098127365E-001;-2.423489093780518E-002;-4.866428207606077E-004;-7.544052321463823E-003;
2.414333333333334E+009;1.885639131069183E-001;-2.650650963187218E-002;-6.497940048575401E-004;-7.529098540544510E-003;
2.414500000000000E+009;1.899360269308090E-001;-2.812084555625916E-002;-1.257323543541133E-003;-7.542766164988279E-003;
2.414666666666667E+009;1.911902427673340E-001;-2.971190586686134E-002;-1.398723921738565E-003;-7.571213878691196E-003;
2.414833333333334E+009;1.923537701368332E-001;-3.131557255983353E-002;-1.801876816898584E-003;-7.507813628762960E-003;
2.415000000000000E+009;1.935194879770279E-001;-3.269005939364433E-002;-2.149438485503197E-003;-7.585267536342144E-003;
2.415166666666667E+009;1.947871446609497E-001;-3.396807238459587E-002;-2.444011857733131E-003;-7.268551737070084E-003;
2.415333333333334E+009;1.960329860448837E-001;-3.513187542557716E-002;-2.594215096905828E-003;-7.147859316319227E-003;
2.415500000000000E+009;1.972840279340744E-001;-3.591493889689446E-002;-3.021598793566227E-003;-6.943052634596825E-003;
2.415666666666667E+009;1.984424144029617E-001;-3.682424128055573E-002;-3.091267310082912E-003;-6.707434542477131E-003;
2.415833333333334E+009;1.993295401334763E-001;-3.752111271023750E-002;-3.497053403407335E-003;-6.702049635350704E-003;
2.416000000000000E+009;2.002325803041458E-001;-3.816412761807442E-002;-3.604257246479392E-003;-6.592168007045984E-003;
2.416166666666667E+009;2.011291235685349E-001;-3.863975033164024E-002;-3.975490108132362E-003;-6.419950630515814E-003;
2.416333333333334E+009;2.019274979829788E-001;-3.901817277073860E-002;-4.132940899580717E-003;-6.193784531205893E-003;
2.416500000000000E+009;2.024517357349396E-001;-3.917995095252991E-002;-4.225155804306269E-003;-5.851310677826405E-003;
2.416666666666667E+009;2.029888927936554E-001;-3.950570896267891E-002;-4.481545183807612E-003;-5.824929568916559E-003;
2.416833333333334E+009;2.033051103353500E-001;-3.948388248682022E-002;-4.573977552354336E-003;-5.660667549818754E-003;
2.417000000000000E+009;2.036403566598892E-001;-3.955982625484467E-002;-4.729475826025009E-003;-5.695811472833157E-003;
2.417166666666667E+009;2.035745233297348E-001;-3.932544961571693E-002;-4.947092849761248E-003;-5.473915953189135E-003;
2.417333333333334E+009;2.035417705774307E-001;-3.911795467138290E-002;-5.099867936223745E-003;-5.304628051817417E-003;
2.417500000000000E+009;2.034180313348770E-001;-3.891577571630478E-002;-5.306375678628683E-003;-5.224943626672030E-003;
2.417666666666667E+009;2.031264752149582E-001;-3.851677477359772E-002;-5.367308389395475E-003;-5.310820881277323E-003;
2.417833333333334E+009;2.027777880430222E-001;-3.821054846048355E-002;-5.462945438921452E-003;-4.873904399573803E-003;
2.418000000000000E+009;2.023254930973053E-001;-3.786616399884224E-002;-5.765979178249836E-003;-4.740178585052490E-003;
2.418166666666667E+009;2.015872448682785E-001;-3.743388503789902E-002;-6.093498319387436E-003;-4.608541261404753E-003;
2.418333333333334E+009;2.008819729089737E-001;-3.718091920018196E-002;-6.139072589576244E-003;-4.338946193456650E-003;
2.418500000000000E+009;2.000992894172669E-001;-3.688513115048409E-002;-6.551883183419704E-003;-4.139289725571871E-003;
2.418666666666667E+009;1.993030309677124E-001;-3.665620461106300E-002;-6.616862956434488E-003;-4.004557151347399E-003;
2.418833333333334E+009;1.981259882450104E-001;-3.666441142559052E-002;-6.887411698698998E-003;-3.675391897559166E-003;
2.419000000000000E+009;1.969422847032547E-001;-3.661005944013596E-002;-6.870675366371870E-003;-3.365253563970327E-003;
2.419166666666667E+009;1.957771331071854E-001;-3.680480644106865E-002;-7.064246106892824E-003;-3.085766686126590E-003;
2.419333333333334E+009;1.945419758558273E-001;-3.705706447362900E-002;-7.121460046619177E-003;-2.789186313748360E-003;
2.419500000000000E+009;1.930000633001328E-001;-3.718281537294388E-002;-7.244217675179243E-003;-2.374578034505248E-003;
2.419666666666667E+009;1.916524618864059E-001;-3.792663663625717E-002;-7.370098028331995E-003;-1.891624415293336E-003;
2.419833333333334E+009;1.899174749851227E-001;-3.849929198622704E-002;-7.267023902386427E-003;-1.684637623839080E-003;
2.420000000000000E+009;1.883607655763626E-001;-3.903969004750252E-002;-7.230407558381558E-003;-1.179444021545351E-003;
2.420166666666667E+009;1.866048723459244E-001;-3.983272984623909E-002;-7.021252531558275E-003;-1.116238883696497E-003;
2.420333333333334E+009;1.850266158580780E-001;-4.073615744709969E-002;-7.038369774818420E-003;-6.869071512483060E-004;
2.420500000000000E+009;1.832685470581055E-001;-4.199668392539024E-002;-6.939460057765245E-003;-5.842999089509249E-004;
2.420666666666667E+009;1.814444065093994E-001;-4.294892400503159E-002;-6.667948793619871E-003;-4.869428230449557E-004;
2.420833333333334E+009;1.798093914985657E-001;-4.437821358442307E-002;-6.803288590162993E-003;-1.328534999629483E-004;
2.421000000000000E+009;1.781055480241776E-001;-4.590276256203651E-002;-6.669224705547094E-003;-3.624131068136194E-006;
2.421166666666667E+009;1.766407489776611E-001;-4.754835367202759E-002;-6.546895485371351E-003;1.624038268346340E-004;
2.421333333333334E+009;1.747007668018341E-001;-4.903063550591469E-002;-6.368523463606834E-003;2.890544710680842E-004;
2.421500000000000E+009;1.733920276165009E-001;-5.077822878956795E-002;-6.401340011507273E-003;2.281517372466624E-004;
2.421666666666667E+009;1.719989031553268E-001;-5.264503136277199E-002;-6.283843889832497E-003;4.872946592513472E-004;
2.421833333333334E+009;1.706433743238449E-001;-5.437280237674713E-002;-6.342505570501089E-003;6.791078485548496E-004;
2.422000000000000E+009;1.693156808614731E-001;-5.630902945995331E-002;-6.341679021716118E-003;5.594567628577352E-004;
2.422166666666667E+009;1.684055179357529E-001;-5.826927721500397E-002;-6.442036014050245E-003;8.257988956756890E-004;
2.422333333333334E+009;1.672547608613968E-001;-6.043675169348717E-002;-6.361058913171291E-003;9.562404593452811E-004;
2.422500000000000E+009;1.662976592779160E-001;-6.227325275540352E-002;-6.403404287993908E-003;1.171989017166197E-003;
2.422666666666667E+009;1.655836552381516E-001;-6.426397711038590E-002;-6.244711577892304E-003;1.523711835034192E-003;
2.422833333333334E+009;1.649062484502792E-001;-6.647197902202606E-002;-6.392653565853834E-003;1.594196073710918E-003;
2.423000000000000E+009;1.645273715257645E-001;-6.849458068609238E-002;-6.306099705398083E-003;1.666767871938646E-003;
2.423166666666667E+009;1.638869494199753E-001;-7.056589424610138E-002;-6.253852043300867E-003;1.919521251693368E-003;
2.423333333333334E+009;1.636976301670075E-001;-7.276000082492828E-002;-6.133398972451687E-003;2.236483385786414E-003;
2.423500000000000E+009;1.635950505733490E-001;-7.461542636156082E-002;-6.138397380709648E-003;2.418338321149349E-003;
2.423666666666667E+009;1.637879312038422E-001;-7.663349807262421E-002;-6.023604888468981E-003;2.561023691669107E-003;
2.423833333333334E+009;1.637017726898193E-001;-7.843337953090668E-002;-5.881375633180141E-003;2.773178042843938E-003;
2.424000000000000E+009;1.637901365756989E-001;-8.037862926721573E-002;-5.695258267223835E-003;3.141307272017002E-003;
2.424166666666667E+009;1.639846414327622E-001;-8.207270503044128E-002;-5.701356101781130E-003;3.305216552689672E-003;
2.424333333333334E+009;1.642688214778900E-001;-8.387622982263565E-002;-5.550265312194824E-003;3.352997591719031E-003;
2.424500000000000E+009;1.645285785198212E-001;-8.565904945135117E-002;-5.506339948624373E-003;3.634160151705146E-003;
2.424666666666667E+009;1.649968475103378E-001;-8.714984357357025E-002;-5.331755150109530E-003;3.886215155944228E-003;
2.424833333333334E+009;1.658330708742142E-001;-8.871964365243912E-002;-4.976597148925066E-003;3.976223990321159E-003;
2.425000000000000E+009;1.661818474531174E-001;-8.998326212167740E-002;-5.019509233534336E-003;4.295604769140482E-003;
2.425166666666667E+009;1.665933579206467E-001;-9.114211797714233E-002;-4.807768389582634E-003;4.287973046302795E-003;
2.425333333333334E+009;1.671158224344254E-001;-9.224361926317215E-002;-4.552466794848442E-003;4.493457730859518E-003;
2.425500000000000E+009;1.677531450986862E-001;-9.344207495450974E-002;-4.380326252430677E-003;4.536957945674658E-003;
2.425666666666667E+009;1.684651076793671E-001;-9.416624903678894E-002;-4.161449149250984E-003;4.664411768317223E-003;
2.425833333333334E+009;1.688606441020966E-001;-9.514795243740082E-002;-4.025998059660196E-003;4.734400659799576E-003;
2.426000000000000E+009;1.695831269025803E-001;-9.572955220937729E-002;-3.987437579780817E-003;4.879095591604710E-003;
2.426166666666667E+009;1.703120768070221E-001;-9.624057263135910E-002;-3.571940353140235E-003;5.006355699151754E-003;
2.426333333333334E+009;1.706382781267166E-001;-9.689643979072571E-002;-3.642633324488998E-003;5.218363367021084E-003;
2.426500000000000E+009;1.712588071823120E-001;-9.739246964454651E-002;-3.301921300590038E-003;5.126025527715683E-003;
2.426666666666667E+009;1.718076765537262E-001;-9.783231467008591E-002;-3.220191225409508E-003;5.226257257163525E-003;
2.426833333333334E+009;1.723330914974213E-001;-9.810847789049149E-002;-2.958068158477545E-003;5.393868312239647E-003;
2.427000000000000E+009;1.726131886243820E-001;-9.835022687911987E-002;-2.903473097831011E-003;5.503732711076737E-003;
2.427166666666667E+009;1.729233413934708E-001;-9.843610227108002E-002;-2.667633118107915E-003;5.332075059413910E-003;
2.427333333333334E+009;1.731294393539429E-001;-9.881139546632767E-002;-2.479823539033532E-003;5.599792115390301E-003;
2.427500000000000E+009;1.730755865573883E-001;-9.906221926212311E-002;-2.474577864632011E-003;5.581687204539776E-003;
2.427666666666667E+009;1.730308532714844E-001;-9.909485280513763E-002;-2.205307595431805E-003;5.591858178377152E-003;
