# Version 1.00
#
freq[Hz];re:Trc1_S11;im:Trc1_S11;re:Trc2_S21;im:Trc2_S21;
2.400000000000000E+009;1.502208709716797E-001;1.133393570780754E-001;3.070560749620199E-003;6.554943043738604E-003;
2.400166666666667E+009;1.499386578798294E-001;1.110394150018692E-001;3.445261856541038E-003;6.357987876981497E-003;
2.400333333333334E+009;1.501937508583069E-001;1.088207736611366E-001;3.828797722235322E-003;6.172622088342905E-003;
2.400500000000000E+009;1.500236988067627E-001;1.062248125672340E-001;4.053362179547548E-003;5.768611561506987E-003;
2.400666666666667E+009;1.503554880619049E-001;1.038519665598869E-001;4.329476039856672E-003;5.347416270524263E-003;
2.400833333333334E+009;1.502552777528763E-001;1.008966937661171E-001;4.567690659314394E-003;5.081585142761469E-003;
2.401000000000000E+009;1.505558192729950E-001;9.816212952136993E-002;4.689853638410568E-003;4.582641646265984E-003;
2.401166666666667E+009;1.507467180490494E-001;9.551590681076050E-002;4.877585452049971E-003;4.173390101641417E-003;
2.401333333333334E+009;1.513731777667999E-001;9.282691031694412E-002;4.787375684827566E-003;3.882831661030650E-003;
2.401500000000000E+009;1.518771499395371E-001;8.989445865154266E-002;4.629058763384819E-003;3.545281942933798E-003;
2.401666666666667E+009;1.522493511438370E-001;8.705605566501617E-002;4.406300839036703E-003;3.304726909846067E-003;
2.401833333333334E+009;1.529056727886200E-001;8.454807102680206E-002;4.455600399523974E-003;3.014724468812347E-003;
2.402000000000000E+009;1.539720147848129E-001;8.175877481698990E-002;4.340841900557280E-003;2.908860566094518E-003;
2.402166666666667E+009;1.549710780382156E-001;7.922302186489105E-002;4.156048409640789E-003;2.824628259986639E-003;
2.402333333333334E+009;1.559686064720154E-001;7.647121697664261E-002;4.239512141793966E-003;2.866331255063415E-003;
2.402500000000000E+009;1.575105935335159E-001;7.389900088310242E-002;4.114435054361820E-003;2.718939445912838E-003;
2.402666666666667E+009;1.587345451116562E-001;7.179952412843704E-002;4.039220046252012E-003;2.623731503263116E-003;
2.402833333333334E+009;1.603551506996155E-001;6.929477304220200E-002;4.263431299477816E-003;2.661664271727204E-003;
2.403000000000000E+009;1.617529392242432E-001;6.702355295419693E-002;4.173915833234787E-003;2.646760549396277E-003;
2.403166666666667E+009;1.637217551469803E-001;6.481625139713287E-002;4.264958668500185E-003;2.632245887070894E-003;
2.403333333333334E+009;1.653449088335037E-001;6.253012269735336E-002;4.369214177131653E-003;2.565814414992929E-003;
2.403500000000000E+009;1.673256754875183E-001;6.047442555427551E-002;4.517576191574335E-003;2.337784972041845E-003;
2.403666666666667E+009;1.694434136152268E-001;5.857833102345467E-002;4.662491846829653E-003;2.418906195089221E-003;
2.403833333333334E+009;1.711586713790894E-001;5.671603605151177E-002;4.746465012431145E-003;2.154114888980985E-003;
2.404000000000000E+009;1.728412657976151E-001;5.486217141151428E-002;4.978049546480179E-003;1.992614008486271E-003;
2.404166666666667E+009;1.749837100505829E-001;5.331753566861153E-002;5.050092935562134E-003;1.977645326405764E-003;
2.404333333333334E+009;1.768060922622681E-001;5.170022323727608E-002;5.057436414062977E-003;1.691057579591870E-003;
2.404500000000000E+009;1.786261200904846E-001;5.040391534566879E-002;5.316546652466059E-003;1.574764610268176E-003;
2.404666666666667E+009;1.803714334964752E-001;4.926934093236923E-002;5.393368657678366E-003;1.313904533162713E-003;
2.404833333333334E+009;1.823257207870483E-001;4.803624004125595E-002;5.312983412295580E-003;1.111931167542934E-003;
2.405000000000000E+009;1.836664825677872E-001;4.724219813942909E-002;5.409162957221270E-003;8.287469390779734E-004;
2.405166666666667E+009;1.853671669960022E-001;4.648102074861527E-002;5.324085708707571E-003;5.195119301788509E-004;
2.405333333333334E+009;1.870698928833008E-001;4.603148624300957E-002;5.301600787788630E-003;3.336780646350235E-004;
2.405500000000000E+009;1.885685175657272E-001;4.548665136098862E-002;5.325235426425934E-003;1.962726528290659E-004;
2.405666666666667E+009;1.898653060197830E-001;4.511544108390808E-002;5.257624201476574E-003;2.248437340313103E-005;
2.405833333333334E+009;1.912941634654999E-001;4.491226747632027E-002;5.008722655475140E-003;-1.606984151294455E-004;
2.406000000000000E+009;1.926246136426926E-001;4.474551230669022E-002;5.059227813035250E-003;-2.961629070341587E-004;
2.406166666666667E+009;1.936685591936112E-001;4.446813091635704E-002;4.756825976073742E-003;-5.199290462769568E-004;
2.406333333333334E+009;1.947634220123291E-001;4.443067684769630E-002;4.536758176982403E-003;-7.589510641992092E-004;
2.406500000000000E+009;1.954851150512695E-001;4.437274485826492E-002;4.504738375544548E-003;-6.327499868348241E-004;
2.406666666666667E+009;1.964170038700104E-001;4.435679316520691E-002;4.556762520223856E-003;-7.683091098442674E-004;
2.406833333333334E+009;1.969676017761231E-001;4.434791579842567E-002;4.471382591873407E-003;-7.918350747786462E-004;
2.407000000000000E+009;1.973094195127487E-001;4.443467780947685E-002;4.454600159078836E-003;-7.101899245753884E-004;
2.407166666666667E+009;1.978110224008560E-001;4.419713839888573E-002;4.290905781090260E-003;-8.251314284279943E-004;
2.407333333333334E+009;1.978037655353546E-001;4.435524716973305E-002;4.471960477530956E-003;-9.637511684559286E-004;
2.407500000000000E+009;1.977802962064743E-001;4.432939738035202E-002;4.406342748552561E-003;-7.549305446445942E-004;
2.407666666666667E+009;1.978238373994827E-001;4.413127154111862E-002;4.443989135324955E-003;-8.584309834986925E-004;
2.407833333333334E+009;1.973017156124115E-001;4.389595240354538E-002;4.514680244028568E-003;-1.100141089409590E-003;
2.408000000000000E+009;1.973341256380081E-001;4.372905567288399E-002;4.583135247230530E-003;-9.626317187212408E-004;
2.408166666666667E+009;1.966916322708130E-001;4.331507161259651E-002;4.616246558725834E-003;-1.101869624108076E-003;
2.408333333333334E+009;1.960862576961517E-001;4.285140335559845E-002;4.804777447134256E-003;-1.090835081413388E-003;
2.408500000000000E+009;1.952552795410156E-001;4.246491938829422E-002;4.866844043135643E-003;-1.254787668585777E-003;
2.408666666666667E+009;1.946631520986557E-001;4.190450906753540E-002;4.855401348322630E-003;-1.541320583783090E-003;
2.408833333333334E+009;1.940124183893204E-001;4.107814282178879E-002;4.850263241678476E-003;-1.583791221491993E-003;
2.409000000000000E+009;1.928804069757462E-001;4.015403985977173E-002;5.010141991078854E-003;-1.682719448581338E-003;
2.409166666666667E+009;1.918230205774307E-001;3.927756845951080E-002;5.006596446037293E-003;-1.979210181161761E-003;
2.409333333333334E+009;1.908650845289230E-001;3.818114101886749E-002;5.099463276565075E-003;-2.246933523565531E-003;
2.409500000000000E+009;1.896464377641678E-001;3.705580905079842E-002;4.988460801541805E-003;-2.486539771780372E-003;
2.409666666666667E+009;1.886265277862549E-001;3.557985275983810E-002;5.022264085710049E-003;-2.623559907078743E-003;
2.409833333333334E+009;1.873559653759003E-001;3.418717905879021E-002;4.976384341716766E-003;-2.872262382879853E-003;
2.410000000000000E+009;1.864037215709686E-001;3.248126432299614E-002;4.898662213236094E-003;-3.032412845641375E-003;
2.410166666666667E+009;1.852926462888718E-001;3.073400817811489E-002;4.861330147832632E-003;-3.259263001382351E-003;
2.410333333333334E+009;1.841154992580414E-001;2.910971827805042E-002;4.762740805745125E-003;-3.523841267451644E-003;
2.410500000000000E+009;1.832825690507889E-001;2.709395997226238E-002;4.632573109120131E-003;-3.769578645005822E-003;
2.410666666666667E+009;1.822826415300369E-001;2.483342215418816E-002;4.596020095050335E-003;-3.950992599129677E-003;
2.410833333333334E+009;1.816940456628799E-001;2.279266715049744E-002;4.509707447141409E-003;-4.127533640712500E-003;
2.411000000000000E+009;1.808470040559769E-001;2.044826559722424E-002;4.265440627932549E-003;-4.305019974708557E-003;
2.411166666666667E+009;1.802130341529846E-001;1.840188354253769E-002;4.244796466082335E-003;-4.506856203079224E-003;
2.411333333333334E+009;1.796581894159317E-001;1.572716422379017E-002;3.963087685406208E-003;-4.664594773203135E-003;
2.411500000000000E+009;1.791597455739975E-001;1.342962402850390E-002;3.834256902337074E-003;-5.099914036691189E-003;
2.411666666666667E+009;1.789672821760178E-001;1.116763148456812E-002;3.528390778228641E-003;-5.130163859575987E-003;
2.411833333333334E+009;1.786252260208130E-001;8.528892882168293E-003;3.375079948455095E-003;-5.255185533314943E-003;
2.412000000000000E+009;1.788209378719330E-001;5.915632937103510E-003;3.144820686429739E-003;-5.463971756398678E-003;
2.412166666666667E+009;1.787935495376587E-001;3.541510552167893E-003;2.844402566552162E-003;-5.444397218525410E-003;
2.412333333333334E+009;1.789463609457016E-001;1.009765081107616E-003;2.605917397886515E-003;-5.568493623286486E-003;
2.412500000000000E+009;1.794187873601914E-001;-1.420409651473165E-003;2.451074775308371E-003;-5.771035328507423E-003;
2.412666666666667E+009;1.799390763044357E-001;-3.944012802094221E-003;2.227153861895204E-003;-6.100555881857872E-003;
2.412833333333334E+009;1.807328313589096E-001;-6.412519142031670E-003;1.923220697790384E-003;-5.981585476547480E-003;
2.413000000000000E+009;1.815310567617416E-001;-8.855052292346954E-003;1.754040829837322E-003;-6.047037430107594E-003;
2.413166666666667E+009;1.821697056293488E-001;-1.114472094923258E-002;1.353989006020129E-003;-6.197661161422730E-003;
2.413333333333334E+009;1.832909733057022E-001;-1.338585745543242E-002;1.174978795461357E-003;-6.087523419409990E-003;
2.413500000000000E+009;1.841375529766083E-001;-1.567524299025536E-002;9.649708517827094E-004;-6.005263887345791E-003;
2.413666666666667E+009;1.854436695575714E-001;-1.781148836016655E-002;7.866392261348665E-004;-6.068574264645577E-003;
2.413833333333334E+009;1.865159869194031E-001;-2.000108920037746E-002;5.519736441783607E-004;-6.132453680038452E-003;
2.414000000000000E+009;1.878027915954590E-001;-2.194427326321602E-002;3.531598194967955E-004;-6.102488841861486E-003;
2.414166666666667E+009;1.891443282365799E-001;-2.384941093623638E-002;2.072191418847069E-004;-6.059652194380760E-003;
2.414333333333334E+009;1.902278661727905E-001;-2.567076869308949E-002;3.041708077944350E-005;-6.029179785400629E-003;
2.414500000000000E+009;1.916203200817108E-001;-2.718811854720116E-002;-3.093482227995992E-004;-6.058462429791689E-003;
2.414666666666667E+009;1.929452121257782E-001;-2.866473980247974E-002;-4.030105192214251E-004;-6.114315241575241E-003;
2.414833333333334E+009;1.940415352582932E-001;-3.002715297043324E-002;-6.250043516047299E-004;-6.130282767117024E-003;
2.415000000000000E+009;1.951951086521149E-001;-3.139080852270126E-002;-9.190718992613256E-004;-6.236294750124216E-003;
2.415166666666667E+009;1.965644508600235E-001;-3.250900283455849E-002;-1.158770057372749E-003;-6.233859807252884E-003;
2.415333333333334E+009;1.976402848958969E-001;-3.342736884951592E-002;-1.482749823480845E-003;-6.255715619772673E-003;
2.415500000000000E+009;1.988590806722641E-001;-3.422835469245911E-002;-1.702355802990496E-003;-6.012887228280306E-003;
2.415666666666667E+009;1.999804973602295E-001;-3.510926663875580E-002;-2.044201362878084E-003;-6.079583894461393E-003;
2.415833333333334E+009;2.008763104677200E-001;-3.574803099036217E-002;-2.321878913789988E-003;-6.060288287699223E-003;
2.416000000000000E+009;2.016721814870834E-001;-3.631392493844032E-002;-2.675813622772694E-003;-5.848184227943420E-003;
2.416166666666667E+009;2.024703621864319E-001;-3.685934469103813E-002;-2.836680039763451E-003;-5.766722839325666E-003;
2.416333333333334E+009;2.031103074550629E-001;-3.709756955504417E-002;-3.182530635967851E-003;-5.477054975926876E-003;
2.416500000000000E+009;2.036932706832886E-001;-3.735251724720001E-002;-3.349368460476399E-003;-5.263859406113625E-003;
2.416666666666667E+009;2.039274424314499E-001;-3.778994455933571E-002;-3.595405025407672E-003;-4.953873809427023E-003;
2.416833333333334E+009;2.041471451520920E-001;-3.762275353074074E-002;-3.645152784883976E-003;-4.782070405781269E-003;
2.417000000000000E+009;2.043729573488236E-001;-3.780448809266090E-002;-3.926404286175966E-003;-4.616237245500088E-003;
2.417166666666667E+009;2.039827257394791E-001;-3.775428608059883E-002;-3.844915656372905E-003;-4.357477184385061E-003;
2.417333333333334E+009;2.038300931453705E-001;-3.745112568140030E-002;-3.929563798010349E-003;-3.981819842010737E-003;
2.417500000000000E+009;2.035950124263763E-001;-3.747689351439476E-002;-3.847488667815924E-003;-4.008019808679819E-003;
2.417666666666667E+009;2.031304091215134E-001;-3.708181902766228E-002;-3.987338393926621E-003;-3.595101879909635E-003;
2.417833333333334E+009;2.028364837169647E-001;-3.696187213063240E-002;-4.030048381537199E-003;-3.545937361195684E-003;
2.418000000000000E+009;2.021582573652268E-001;-3.669728338718414E-002;-4.088087007403374E-003;-3.470955649390817E-003;
2.418166666666667E+009;2.013749331235886E-001;-3.645609319210053E-002;-4.066684748977423E-003;-3.303373465314508E-003;
2.418333333333334E+009;2.005374431610107E-001;-3.637081012129784E-002;-4.196021240204573E-003;-3.253987990319729E-003;
2.418500000000000E+009;1.995732933282852E-001;-3.627571836113930E-002;-4.181857220828533E-003;-3.159894607961178E-003;
2.418666666666667E+009;1.986895352602005E-001;-3.612804785370827E-002;-4.331264179199934E-003;-3.321048105135560E-003;
2.418833333333334E+009;1.975212842226028E-001;-3.635625913739204E-002;-4.332493059337139E-003;-3.054536413401365E-003;
2.419000000000000E+009;1.961683630943298E-001;-3.638725355267525E-002;-4.463008604943752E-003;-2.960750367492437E-003;
2.419166666666667E+009;1.949580758810043E-001;-3.672308474779129E-002;-4.611156415194273E-003;-2.776456996798515E-003;
2.419333333333334E+009;1.935659497976303E-001;-3.719093278050423E-002;-4.538278095424175E-003;-2.837082603946328E-003;
2.419500000000000E+009;1.921274065971375E-001;-3.760613501071930E-002;-4.723920952528715E-003;-2.528440672904253E-003;
2.419666666666667E+009;1.904872953891754E-001;-3.843139484524727E-002;-4.770225379616022E-003;-2.525513758882880E-003;
2.419833333333334E+009;1.889255493879318E-001;-3.915055841207504E-002;-4.893121309578419E-003;-2.259127795696259E-003;
2.420000000000000E+009;1.874383389949799E-001;-4.003450274467468E-002;-4.984069615602493E-003;-2.103938488289714E-003;
2.420166666666667E+009;1.856904774904251E-001;-4.108176380395889E-002;-5.186063703149557E-003;-1.765078166499734E-003;
2.420333333333334E+009;1.840671300888062E-001;-4.227392002940178E-002;-5.312561057507992E-003;-1.634582527913153E-003;
2.420500000000000E+009;1.824425011873245E-001;-4.366051033139229E-002;-5.119188223034143E-003;-1.305180951021612E-003;
2.420666666666667E+009;1.806966960430145E-001;-4.469660669565201E-002;-5.271892528980970E-003;-1.100722351111472E-003;
2.420833333333334E+009;1.790862232446671E-001;-4.617742076516151E-002;-5.221954546868801E-003;-8.516706293448806E-004;
2.421000000000000E+009;1.776065081357956E-001;-4.774573072791100E-002;-5.263092461973429E-003;-6.619548075832427E-004;
2.421166666666667E+009;1.762071102857590E-001;-4.938764870166779E-002;-4.940612707287073E-003;-3.205869288649410E-004;
2.421333333333334E+009;1.742149442434311E-001;-5.100291594862938E-002;-4.866330884397030E-003;-2.069303154712543E-004;
2.421500000000000E+009;1.730625927448273E-001;-5.291019007563591E-002;-4.581197164952755E-003;-8.374588105652947E-006;
2.421666666666667E+009;1.717005223035812E-001;-5.459292232990265E-002;-4.630930256098509E-003;-9.532550029689446E-005;
2.421833333333334E+009;1.706981211900711E-001;-5.647839233279228E-002;-4.398291464895010E-003;1.256715131603414E-005;
2.422000000000000E+009;1.694495528936386E-001;-5.847551673650742E-002;-4.152567125856876E-003;4.170009924564511E-005;
2.422166666666667E+009;1.687526106834412E-001;-6.057632341980934E-002;-4.157795105129480E-003;-1.178240563604049E-004;
2.422333333333334E+009;1.677255481481552E-001;-6.260765343904495E-002;-4.042878281325102E-003;-1.138763254857622E-004;
2.422500000000000E+009;1.669041067361832E-001;-6.450579315423966E-002;-4.033642821013928E-003;-1.289783685933799E-004;
2.422666666666667E+009;1.662602722644806E-001;-6.653916090726852E-002;-4.041180945932865E-003;-2.283555077156052E-004;
2.422833333333334E+009;1.658590137958527E-001;-6.868956238031387E-002;-4.053966142237186E-003;-3.482036408968270E-004;
2.423000000000000E+009;1.652718633413315E-001;-7.057566940784454E-002;-4.023361019790173E-003;-2.309124974999577E-004;
2.423166666666667E+009;1.650537252426148E-001;-7.257846742868424E-002;-4.327167756855488E-003;-3.042300813831389E-004;
2.423333333333334E+009;1.648532748222351E-001;-7.463161647319794E-002;-4.409912042319775E-003;-2.566762559581548E-004;
2.423500000000000E+009;1.647431552410126E-001;-7.641287147998810E-002;-4.490405786782503E-003;-3.695799387060106E-004;
2.423666666666667E+009;1.648349165916443E-001;-7.829967886209488E-002;-4.869263153523207E-003;-9.283924737246707E-005;
2.423833333333334E+009;1.649518758058548E-001;-8.008626103401184E-002;-4.749579820781946E-003;6.248924910323694E-005;
2.424000000000000E+009;1.650559753179550E-001;-8.193014562129974E-002;-4.924880340695381E-003;2.953851362690330E-004;
2.424166666666667E+009;1.652147769927979E-001;-8.355086296796799E-002;-5.144830793142319E-003;3.360072150826454E-004;
2.424333333333334E+009;1.657307147979736E-001;-8.497711271047592E-002;-5.377036053687334E-003;4.910889547318220E-004;
2.424500000000000E+009;1.660338342189789E-001;-8.670486509799957E-002;-5.314621608704329E-003;8.403448737226427E-004;
2.424666666666667E+009;1.664168089628220E-001;-8.795563876628876E-002;-5.580060649663210E-003;9.423113660886884E-004;
2.424833333333334E+009;1.670620292425156E-001;-8.934295177459717E-002;-5.416039377450943E-003;1.229712041094899E-003;
2.425000000000000E+009;1.675468236207962E-001;-9.058923274278641E-002;-5.522661842405796E-003;1.677005086094141E-003;
2.425166666666667E+009;1.678082495927811E-001;-9.161597490310669E-002;-5.593182053416967E-003;1.831300789490342E-003;
2.425333333333334E+009;1.684264540672302E-001;-9.266137331724167E-002;-5.457519553601742E-003;2.093188464641571E-003;
2.425500000000000E+009;1.689544171094894E-001;-9.354508668184280E-002;-5.461806431412697E-003;2.222701907157898E-003;
2.425666666666667E+009;1.695559322834015E-001;-9.418366104364395E-002;-5.333646200597286E-003;2.568317344412208E-003;
2.425833333333334E+009;1.701736450195313E-001;-9.522987157106400E-002;-5.102050025016069E-003;2.899335930123925E-003;
2.426000000000000E+009;1.707111299037933E-001;-9.554467350244522E-002;-5.119204055517912E-003;2.998228650540113E-003;
2.426166666666667E+009;1.711447387933731E-001;-9.611631929874420E-002;-4.990951158106327E-003;3.253735834732652E-003;
2.426333333333334E+009;1.714989542961121E-001;-9.664773195981979E-002;-4.735236987471581E-003;3.602921497076750E-003;
2.426500000000000E+009;1.720719188451767E-001;-9.693865478038788E-002;-4.629621282219887E-003;3.777124686166644E-003;
2.426666666666667E+009;1.724856197834015E-001;-9.730117768049240E-002;-4.615916870534420E-003;3.924446646124125E-003;
2.426833333333334E+009;1.729091107845306E-001;-9.759505838155747E-002;-4.367653280496597E-003;4.027522634714842E-003;
2.427000000000000E+009;1.729431152343750E-001;-9.784055501222611E-002;-4.233492072671652E-003;4.170260392129421E-003;
2.427166666666667E+009;1.731912493705750E-001;-9.805002063512802E-002;-4.051327239722014E-003;4.434075206518173E-003;
2.427333333333334E+009;1.731413900852203E-001;-9.835319221019745E-002;-3.972734790295363E-003;4.495291970670223E-003;
2.427500000000000E+009;1.730798333883286E-001;-9.856355190277100E-002;-3.835834562778473E-003;4.594670142978430E-003;
2.427666666666667E+009;1.729399114847183E-001;-9.867324680089951E-002;-3.585309488698840E-003;4.732343833893538E-003;
