# Version 1.00
#
freq[Hz];re:Trc1_S11;im:Trc1_S11;re:Trc2_S21;im:Trc2_S21;
2.400000000000000E+009;1.501163989305496E-001;1.132345199584961E-001;3.048122627660632E-003;6.643622647970915E-003;
2.400166666666667E+009;1.499199271202087E-001;1.109493598341942E-001;3.323062323033810E-003;6.282986141741276E-003;
2.400333333333334E+009;1.501199603080750E-001;1.088205948472023E-001;3.829045686870813E-003;6.166825070977211E-003;
2.400500000000000E+009;1.501025706529617E-001;1.061223298311234E-001;4.065098706632853E-003;5.824108142405748E-003;
2.400666666666667E+009;1.503412574529648E-001;1.037787050008774E-001;4.456188529729843E-003;5.416804458945990E-003;
2.400833333333334E+009;1.503930538892746E-001;1.009445935487747E-001;4.423148464411497E-003;5.112376995384693E-003;
2.401000000000000E+009;1.507238894701004E-001;9.806688874959946E-002;4.613677505403757E-003;4.440641496330500E-003;
2.401166666666667E+009;1.508938074111939E-001;9.547426551580429E-002;4.745336249470711E-003;4.192866384983063E-003;
2.401333333333334E+009;1.512592583894730E-001;9.261018782854080E-002;4.768864717334509E-003;3.877540584653616E-003;
2.401500000000000E+009;1.518236845731735E-001;8.987863361835480E-002;4.686666652560234E-003;3.550119232386351E-003;
2.401666666666667E+009;1.523609459400177E-001;8.716415613889694E-002;4.669603426009417E-003;3.299061441794038E-003;
2.401833333333334E+009;1.529398262500763E-001;8.435583114624023E-002;4.503186792135239E-003;2.941594691947103E-003;
2.402000000000000E+009;1.538881361484528E-001;8.173715323209763E-002;4.490441177040339E-003;2.927918219938874E-003;
2.402166666666667E+009;1.549185961484909E-001;7.913363724946976E-002;4.119871649891138E-003;2.720157848671079E-003;
2.402333333333334E+009;1.560753881931305E-001;7.650988548994064E-002;4.174093250185251E-003;2.608183305710554E-003;
2.402500000000000E+009;1.574637442827225E-001;7.406185567378998E-002;4.132057074457407E-003;2.607796806842089E-003;
2.402666666666667E+009;1.586867868900299E-001;7.171212881803513E-002;4.068611189723015E-003;2.575889229774475E-003;
2.402833333333334E+009;1.602011620998383E-001;6.919244676828384E-002;3.936806228011847E-003;2.576171653345227E-003;
2.403000000000000E+009;1.618963181972504E-001;6.692180782556534E-002;4.136186558753252E-003;2.475034445524216E-003;
2.403166666666667E+009;1.637921780347824E-001;6.484843790531158E-002;4.267913289368153E-003;2.467395737767220E-003;
2.403333333333334E+009;1.654012352228165E-001;6.251046061515808E-002;4.353870172053576E-003;2.405181527137756E-003;
2.403500000000000E+009;1.673603504896164E-001;6.050429120659828E-002;4.545566625893116E-003;2.432462293654680E-003;
2.403666666666667E+009;1.692936569452286E-001;5.871325731277466E-002;4.692338872700930E-003;2.260667737573385E-003;
2.403833333333334E+009;1.712726652622223E-001;5.673269927501679E-002;4.634384997189045E-003;2.258170861750841E-003;
2.404000000000000E+009;1.729134768247604E-001;5.483073368668556E-002;4.871194250881672E-003;2.192755928263068E-003;
2.404166666666667E+009;1.748038381338120E-001;5.336939170956612E-002;5.039575509727001E-003;1.999896485358477E-003;
2.404333333333334E+009;1.768029332160950E-001;5.176632478833199E-002;5.147636402398348E-003;1.734036486595869E-003;
2.404500000000000E+009;1.786909997463226E-001;5.031444877386093E-002;5.152040626853705E-003;1.524394960142672E-003;
2.404666666666667E+009;1.804316937923431E-001;4.917056113481522E-002;5.164301954209805E-003;1.302078482694924E-003;
2.404833333333334E+009;1.822395324707031E-001;4.805163294076920E-002;5.328265018761158E-003;9.471977828070521E-004;
2.405000000000000E+009;1.837083250284195E-001;4.734780639410019E-002;5.408222787082195E-003;7.889441912993789E-004;
2.405166666666667E+009;1.856396198272705E-001;4.662344977259636E-002;5.354771856218576E-003;5.353483720682561E-004;
2.405333333333334E+009;1.868202388286591E-001;4.617894440889359E-002;5.419065710157156E-003;4.043632070533931E-004;
2.405500000000000E+009;1.885403096675873E-001;4.584226012229919E-002;5.208589602261782E-003;1.723880122881383E-004;
2.405666666666667E+009;1.899450719356537E-001;4.539796337485313E-002;5.254792980849743E-003;1.166025504062418E-005;
2.405833333333334E+009;1.913557797670364E-001;4.489813372492790E-002;5.080939270555973E-003;-1.792874681996182E-004;
2.406000000000000E+009;1.926453113555908E-001;4.476540163159370E-002;4.966548178344965E-003;-3.491031238809228E-004;
2.406166666666667E+009;1.938961446285248E-001;4.443678259849548E-002;4.814200568944216E-003;-5.156391998752952E-004;
2.406333333333334E+009;1.949821561574936E-001;4.440144076943398E-002;4.837552085518837E-003;-6.371140480041504E-004;
2.406500000000000E+009;1.956302076578140E-001;4.431365802884102E-002;4.635951016098261E-003;-8.286582888104022E-004;
2.406666666666667E+009;1.963567137718201E-001;4.440174996852875E-002;4.394021816551685E-003;-6.394125521183014E-004;
2.406833333333334E+009;1.970879584550858E-001;4.431829601526260E-002;4.389542154967785E-003;-6.930984673090279E-004;
2.407000000000000E+009;1.974059194326401E-001;4.448997974395752E-002;4.414540249854326E-003;-6.776158115826547E-004;
2.407166666666667E+009;1.978256255388260E-001;4.422346875071526E-002;4.410632885992527E-003;-8.066440350376070E-004;
2.407333333333334E+009;1.978933960199356E-001;4.417322203516960E-002;4.368852823972702E-003;-1.457668724469841E-003;
2.407500000000000E+009;1.977944225072861E-001;4.430189728736877E-002;4.082823172211647E-003;-3.197672776877880E-004;
2.407666666666667E+009;1.978118568658829E-001;4.405017942190170E-002;4.054946824908257E-003;-1.036080182529986E-003;
2.407833333333334E+009;1.975188404321671E-001;4.384674131870270E-002;4.763896577060223E-003;-1.331725739873946E-003;
2.408000000000000E+009;1.973069906234741E-001;4.363572224974632E-002;3.763585351407528E-003;-1.477699144743383E-003;
2.408166666666667E+009;1.967484205961227E-001;4.325942695140839E-002;4.487834405153990E-003;-2.208965132012963E-003;
2.408333333333334E+009;1.960303634405136E-001;4.274023696780205E-002;4.198399838060141E-003;-6.364679429680109E-004;
2.408500000000000E+009;1.955643445253372E-001;4.221726953983307E-002;4.476460628211498E-003;-2.485331613570452E-003;
2.408666666666667E+009;1.947806328535080E-001;4.188305512070656E-002;5.102801602333784E-003;-1.555615337565541E-003;
2.408833333333334E+009;1.939609646797180E-001;4.097687825560570E-002;4.907769151031971E-003;-1.692180871032178E-003;
2.409000000000000E+009;1.928748935461044E-001;4.025341197848320E-002;4.946325439959765E-003;-1.850430038757622E-003;
2.409166666666667E+009;1.916877329349518E-001;3.919298946857452E-002;5.041999742388725E-003;-1.926598022691906E-003;
2.409333333333334E+009;1.908381283283234E-001;3.804003447294235E-002;5.122181028127670E-003;-2.235290361568332E-003;
2.409500000000000E+009;1.896505057811737E-001;3.682335093617439E-002;5.104417912662029E-003;-2.451047534123063E-003;
2.409666666666667E+009;1.885603517293930E-001;3.556550666689873E-002;4.964761435985565E-003;-2.725548576563597E-003;
2.409833333333334E+009;1.872261017560959E-001;3.398011624813080E-002;5.074939690530300E-003;-2.952902344986796E-003;
2.410000000000000E+009;1.862540543079376E-001;3.234511986374855E-002;4.935655277222395E-003;-3.049914259463549E-003;
2.410166666666667E+009;1.852481663227081E-001;3.079699911177158E-002;4.903486929833889E-003;-3.225150750949979E-003;
2.410333333333334E+009;1.842216104269028E-001;2.889818325638771E-002;4.724462982267141E-003;-3.528827801346779E-003;
2.410500000000000E+009;1.832120269536972E-001;2.702690847218037E-002;4.738316405564547E-003;-3.703597234562039E-003;
2.410666666666667E+009;1.822398751974106E-001;2.482060715556145E-002;4.593586549162865E-003;-3.982038702815771E-003;
2.410833333333334E+009;1.815542727708817E-001;2.282967977225781E-002;4.469834733754396E-003;-4.171183332800865E-003;
2.411000000000000E+009;1.808296442031860E-001;2.047730050981045E-002;4.349437076598406E-003;-4.320337437093258E-003;
2.411166666666667E+009;1.799307614564896E-001;1.832135021686554E-002;4.138960503041744E-003;-4.549188539385796E-003;
2.411333333333334E+009;1.796498298645020E-001;1.578523404896259E-002;4.000827204436064E-003;-4.749464802443981E-003;
2.411500000000000E+009;1.791671216487885E-001;1.338883955031633E-002;3.780551953241229E-003;-4.995588678866625E-003;
2.411666666666667E+009;1.788677573204041E-001;1.105670724064112E-002;3.534399904310703E-003;-5.141161847859621E-003;
2.411833333333334E+009;1.786313652992249E-001;8.613158017396927E-003;3.435266669839621E-003;-5.283083301037550E-003;
2.412000000000000E+009;1.786931902170181E-001;5.924832075834274E-003;3.144562244415283E-003;-5.366844125092030E-003;
2.412166666666667E+009;1.789118498563767E-001;3.617435926571488E-003;2.971094567328692E-003;-5.562186241149902E-003;
2.412333333333334E+009;1.790252327919006E-001;1.048495876602829E-003;2.749860752373934E-003;-5.706200376152992E-003;
2.412500000000000E+009;1.795694530010223E-001;-1.467152382247150E-003;2.341702813282609E-003;-5.994672421365976E-003;
2.412666666666667E+009;1.798842847347260E-001;-3.925620112568140E-003;2.245691139250994E-003;-5.766498390585184E-003;
2.412833333333334E+009;1.805316507816315E-001;-6.294130813330412E-003;2.049677772447467E-003;-5.960041657090187E-003;
2.413000000000000E+009;1.812856346368790E-001;-8.856560103595257E-003;1.825813786126673E-003;-5.953920539468527E-003;
2.413166666666667E+009;1.820740997791290E-001;-1.106216385960579E-002;1.344413496553898E-003;-6.063468288630247E-003;
2.413333333333334E+009;1.832616478204727E-001;-1.348752155900002E-002;1.187922898679972E-003;-6.043643224984407E-003;
2.413500000000000E+009;1.840914338827133E-001;-1.563147827982903E-002;8.827220881357789E-004;-5.990710575133562E-003;
2.413666666666667E+009;1.855429261922836E-001;-1.779211312532425E-002;8.241853211075068E-004;-6.126119755208492E-003;
2.413833333333334E+009;1.864742338657379E-001;-1.998855173587799E-002;5.813434254378080E-004;-6.066903937608004E-003;
2.414000000000000E+009;1.877527236938477E-001;-2.182745933532715E-002;4.601256805472076E-004;-6.222624797374010E-003;
2.414166666666667E+009;1.890948116779327E-001;-2.371218055486679E-002;1.476253601140343E-006;-6.213657092303038E-003;
2.414333333333334E+009;1.902520805597305E-001;-2.565179206430912E-002;5.550060086534359E-005;-5.990548990666866E-003;
2.414500000000000E+009;1.916279494762421E-001;-2.722352743148804E-002;-1.224185543833301E-004;-6.032154895365238E-003;
2.414666666666667E+009;1.927916705608368E-001;-2.862995676696301E-002;-5.147625925019383E-004;-6.184724625200033E-003;
2.414833333333334E+009;1.939826756715775E-001;-3.009734489023686E-002;-5.132597871124744E-004;-6.148974411189556E-003;
2.415000000000000E+009;1.952529549598694E-001;-3.132386133074760E-002;-9.645827230997384E-004;-6.271178834140301E-003;
2.415166666666667E+009;1.964301317930222E-001;-3.257975354790688E-002;-1.099570654332638E-003;-6.233730353415012E-003;
2.415333333333334E+009;1.976377665996552E-001;-3.358494862914085E-002;-1.489020301960409E-003;-6.185526028275490E-003;
2.415500000000000E+009;1.987569183111191E-001;-3.429771959781647E-002;-1.746652997098863E-003;-6.228989921510220E-003;
2.415666666666667E+009;1.998658776283264E-001;-3.500934690237045E-002;-2.035676734521985E-003;-6.135772913694382E-003;
2.415833333333334E+009;2.007297128438950E-001;-3.576997295022011E-002;-2.322149230167270E-003;-5.852835718542337E-003;
2.416000000000000E+009;2.016615569591522E-001;-3.627936169505119E-002;-2.851945348083973E-003;-5.827184766530991E-003;
2.416166666666667E+009;2.023426592350006E-001;-3.678853437304497E-002;-2.936857054010034E-003;-5.629244726151228E-003;
2.416333333333334E+009;2.030389606952667E-001;-3.721950203180313E-002;-3.138763131573796E-003;-5.372984800487757E-003;
2.416500000000000E+009;2.035956531763077E-001;-3.729999437928200E-002;-3.356973174959421E-003;-5.161214619874954E-003;
2.416666666666667E+009;2.039532214403153E-001;-3.771857544779778E-002;-3.486891509965062E-003;-4.915772471576929E-003;
2.416833333333334E+009;2.039840966463089E-001;-3.773660212755203E-002;-3.821388818323612E-003;-4.733593668788672E-003;
2.417000000000000E+009;2.043398320674896E-001;-3.791910409927368E-002;-3.838323056697846E-003;-4.430571570992470E-003;
2.417166666666667E+009;2.040635049343109E-001;-3.764123097062111E-002;-3.881467739120126E-003;-4.264126531779766E-003;
2.417333333333334E+009;2.038511931896210E-001;-3.741907700896263E-002;-4.046069923788309E-003;-4.068759270012379E-003;
2.417500000000000E+009;2.036924511194229E-001;-3.739194944500923E-002;-3.958590794354677E-003;-3.814343130216003E-003;
2.417666666666667E+009;2.032832950353622E-001;-3.721160069108009E-002;-3.958352841436863E-003;-3.735477570444346E-003;
2.417833333333334E+009;2.028361707925797E-001;-3.681608289480209E-002;-4.070944618433714E-003;-3.634343855082989E-003;
2.418000000000000E+009;2.020797282457352E-001;-3.663800284266472E-002;-4.148234147578478E-003;-3.514942945912480E-003;
2.418166666666667E+009;2.013403922319412E-001;-3.646344691514969E-002;-4.221773706376553E-003;-3.233372233808041E-003;
2.418333333333334E+009;2.005009800195694E-001;-3.628599271178246E-002;-4.168350249528885E-003;-3.291841130703688E-003;
2.418500000000000E+009;1.995247900485992E-001;-3.627497702836990E-002;-4.348982591181994E-003;-3.203927772119641E-003;
2.418666666666667E+009;1.986085325479507E-001;-3.612629324197769E-002;-4.271682817488909E-003;-3.072665305808187E-003;
2.418833333333334E+009;1.974354684352875E-001;-3.625783696770668E-002;-4.244656302034855E-003;-3.136830637231469E-003;
2.419000000000000E+009;1.960656195878983E-001;-3.634811192750931E-002;-4.276422318071127E-003;-2.873139921575785E-003;
2.419166666666667E+009;1.949312537908554E-001;-3.663865476846695E-002;-4.451947752386332E-003;-2.830875106155872E-003;
2.419333333333334E+009;1.935887485742569E-001;-3.715889528393745E-002;-4.665333777666092E-003;-2.750127809122205E-003;
2.419500000000000E+009;1.920064836740494E-001;-3.750295192003250E-002;-4.787934012711048E-003;-2.698331838473678E-003;
2.419666666666667E+009;1.904251575469971E-001;-3.840469941496849E-002;-4.787700250744820E-003;-2.570705255493522E-003;
2.419833333333334E+009;1.888755112886429E-001;-3.907812014222145E-002;-4.934563301503658E-003;-2.274761674925685E-003;
2.420000000000000E+009;1.873320937156677E-001;-3.999779745936394E-002;-5.132229067385197E-003;-2.161491429433227E-003;
2.420166666666667E+009;1.856918036937714E-001;-4.101435467600822E-002;-5.222761537879705E-003;-1.891054213047028E-003;
2.420333333333334E+009;1.840523928403854E-001;-4.228387773036957E-002;-5.285628139972687E-003;-1.520529040135443E-003;
2.420500000000000E+009;1.822212338447571E-001;-4.347449541091919E-002;-5.188555456697941E-003;-1.408744603395462E-003;
2.420666666666667E+009;1.806831061840057E-001;-4.473526775836945E-002;-5.298963747918606E-003;-1.031557214446366E-003;
2.420833333333334E+009;1.790504306554794E-001;-4.607417434453964E-002;-5.133133847266436E-003;-8.321889326907694E-004;
2.421000000000000E+009;1.775091290473938E-001;-4.764600843191147E-002;-5.087205208837986E-003;-6.557342130690813E-004;
2.421166666666667E+009;1.759950667619705E-001;-4.950390011072159E-002;-4.836934152990580E-003;-4.936546902172267E-004;
2.421333333333334E+009;1.743579804897308E-001;-5.093685537576675E-002;-4.815389867872000E-003;-3.181934298481792E-004;
2.421500000000000E+009;1.730498820543289E-001;-5.289562419056892E-002;-4.601662047207356E-003;-1.982292305910960E-004;
2.421666666666667E+009;1.718762964010239E-001;-5.467557534575462E-002;-4.506909754127264E-003;-1.515628682682291E-004;
2.421833333333334E+009;1.706782728433609E-001;-5.650741979479790E-002;-4.320229869335890E-003;-3.104838469880633E-005;
2.422000000000000E+009;1.694573909044266E-001;-5.851284042000771E-002;-4.098559729754925E-003;-8.419303776463494E-005;
2.422166666666667E+009;1.686231195926666E-001;-6.053581088781357E-002;-4.245123360306025E-003;-2.311817115696613E-005;
2.422333333333334E+009;1.675431132316589E-001;-6.259424239397049E-002;-4.046484362334013E-003;-4.738728239317425E-005;
2.422500000000000E+009;1.668613851070404E-001;-6.449562311172485E-002;-4.001630470156670E-003;-1.131719036493450E-004;
2.422666666666667E+009;1.662066578865051E-001;-6.650967895984650E-002;-4.036861937493086E-003;-1.744096516631544E-004;
2.422833333333334E+009;1.657303720712662E-001;-6.857671588659287E-002;-4.083737730979919E-003;-2.129802305717021E-004;
2.423000000000000E+009;1.652584075927734E-001;-7.068762183189392E-002;-4.152355715632439E-003;-3.493455587886274E-004;
2.423166666666667E+009;1.650354713201523E-001;-7.255511730909348E-002;-4.357235506176949E-003;-2.677309385035187E-004;
2.423333333333334E+009;1.649180799722672E-001;-7.455187290906906E-002;-4.395689349621534E-003;-1.822176418500021E-004;
2.423500000000000E+009;1.646136790513992E-001;-7.640286535024643E-002;-4.592276178300381E-003;-4.944073953083716E-005;
2.423666666666667E+009;1.648674905300140E-001;-7.827835530042648E-002;-4.651854280382395E-003;-7.873484719311819E-005;
2.423833333333334E+009;1.648708134889603E-001;-8.000364154577255E-002;-4.720472730696201E-003;4.454429654288106E-005;
2.424000000000000E+009;1.650815755128861E-001;-8.188053965568543E-002;-5.080479662865400E-003;2.921343548223376E-004;
2.424166666666667E+009;1.653587371110916E-001;-8.341625332832336E-002;-5.205176770687103E-003;3.785736043937504E-004;
2.424333333333334E+009;1.655837148427963E-001;-8.509253710508347E-002;-5.257281940430403E-003;5.637534777633846E-004;
2.424500000000000E+009;1.660574078559876E-001;-8.678437024354935E-002;-5.350051913410425E-003;8.627983625046909E-004;
2.424666666666667E+009;1.663228720426559E-001;-8.799121528863907E-002;-5.404960829764605E-003;9.384677396155894E-004;
2.424833333333334E+009;1.670121401548386E-001;-8.930622041225433E-002;-5.357686430215836E-003;1.303666736930609E-003;
2.425000000000000E+009;1.675860583782196E-001;-9.054867178201675E-002;-5.560222081840038E-003;1.603612443432212E-003;
2.425166666666667E+009;1.679287403821945E-001;-9.160949289798737E-002;-5.473716650158167E-003;1.832271576859057E-003;
2.425333333333334E+009;1.684499680995941E-001;-9.250298887491226E-002;-5.414317362010479E-003;2.150149783119559E-003;
2.425500000000000E+009;1.690656840801239E-001;-9.359245002269745E-002;-5.456268321722746E-003;2.433724468573928E-003;
2.425666666666667E+009;1.695953458547592E-001;-9.419094026088715E-002;-5.205715075135231E-003;2.635503420606256E-003;
2.425833333333334E+009;1.700628846883774E-001;-9.508127719163895E-002;-5.234441254287958E-003;2.893749391660094E-003;
2.426000000000000E+009;1.705903261899948E-001;-9.552916139364243E-002;-5.139403045177460E-003;3.038803348317742E-003;
2.426166666666667E+009;1.711720675230026E-001;-9.608700871467590E-002;-4.908546805381775E-003;3.273599781095982E-003;
2.426333333333334E+009;1.714464575052261E-001;-9.661352634429932E-002;-4.944469779729843E-003;3.588150721043348E-003;
2.426500000000000E+009;1.720698922872543E-001;-9.681962430477142E-002;-4.717296455055475E-003;3.635394154116511E-003;
2.426666666666667E+009;1.724627017974854E-001;-9.716763347387314E-002;-4.530909936875105E-003;3.972061909735203E-003;
2.426833333333334E+009;1.728519648313522E-001;-9.757142513990402E-002;-4.417599644511938E-003;3.992927726358175E-003;
2.427000000000000E+009;1.730073690414429E-001;-9.783717989921570E-002;-4.196422640234232E-003;4.236772656440735E-003;
2.427166666666667E+009;1.731120944023132E-001;-9.798993915319443E-002;-4.163772799074650E-003;4.272569436579943E-003;
2.427333333333334E+009;1.731600016355515E-001;-9.833291918039322E-002;-3.974393475800753E-003;4.381180275231600E-003;
2.427500000000000E+009;1.731145828962326E-001;-9.850891679525375E-002;-3.871700260788202E-003;4.490310326218605E-003;
2.427666666666667E+009;1.728015094995499E-001;-9.863885492086411E-002;-3.655584994703531E-003;4.684152547270060E-003;
