# Version 1.00
#
freq[Hz];re:Trc1_S11;im:Trc1_S11;re:Trc2_S21;im:Trc2_S21;
2.400000000000000E+009;1.503226310014725E-001;1.134230867028236E-001;3.033236367627978E-003;6.601932458579540E-003;
2.400166666666667E+009;1.500701308250427E-001;1.110789850354195E-001;3.544525476172566E-003;6.438249722123146E-003;
2.400333333333334E+009;1.500082761049271E-001;1.088281497359276E-001;3.859177464619279E-003;6.189858075231314E-003;
2.400500000000000E+009;1.501897275447846E-001;1.062765643000603E-001;4.043572582304478E-003;5.729051306843758E-003;
2.400666666666667E+009;1.503577828407288E-001;1.036182194948196E-001;4.355274606496096E-003;5.394403822720051E-003;
2.400833333333334E+009;1.501894742250443E-001;1.009312570095062E-001;4.466292448341847E-003;5.000168457627296E-003;
2.401000000000000E+009;1.505682766437531E-001;9.833346307277679E-002;4.709353204816580E-003;4.494303837418556E-003;
2.401166666666667E+009;1.508387774229050E-001;9.546265006065369E-002;4.697374999523163E-003;4.277216736227274E-003;
2.401333333333334E+009;1.513205766677856E-001;9.286906570196152E-002;4.615157842636108E-003;3.913520369678736E-003;
2.401500000000000E+009;1.518520712852478E-001;9.002766758203507E-002;4.731049761176109E-003;3.354380372911692E-003;
2.401666666666667E+009;1.524066776037216E-001;8.714541792869568E-002;4.516805056482554E-003;3.209142712876201E-003;
2.401833333333334E+009;1.529791504144669E-001;8.445833623409271E-002;4.439859185367823E-003;3.241373226046562E-003;
2.402000000000000E+009;1.540108919143677E-001;8.172915875911713E-002;4.272272344678640E-003;3.071911865845323E-003;
2.402166666666667E+009;1.549420356750488E-001;7.917367666959763E-002;4.329255782067776E-003;2.863028086721897E-003;
2.402333333333334E+009;1.561606377363205E-001;7.660514861345291E-002;4.240874666720629E-003;2.820294117555022E-003;
2.402500000000000E+009;1.573331356048584E-001;7.414422929286957E-002;4.134014714509249E-003;2.712643472477794E-003;
2.402666666666667E+009;1.587275117635727E-001;7.176498323678970E-002;4.301128443330526E-003;2.526629948988557E-003;
2.402833333333334E+009;1.601706296205521E-001;6.929115206003189E-002;4.125361796468496E-003;2.612293697893620E-003;
2.403000000000000E+009;1.619269102811813E-001;6.694569438695908E-002;4.261760972440243E-003;2.617980120703578E-003;
2.403166666666667E+009;1.638948172330856E-001;6.485465914011002E-002;4.136395640671253E-003;2.553316764533520E-003;
2.403333333333334E+009;1.653425246477127E-001;6.246089935302734E-002;4.525788594037294E-003;2.574391197413206E-003;
2.403500000000000E+009;1.673456430435181E-001;6.049021333456039E-002;4.395291209220886E-003;2.297089900821447E-003;
2.403666666666667E+009;1.693589836359024E-001;5.855270475149155E-002;4.474082496017218E-003;2.420286182314158E-003;
2.403833333333334E+009;1.711134165525436E-001;5.671168491244316E-002;4.659720230847597E-003;2.299483865499497E-003;
2.404000000000000E+009;1.728783100843430E-001;5.496412143111229E-002;4.838907625526190E-003;2.077333629131317E-003;
2.404166666666667E+009;1.748742610216141E-001;5.327529460191727E-002;5.069512873888016E-003;1.955329440534115E-003;
2.404333333333334E+009;1.767465174198151E-001;5.176337808370590E-002;5.156973842531443E-003;1.880874508060515E-003;
2.404500000000000E+009;1.785914152860642E-001;5.011879280209541E-002;5.235126242041588E-003;1.437023631297052E-003;
2.404666666666667E+009;1.803056746721268E-001;4.927750676870346E-002;5.195260047912598E-003;1.208750065416098E-003;
2.404833333333334E+009;1.821442991495132E-001;4.813168942928314E-002;5.356031935662031E-003;9.692325256764889E-004;
2.405000000000000E+009;1.836305409669876E-001;4.744683578610420E-002;5.392772611230612E-003;9.109752136282623E-004;
2.405166666666667E+009;1.853107064962387E-001;4.671501740813255E-002;5.498391576111317E-003;5.489739705808461E-004;
2.405333333333334E+009;1.868624538183212E-001;4.611487314105034E-002;5.316596943885088E-003;5.772028234787285E-004;
2.405500000000000E+009;1.885620802640915E-001;4.549125581979752E-002;5.204815417528153E-003;1.056722976500168E-004;
2.405666666666667E+009;1.899189054965973E-001;4.517406597733498E-002;5.043599288910627E-003;-7.635077781742439E-005;
2.405833333333334E+009;1.914110481739044E-001;4.501339048147202E-002;5.041908007115126E-003;-2.787908306345344E-004;
2.406000000000000E+009;1.925062984228134E-001;4.471800848841667E-002;5.055111367255449E-003;-3.291702305432409E-004;
2.406166666666667E+009;1.937528252601624E-001;4.453992098569870E-002;4.877939354628325E-003;-6.511413957923651E-004;
2.406333333333334E+009;1.948195248842239E-001;4.442147910594940E-002;4.649433773010969E-003;-4.802210314664990E-004;
2.406500000000000E+009;1.956584751605988E-001;4.444111883640289E-002;4.464165307581425E-003;-6.805767770856619E-004;
2.406666666666667E+009;1.963677406311035E-001;4.438642412424088E-002;4.485478624701500E-003;-6.893154932186008E-004;
2.406833333333334E+009;1.970883458852768E-001;4.426833614706993E-002;4.507593810558319E-003;-6.559736793860793E-004;
2.407000000000000E+009;1.973990350961685E-001;4.452079162001610E-002;4.349576774984598E-003;-7.263176376000047E-004;
2.407166666666667E+009;1.978620886802673E-001;4.425585642457008E-002;4.664048086851835E-003;-7.681513088755310E-004;
2.407333333333334E+009;1.978859156370163E-001;4.423452541232109E-002;4.477329086512327E-003;-8.995424723252654E-004;
2.407500000000000E+009;1.979350298643112E-001;4.443370923399925E-002;4.384776111692190E-003;-8.251324179582298E-004;
2.407666666666667E+009;1.979699134826660E-001;4.411678761243820E-002;4.456819035112858E-003;-8.800003561191261E-004;
2.407833333333334E+009;1.974729448556900E-001;4.403577372431755E-002;4.552203230559826E-003;-1.001731259748340E-003;
2.408000000000000E+009;1.972824782133102E-001;4.375705868005753E-002;4.585978109389544E-003;-9.289194713346660E-004;
2.408166666666667E+009;1.967089921236038E-001;4.335321113467217E-002;4.574850201606751E-003;-9.480341104790568E-004;
2.408333333333334E+009;1.962761282920837E-001;4.274098575115204E-002;4.541582427918911E-003;-1.236026990227401E-003;
2.408500000000000E+009;1.955678164958954E-001;4.245610162615776E-002;4.754137713462114E-003;-1.321471994742751E-003;
2.408666666666667E+009;1.947612464427948E-001;4.197338595986366E-002;4.968819674104452E-003;-1.423055306077004E-003;
2.408833333333334E+009;1.940141916275024E-001;4.112647473812103E-002;4.937862046062946E-003;-1.662491704337299E-003;
2.409000000000000E+009;1.928497552871704E-001;4.027165845036507E-002;4.992919042706490E-003;-1.829004846513271E-003;
2.409166666666667E+009;1.917741000652313E-001;3.920583054423332E-002;4.920399747788906E-003;-2.006355440244079E-003;
2.409333333333334E+009;1.908880919218063E-001;3.829400613903999E-002;4.967081826180220E-003;-2.122036414220929E-003;
2.409500000000000E+009;1.895689666271210E-001;3.705215081572533E-002;4.996926523745060E-003;-2.446337370201945E-003;
2.409666666666667E+009;1.885608136653900E-001;3.560272231698036E-002;4.990854766219854E-003;-2.596631180495024E-003;
2.409833333333334E+009;1.874751895666122E-001;3.418578207492828E-002;5.023875273764134E-003;-2.924304688349366E-003;
2.410000000000000E+009;1.863656491041184E-001;3.253566846251488E-002;4.863215144723654E-003;-3.174224868416786E-003;
2.410166666666667E+009;1.852090060710907E-001;3.071955405175686E-002;4.817059729248285E-003;-3.260966856032610E-003;
2.410333333333334E+009;1.842457056045532E-001;2.905710786581039E-002;4.751418251544237E-003;-3.505504457280040E-003;
2.410500000000000E+009;1.832958757877350E-001;2.718097157776356E-002;4.702574573457241E-003;-3.696612780913711E-003;
2.410666666666667E+009;1.823168098926544E-001;2.487923577427864E-002;4.490195773541927E-003;-3.887835191562772E-003;
2.410833333333334E+009;1.817476004362106E-001;2.271394990384579E-002;4.413893911987543E-003;-4.193509928882122E-003;
2.411000000000000E+009;1.808769553899765E-001;2.048390172421932E-002;4.358444828540087E-003;-4.371818155050278E-003;
2.411166666666667E+009;1.802679002285004E-001;1.832466386258602E-002;4.207761026918888E-003;-4.481183830648661E-003;
2.411333333333334E+009;1.797355562448502E-001;1.592572778463364E-002;3.915554843842983E-003;-4.678005818277597E-003;
2.411500000000000E+009;1.792022436857224E-001;1.341005694121122E-002;3.690658602863550E-003;-4.838633816689253E-003;
2.411666666666667E+009;1.790530830621719E-001;1.109551545232534E-002;3.521070815622807E-003;-5.193227436393499E-003;
2.411833333333334E+009;1.786551624536514E-001;8.604158647358418E-003;3.406076924875379E-003;-5.219306796789169E-003;
2.412000000000000E+009;1.788055598735809E-001;6.095125339925289E-003;3.192543517798185E-003;-5.335895810276270E-003;
2.412166666666667E+009;1.788347363471985E-001;3.685494652017951E-003;2.894840668886900E-003;-5.639464128762484E-003;
2.412333333333334E+009;1.791710555553436E-001;1.204168307594955E-003;2.641272265464068E-003;-5.645548924803734E-003;
2.412500000000000E+009;1.795255690813065E-001;-1.286418642848730E-003;2.449984429404140E-003;-5.790668539702892E-003;
2.412666666666667E+009;1.800143271684647E-001;-3.734863130375743E-003;2.236447297036648E-003;-5.855212453752756E-003;
2.412833333333334E+009;1.807809174060822E-001;-6.281048059463501E-003;1.987092895433307E-003;-5.848634056746960E-003;
2.413000000000000E+009;1.816295832395554E-001;-8.738762699067593E-003;1.821893616579473E-003;-6.084279622882605E-003;
2.413166666666667E+009;1.822759658098221E-001;-1.104817911982536E-002;1.385282841511071E-003;-6.090564653277397E-003;
2.413333333333334E+009;1.833959221839905E-001;-1.340832188725472E-002;1.146751805208623E-003;-6.030885502696037E-003;
2.413500000000000E+009;1.842852383852005E-001;-1.564779877662659E-002;9.079340961761773E-004;-6.095437798649073E-003;
2.413666666666667E+009;1.855286657810211E-001;-1.770183630287647E-002;7.182937115430832E-004;-6.160563789308071E-003;
2.413833333333334E+009;1.865593194961548E-001;-1.982163451611996E-002;4.725828475784510E-004;-6.212199106812477E-003;
2.414000000000000E+009;1.877015680074692E-001;-2.189851179718971E-002;2.508764737285674E-004;-6.075790151953697E-003;
2.414166666666667E+009;1.889810115098953E-001;-2.357157506048679E-002;1.804934290703386E-004;-6.029941141605377E-003;
2.414333333333334E+009;1.901190727949143E-001;-2.570043690502644E-002;1.255099141417304E-005;-6.081752013415098E-003;
2.414500000000000E+009;1.914784610271454E-001;-2.717362903058529E-002;-3.147957613691688E-004;-6.061292719095945E-003;
2.414666666666667E+009;1.926706284284592E-001;-2.875719033181667E-002;-3.017308190464973E-004;-6.105438340455294E-003;
2.414833333333334E+009;1.939411610364914E-001;-3.014027699828148E-002;-6.026576156727970E-004;-6.196281872689724E-003;
2.415000000000000E+009;1.951017379760742E-001;-3.146743029356003E-002;-8.567394106648862E-004;-6.323628593236208E-003;
2.415166666666667E+009;1.964295357465744E-001;-3.261141106486321E-002;-1.234507421031594E-003;-6.226066499948502E-003;
2.415333333333334E+009;1.976006180047989E-001;-3.351015970110893E-002;-1.389170880429447E-003;-6.158288568258286E-003;
2.415500000000000E+009;1.988068372011185E-001;-3.428645431995392E-002;-1.778714591637254E-003;-6.130351684987545E-003;
2.415666666666667E+009;1.998529583215714E-001;-3.521029278635979E-002;-2.174682449549437E-003;-6.092868745326996E-003;
2.415833333333334E+009;2.007957845926285E-001;-3.576565161347389E-002;-2.394661772996187E-003;-5.975625943392515E-003;
2.416000000000000E+009;2.017159163951874E-001;-3.638542816042900E-002;-2.644715830683708E-003;-5.867793224751949E-003;
2.416166666666667E+009;2.023781836032867E-001;-3.682301938533783E-002;-2.803585957735777E-003;-5.607889499515295E-003;
2.416333333333334E+009;2.030491977930069E-001;-3.726960718631744E-002;-3.116728272289038E-003;-5.579983815550804E-003;
2.416500000000000E+009;2.036681473255158E-001;-3.740211203694344E-002;-3.325416706502438E-003;-5.309109576046467E-003;
2.416666666666667E+009;2.039348036050797E-001;-3.771348297595978E-002;-3.518048906698823E-003;-4.983367398381233E-003;
2.416833333333334E+009;2.042002081871033E-001;-3.763639554381371E-002;-3.740918822586536E-003;-4.704121500253677E-003;
2.417000000000000E+009;2.043468356132507E-001;-3.782402724027634E-002;-3.853573463857174E-003;-4.442273639142513E-003;
2.417166666666667E+009;2.041475772857666E-001;-3.773516789078713E-002;-3.903829725459218E-003;-4.339741077274084E-003;
2.417333333333334E+009;2.038772106170654E-001;-3.746676445007324E-002;-3.849392058327794E-003;-4.069081041961908E-003;
2.417500000000000E+009;2.036356925964356E-001;-3.748092800378799E-002;-4.009616561233997E-003;-4.035537596791983E-003;
2.417666666666667E+009;2.031962722539902E-001;-3.715086728334427E-002;-3.906032769009471E-003;-3.760767867788672E-003;
2.417833333333334E+009;2.027822434902191E-001;-3.699162229895592E-002;-3.976520616561174E-003;-3.595495829358697E-003;
2.418000000000000E+009;2.021521180868149E-001;-3.662463650107384E-002;-3.977055195719004E-003;-3.503913991153240E-003;
2.418166666666667E+009;2.013594210147858E-001;-3.645759448409081E-002;-4.158662166446447E-003;-3.262780141085386E-003;
2.418333333333334E+009;2.004832774400711E-001;-3.636020794510841E-002;-4.027619026601315E-003;-3.247700165957212E-003;
2.418500000000000E+009;1.995051056146622E-001;-3.626490384340286E-002;-4.244771320372820E-003;-3.152922028675675E-003;
2.418666666666667E+009;1.987176090478897E-001;-3.606411442160606E-002;-4.217385314404964E-003;-3.072426887229085E-003;
2.418833333333334E+009;1.976028531789780E-001;-3.631392493844032E-002;-4.239763598889113E-003;-3.091028658673167E-003;
2.419000000000000E+009;1.960595548152924E-001;-3.646926209330559E-002;-4.262763541191816E-003;-2.818736014887691E-003;
2.419166666666667E+009;1.949653625488281E-001;-3.675820305943489E-002;-4.483154043555260E-003;-2.834636252373457E-003;
2.419333333333334E+009;1.936732232570648E-001;-3.715433552861214E-002;-4.566928837448359E-003;-2.638550242409110E-003;
2.419500000000000E+009;1.921351402997971E-001;-3.769395872950554E-002;-4.632509779185057E-003;-2.540058223530650E-003;
2.419666666666667E+009;1.906141936779022E-001;-3.847303614020348E-002;-4.762189928442240E-003;-2.402825513854623E-003;
2.419833333333334E+009;1.890314370393753E-001;-3.920200839638710E-002;-4.882508888840675E-003;-2.113283611834049E-003;
2.420000000000000E+009;1.874356269836426E-001;-4.005007073283196E-002;-5.104164127260447E-003;-2.095292322337627E-003;
2.420166666666667E+009;1.857487857341766E-001;-4.103378579020500E-002;-5.169761367142201E-003;-1.780606107786298E-003;
2.420333333333334E+009;1.842134445905685E-001;-4.227084666490555E-002;-5.220615770667791E-003;-1.671705045737326E-003;
2.420500000000000E+009;1.824912130832672E-001;-4.362042248249054E-002;-5.099937319755554E-003;-1.321094227023423E-003;
2.420666666666667E+009;1.807937771081924E-001;-4.477489367127419E-002;-5.262580234557390E-003;-1.100153545849025E-003;
2.420833333333334E+009;1.789918392896652E-001;-4.626439511775971E-002;-5.293628666549921E-003;-8.713090792298317E-004;
2.421000000000000E+009;1.774513125419617E-001;-4.775471985340118E-002;-5.039176438003779E-003;-3.722944238688797E-004;
2.421166666666667E+009;1.760808974504471E-001;-4.949217289686203E-002;-4.998401738703251E-003;-3.702464455273002E-004;
2.421333333333334E+009;1.744102984666824E-001;-5.096122249960899E-002;-4.689289722591639E-003;-2.201675815740600E-004;
2.421500000000000E+009;1.731515377759934E-001;-5.295154079794884E-002;-4.587857518345118E-003;-5.925130244577304E-005;
2.421666666666667E+009;1.717749387025833E-001;-5.469462648034096E-002;-4.584522917866707E-003;-1.622270428924821E-005;
2.421833333333334E+009;1.705515086650848E-001;-5.666602775454521E-002;-4.393517505377531E-003;1.399573084199801E-004;
2.422000000000000E+009;1.694358736276627E-001;-5.847949907183647E-002;-4.248642362654209E-003;-1.219777768710628E-004;
2.422166666666667E+009;1.686740219593048E-001;-6.062947213649750E-002;-3.921749070286751E-003;-1.681654612184502E-005;
2.422333333333334E+009;1.677263081073761E-001;-6.254068762063980E-002;-4.128292202949524E-003;-8.196333510568366E-005;
2.422500000000000E+009;1.669145673513413E-001;-6.447856873273850E-002;-3.937463741749525E-003;-9.222100197803229E-005;
2.422666666666667E+009;1.662431657314301E-001;-6.648205965757370E-002;-4.051167983561754E-003;-2.408810396445915E-004;
2.422833333333334E+009;1.656944751739502E-001;-6.852374225854874E-002;-4.176015499979258E-003;-2.391370362602174E-004;
2.423000000000000E+009;1.652544438838959E-001;-7.060032337903976E-002;-4.153428599238396E-003;-2.408383734291419E-004;
2.423166666666667E+009;1.649442464113236E-001;-7.246229797601700E-002;-4.327506292611361E-003;-2.462365955580026E-004;
2.423333333333334E+009;1.648408621549606E-001;-7.454723864793778E-002;-4.437137860804796E-003;-2.744341909419745E-004;
2.423500000000000E+009;1.647235751152039E-001;-7.646628469228745E-002;-4.692641086876392E-003;-2.830764860846102E-004;
2.423666666666667E+009;1.647707968950272E-001;-7.822705805301666E-002;-4.958684556186199E-003;-1.413219724781811E-004;
2.423833333333334E+009;1.648809313774109E-001;-7.999335229396820E-002;-4.889426287263632E-003;-1.608972888789140E-005;
2.424000000000000E+009;1.650430858135223E-001;-8.189928531646729E-002;-5.026096478104591E-003;1.726966303294830E-007;
2.424166666666667E+009;1.652503311634064E-001;-8.346036076545715E-002;-5.207546055316925E-003;4.137488722335547E-004;
2.424333333333334E+009;1.655390560626984E-001;-8.492098748683929E-002;-5.408660043030977E-003;7.065226091071963E-004;
2.424500000000000E+009;1.661198437213898E-001;-8.665901422500610E-002;-5.363601725548506E-003;7.676279055885971E-004;
2.424666666666667E+009;1.664210259914398E-001;-8.806150406599045E-002;-5.432270001620054E-003;9.873383678495884E-004;
2.424833333333334E+009;1.669568121433258E-001;-8.935564756393433E-002;-5.540975369513035E-003;1.243961858563125E-003;
2.425000000000000E+009;1.673971563577652E-001;-9.054068475961685E-002;-5.637139081954956E-003;1.501994207501411E-003;
2.425166666666667E+009;1.678817272186279E-001;-9.157866239547730E-002;-5.502626299858093E-003;1.793992705643177E-003;
2.425333333333334E+009;1.684478074312210E-001;-9.254528582096100E-002;-5.447382107377052E-003;2.047442598268390E-003;
2.425500000000000E+009;1.690454185009003E-001;-9.365868568420410E-002;-5.459515377879143E-003;2.380644902586937E-003;
2.425666666666667E+009;1.696441769599915E-001;-9.436421096324921E-002;-5.421348847448826E-003;2.436544280499220E-003;
2.425833333333334E+009;1.700505614280701E-001;-9.501603245735169E-002;-5.213111639022827E-003;2.740436233580113E-003;
2.426000000000000E+009;1.707375794649124E-001;-9.558041393756867E-002;-5.086708348244429E-003;3.207965753972530E-003;
2.426166666666667E+009;1.711455881595612E-001;-9.605802595615387E-002;-4.997248761355877E-003;3.419772256165743E-003;
2.426333333333334E+009;1.714159548282623E-001;-9.657036513090134E-002;-4.904025234282017E-003;3.596874885261059E-003;
2.426500000000000E+009;1.720194518566132E-001;-9.687343984842300E-002;-4.697390832006931E-003;3.758587408810854E-003;
2.426666666666667E+009;1.723912656307221E-001;-9.732384234666824E-002;-4.507858306169510E-003;3.838719800114632E-003;
2.426833333333334E+009;1.728189736604691E-001;-9.759562462568283E-002;-4.358096513897181E-003;4.054721910506487E-003;
2.427000000000000E+009;1.729497164487839E-001;-9.789189696311951E-002;-4.322700202465057E-003;4.118591081351042E-003;
2.427166666666667E+009;1.729999482631683E-001;-9.791962802410126E-002;-4.005176015198231E-003;4.218684509396553E-003;
2.427333333333334E+009;1.731798052787781E-001;-9.834656119346619E-002;-3.973997663706541E-003;4.525752272456884E-003;
2.427500000000000E+009;1.730767488479614E-001;-9.855763614177704E-002;-3.794952528551221E-003;4.638693295419216E-003;
2.427666666666667E+009;1.728020459413528E-001;-9.871049970388413E-002;-3.723761998116970E-003;4.642521031200886E-003;
