# Version 1.00
#
freq[Hz];re:Trc1_S11;im:Trc1_S11;re:Trc2_S21;im:Trc2_S21;
2.400000000000000E+009;1.502539515495300E-001;1.134768277406693E-001;2.932023955509067E-003;6.745343096554279E-003;
2.400166666666667E+009;1.500026732683182E-001;1.111235469579697E-001;3.531580790877342E-003;6.416252814233303E-003;
2.400333333333334E+009;1.501418501138687E-001;1.087634935975075E-001;3.804431995376945E-003;6.196526344865561E-003;
2.400500000000000E+009;1.502093076705933E-001;1.061828061938286E-001;4.076904617249966E-003;5.852553062140942E-003;
2.400666666666667E+009;1.503551006317139E-001;1.036670356988907E-001;4.155836533755064E-003;5.338077899068594E-003;
2.400833333333334E+009;1.503193378448486E-001;1.009011566638947E-001;4.552749451249838E-003;4.972428083419800E-003;
2.401000000000000E+009;1.506400555372238E-001;9.811799228191376E-002;4.691002424806356E-003;4.637293517589569E-003;
2.401166666666667E+009;1.507541835308075E-001;9.534429758787155E-002;4.735173191875219E-003;4.270006902515888E-003;
2.401333333333334E+009;1.512385308742523E-001;9.262017905712128E-002;4.629808943718672E-003;3.831045003607869E-003;
2.401500000000000E+009;1.518125087022781E-001;8.983522653579712E-002;4.671270493417978E-003;3.590095322579145E-003;
2.401666666666667E+009;1.521980166435242E-001;8.722629398107529E-002;4.542156122624874E-003;3.319992916658521E-003;
2.401833333333334E+009;1.529380679130554E-001;8.432466536760330E-002;4.558314569294453E-003;3.168800147250295E-003;
2.402000000000000E+009;1.538331508636475E-001;8.176647126674652E-002;4.365799482911825E-003;2.821846166625619E-003;
2.402166666666667E+009;1.548800170421600E-001;7.922579348087311E-002;4.267439711838961E-003;2.739647636190057E-003;
2.402333333333334E+009;1.560068726539612E-001;7.668599486351013E-002;4.124152008444071E-003;2.726766047999263E-003;
2.402500000000000E+009;1.572712510824204E-001;7.393971830606461E-002;4.206768237054348E-003;2.608498791232705E-003;
2.402666666666667E+009;1.586051583290100E-001;7.167758792638779E-002;4.241134971380234E-003;2.607255475595594E-003;
2.402833333333334E+009;1.602564156055450E-001;6.918282806873322E-002;4.210424609482288E-003;2.653276780620217E-003;
2.403000000000000E+009;1.618505120277405E-001;6.689282506704330E-002;4.179754294455051E-003;2.554028760641813E-003;
2.403166666666667E+009;1.636390686035156E-001;6.479603797197342E-002;4.176221787929535E-003;2.609368180856109E-003;
2.403333333333334E+009;1.653255820274353E-001;6.245160475373268E-002;4.377572331577539E-003;2.343371277675033E-003;
2.403500000000000E+009;1.671819686889648E-001;6.039829179644585E-002;4.458012059330940E-003;2.387847052887082E-003;
2.403666666666667E+009;1.692626029253006E-001;5.851405858993530E-002;4.531073849648237E-003;2.290925942361355E-003;
2.403833333333334E+009;1.712985336780548E-001;5.670592188835144E-002;4.772316664457321E-003;2.218315145000815E-003;
2.404000000000000E+009;1.727821081876755E-001;5.478639528155327E-002;4.802440293133259E-003;2.141760196536779E-003;
2.404166666666667E+009;1.748827993869782E-001;5.322833731770515E-002;5.104795563966036E-003;1.976632280275226E-003;
2.404333333333334E+009;1.768288910388947E-001;5.178829282522202E-002;4.967445973306894E-003;1.644973759539425E-003;
2.404500000000000E+009;1.784509271383286E-001;5.029559135437012E-002;5.149636883288622E-003;1.592208514921367E-003;
2.404666666666667E+009;1.804369837045670E-001;4.908894747495651E-002;5.363212898373604E-003;1.134811434894800E-003;
2.404833333333334E+009;1.823967397212982E-001;4.790855944156647E-002;5.200691986829042E-003;9.107965743169189E-004;
2.405000000000000E+009;1.838222146034241E-001;4.731231182813644E-002;5.296166986227036E-003;8.763069636188448E-004;
2.405166666666667E+009;1.855872571468353E-001;4.651449620723724E-002;5.414316896349192E-003;5.516005330719054E-004;
2.405333333333334E+009;1.870297491550446E-001;4.610039666295052E-002;5.260245408862829E-003;3.452704404480755E-004;
2.405500000000000E+009;1.885920464992523E-001;4.557031020522118E-002;5.327198654413223E-003;1.059333517332561E-004;
2.405666666666667E+009;1.900003105401993E-001;4.514450207352638E-002;5.300223827362061E-003;-9.090154344448820E-005;
2.405833333333334E+009;1.914754509925842E-001;4.485782235860825E-002;4.998038522899151E-003;-9.792459604796022E-005;
2.406000000000000E+009;1.924879848957062E-001;4.461144655942917E-002;4.819517955183983E-003;-4.677271645050496E-004;
2.406166666666667E+009;1.937561184167862E-001;4.437494277954102E-002;4.747707862406969E-003;-4.233151848893613E-004;
2.406333333333334E+009;1.948486268520355E-001;4.434015601873398E-002;4.579256288707256E-003;-4.992312169633806E-004;
2.406500000000000E+009;1.957656145095825E-001;4.436223581433296E-002;4.725255537778139E-003;-6.227535777725279E-004;
2.406666666666667E+009;1.964065879583359E-001;4.434617981314659E-002;4.530326928943396E-003;-8.464203565381467E-004;
2.406833333333334E+009;1.969819813966751E-001;4.426747560501099E-002;4.508196376264095E-003;-7.128731813281775E-004;
2.407000000000000E+009;1.974590271711350E-001;4.435443505644798E-002;4.453887231647968E-003;-7.409201352857053E-004;
2.407166666666667E+009;1.980090737342835E-001;4.410542920231819E-002;4.437144380062819E-003;-8.066392620094121E-004;
2.407333333333334E+009;1.979919821023941E-001;4.430883005261421E-002;4.462440498173237E-003;-6.755221984349191E-004;
2.407500000000000E+009;1.978983730077744E-001;4.428326711058617E-002;4.500003065913916E-003;-9.679310023784638E-004;
2.407666666666667E+009;1.978757977485657E-001;4.401062428951263E-002;4.421166144311428E-003;-9.291587630286813E-004;
2.407833333333334E+009;1.975619494915009E-001;4.386226087808609E-002;4.555850289762020E-003;-1.006902079097927E-003;
2.408000000000000E+009;1.973257362842560E-001;4.366068914532661E-002;4.660691600292921E-003;-1.018604729324579E-003;
2.408166666666667E+009;1.966602802276611E-001;4.324031248688698E-002;4.732121713459492E-003;-1.192458206787705E-003;
2.408333333333334E+009;1.962209790945053E-001;4.282616823911667E-002;4.764197394251823E-003;-1.241583027876914E-003;
2.408500000000000E+009;1.955165266990662E-001;4.241661354899406E-002;4.633838776499033E-003;-1.358171342872083E-003;
2.408666666666667E+009;1.947540193796158E-001;4.180452972650528E-002;4.960447084158659E-003;-1.455878256820142E-003;
2.408833333333334E+009;1.939516514539719E-001;4.111874476075172E-002;4.875677172094584E-003;-1.638222020119429E-003;
2.409000000000000E+009;1.928254067897797E-001;4.022400453686714E-002;5.022049415856600E-003;-1.840787008404732E-003;
2.409166666666667E+009;1.919504851102829E-001;3.917385637760162E-002;5.077528767287731E-003;-2.146448008716106E-003;
2.409333333333334E+009;1.908790916204453E-001;3.818010911345482E-002;5.068757105618715E-003;-2.245578449219465E-003;
2.409500000000000E+009;1.894889473915100E-001;3.703938797116280E-002;4.990458022803068E-003;-2.449102001264691E-003;
2.409666666666667E+009;1.884264945983887E-001;3.554115071892738E-002;4.841378889977932E-003;-2.702894620597363E-003;
2.409833333333334E+009;1.872486472129822E-001;3.400100022554398E-002;5.044711753726006E-003;-2.884630113840103E-003;
2.410000000000000E+009;1.863580197095871E-001;3.273514658212662E-002;4.975873045623303E-003;-3.076645778492093E-003;
2.410166666666667E+009;1.851580291986466E-001;3.085440583527088E-002;4.893801175057888E-003;-3.226899076253176E-003;
2.410333333333334E+009;1.841113716363907E-001;2.907415665686131E-002;4.811829421669245E-003;-3.590326290577650E-003;
2.410500000000000E+009;1.830021291971207E-001;2.715020440518856E-002;4.598619882017374E-003;-3.801464801654220E-003;
2.410666666666667E+009;1.822055876255035E-001;2.491607144474983E-002;4.533307161182165E-003;-3.952775150537491E-003;
2.410833333333334E+009;1.815587729215622E-001;2.284524030983448E-002;4.401901736855507E-003;-4.112080205231905E-003;
2.411000000000000E+009;1.807834804058075E-001;2.080216072499752E-002;4.343129694461823E-003;-4.378013312816620E-003;
2.411166666666667E+009;1.801366358995438E-001;1.833475008606911E-002;4.143669735640287E-003;-4.685277119278908E-003;
2.411333333333334E+009;1.797013431787491E-001;1.582014933228493E-002;3.905285848304629E-003;-4.746579565107822E-003;
2.411500000000000E+009;1.791196614503861E-001;1.350860577076674E-002;3.612933680415154E-003;-4.953362047672272E-003;
2.411666666666667E+009;1.790111809968948E-001;1.112443115562201E-002;3.695995546877384E-003;-5.265965126454830E-003;
2.411833333333334E+009;1.786926239728928E-001;8.550838567316532E-003;3.303752746433020E-003;-5.399587564170361E-003;
2.412000000000000E+009;1.786684095859528E-001;5.995802115648985E-003;3.172465600073338E-003;-5.341305397450924E-003;
2.412166666666667E+009;1.788399815559387E-001;3.745005698874593E-003;2.825656440109015E-003;-5.420838482677937E-003;
2.412333333333334E+009;1.788909733295441E-001;8.970829076133668E-004;2.699609845876694E-003;-5.638445261865854E-003;
2.412500000000000E+009;1.794175803661346E-001;-1.411967212334275E-003;2.568713622167707E-003;-5.733258090913296E-003;
2.412666666666667E+009;1.799373626708984E-001;-3.968586213886738E-003;2.312588971108198E-003;-5.969642661511898E-003;
2.412833333333334E+009;1.807335615158081E-001;-6.402550730854273E-003;2.105234190821648E-003;-5.928710103034973E-003;
2.413000000000000E+009;1.814014464616776E-001;-8.560987189412117E-003;1.781640923582017E-003;-6.027976050972939E-003;
2.413166666666667E+009;1.820936948060989E-001;-1.099598780274391E-002;1.505365595221520E-003;-6.014635786414146E-003;
2.413333333333334E+009;1.832126975059509E-001;-1.358494441956282E-002;1.278373994864523E-003;-5.973859690129757E-003;
2.413500000000000E+009;1.840945482254028E-001;-1.563499495387077E-002;9.914159309118986E-004;-6.129869259893894E-003;
2.413666666666667E+009;1.853407621383667E-001;-1.780856028199196E-002;9.650402935221791E-004;-5.955172702670097E-003;
2.413833333333334E+009;1.865297406911850E-001;-1.988860405981541E-002;6.016052211634815E-004;-6.073679774999619E-003;
2.414000000000000E+009;1.876181066036224E-001;-2.193315885961056E-002;3.102273331023753E-004;-6.238247733563185E-003;
2.414166666666667E+009;1.889541149139404E-001;-2.368355542421341E-002;2.230988466180861E-004;-6.044538691639900E-003;
2.414333333333334E+009;1.901857703924179E-001;-2.571215294301510E-002;-1.415007773175603E-005;-6.216557230800390E-003;
2.414500000000000E+009;1.914064139127731E-001;-2.733311988413334E-002;-1.687696058070287E-004;-6.168190855532885E-003;
2.414666666666667E+009;1.927653998136520E-001;-2.880115061998367E-002;-4.153199843131006E-004;-6.131037138402462E-003;
2.414833333333334E+009;1.938693225383759E-001;-3.016810677945614E-002;-6.710475427098572E-004;-6.286635529249907E-003;
2.415000000000000E+009;1.951033025979996E-001;-3.146289288997650E-002;-9.097947622649372E-004;-6.251357961446047E-003;
2.415166666666667E+009;1.964062601327896E-001;-3.266771137714386E-002;-1.177587895654142E-003;-6.295716390013695E-003;
2.415333333333334E+009;1.975574493408203E-001;-3.359705209732056E-002;-1.440302701666951E-003;-6.207996048033238E-003;
2.415500000000000E+009;1.987439393997192E-001;-3.426065295934677E-002;-1.711748074740171E-003;-6.201320793479681E-003;
2.415666666666667E+009;1.999188661575317E-001;-3.514116629958153E-002;-1.937840948812664E-003;-5.986811127513647E-003;
2.415833333333334E+009;2.007720917463303E-001;-3.579625114798546E-002;-2.545136958360672E-003;-5.952924489974976E-003;
2.416000000000000E+009;2.015650272369385E-001;-3.637658804655075E-002;-2.708104206249118E-003;-5.979670211672783E-003;
2.416166666666667E+009;2.023310661315918E-001;-3.700060397386551E-002;-2.998018870130181E-003;-5.693321581929922E-003;
2.416333333333334E+009;2.030605673789978E-001;-3.716627880930901E-002;-3.213017247617245E-003;-5.437289364635944E-003;
2.416500000000000E+009;2.036033719778061E-001;-3.744110837578774E-002;-3.422793000936508E-003;-5.402050912380219E-003;
2.416666666666667E+009;2.038991451263428E-001;-3.779341652989388E-002;-3.465780988335609E-003;-5.006203893572092E-003;
2.416833333333334E+009;2.040542215108872E-001;-3.770200535655022E-002;-3.618641057983041E-003;-4.726297222077847E-003;
2.417000000000000E+009;2.042482495307922E-001;-3.771149367094040E-002;-3.927620127797127E-003;-4.397513344883919E-003;
2.417166666666667E+009;2.040587216615677E-001;-3.769017010927200E-002;-4.009291995316744E-003;-4.214726854115725E-003;
2.417333333333334E+009;2.038605511188507E-001;-3.734576329588890E-002;-4.020106978714466E-003;-4.163322970271111E-003;
2.417500000000000E+009;2.036200910806656E-001;-3.738901019096375E-002;-4.045077599585056E-003;-3.951820079237223E-003;
2.417666666666667E+009;2.031835317611694E-001;-3.709094226360321E-002;-3.987526986747980E-003;-3.686390118673444E-003;
2.417833333333334E+009;2.028093487024307E-001;-3.680595755577087E-002;-3.970375750213862E-003;-3.552972804754973E-003;
2.418000000000000E+009;2.022512257099152E-001;-3.671586513519287E-002;-4.055783152580261E-003;-3.380401758477092E-003;
2.418166666666667E+009;2.013526707887650E-001;-3.648608922958374E-002;-4.072800278663635E-003;-3.227066481485963E-003;
2.418333333333334E+009;2.005585581064224E-001;-3.624093905091286E-002;-4.206941463053227E-003;-3.140567103400827E-003;
2.418500000000000E+009;1.997463852167130E-001;-3.615843132138252E-002;-4.117722157388926E-003;-3.096154890954495E-003;
2.418666666666667E+009;1.987625062465668E-001;-3.608287498354912E-002;-4.160910844802856E-003;-2.988076768815517E-003;
2.418833333333334E+009;1.975612491369247E-001;-3.625299409031868E-002;-4.218177404254675E-003;-3.041242249310017E-003;
2.419000000000000E+009;1.962862312793732E-001;-3.650263324379921E-002;-4.543457180261612E-003;-2.886131172999740E-003;
2.419166666666667E+009;1.949389129877091E-001;-3.672948852181435E-002;-4.427579231560230E-003;-2.769982209429145E-003;
2.419333333333334E+009;1.935503780841827E-001;-3.728060424327850E-002;-4.543809685856104E-003;-2.699706004932523E-003;
2.419500000000000E+009;1.920331120491028E-001;-3.770849108695984E-002;-4.622670356184244E-003;-2.594499615952373E-003;
2.419666666666667E+009;1.905412375926971E-001;-3.842284530401230E-002;-4.901381209492683E-003;-2.433241112157702E-003;
2.419833333333334E+009;1.888940185308456E-001;-3.905887901782990E-002;-4.899449646472931E-003;-2.259201835840941E-003;
2.420000000000000E+009;1.874659806489945E-001;-4.002618789672852E-002;-5.046288482844830E-003;-2.042051637545228E-003;
2.420166666666667E+009;1.858602315187454E-001;-4.101494327187538E-002;-5.200468003749847E-003;-1.874323352240026E-003;
2.420333333333334E+009;1.840393841266632E-001;-4.211015626788139E-002;-5.164342466741800E-003;-1.645177952013910E-003;
2.420500000000000E+009;1.824045032262802E-001;-4.343160241842270E-002;-5.301435943692923E-003;-1.414187485352159E-003;
2.420666666666667E+009;1.807205826044083E-001;-4.460522159934044E-002;-5.369131918996573E-003;-9.854065719991922E-004;
2.420833333333334E+009;1.789630353450775E-001;-4.622143879532814E-002;-5.188804585486651E-003;-7.599957170896232E-004;
2.421000000000000E+009;1.774992197751999E-001;-4.763127118349075E-002;-5.140713416039944E-003;-4.926761030219495E-004;
2.421166666666667E+009;1.761441826820374E-001;-4.941830039024353E-002;-4.951001144945622E-003;-4.629627219401300E-004;
2.421333333333334E+009;1.743982583284378E-001;-5.090797692537308E-002;-4.741689655929804E-003;-3.292950568720698E-004;
2.421500000000000E+009;1.730216890573502E-001;-5.284504219889641E-002;-4.551458638161421E-003;-2.849268639693037E-005;
2.421666666666667E+009;1.716873794794083E-001;-5.450845882296562E-002;-4.585315473377705E-003;-1.066159238689579E-004;
2.421833333333334E+009;1.707175225019455E-001;-5.654063448309898E-002;-4.302655346691608E-003;-6.869177013868466E-007;
2.422000000000000E+009;1.694262474775314E-001;-5.836109071969986E-002;-4.177533090114594E-003;-7.739914872217923E-005;
2.422166666666667E+009;1.684299856424332E-001;-6.056031212210655E-002;-4.053664393723011E-003;-3.501394530758262E-005;
2.422333333333334E+009;1.675585806369782E-001;-6.239930167794228E-002;-4.027479328215122E-003;-1.957372296601534E-004;
2.422500000000000E+009;1.667848378419876E-001;-6.443413347005844E-002;-4.065733868628740E-003;-2.053012722171843E-004;
2.422666666666667E+009;1.660470962524414E-001;-6.655821204185486E-002;-4.051540978252888E-003;-1.365264615742490E-004;
2.422833333333334E+009;1.656521707773209E-001;-6.861609965562820E-002;-4.049107898026705E-003;-1.591489999555051E-004;
2.423000000000000E+009;1.653253436088562E-001;-7.064682245254517E-002;-4.265098366886377E-003;-3.922453324776143E-004;
2.423166666666667E+009;1.649425178766251E-001;-7.257122546434403E-002;-4.385112784802914E-003;-2.289395051775500E-004;
2.423333333333334E+009;1.648125499486923E-001;-7.453090697526932E-002;-4.459403455257416E-003;-2.296513557666913E-004;
2.423500000000000E+009;1.647592782974243E-001;-7.635419815778732E-002;-4.519323352724314E-003;-1.732162345433608E-004;
2.423666666666667E+009;1.649068892002106E-001;-7.816660404205322E-002;-4.658177495002747E-003;-7.196389196906239E-005;
2.423833333333334E+009;1.648514717817307E-001;-7.992769032716751E-002;-4.896609578281641E-003;2.073940413538367E-005;
2.424000000000000E+009;1.651077419519424E-001;-8.192240446805954E-002;-4.993878304958344E-003;6.628037954214960E-005;
2.424166666666667E+009;1.653661131858826E-001;-8.343863487243652E-002;-5.020985379815102E-003;4.048815753776580E-004;
2.424333333333334E+009;1.655070334672928E-001;-8.495999872684479E-002;-5.247316323220730E-003;5.600787699222565E-004;
2.424500000000000E+009;1.659735739231110E-001;-8.667776733636856E-002;-5.418460350483656E-003;8.366371039301157E-004;
2.424666666666667E+009;1.663654744625092E-001;-8.802790194749832E-002;-5.539563950151205E-003;1.131866127252579E-003;
2.424833333333334E+009;1.670823693275452E-001;-8.919531106948853E-002;-5.442743189632893E-003;1.241505611687899E-003;
2.425000000000000E+009;1.674788445234299E-001;-9.061940759420395E-002;-5.480987485498190E-003;1.612622407265008E-003;
2.425166666666667E+009;1.679839044809341E-001;-9.164406359195709E-002;-5.434247665107250E-003;2.021478721871972E-003;
2.425333333333334E+009;1.684076040983200E-001;-9.256115555763245E-002;-5.377069581300020E-003;1.966999145224690E-003;
2.425500000000000E+009;1.691010892391205E-001;-9.368864446878433E-002;-5.416602361947298E-003;2.351942704990506E-003;
2.425666666666667E+009;1.695698946714401E-001;-9.418947249650955E-002;-5.279530305415392E-003;2.551058307290077E-003;
2.425833333333334E+009;1.700675934553146E-001;-9.505770355463028E-002;-5.253577604889870E-003;2.877599792554975E-003;
2.426000000000000E+009;1.705142259597778E-001;-9.560421109199524E-002;-5.099841393530369E-003;3.124339738860726E-003;
2.426166666666667E+009;1.711797863245010E-001;-9.612187743186951E-002;-4.964251536875963E-003;3.302937140688300E-003;
2.426333333333334E+009;1.714432388544083E-001;-9.666496515274048E-002;-4.937533289194107E-003;3.430433804169297E-003;
2.426500000000000E+009;1.719764322042465E-001;-9.687974303960800E-002;-4.690674133598805E-003;3.691435791552067E-003;
2.426666666666667E+009;1.723550707101822E-001;-9.726209193468094E-002;-4.399119876325131E-003;3.941142000257969E-003;
2.426833333333334E+009;1.728120148181915E-001;-9.762193262577057E-002;-4.293137229979038E-003;4.072797019034624E-003;
2.427000000000000E+009;1.729672402143478E-001;-9.783250093460083E-002;-4.203450400382280E-003;4.204924218356609E-003;
2.427166666666667E+009;1.731571257114410E-001;-9.782411158084869E-002;-4.036854486912489E-003;4.280577879399061E-003;
2.427333333333334E+009;1.731180846691132E-001;-9.823050349950790E-002;-3.904558951035142E-003;4.234087653458118E-003;
2.427500000000000E+009;1.730253845453262E-001;-9.848482161760330E-002;-3.773502539843321E-003;4.560322500765324E-003;
2.427666666666667E+009;1.728657335042954E-001;-9.860628843307495E-002;-3.581056836992502E-003;4.692237358540297E-003;
