# Version 1.00
#
freq[Hz];re:Trc1_S11;im:Trc1_S11;re:Trc2_S21;im:Trc2_S21;
2.400000000000000E+009;1.502918750047684E-001;1.134331747889519E-001;3.080771071836352E-003;6.628826726227999E-003;
2.400166666666667E+009;1.498602330684662E-001;1.109299287199974E-001;3.404690651223064E-003;6.263443734496832E-003;
2.400333333333334E+009;1.501738876104355E-001;1.088200137019157E-001;3.727101488038898E-003;6.096816156059504E-003;
2.400500000000000E+009;1.501533687114716E-001;1.060605868697166E-001;4.077917430549860E-003;5.821955855935812E-003;
2.400666666666667E+009;1.502259820699692E-001;1.037211343646050E-001;4.410089924931526E-003;5.404102616012096E-003;
2.400833333333334E+009;1.501624882221222E-001;1.008311286568642E-001;4.555673804134131E-003;4.935753066092730E-003;
2.401000000000000E+009;1.505430489778519E-001;9.823255240917206E-002;4.616610705852509E-003;4.471902735531330E-003;
2.401166666666667E+009;1.508062928915024E-001;9.542249888181686E-002;4.714068491011858E-003;4.205944016575813E-003;
2.401333333333334E+009;1.511540263891220E-001;9.278739988803864E-002;4.703226499259472E-003;3.816301701590419E-003;
2.401500000000000E+009;1.518831402063370E-001;8.980520814657211E-002;4.777660593390465E-003;3.449290059506893E-003;
2.401666666666667E+009;1.522600799798966E-001;8.706007152795792E-002;4.589845892041922E-003;3.266555722802877E-003;
2.401833333333334E+009;1.529754996299744E-001;8.430272340774536E-002;4.327607806771994E-003;2.976351650431752E-003;
2.402000000000000E+009;1.538595706224442E-001;8.170492202043533E-002;4.577747080475092E-003;2.914672018960118E-003;
2.402166666666667E+009;1.549386233091354E-001;7.919596880674362E-002;4.298001993447542E-003;2.678996650502086E-003;
2.402333333333334E+009;1.559939086437225E-001;7.630258053541184E-002;4.345170687884092E-003;2.580670872703195E-003;
2.402500000000000E+009;1.573680490255356E-001;7.398958504199982E-002;4.250615369528532E-003;2.700950484722853E-003;
2.402666666666667E+009;1.585979163646698E-001;7.153504341840744E-002;4.188480321317911E-003;2.595935948193073E-003;
2.402833333333334E+009;1.599584370851517E-001;6.910087913274765E-002;4.147285595536232E-003;2.545221941545606E-003;
2.403000000000000E+009;1.617434173822403E-001;6.690073013305664E-002;4.220811184495688E-003;2.643654355779290E-003;
2.403166666666667E+009;1.636648029088974E-001;6.482037901878357E-002;4.324690904468298E-003;2.557032043114305E-003;
2.403333333333334E+009;1.652856916189194E-001;6.254158169031143E-002;4.319807514548302E-003;2.592450007796288E-003;
2.403500000000000E+009;1.672715544700623E-001;6.049187108874321E-002;4.464663565158844E-003;2.309509087353945E-003;
2.403666666666667E+009;1.691905111074448E-001;5.837375670671463E-002;4.503111355006695E-003;2.237968146800995E-003;
2.403833333333334E+009;1.710358858108521E-001;5.661506578326225E-002;4.863976966589689E-003;2.201287075877190E-003;
2.404000000000000E+009;1.726197600364685E-001;5.482218787074089E-002;4.914433695375919E-003;1.909732352942228E-003;
2.404166666666667E+009;1.748332679271698E-001;5.329103767871857E-002;5.033032037317753E-003;1.805255655199289E-003;
2.404333333333334E+009;1.765217632055283E-001;5.163695663213730E-002;5.134306848049164E-003;1.872828812338412E-003;
2.404500000000000E+009;1.784913390874863E-001;5.021278932690620E-002;5.271467380225658E-003;1.352926716208458E-003;
2.404666666666667E+009;1.802405864000320E-001;4.912363737821579E-002;5.379635374993086E-003;1.181195722892880E-003;
2.404833333333334E+009;1.821142435073853E-001;4.795589670538902E-002;5.279224831610918E-003;8.772094151936472E-004;
2.405000000000000E+009;1.835972964763641E-001;4.728195816278458E-002;5.364354234188795E-003;7.244705921038985E-004;
2.405166666666667E+009;1.852963864803314E-001;4.650019109249115E-002;5.352452863007784E-003;5.459103849716485E-004;
2.405333333333334E+009;1.868278533220291E-001;4.604192450642586E-002;5.359011236578226E-003;3.123255155514926E-004;
2.405500000000000E+009;1.885249316692352E-001;4.539116844534874E-002;5.182457622140646E-003;5.141777000972070E-005;
2.405666666666667E+009;1.898402720689774E-001;4.502267017960548E-002;5.209656432271004E-003;-6.417811528081074E-005;
2.405833333333334E+009;1.913896799087524E-001;4.483864828944206E-002;5.023420788347721E-003;-6.399342964868993E-005;
2.406000000000000E+009;1.924708038568497E-001;4.462917521595955E-002;4.992316011339426E-003;-3.115936997346580E-004;
2.406166666666667E+009;1.935890913009644E-001;4.440118744969368E-002;4.919148515909910E-003;-5.661672330461443E-004;
2.406333333333334E+009;1.947473138570786E-001;4.438448697328568E-002;4.505910910665989E-003;-6.279165390878916E-004;
2.406500000000000E+009;1.954894065856934E-001;4.438466951251030E-002;4.687525797635317E-003;-7.888103136792779E-004;
2.406666666666667E+009;1.964635252952576E-001;4.431174695491791E-002;4.528089892119169E-003;-7.268410990945995E-004;
2.406833333333334E+009;1.969750523567200E-001;4.423005133867264E-002;4.518360365182161E-003;-7.287045591510832E-004;
2.407000000000000E+009;1.973543912172318E-001;4.448943957686424E-002;4.573877900838852E-003;-7.058221381157637E-004;
2.407166666666667E+009;1.978253871202469E-001;4.412780702114105E-002;4.331627860665321E-003;-8.765971288084984E-004;
2.407333333333334E+009;1.978821158409119E-001;4.423196241259575E-002;4.419831093400717E-003;-8.918865351006389E-004;
2.407500000000000E+009;1.977589279413223E-001;4.423655569553375E-002;4.385404754430056E-003;-8.668166701681912E-004;
2.407666666666667E+009;1.977875232696533E-001;4.406549409031868E-002;4.476874135434628E-003;-8.046480361372232E-004;
2.407833333333334E+009;1.974173635244370E-001;4.380481690168381E-002;4.476683679968119E-003;-1.028955215588212E-003;
2.408000000000000E+009;1.972450762987137E-001;4.375157505273819E-002;4.461004398763180E-003;-1.024513971060515E-003;
2.408166666666667E+009;1.966319233179092E-001;4.326437786221504E-002;4.548025317490101E-003;-1.062398427166045E-003;
2.408333333333334E+009;1.961440145969391E-001;4.279064387083054E-002;4.812718834728003E-003;-1.133835525251925E-003;
2.408500000000000E+009;1.953039616346359E-001;4.251063242554665E-002;4.816181957721710E-003;-1.357488916255534E-003;
2.408666666666667E+009;1.946476548910141E-001;4.189770296216011E-002;4.825787618756294E-003;-1.595829729922116E-003;
2.408833333333334E+009;1.939310729503632E-001;4.124607890844345E-002;4.842163063585758E-003;-1.735345926135778E-003;
2.409000000000000E+009;1.928475946187973E-001;4.025176167488098E-002;5.031115841120482E-003;-1.872121240012348E-003;
2.409166666666667E+009;1.917450577020645E-001;3.912348672747612E-002;5.100102629512548E-003;-1.860847347415984E-003;
2.409333333333334E+009;1.908626109361649E-001;3.822663426399231E-002;4.963330458849669E-003;-2.203426323831081E-003;
2.409500000000000E+009;1.895228624343872E-001;3.695037588477135E-002;5.006970372051001E-003;-2.484393538907170E-003;
2.409666666666667E+009;1.883956938982010E-001;3.570746630430222E-002;4.942677449434996E-003;-2.644668566063047E-003;
2.409833333333334E+009;1.872901022434235E-001;3.428805246949196E-002;5.078996997326613E-003;-2.855352358892560E-003;
2.410000000000000E+009;1.861450672149658E-001;3.264943882822990E-002;4.756380803883076E-003;-3.087823977693915E-003;
2.410166666666667E+009;1.851406097412109E-001;3.085776790976524E-002;4.748279694467783E-003;-3.272430272772908E-003;
2.410333333333334E+009;1.840871423482895E-001;2.894501760601997E-002;4.624676425009966E-003;-3.578506642952561E-003;
2.410500000000000E+009;1.829883158206940E-001;2.715812809765339E-002;4.675731062889099E-003;-3.863489255309105E-003;
2.410666666666667E+009;1.822262406349182E-001;2.494446933269501E-002;4.592278040945530E-003;-4.100950900465250E-003;
2.410833333333334E+009;1.813692301511765E-001;2.277528122067452E-002;4.368742927908897E-003;-4.304606933146715E-003;
2.411000000000000E+009;1.807571500539780E-001;2.055355533957481E-002;4.213991574943066E-003;-4.412963520735502E-003;
2.411166666666667E+009;1.800391972064972E-001;1.838368363678455E-002;4.235457163304091E-003;-4.533198196440935E-003;
2.411333333333334E+009;1.795746833086014E-001;1.599146611988545E-002;3.910128492861986E-003;-4.747388884425163E-003;
2.411500000000000E+009;1.790686994791031E-001;1.356851682066917E-002;3.679919056594372E-003;-5.028416868299246E-003;
2.411666666666667E+009;1.789450496435165E-001;1.126083638519049E-002;3.664026036858559E-003;-5.128531716763973E-003;
2.411833333333334E+009;1.785930246114731E-001;8.774971589446068E-003;3.482052823528647E-003;-5.264959298074246E-003;
2.412000000000000E+009;1.787292957305908E-001;6.214128341525793E-003;3.107149619609118E-003;-5.377450492233038E-003;
2.412166666666667E+009;1.787221133708954E-001;3.749254625290632E-003;2.832604805007577E-003;-5.601592361927033E-003;
2.412333333333334E+009;1.788713634014130E-001;1.176228863187134E-003;2.696498297154903E-003;-5.670865066349506E-003;
2.412500000000000E+009;1.794542670249939E-001;-1.296401605941355E-003;2.479511778801680E-003;-5.793275777250528E-003;
2.412666666666667E+009;1.798079013824463E-001;-3.870137734338641E-003;2.279174514114857E-003;-5.793867167085409E-003;
2.412833333333334E+009;1.806156188249588E-001;-6.234466563910246E-003;2.129264408722520E-003;-5.892545916140080E-003;
2.413000000000000E+009;1.813605725765228E-001;-8.726416155695915E-003;1.746295019984245E-003;-5.927174352109432E-003;
2.413166666666667E+009;1.821938157081604E-001;-1.097502931952477E-002;1.372194034047425E-003;-6.098360754549503E-003;
2.413333333333334E+009;1.831585764884949E-001;-1.329116337001324E-002;1.152285956777632E-003;-5.989116150885820E-003;
2.413500000000000E+009;1.841526329517365E-001;-1.561417710036039E-002;9.274986223317683E-004;-6.033829413354397E-003;
2.413666666666667E+009;1.854397207498550E-001;-1.786155067384243E-002;7.923393277451396E-004;-5.949537269771099E-003;
2.413833333333334E+009;1.864066272974014E-001;-1.995891891419888E-002;6.367565365508199E-004;-6.095722317695618E-003;
2.414000000000000E+009;1.876418739557266E-001;-2.183514088392258E-002;4.628917376976460E-004;-6.092679686844349E-003;
2.414166666666667E+009;1.891041994094849E-001;-2.372859418392181E-002;3.002407611347735E-004;-5.972219165414572E-003;
2.414333333333334E+009;1.899892836809158E-001;-2.556178718805313E-002;1.749417715473101E-004;-6.033712998032570E-003;
2.414500000000000E+009;1.914034932851791E-001;-2.720355801284313E-002;-2.882352855522186E-004;-6.155414506793022E-003;
2.414666666666667E+009;1.927253305912018E-001;-2.870809845626354E-002;-4.833934362977743E-004;-6.161912810057402E-003;
2.414833333333334E+009;1.938017308712006E-001;-3.010701015591621E-002;-6.270683370530605E-004;-6.064440589398146E-003;
2.415000000000000E+009;1.949770301580429E-001;-3.140423074364662E-002;-8.827985147945583E-004;-6.237985566258431E-003;
2.415166666666667E+009;1.962749063968658E-001;-3.246652334928513E-002;-1.062080264091492E-003;-6.329080089926720E-003;
2.415333333333334E+009;1.974863409996033E-001;-3.355991467833519E-002;-1.518183853477240E-003;-6.213366053998470E-003;
2.415500000000000E+009;1.987365186214447E-001;-3.420910984277725E-002;-1.659366069361568E-003;-6.184812635183334E-003;
2.415666666666667E+009;1.998204886913300E-001;-3.498800843954086E-002;-1.978146145120263E-003;-6.070155184715986E-003;
2.415833333333334E+009;2.007036805152893E-001;-3.575917705893517E-002;-2.384809777140617E-003;-5.971988663077354E-003;
2.416000000000000E+009;2.015855610370636E-001;-3.629441559314728E-002;-2.735355636104941E-003;-5.809572059661150E-003;
2.416166666666667E+009;2.022923380136490E-001;-3.693198040127754E-002;-2.959372941404581E-003;-5.751190241426230E-003;
2.416333333333334E+009;2.030316740274429E-001;-3.701120615005493E-002;-3.147027920931578E-003;-5.451016128063202E-003;
2.416500000000000E+009;2.035703063011169E-001;-3.736273944377899E-002;-3.437429433688521E-003;-5.251421593129635E-003;
2.416666666666667E+009;2.039233595132828E-001;-3.766293451189995E-002;-3.533973125740886E-003;-4.931478761136532E-003;
2.416833333333334E+009;2.041636258363724E-001;-3.759157657623291E-002;-3.694782033562660E-003;-4.729160107672215E-003;
2.417000000000000E+009;2.043297439813614E-001;-3.770259767770767E-002;-3.719122614711523E-003;-4.447751212865114E-003;
2.417166666666667E+009;2.041253894567490E-001;-3.754808381199837E-002;-3.832044545561075E-003;-4.267174750566483E-003;
2.417333333333334E+009;2.038164883852005E-001;-3.744517266750336E-002;-3.964480012655258E-003;-3.979630302637816E-003;
2.417500000000000E+009;2.035964131355286E-001;-3.727730736136437E-002;-3.880857722833753E-003;-3.888794453814626E-003;
2.417666666666667E+009;2.032052874565125E-001;-3.690985217690468E-002;-3.917168360203505E-003;-3.829547204077244E-003;
2.417833333333334E+009;2.028008103370667E-001;-3.677112236618996E-002;-3.915034700185061E-003;-3.516797674819827E-003;
2.418000000000000E+009;2.021546661853790E-001;-3.647755458950996E-002;-4.040217492729425E-003;-3.479413921013475E-003;
2.418166666666667E+009;2.014393061399460E-001;-3.640885278582573E-002;-4.054416436702013E-003;-3.295239293947816E-003;
2.418333333333334E+009;2.005502283573151E-001;-3.620075061917305E-002;-4.164350219070911E-003;-3.232409246265888E-003;
2.418500000000000E+009;1.997138410806656E-001;-3.613581880927086E-002;-4.156969022005796E-003;-3.205260261893272E-003;
2.418666666666667E+009;1.987033635377884E-001;-3.613783419132233E-002;-4.113591276109219E-003;-3.156776074320078E-003;
2.418833333333334E+009;1.975295245647430E-001;-3.620489314198494E-002;-4.281016997992992E-003;-3.013451118022203E-003;
2.419000000000000E+009;1.962992548942566E-001;-3.648785501718521E-002;-4.230753052979708E-003;-2.837881911545992E-003;
2.419166666666667E+009;1.950727701187134E-001;-3.669951483607292E-002;-4.462364595383406E-003;-2.747044200077653E-003;
2.419333333333334E+009;1.936980038881302E-001;-3.719770163297653E-002;-4.587025847285986E-003;-2.782701980322599E-003;
2.419500000000000E+009;1.921464949846268E-001;-3.754147142171860E-002;-4.690077155828476E-003;-2.538271248340607E-003;
2.419666666666667E+009;1.906083375215530E-001;-3.840101510286331E-002;-4.681746009737253E-003;-2.426388906314969E-003;
2.419833333333334E+009;1.890801489353180E-001;-3.921298682689667E-002;-4.932417068630457E-003;-2.261990681290627E-003;
2.420000000000000E+009;1.875839531421661E-001;-4.006552323698998E-002;-5.041014403104782E-003;-2.123824553564191E-003;
2.420166666666667E+009;1.859714537858963E-001;-4.099385440349579E-002;-5.127242766320705E-003;-1.904662000015378E-003;
2.420333333333334E+009;1.840776205062866E-001;-4.226814210414887E-002;-5.139945074915886E-003;-1.646924880333245E-003;
2.420500000000000E+009;1.823741048574448E-001;-4.354588314890862E-002;-5.253725685179234E-003;-1.385248615406454E-003;
2.420666666666667E+009;1.807800531387329E-001;-4.474069550633431E-002;-5.235863383859396E-003;-1.094359671697021E-003;
2.420833333333334E+009;1.792141348123550E-001;-4.615988954901695E-002;-5.201876163482666E-003;-8.319082553498447E-004;
2.421000000000000E+009;1.776066571474075E-001;-4.766903445124626E-002;-5.101880058646202E-003;-5.228326772339642E-004;
2.421166666666667E+009;1.760862171649933E-001;-4.933186620473862E-002;-4.848219454288483E-003;-4.139132797718048E-004;
2.421333333333334E+009;1.744404882192612E-001;-5.112373083829880E-002;-4.716659896075726E-003;-2.396643685642630E-004;
2.421500000000000E+009;1.730706542730331E-001;-5.270024761557579E-002;-4.617599304765463E-003;-1.573019544593990E-004;
2.421666666666667E+009;1.719184517860413E-001;-5.473954230546951E-002;-4.466076847165823E-003;-7.657099195057526E-005;
2.421833333333334E+009;1.705551445484161E-001;-5.650666356086731E-002;-4.180309362709522E-003;-7.971434388309717E-005;
2.422000000000000E+009;1.694540828466415E-001;-5.839103087782860E-002;-4.229378886520863E-003;-2.926302295236383E-005;
2.422166666666667E+009;1.686194986104965E-001;-6.047426164150238E-002;-4.136072006076574E-003;2.709221007535234E-006;
2.422333333333334E+009;1.676180511713028E-001;-6.257037073373795E-002;-3.984897397458553E-003;-1.602689153514803E-004;
2.422500000000000E+009;1.669454425573349E-001;-6.441258639097214E-002;-4.010057542473078E-003;-9.327693260274828E-005;
2.422666666666667E+009;1.661928594112396E-001;-6.650894135236740E-002;-4.035334102809429E-003;-2.441563119646162E-004;
2.422833333333334E+009;1.657015383243561E-001;-6.853251904249191E-002;-4.085456486791372E-003;-3.593836154323071E-004;
2.423000000000000E+009;1.652747839689255E-001;-7.045318931341171E-002;-4.151755478233099E-003;-1.463601947762072E-004;
2.423166666666667E+009;1.650083661079407E-001;-7.250276952981949E-002;-4.305951762944460E-003;-2.502403804101050E-004;
2.423333333333334E+009;1.646789312362671E-001;-7.462318241596222E-002;-4.367426503449678E-003;-2.659200981725007E-004;
2.423500000000000E+009;1.648712754249573E-001;-7.639253139495850E-002;-4.564763046801090E-003;-2.826767158694565E-004;
2.423666666666667E+009;1.649390906095505E-001;-7.828891277313232E-002;-4.828108008950949E-003;-2.098888799082488E-004;
2.423833333333334E+009;1.647945344448090E-001;-8.003316819667816E-002;-4.856423009186983E-003;-1.308037608396262E-004;
2.424000000000000E+009;1.651133447885513E-001;-8.196480572223663E-002;-5.075074732303619E-003;5.150294600753114E-005;
2.424166666666667E+009;1.653469949960709E-001;-8.344627171754837E-002;-5.143014248460531E-003;2.673052658792585E-004;
2.424333333333334E+009;1.656440347433090E-001;-8.500451594591141E-002;-5.358275957405567E-003;5.378400674089789E-004;
2.424500000000000E+009;1.659930944442749E-001;-8.662654459476471E-002;-5.373931024223566E-003;7.130875019356608E-004;
2.424666666666667E+009;1.663922369480133E-001;-8.810216933488846E-002;-5.550866015255451E-003;9.715964552015066E-004;
2.424833333333334E+009;1.671086549758911E-001;-8.933103084564209E-002;-5.454134661704302E-003;1.346301287412643E-003;
2.425000000000000E+009;1.674561500549316E-001;-9.053458273410797E-002;-5.547537468373776E-003;1.460093073546886E-003;
2.425166666666667E+009;1.680158823728561E-001;-9.161435067653656E-002;-5.362056661397219E-003;1.661337795667350E-003;
2.425333333333334E+009;1.685183197259903E-001;-9.257137030363083E-002;-5.351154133677483E-003;2.072417642921209E-003;
2.425500000000000E+009;1.691256165504456E-001;-9.342731535434723E-002;-5.471775773912668E-003;2.133971778675914E-003;
2.425666666666667E+009;1.695844084024429E-001;-9.427211433649063E-002;-5.408452823758125E-003;2.622246975079179E-003;
2.425833333333334E+009;1.701501607894898E-001;-9.506593644618988E-002;-5.257812328636646E-003;2.683813916519284E-003;
2.426000000000000E+009;1.706310808658600E-001;-9.556871652603149E-002;-5.123557988554239E-003;2.916234312579036E-003;
2.426166666666667E+009;1.711752414703369E-001;-9.610573947429657E-002;-5.078003276139498E-003;3.245792118832469E-003;
2.426333333333334E+009;1.714724302291870E-001;-9.647287428379059E-002;-4.920176230370998E-003;3.428507363423705E-003;
2.426500000000000E+009;1.720229089260101E-001;-9.697251021862030E-002;-4.806288983672857E-003;3.679182380437851E-003;
2.426666666666667E+009;1.722781509160996E-001;-9.721887111663818E-002;-4.621111787855625E-003;3.913750872015953E-003;
2.426833333333334E+009;1.727998405694962E-001;-9.760414063930512E-002;-4.399992059916258E-003;3.841888159513474E-003;
2.427000000000000E+009;1.728166192770004E-001;-9.789710491895676E-002;-4.263380076736212E-003;4.120783414691687E-003;
2.427166666666667E+009;1.730573177337647E-001;-9.806924313306809E-002;-4.234761931002140E-003;4.191008862107992E-003;
2.427333333333334E+009;1.730913519859314E-001;-9.826031327247620E-002;-4.019192419946194E-003;4.344344139099121E-003;
2.427500000000000E+009;1.730781644582748E-001;-9.851457178592682E-002;-3.785294480621815E-003;4.473649896681309E-003;
2.427666666666667E+009;1.728711426258087E-001;-9.871219098567963E-002;-3.652964485809207E-003;4.671754315495491E-003;
