# Version 1.00
#
freq[Hz];re:Trc1_S11;im:Trc1_S11;re:Trc2_S21;im:Trc2_S21;
2.400000000000000E+009;1.582961827516556E-001;6.288424134254456E-002;-2.861872548237443E-003;5.155167542397976E-003;
2.400166666666667E+009;1.581697613000870E-001;6.126229092478752E-002;-2.678655786439776E-003;5.077273119240999E-003;
2.400333333333334E+009;1.581048518419266E-001;5.940401554107666E-002;-2.422760473564267E-003;5.167505238205195E-003;
2.400500000000000E+009;1.579031944274902E-001;5.757615715265274E-002;-2.107472624629736E-003;5.294571630656719E-003;
2.400666666666667E+009;1.578727066516876E-001;5.544214695692062E-002;-1.989469863474369E-003;5.347108934074640E-003;
2.400833333333334E+009;1.579725146293640E-001;5.360914766788483E-002;-1.857978175394237E-003;5.342697724699974E-003;
2.401000000000000E+009;1.579455882310867E-001;5.139098688960075E-002;-1.685422379523516E-003;5.512676201760769E-003;
2.401166666666667E+009;1.580085456371307E-001;4.947949945926666E-002;-1.392753561958671E-003;5.500897765159607E-003;
2.401333333333334E+009;1.580685824155808E-001;4.734726995229721E-002;-1.331340987235308E-003;5.526365246623755E-003;
2.401500000000000E+009;1.584595888853073E-001;4.534385353326798E-002;-1.061282819136977E-003;5.684666801244021E-003;
2.401666666666667E+009;1.587876230478287E-001;4.315366223454475E-002;-6.457990384660661E-004;5.469944328069687E-003;
2.401833333333334E+009;1.589780896902084E-001;4.107586294412613E-002;-5.430362070910633E-004;5.609772633761168E-003;
2.402000000000000E+009;1.592460870742798E-001;3.918948024511337E-002;-3.031476226169616E-004;5.629626568406820E-003;
2.402166666666667E+009;1.597821712493897E-001;3.705099597573280E-002;-1.641721755731851E-004;5.645149853080511E-003;
2.402333333333334E+009;1.602429151535034E-001;3.525630012154579E-002;-2.351403236389160E-005;5.877936724573374E-003;
2.402500000000000E+009;1.610143184661865E-001;3.337630629539490E-002;1.384758943459019E-004;5.674974992871285E-003;
2.402666666666667E+009;1.614801138639450E-001;3.160035237669945E-002;4.651305498555303E-004;5.618833005428314E-003;
2.402833333333334E+009;1.624186486005783E-001;2.996968850493431E-002;7.544059772044420E-004;5.617184098809958E-003;
2.403000000000000E+009;1.630941480398178E-001;2.815908566117287E-002;7.994343177415431E-004;5.645703058689833E-003;
2.403166666666667E+009;1.639752835035324E-001;2.657053060829639E-002;1.030669431202114E-003;5.556983873248100E-003;
2.403333333333334E+009;1.648761928081513E-001;2.511933073401451E-002;1.303809229284525E-003;5.695318803191185E-003;
2.403500000000000E+009;1.658328920602799E-001;2.356569468975067E-002;1.553483307361603E-003;5.427055526524782E-003;
2.403666666666667E+009;1.666741669178009E-001;2.215280383825302E-002;1.684276387095451E-003;5.489558912813664E-003;
2.403833333333334E+009;1.678581535816193E-001;2.080018073320389E-002;1.889601233415306E-003;5.342013668268919E-003;
2.404000000000000E+009;1.687384694814682E-001;1.961412467062473E-002;2.124143298715353E-003;5.239992402493954E-003;
2.404166666666667E+009;1.696110814809799E-001;1.848849095404148E-002;2.314303535968065E-003;5.172509234398603E-003;
2.404333333333334E+009;1.707085222005844E-001;1.747075282037258E-002;2.594732213765383E-003;4.921673331409693E-003;
2.404500000000000E+009;1.715746670961380E-001;1.636101305484772E-002;2.510935766622424E-003;4.919907543808222E-003;
2.404666666666667E+009;1.725752502679825E-001;1.547682192176580E-002;2.688912907615304E-003;4.711834248155356E-003;
2.404833333333334E+009;1.735784560441971E-001;1.467440556734800E-002;2.895298646762967E-003;4.536396358162165E-003;
2.405000000000000E+009;1.745048761367798E-001;1.399696990847588E-002;3.190039657056332E-003;4.399093333631754E-003;
2.405166666666667E+009;1.754327267408371E-001;1.323407329618931E-002;3.351961728185415E-003;4.229239653795958E-003;
2.405333333333334E+009;1.763746291399002E-001;1.251841336488724E-002;3.482941770926118E-003;4.141545854508877E-003;
2.405500000000000E+009;1.770120561122894E-001;1.226003281772137E-002;3.725052578374744E-003;3.794027259573340E-003;
2.405666666666667E+009;1.776967048645020E-001;1.169915217906237E-002;3.695915453135967E-003;3.885595360770822E-003;
2.405833333333334E+009;1.782762259244919E-001;1.118761394172907E-002;3.914419561624527E-003;3.799840575084090E-003;
2.406000000000000E+009;1.789446324110031E-001;1.069991383701563E-002;4.137487616389990E-003;3.368453821167350E-003;
2.406166666666667E+009;1.794204562902451E-001;1.059548091143370E-002;4.045591689646244E-003;3.232436720281839E-003;
2.406333333333334E+009;1.799995154142380E-001;1.006224937736988E-002;4.182858858257532E-003;3.260284662246704E-003;
2.406500000000000E+009;1.804537177085877E-001;9.777277708053589E-003;4.308155737817287E-003;2.900041872635484E-003;
2.406666666666667E+009;1.805157214403153E-001;9.603948332369328E-003;4.487347789108753E-003;2.750066109001637E-003;
2.406833333333334E+009;1.808189451694489E-001;9.262477047741413E-003;4.620278719812632E-003;2.580853411927819E-003;
2.407000000000000E+009;1.810870617628098E-001;8.751707151532173E-003;4.600315354764462E-003;2.212065970525146E-003;
2.407166666666667E+009;1.811829805374146E-001;8.720864541828632E-003;4.538157954812050E-003;2.092078560963273E-003;
2.407333333333334E+009;1.810042858123779E-001;8.197065442800522E-003;4.801292438060045E-003;2.025944646447897E-003;
2.407500000000000E+009;1.808485090732575E-001;7.753314916044474E-003;4.722208250313997E-003;1.808882690966129E-003;
2.407666666666667E+009;1.806780397891998E-001;7.503770291805267E-003;4.826415330171585E-003;1.639325986616314E-003;
2.407833333333334E+009;1.803268045186997E-001;6.723264232277870E-003;4.806131124496460E-003;1.338976086117327E-003;
2.408000000000000E+009;1.800954639911652E-001;5.962514318525791E-003;4.888503812253475E-003;1.082284376025200E-003;
2.408166666666667E+009;1.795483231544495E-001;5.725907627493143E-003;4.862283822149038E-003;9.495462290942669E-004;
2.408333333333334E+009;1.792849302291870E-001;5.044102668762207E-003;4.890052601695061E-003;5.971588543616235E-004;
2.408500000000000E+009;1.787056773900986E-001;4.178036004304886E-003;4.826606716960669E-003;5.725640221498907E-004;
2.408666666666667E+009;1.780853867530823E-001;3.348140744492412E-003;4.842933267354965E-003;4.687877080868930E-004;
2.408833333333334E+009;1.773243099451065E-001;2.485561883077025E-003;4.747311584651470E-003;1.669212651904672E-004;
2.409000000000000E+009;1.767119467258453E-001;1.483208150602877E-003;4.814737942069769E-003;-6.297822255874053E-005;
2.409166666666667E+009;1.761336922645569E-001;3.181184874847531E-004;4.649512469768524E-003;-2.911756164394319E-004;
2.409333333333334E+009;1.754198223352432E-001;-8.069359464570880E-004;4.571269266307354E-003;-4.067422996740788E-004;
2.409500000000000E+009;1.746024489402771E-001;-2.013329416513443E-003;4.509218968451023E-003;-4.785177879966795E-004;
2.409666666666667E+009;1.738118827342987E-001;-3.360552480444312E-003;4.437142051756382E-003;-6.296319188550115E-004;
2.409833333333334E+009;1.730761080980301E-001;-4.793450236320496E-003;4.207035526633263E-003;-8.351572905667126E-004;
2.410000000000000E+009;1.726571321487427E-001;-6.196762435138226E-003;4.376130178570747E-003;-9.435767424292862E-004;
2.410166666666667E+009;1.718534827232361E-001;-7.634373381733894E-003;4.282264504581690E-003;-1.037161215208471E-003;
2.410333333333334E+009;1.711802482604981E-001;-9.277052246034145E-003;4.137005191296339E-003;-1.242543803527951E-003;
2.410500000000000E+009;1.706050634384155E-001;-1.099945139139891E-002;3.961957991123200E-003;-1.569458516314626E-003;
2.410666666666667E+009;1.701751053333283E-001;-1.284426823258400E-002;3.843467449769378E-003;-1.499669160693884E-003;
2.410833333333334E+009;1.696727424860001E-001;-1.447814609855413E-002;3.761364612728357E-003;-1.725686131976545E-003;
2.411000000000000E+009;1.692733764648438E-001;-1.635739393532276E-002;3.800488309934735E-003;-1.804555300623179E-003;
2.411166666666667E+009;1.687036156654358E-001;-1.825245097279549E-002;3.546809079125524E-003;-1.897068577818573E-003;
2.411333333333334E+009;1.684367954730988E-001;-2.015949413180351E-002;3.448795992881060E-003;-1.984366215765476E-003;
2.411500000000000E+009;1.681527942419052E-001;-2.224579267203808E-002;3.353120759129524E-003;-2.160669770091772E-003;
2.411666666666667E+009;1.683424264192581E-001;-2.405641600489616E-002;3.255997085943818E-003;-2.353665884584189E-003;
2.411833333333334E+009;1.682137995958328E-001;-2.602290362119675E-002;3.102890215814114E-003;-2.283239038661122E-003;
2.412000000000000E+009;1.681880205869675E-001;-2.804430574178696E-002;2.958495402708650E-003;-2.569561824202538E-003;
2.412166666666667E+009;1.679429411888123E-001;-3.016414679586887E-002;2.637963276356459E-003;-2.680641133338213E-003;
2.412333333333334E+009;1.684858053922653E-001;-3.184854611754417E-002;2.814497100189328E-003;-2.564932219684124E-003;
2.412500000000000E+009;1.683884412050247E-001;-3.375988081097603E-002;2.405983395874500E-003;-2.749013714492321E-003;
2.412666666666667E+009;1.686306744813919E-001;-3.586548566818237E-002;2.498350339010358E-003;-2.797642955556512E-003;
2.412833333333334E+009;1.691403836011887E-001;-3.771082311868668E-002;2.161558018997312E-003;-2.767252502962947E-003;
2.413000000000000E+009;1.693615913391113E-001;-3.937560319900513E-002;1.956673106178641E-003;-2.779879141598940E-003;
2.413166666666667E+009;1.697028577327728E-001;-4.111339151859283E-002;1.932213664986193E-003;-2.712520537897945E-003;
2.413333333333334E+009;1.701917052268982E-001;-4.304249957203865E-002;1.710304175503552E-003;-2.842009067535400E-003;
2.413500000000000E+009;1.706146746873856E-001;-4.477402940392494E-002;1.633012201637030E-003;-2.752528060227633E-003;
2.413666666666667E+009;1.711560636758804E-001;-4.636374115943909E-002;1.306185964494944E-003;-2.846095710992813E-003;
2.413833333333334E+009;1.715908497571945E-001;-4.760398715734482E-002;1.326309749856591E-003;-2.735214307904244E-003;
2.414000000000000E+009;1.720756143331528E-001;-4.927640035748482E-002;1.235894043929875E-003;-2.764848293736577E-003;
2.414166666666667E+009;1.727716624736786E-001;-5.046373233199120E-002;1.066863536834717E-003;-2.761447569355369E-003;
2.414333333333334E+009;1.732562035322189E-001;-5.189628154039383E-002;1.086751930415630E-003;-2.865800401195884E-003;
2.414500000000000E+009;1.740943044424057E-001;-5.302839726209641E-002;7.987641147337854E-004;-2.692505018785596E-003;
2.414666666666667E+009;1.743853837251663E-001;-5.411855876445770E-002;6.488839862868190E-004;-2.648830879479647E-003;
2.414833333333334E+009;1.748434603214264E-001;-5.519045516848564E-002;5.143120069988072E-004;-2.558122389018536E-003;
2.415000000000000E+009;1.753200888633728E-001;-5.612334609031677E-002;5.174175603315234E-004;-2.608615672215819E-003;
2.415166666666667E+009;1.758190244436264E-001;-5.681317299604416E-002;3.753749770112336E-004;-2.482803771272302E-003;
2.415333333333334E+009;1.762686520814896E-001;-5.781283229589462E-002;4.261327267158777E-004;-2.400527475401759E-003;
2.415500000000000E+009;1.766505241394043E-001;-5.822578817605972E-002;2.770825631159823E-005;-2.466891892254353E-003;
2.415666666666667E+009;1.767598986625671E-001;-5.876522138714790E-002;4.369388261693530E-005;-2.332770964130759E-003;
2.415833333333334E+009;1.771755814552307E-001;-5.928350239992142E-002;6.833297084085643E-005;-2.203782089054585E-003;
2.416000000000000E+009;1.771083474159241E-001;-5.982200056314468E-002;-7.313660898944363E-005;-2.075833035632968E-003;
2.416166666666667E+009;1.776002645492554E-001;-6.022194772958756E-002;-1.850410335464403E-004;-2.083184197545052E-003;
2.416333333333334E+009;1.773716360330582E-001;-6.046504527330399E-002;-1.654330408200622E-004;-2.036079764366150E-003;
2.416500000000000E+009;1.773178577423096E-001;-6.072965264320374E-002;-3.040666051674634E-004;-1.880737603642047E-003;
2.416666666666667E+009;1.770687550306320E-001;-6.104853376746178E-002;-7.679180998820812E-005;-1.757611054927111E-003;
2.416833333333334E+009;1.770301014184952E-001;-6.141165643930435E-002;-1.915844331961125E-004;-1.755388104356825E-003;
2.417000000000000E+009;1.764844506978989E-001;-6.161347776651382E-002;-2.385598199907690E-004;-1.737042330205441E-003;
2.417166666666667E+009;1.762177497148514E-001;-6.163442879915237E-002;-2.475214132573456E-004;-1.825655694119632E-003;
2.417333333333334E+009;1.757106035947800E-001;-6.184838339686394E-002;-2.376554330112413E-004;-1.522849197499454E-003;
2.417500000000000E+009;1.750721186399460E-001;-6.225974485278130E-002;-1.853191060945392E-004;-1.530502224341035E-003;
2.417666666666667E+009;1.744936853647232E-001;-6.221358850598335E-002;-3.249834699090570E-004;-1.431834767572582E-003;
2.417833333333334E+009;1.737582832574844E-001;-6.253767013549805E-002;-1.676227111602202E-004;-1.430817646905780E-003;
2.418000000000000E+009;1.727184653282166E-001;-6.298493593931198E-002;-2.721534110605717E-004;-1.412104698829353E-003;
2.418166666666667E+009;1.719597429037094E-001;-6.314956396818161E-002;-1.061251896317117E-004;-1.415904494933784E-003;
2.418333333333334E+009;1.711900979280472E-001;-6.355832517147064E-002;-6.400331039912999E-005;-1.539576216600835E-003;
2.418500000000000E+009;1.701509356498718E-001;-6.376373767852783E-002;-2.144747122656554E-004;-1.335098175331950E-003;
2.418666666666667E+009;1.691198348999023E-001;-6.429161876440048E-002;-6.684899562969804E-005;-1.473283162340522E-003;
2.418833333333334E+009;1.677895337343216E-001;-6.476833671331406E-002;-2.383457176620141E-004;-1.372013473883271E-003;
2.419000000000000E+009;1.665575057268143E-001;-6.530617922544479E-002;-2.037295344052836E-004;-1.462766900658608E-003;
2.419166666666667E+009;1.655260771512985E-001;-6.594721972942352E-002;-1.364604831906036E-004;-1.380539149977267E-003;
2.419333333333334E+009;1.641077548265457E-001;-6.631613522768021E-002;-3.117744345217943E-004;-1.453302218578756E-003;
2.419500000000000E+009;1.630364209413528E-001;-6.746128201484680E-002;-2.342521038372070E-004;-1.252903719432652E-003;
2.419666666666667E+009;1.620094627141953E-001;-6.827668100595474E-002;-1.518260687589645E-004;-1.524821622297168E-003;
2.419833333333334E+009;1.606883406639099E-001;-6.908986717462540E-002;-2.687175001483411E-004;-1.278998563066125E-003;
2.420000000000000E+009;1.595833450555801E-001;-7.014507800340653E-002;-1.885984529508278E-004;-1.342340838164091E-003;
2.420166666666667E+009;1.583204865455627E-001;-7.121524959802628E-002;-1.848091342253611E-004;-1.355724525637925E-003;
2.420333333333334E+009;1.573423743247986E-001;-7.233602553606033E-002;-2.581407316029072E-004;-1.274027978070080E-003;
2.420500000000000E+009;1.563924700021744E-001;-7.345618307590485E-002;-3.471649251878262E-004;-1.319616450928152E-003;
2.420666666666667E+009;1.551786214113236E-001;-7.471372187137604E-002;-3.689103468786925E-004;-1.310315798036754E-003;
2.420833333333334E+009;1.543316394090653E-001;-7.612998038530350E-002;-3.733794437721372E-004;-1.374412095174193E-003;
2.421000000000000E+009;1.534825414419174E-001;-7.750388234853745E-002;-3.848872438538820E-004;-1.398232765495777E-003;
2.421166666666667E+009;1.527716219425201E-001;-7.904478162527084E-002;-4.441565251909196E-004;-1.363154267892242E-003;
2.421333333333334E+009;1.521999984979630E-001;-8.065912127494812E-002;-3.659098292700946E-004;-1.382735557854176E-003;
2.421500000000000E+009;1.514553576707840E-001;-8.210870623588562E-002;-6.205310928635299E-004;-1.385307754389942E-003;
2.421666666666667E+009;1.507279425859451E-001;-8.361611515283585E-002;-4.791452665813267E-004;-1.209344598464668E-003;
2.421833333333334E+009;1.504306793212891E-001;-8.535947650671005E-002;-6.587215466424823E-004;-1.274712849408388E-003;
2.422000000000000E+009;1.499545127153397E-001;-8.708394318819046E-002;-5.911221960559487E-004;-1.392788602970541E-003;
2.422166666666667E+009;1.496580988168716E-001;-8.900041878223419E-002;-6.894029793329537E-004;-1.279151649214327E-003;
2.422333333333334E+009;1.494709551334381E-001;-9.049561619758606E-002;-5.549908382818103E-004;-1.304500387050211E-003;
2.422500000000000E+009;1.493327766656876E-001;-9.208190441131592E-002;-6.748031009919941E-004;-1.182899577543140E-003;
2.422666666666667E+009;1.492647230625153E-001;-9.392599761486054E-002;-6.514262058772147E-004;-1.199347432702780E-003;
2.422833333333334E+009;1.492584794759750E-001;-9.565511345863342E-002;-7.495734025724232E-004;-1.128830714151263E-003;
2.423000000000000E+009;1.493878960609436E-001;-9.731750190258026E-002;-8.168782223947346E-004;-1.094869454391301E-003;
2.423166666666667E+009;1.495900601148605E-001;-9.910065680742264E-002;-8.797071641311050E-004;-8.802285301499069E-004;
2.423333333333334E+009;1.498999893665314E-001;-1.005842387676239E-001;-1.067792414687574E-003;-1.088203163817525E-003;
2.423500000000000E+009;1.500980705022812E-001;-1.022187024354935E-001;-9.498371509835124E-004;-1.050919876433909E-003;
2.423666666666667E+009;1.504509299993515E-001;-1.038877218961716E-001;-9.768913732841611E-004;-1.009767060168088E-003;
2.423833333333334E+009;1.510312557220459E-001;-1.052319034934044E-001;-1.006712671369314E-003;-8.038109517656267E-004;
2.424000000000000E+009;1.512073576450348E-001;-1.065959185361862E-001;-1.012155204080045E-003;-6.897890707477927E-004;
2.424166666666667E+009;1.517263650894165E-001;-1.080607548356056E-001;-8.252859115600586E-004;-6.612002616748214E-004;
2.424333333333334E+009;1.523419618606567E-001;-1.091280952095985E-001;-1.008295919746161E-003;-6.282546091824770E-004;
2.424500000000000E+009;1.528178006410599E-001;-1.104885637760162E-001;-1.000612159259617E-003;-5.968007026240230E-004;
2.424666666666667E+009;1.533619910478592E-001;-1.114544942975044E-001;-9.262016392312944E-004;-5.613779067061842E-004;
2.424833333333334E+009;1.537275910377502E-001;-1.124686151742935E-001;-9.005163447000086E-004;-5.621861782856286E-004;
2.425000000000000E+009;1.542524993419647E-001;-1.135297119617462E-001;-8.351812139153481E-004;-5.198003491386771E-004;
2.425166666666667E+009;1.544838696718216E-001;-1.143776029348373E-001;-8.521398412995040E-004;-3.991504781879485E-004;
2.425333333333334E+009;1.549770832061768E-001;-1.151501610875130E-001;-8.218316943384707E-004;-4.127264546696097E-004;
2.425500000000000E+009;1.554752290248871E-001;-1.160349398851395E-001;-7.244801381602883E-004;-3.974921710323542E-004;
2.425666666666667E+009;1.554997563362122E-001;-1.166148632764816E-001;-4.879554326180369E-004;-3.051912644878030E-004;
2.425833333333334E+009;1.559713184833527E-001;-1.171989962458611E-001;-5.615198751911521E-004;-2.824213879648596E-004;
2.426000000000000E+009;1.561475098133087E-001;-1.177491620182991E-001;-5.070220795460045E-004;-3.297794028185308E-004;
2.426166666666667E+009;1.565235108137131E-001;-1.181940510869026E-001;-4.627475282177329E-004;-4.272655933164060E-004;
2.426333333333334E+009;1.565084159374237E-001;-1.184791773557663E-001;-4.196891095489264E-004;-3.142431960441172E-004;
2.426500000000000E+009;1.564828902482987E-001;-1.187599226832390E-001;-3.242223465349525E-004;-3.121575573459268E-004;
2.426666666666667E+009;1.565046459436417E-001;-1.189120560884476E-001;-2.766687830444425E-004;-2.925515000242740E-004;
2.426833333333334E+009;1.563506126403809E-001;-1.191820055246353E-001;-3.273553738836199E-004;-3.759209066629410E-004;
2.427000000000000E+009;1.560434699058533E-001;-1.193764060735703E-001;-2.856522914953530E-004;-5.720890476368368E-004;
2.427166666666667E+009;1.557015925645828E-001;-1.193422600626946E-001;-3.525644133333117E-004;-4.564688424579799E-004;
2.427333333333334E+009;1.551843881607056E-001;-1.195337027311325E-001;-2.770323480945081E-004;-5.176594131626189E-004;
2.427500000000000E+009;1.548312753438950E-001;-1.196976602077484E-001;-3.466710622888058E-004;-5.606252816505730E-004;
2.427666666666667E+009;1.541398167610169E-001;-1.197884380817413E-001;-1.794549025362358E-004;-6.394226220436394E-004;
