# Version 1.00
#
freq[Hz];re:Trc1_S11;im:Trc1_S11;re:Trc2_S21;im:Trc2_S21;
2.400000000000000E+009;1.584787964820862E-001;6.287211924791336E-002;-2.798973117023706E-003;5.104385316371918E-003;
2.400166666666667E+009;1.582534611225128E-001;6.133389472961426E-002;-2.691912697628140E-003;5.140653811395168E-003;
2.400333333333334E+009;1.579453498125076E-001;5.948207527399063E-002;-2.508895238861442E-003;5.073228850960732E-003;
2.400500000000000E+009;1.578399538993835E-001;5.755285918712616E-002;-2.261333633214235E-003;5.453562363982201E-003;
2.400666666666667E+009;1.578972786664963E-001;5.550784245133400E-002;-2.063276246190071E-003;5.335397552698851E-003;
2.400833333333334E+009;1.578291803598404E-001;5.360504239797592E-002;-1.838770695030689E-003;5.531283095479012E-003;
2.401000000000000E+009;1.577793210744858E-001;5.171453207731247E-002;-1.656453358009458E-003;5.498845130205154E-003;
2.401166666666667E+009;1.580851376056671E-001;4.942919313907623E-002;-1.615829765796661E-003;5.448922049254179E-003;
2.401333333333334E+009;1.579815745353699E-001;4.719630256295204E-002;-1.336465706117451E-003;5.565179977566004E-003;
2.401500000000000E+009;1.585643291473389E-001;4.517041519284248E-002;-1.195607008412480E-003;5.530925933271647E-003;
2.401666666666667E+009;1.588622927665710E-001;4.328200593590736E-002;-9.877450065687299E-004;5.499774590134621E-003;
2.401833333333334E+009;1.590535938739777E-001;4.117460176348686E-002;-6.890214863233268E-004;5.726046394556761E-003;
2.402000000000000E+009;1.592969596385956E-001;3.923946246504784E-002;-4.046716203447431E-004;5.705283954739571E-003;
2.402166666666667E+009;1.599179059267044E-001;3.702037408947945E-002;-3.359202237334102E-004;5.581121891736984E-003;
2.402333333333334E+009;1.601846069097519E-001;3.515899553894997E-002;-7.036290480755270E-005;5.700523965060711E-003;
2.402500000000000E+009;1.610371172428131E-001;3.337166830897331E-002;-5.261068145046011E-005;5.718717817217112E-003;
2.402666666666667E+009;1.616609841585159E-001;3.158681839704514E-002;3.320206014905125E-004;5.687096156179905E-003;
2.402833333333334E+009;1.622468978166580E-001;3.000186756253243E-002;4.978859215043485E-004;5.736102815717459E-003;
2.403000000000000E+009;1.630361229181290E-001;2.812466025352478E-002;5.602827295660973E-004;5.661875475198031E-003;
2.403166666666667E+009;1.641067564487457E-001;2.652080357074738E-002;1.039174967445433E-003;5.557775963097811E-003;
2.403333333333334E+009;1.649509370326996E-001;2.523745782673359E-002;1.105744508095086E-003;5.618461407721043E-003;
2.403500000000000E+009;1.657211035490036E-001;2.348929084837437E-002;1.459085615351796E-003;5.555493291467428E-003;
2.403666666666667E+009;1.668373495340347E-001;2.198832482099533E-002;1.570597523823381E-003;5.412511061877012E-003;
2.403833333333334E+009;1.677841544151306E-001;2.080144733190537E-002;1.774290343746543E-003;5.433677230030298E-003;
2.404000000000000E+009;1.687744259834290E-001;1.964052580296993E-002;1.985752722248435E-003;5.149316042661667E-003;
2.404166666666667E+009;1.695767790079117E-001;1.831177435815334E-002;2.159031806513667E-003;5.143294576555491E-003;
2.404333333333334E+009;1.705653816461563E-001;1.749785803258419E-002;2.421825658529997E-003;4.992400296032429E-003;
2.404500000000000E+009;1.715556234121323E-001;1.632142812013626E-002;2.586875110864639E-003;4.769657738506794E-003;
2.404666666666667E+009;1.725442409515381E-001;1.535206008702517E-002;2.842942019924521E-003;4.502935800701380E-003;
2.404833333333334E+009;1.734883636236191E-001;1.462070550769568E-002;3.193120006471872E-003;4.615416284650564E-003;
2.405000000000000E+009;1.744672805070877E-001;1.392060052603483E-002;3.173936158418655E-003;4.393057432025671E-003;
2.405166666666667E+009;1.753397434949875E-001;1.330797281116247E-002;3.321273718029261E-003;4.323460627347231E-003;
2.405333333333334E+009;1.761816293001175E-001;1.247388310730457E-002;3.462744178250432E-003;4.182176664471626E-003;
2.405500000000000E+009;1.770872175693512E-001;1.217370666563511E-002;3.519481047987938E-003;3.935564309358597E-003;
2.405666666666667E+009;1.777434796094894E-001;1.162624452263117E-002;3.764552064239979E-003;3.866200568154454E-003;
2.405833333333334E+009;1.782976686954498E-001;1.122723147273064E-002;3.806938882917166E-003;3.585658269003034E-003;
2.406000000000000E+009;1.790891587734222E-001;1.070542726665735E-002;4.066853784024715E-003;3.479256294667721E-003;
2.406166666666667E+009;1.794275641441345E-001;1.047114282846451E-002;4.041843116283417E-003;3.346087876707315E-003;
2.406333333333334E+009;1.799471229314804E-001;1.018226519227028E-002;4.169946536421776E-003;3.028773469850421E-003;
2.406500000000000E+009;1.803505718708038E-001;9.906060062348843E-003;4.334241617470980E-003;3.016929607838392E-003;
2.406666666666667E+009;1.804118305444717E-001;9.568297304213047E-003;4.536085296422243E-003;3.046565921977162E-003;
2.406833333333334E+009;1.808212548494339E-001;9.125677868723869E-003;4.506080411374569E-003;2.598327584564686E-003;
2.407000000000000E+009;1.809100955724716E-001;8.899075910449028E-003;4.364667460322380E-003;2.393180970102549E-003;
2.407166666666667E+009;1.811209022998810E-001;8.645488880574703E-003;4.666758235543966E-003;2.167269820347428E-003;
2.407333333333334E+009;1.809050142765045E-001;8.160904049873352E-003;4.706866107881069E-003;1.917323679663241E-003;
2.407500000000000E+009;1.809267550706863E-001;7.967741228640080E-003;4.717724863439798E-003;1.819700235500932E-003;
2.407666666666667E+009;1.806907504796982E-001;7.334265392273665E-003;4.826569464057684E-003;1.484241685830057E-003;
2.407833333333334E+009;1.801483035087585E-001;6.793011445552111E-003;4.715735558420420E-003;1.393294893205166E-003;
2.408000000000000E+009;1.799568980932236E-001;6.183710880577564E-003;4.890151787549257E-003;1.140036038123071E-003;
2.408166666666667E+009;1.795313656330109E-001;5.833213217556477E-003;4.762665368616581E-003;1.017263391986489E-003;
2.408333333333334E+009;1.792704015970230E-001;5.075951106846333E-003;4.791211336851120E-003;7.258893456310034E-004;
2.408500000000000E+009;1.786675900220871E-001;4.217129666358233E-003;4.823050461709499E-003;3.289947344455868E-004;
2.408666666666667E+009;1.780792325735092E-001;3.302958328276873E-003;4.772035870701075E-003;2.512325590942055E-004;
2.408833333333334E+009;1.772571504116058E-001;2.519423607736826E-003;4.717043135315180E-003;2.663315972313285E-004;
2.409000000000000E+009;1.766612231731415E-001;1.507743145339191E-003;4.684137646108866E-003;-9.543813212076202E-005;
2.409166666666667E+009;1.759493052959442E-001;3.958054876420647E-004;4.676176700741053E-003;-1.450819981982932E-004;
2.409333333333334E+009;1.754860728979111E-001;-6.615812890231609E-004;4.603897687047720E-003;-3.278458898421377E-004;
2.409500000000000E+009;1.745507568120956E-001;-2.180628711357713E-003;4.456545691937208E-003;-6.311744800768793E-004;
2.409666666666667E+009;1.738506257534027E-001;-3.372224280610681E-003;4.388123750686646E-003;-6.682240637019277E-004;
2.409833333333334E+009;1.730547845363617E-001;-4.623265936970711E-003;4.514004103839397E-003;-8.304666844196618E-004;
2.410000000000000E+009;1.725624054670334E-001;-6.284654606133699E-003;4.198732785880566E-003;-9.800047846511006E-004;
2.410166666666667E+009;1.718262135982513E-001;-7.586611900478602E-003;4.083994776010513E-003;-9.995225118473172E-004;
2.410333333333334E+009;1.711775064468384E-001;-9.235432371497154E-003;4.001378081738949E-003;-1.278950949199498E-003;
2.410500000000000E+009;1.705532371997833E-001;-1.102602295577526E-002;3.877821145579219E-003;-1.402000780217350E-003;
2.410666666666667E+009;1.699594408273697E-001;-1.292263902723789E-002;3.915995359420776E-003;-1.644679461605847E-003;
2.410833333333334E+009;1.696027666330338E-001;-1.446479000151157E-002;3.671406302601099E-003;-1.705001923255622E-003;
2.411000000000000E+009;1.690195947885513E-001;-1.628713123500347E-002;3.751468146219850E-003;-1.846508937887847E-003;
2.411166666666667E+009;1.688351184129715E-001;-1.824214495718479E-002;3.507495624944568E-003;-1.867338549345732E-003;
2.411333333333334E+009;1.683648377656937E-001;-2.022296749055386E-002;3.301619086414576E-003;-1.976747065782547E-003;
2.411500000000000E+009;1.682018637657166E-001;-2.222238853573799E-002;3.304876852780581E-003;-2.047911053523421E-003;
2.411666666666667E+009;1.681579053401947E-001;-2.413093298673630E-002;3.192968433722854E-003;-2.113056834787130E-003;
2.411833333333334E+009;1.679440140724182E-001;-2.593420818448067E-002;3.067049197852612E-003;-2.245482755824924E-003;
2.412000000000000E+009;1.680145561695099E-001;-2.785331383347511E-002;2.789979800581932E-003;-2.471593208611012E-003;
2.412166666666667E+009;1.680051982402802E-001;-2.998495101928711E-002;2.800221089273691E-003;-2.489678096026182E-003;
2.412333333333334E+009;1.682111024856567E-001;-3.186809271574020E-002;2.722744364291430E-003;-2.499864902347326E-003;
2.412500000000000E+009;1.684305965900421E-001;-3.359060734510422E-002;2.503719879314303E-003;-2.530329162254930E-003;
2.412666666666667E+009;1.686268448829651E-001;-3.579213842749596E-002;2.367364708334208E-003;-2.457325579598546E-003;
2.412833333333334E+009;1.689945608377457E-001;-3.768036887049675E-002;2.081600949168205E-003;-2.617475809529424E-003;
2.413000000000000E+009;1.693890988826752E-001;-3.945435211062431E-002;2.176475943997502E-003;-2.675099065527320E-003;
2.413166666666667E+009;1.696580946445465E-001;-4.127217084169388E-002;1.854991191066802E-003;-2.737103495746851E-003;
2.413333333333334E+009;1.700367033481598E-001;-4.297417029738426E-002;1.797810080461204E-003;-2.810891950502992E-003;
2.413500000000000E+009;1.707085072994232E-001;-4.451618716120720E-002;1.481561455875635E-003;-2.679887926205993E-003;
2.413666666666667E+009;1.711768209934235E-001;-4.629631340503693E-002;1.442083972506225E-003;-2.741113537922502E-003;
2.413833333333334E+009;1.715727448463440E-001;-4.775106906890869E-002;1.474432647228241E-003;-2.628586487844586E-003;
2.414000000000000E+009;1.718495935201645E-001;-4.934943094849587E-002;1.206666463986039E-003;-2.724670805037022E-003;
2.414166666666667E+009;1.727472096681595E-001;-5.046958848834038E-002;1.089628203772008E-003;-2.743895631283522E-003;
2.414333333333334E+009;1.732059866189957E-001;-5.190421640872955E-002;9.413934894837439E-004;-2.757579321041703E-003;
2.414500000000000E+009;1.741006076335907E-001;-5.309275165200234E-002;7.786339847370982E-004;-2.684263046830893E-003;
2.414666666666667E+009;1.744654029607773E-001;-5.405228957533836E-002;6.585298688150942E-004;-2.599328756332398E-003;
2.414833333333334E+009;1.748479306697846E-001;-5.521054193377495E-002;5.375973414629698E-004;-2.617708174511790E-003;
2.415000000000000E+009;1.752277016639710E-001;-5.609219521284103E-002;5.829924484714866E-004;-2.577347913756967E-003;
2.415166666666667E+009;1.757965981960297E-001;-5.686061829328537E-002;3.308271407149732E-004;-2.436087699607015E-003;
2.415333333333334E+009;1.763290315866470E-001;-5.776800587773323E-002;4.206588491797447E-004;-2.483299933373928E-003;
2.415500000000000E+009;1.764985173940659E-001;-5.824796855449677E-002;1.332623505732045E-004;-2.144612371921539E-003;
2.415666666666667E+009;1.769478619098663E-001;-5.880540236830711E-002;1.828183303587139E-004;-2.388669643551111E-003;
2.415833333333334E+009;1.771055310964584E-001;-5.930834263563156E-002;8.855463238433003E-005;-2.217522589489818E-003;
2.416000000000000E+009;1.771501749753952E-001;-5.974419414997101E-002;3.710410965140909E-005;-2.159167313948274E-003;
2.416166666666667E+009;1.774755120277405E-001;-6.017900630831718E-002;-8.807284757494927E-005;-2.071087947115302E-003;
2.416333333333334E+009;1.773648262023926E-001;-6.045341491699219E-002;-1.408678945153952E-004;-2.029057592153549E-003;
2.416500000000000E+009;1.773549020290375E-001;-6.085988506674767E-002;-1.214282383443788E-004;-1.979620661586523E-003;
2.416666666666667E+009;1.771469861268997E-001;-6.098903715610504E-002;-2.619254228193313E-004;-1.865392201580107E-003;
2.416833333333334E+009;1.771111190319061E-001;-6.148520857095718E-002;-1.826297666411847E-004;-1.829728484153748E-003;
2.417000000000000E+009;1.765055656433106E-001;-6.156492605805397E-002;-2.355982724111527E-004;-1.773523981682956E-003;
2.417166666666667E+009;1.761982440948486E-001;-6.167223677039146E-002;-1.373771228827536E-004;-1.593847060576081E-003;
2.417333333333334E+009;1.757126599550247E-001;-6.192765757441521E-002;-2.207537472713739E-004;-1.620587659999728E-003;
2.417500000000000E+009;1.750952005386353E-001;-6.227057799696922E-002;-1.817647134885192E-004;-1.573922811076045E-003;
2.417666666666667E+009;1.745529025793076E-001;-6.217646598815918E-002;-1.602044358151034E-004;-1.419422798790038E-003;
2.417833333333334E+009;1.737399995326996E-001;-6.257201731204987E-002;-2.683368220459670E-004;-1.535987830720842E-003;
2.418000000000000E+009;1.728425174951553E-001;-6.296575814485550E-002;-1.966492418432608E-004;-1.368732191622257E-003;
2.418166666666667E+009;1.718174964189529E-001;-6.304378807544708E-002;-1.294696558034048E-004;-1.358821522444487E-003;
2.418333333333334E+009;1.711689233779907E-001;-6.353931128978729E-002;-1.387034426443279E-004;-1.480446197092533E-003;
2.418500000000000E+009;1.701149046421051E-001;-6.388653814792633E-002;-4.273545710020699E-005;-1.537898322567344E-003;
2.418666666666667E+009;1.690945029258728E-001;-6.433970481157303E-002;-2.183626638725400E-004;-1.342952018603683E-003;
2.418833333333334E+009;1.677716970443726E-001;-6.478896737098694E-002;-3.012034285347909E-004;-1.419091247953475E-003;
2.419000000000000E+009;1.666316241025925E-001;-6.537088751792908E-002;-2.349448477616534E-004;-1.307557919062674E-003;
2.419166666666667E+009;1.655050665140152E-001;-6.609579920768738E-002;-1.721242879284546E-004;-1.285621314309537E-003;
2.419333333333334E+009;1.641310155391693E-001;-6.644626706838608E-002;-1.840341283241287E-004;-1.367363496683538E-003;
2.419500000000000E+009;1.630210131406784E-001;-6.740950047969818E-002;-1.835233852034435E-004;-1.325473422184587E-003;
2.419666666666667E+009;1.620413362979889E-001;-6.832662969827652E-002;-1.606786536285654E-004;-1.339709968306124E-003;
2.419833333333334E+009;1.606920212507248E-001;-6.907237321138382E-002;-1.954387698788196E-004;-1.427962444722652E-003;
2.420000000000000E+009;1.596955657005310E-001;-7.006642222404480E-002;-7.498775084968656E-005;-1.371691003441811E-003;
2.420166666666667E+009;1.583762466907501E-001;-7.112099975347519E-002;-2.395117917330936E-004;-1.326984143815935E-003;
2.420333333333334E+009;1.573605388402939E-001;-7.241094857454300E-002;-2.742579963523895E-004;-1.403361675329506E-003;
2.420500000000000E+009;1.562650501728058E-001;-7.355896383523941E-002;-2.677142329048365E-004;-1.319752773270011E-003;
2.420666666666667E+009;1.552994549274445E-001;-7.478053867816925E-002;-3.681243979372084E-004;-1.298817223869264E-003;
2.420833333333334E+009;1.543258875608444E-001;-7.619679719209671E-002;-3.764006833080202E-004;-1.486187451519072E-003;
2.421000000000000E+009;1.534645408391953E-001;-7.762014120817184E-002;-4.429318651091307E-004;-1.378432498313487E-003;
2.421166666666667E+009;1.526507139205933E-001;-7.901704311370850E-002;-1.999125524889678E-004;-1.296673901379108E-003;
2.421333333333334E+009;1.519645154476166E-001;-8.064517378807068E-002;-4.843613714911044E-004;-1.498979399912059E-003;
2.421500000000000E+009;1.514226347208023E-001;-8.213309198617935E-002;-5.069375620223582E-004;-1.386707532219589E-003;
2.421666666666667E+009;1.507661193609238E-001;-8.373211324214935E-002;-6.067132344469428E-004;-1.298769377171993E-003;
2.421833333333334E+009;1.503209173679352E-001;-8.533278107643127E-002;-4.780559393111616E-004;-1.314579392783344E-003;
2.422000000000000E+009;1.498689800500870E-001;-8.716957271099091E-002;-5.321850185282528E-004;-1.293514971621335E-003;
2.422166666666667E+009;1.495601832866669E-001;-8.884558826684952E-002;-7.486160611733794E-004;-1.290433807298541E-003;
2.422333333333334E+009;1.495433449745178E-001;-9.041178971529007E-002;-6.502768956124783E-004;-1.312221633270383E-003;
2.422500000000000E+009;1.491426229476929E-001;-9.218166023492813E-002;-6.555793224833906E-004;-1.352359424345195E-003;
2.422666666666667E+009;1.491666734218597E-001;-9.393813461065292E-002;-7.149023003876209E-004;-1.190647017210722E-003;
2.422833333333334E+009;1.492818593978882E-001;-9.563999623060226E-002;-8.756573661230505E-004;-1.098262146115303E-003;
2.423000000000000E+009;1.493440717458725E-001;-9.730699658393860E-002;-7.966327830217779E-004;-1.158626750111580E-003;
2.423166666666667E+009;1.497308611869812E-001;-9.883473813533783E-002;-8.585090399719775E-004;-1.221292419359088E-003;
2.423333333333334E+009;1.500753760337830E-001;-1.004253402352333E-001;-9.014768875204027E-004;-1.109370146878064E-003;
2.423500000000000E+009;1.501425206661224E-001;-1.022255197167397E-001;-8.403855026699603E-004;-8.840205264277756E-004;
2.423666666666667E+009;1.503812670707703E-001;-1.036696285009384E-001;-8.415175834670663E-004;-9.597406024113298E-004;
2.423833333333334E+009;1.510236263275147E-001;-1.052529662847519E-001;-9.187646792270243E-004;-9.461388108320534E-004;
2.424000000000000E+009;1.513199657201767E-001;-1.064971908926964E-001;-8.218216244131327E-004;-9.131981641985476E-004;
2.424166666666667E+009;1.517516523599625E-001;-1.079352945089340E-001;-1.152014359831810E-003;-7.397941662929952E-004;
2.424333333333334E+009;1.522617042064667E-001;-1.091836541891098E-001;-8.147854823619127E-004;-6.195818423293531E-004;
2.424500000000000E+009;1.527496427297592E-001;-1.104839965701103E-001;-9.740444947965443E-004;-5.808608839288354E-004;
2.424666666666667E+009;1.534046232700348E-001;-1.112991571426392E-001;-8.353310404345393E-004;-7.421611226163805E-004;
2.424833333333334E+009;1.536613255739212E-001;-1.125333383679390E-001;-8.775210590101779E-004;-5.872211186215282E-004;
2.425000000000000E+009;1.542788296937943E-001;-1.135566756129265E-001;-7.728567579761148E-004;-4.862300702370703E-004;
2.425166666666667E+009;1.545780748128891E-001;-1.143749505281448E-001;-9.894178947433829E-004;-3.934132982976735E-004;
2.425333333333334E+009;1.550308465957642E-001;-1.151074767112732E-001;-9.018190903589129E-004;-4.736412665806711E-004;
2.425500000000000E+009;1.554739624261856E-001;-1.160143688321114E-001;-6.948752561584115E-004;-4.869380500167608E-004;
2.425666666666667E+009;1.555458307266235E-001;-1.166248172521591E-001;-5.572683876380324E-004;-4.717192205134779E-004;
2.425833333333334E+009;1.559890657663345E-001;-1.171267926692963E-001;-6.381434504874051E-004;-3.862688026856631E-004;
2.426000000000000E+009;1.560794711112976E-001;-1.177100166678429E-001;-5.356866749934852E-004;-3.460776933934540E-004;
2.426166666666667E+009;1.564244329929352E-001;-1.181208118796349E-001;-3.855735412798822E-004;-4.291711375117302E-004;
2.426333333333334E+009;1.564835309982300E-001;-1.185636967420578E-001;-4.830151738133282E-004;-2.077310491586104E-004;
2.426500000000000E+009;1.564172655344009E-001;-1.187784448266029E-001;-4.120318044442684E-004;-4.318270948715508E-004;
2.426666666666667E+009;1.566013097763062E-001;-1.188190281391144E-001;-3.214192402083427E-004;-5.710124969482422E-004;
2.426833333333334E+009;1.562673151493073E-001;-1.192014962434769E-001;-3.596191818360239E-004;-4.593056801240891E-004;
2.427000000000000E+009;1.560200005769730E-001;-1.193082928657532E-001;-4.097097262274474E-004;-4.464430385269225E-004;
2.427166666666667E+009;1.556225568056107E-001;-1.193164363503456E-001;-2.864225534722209E-004;-5.705105140805244E-004;
2.427333333333334E+009;1.551169157028198E-001;-1.195858493447304E-001;-2.808985300362110E-004;-6.082804175093770E-004;
2.427500000000000E+009;1.547109633684158E-001;-1.197081133723259E-001;-1.517887576483190E-004;-5.786230321973562E-004;
2.427666666666667E+009;1.540665179491043E-001;-1.197920367121697E-001;-2.472861087881029E-004;-5.238885059952736E-004;
