# Version 1.00
#
freq[Hz];re:Trc1_S11;im:Trc1_S11;re:Trc2_S21;im:Trc2_S21;
2.400000000000000E+009;1.584721207618713E-001;6.296894699335098E-002;-2.789519028738141E-003;5.131816957145929E-003;
2.400166666666667E+009;1.582419425249100E-001;6.129655241966248E-002;-2.483587013557553E-003;5.221492145210505E-003;
2.400333333333334E+009;1.580731123685837E-001;5.940358713269234E-002;-2.346473513171077E-003;5.270149093121290E-003;
2.400500000000000E+009;1.580450236797333E-001;5.757931992411614E-002;-2.167295897379518E-003;5.469082854688168E-003;
2.400666666666667E+009;1.578432768583298E-001;5.554798990488052E-002;-1.835047034546733E-003;5.418772343546152E-003;
2.400833333333334E+009;1.580339074134827E-001;5.365562066435814E-002;-1.751970848999918E-003;5.577632226049900E-003;
2.401000000000000E+009;1.580191701650620E-001;5.152432993054390E-002;-1.700686058029532E-003;5.516366101801395E-003;
2.401166666666667E+009;1.581194400787354E-001;4.949992150068283E-002;-1.464724773541093E-003;5.684979725629091E-003;
2.401333333333334E+009;1.581582278013229E-001;4.739648848772049E-002;-1.227146945893765E-003;5.679777357727289E-003;
2.401500000000000E+009;1.584628969430924E-001;4.542254656553268E-002;-1.062320079654455E-003;5.514596123248339E-003;
2.401666666666667E+009;1.587240844964981E-001;4.330494627356529E-002;-8.637218852527440E-004;5.638371221721172E-003;
2.401833333333334E+009;1.591261923313141E-001;4.126093536615372E-002;-5.726924864575267E-004;5.643276963382959E-003;
2.402000000000000E+009;1.593624800443649E-001;3.926654160022736E-002;-4.566296120174229E-004;5.748872645199299E-003;
2.402166666666667E+009;1.596792489290237E-001;3.713565319776535E-002;-2.242302580270916E-004;5.621013231575489E-003;
2.402333333333334E+009;1.601950675249100E-001;3.529089316725731E-002;-3.143656431348063E-005;5.756155587732792E-003;
2.402500000000000E+009;1.611123979091644E-001;3.334931284189224E-002;2.270652039442211E-004;5.732039455324411E-003;
2.402666666666667E+009;1.617126166820526E-001;3.173449262976646E-002;4.904733505100012E-004;5.714633502066135E-003;
2.402833333333334E+009;1.624042242765427E-001;3.006238490343094E-002;7.673005457036197E-004;5.697093438357115E-003;
2.403000000000000E+009;1.631252765655518E-001;2.813766896724701E-002;8.524236036464572E-004;5.747269839048386E-003;
2.403166666666667E+009;1.639141291379929E-001;2.655267715454102E-002;9.876819094642997E-004;5.615198053419590E-003;
2.403333333333334E+009;1.648328006267548E-001;2.511699311435223E-002;1.371821970678866E-003;5.620698910206556E-003;
2.403500000000000E+009;1.657266318798065E-001;2.376975119113922E-002;1.462307991459966E-003;5.448870826512575E-003;
2.403666666666667E+009;1.666330546140671E-001;2.213192358613014E-002;1.620783004909754E-003;5.541326943784952E-003;
2.403833333333334E+009;1.677082180976868E-001;2.072339691221714E-002;1.887556631118059E-003;5.330646410584450E-003;
2.404000000000000E+009;1.687799245119095E-001;1.959586888551712E-002;2.197091467678547E-003;5.082625895738602E-003;
2.404166666666667E+009;1.696552932262421E-001;1.848016120493412E-002;2.214001258835197E-003;5.077299661934376E-003;
2.404333333333334E+009;1.705559939146042E-001;1.744334213435650E-002;2.484891796484590E-003;4.995584022253752E-003;
2.404500000000000E+009;1.715348809957504E-001;1.632550545036793E-002;2.674300456419587E-003;4.752623848617077E-003;
2.404666666666667E+009;1.726433932781220E-001;1.560800708830357E-002;2.953938674181700E-003;4.654697142541409E-003;
2.404833333333334E+009;1.736827641725540E-001;1.461357343941927E-002;3.072059713304043E-003;4.426374100148678E-003;
2.405000000000000E+009;1.744359135627747E-001;1.388256344944239E-002;3.115118946880102E-003;4.335634410381317E-003;
2.405166666666667E+009;1.752762347459793E-001;1.315515674650669E-002;3.338416339829564E-003;4.245121963322163E-003;
2.405333333333334E+009;1.762799918651581E-001;1.243028882890940E-002;3.628932405263186E-003;4.085359629243612E-003;
2.405500000000000E+009;1.770466715097427E-001;1.204547937959433E-002;3.673690604045987E-003;4.089132882654667E-003;
2.405666666666667E+009;1.779173314571381E-001;1.160766649991274E-002;3.841540077701211E-003;3.841117722913623E-003;
2.405833333333334E+009;1.783346980810165E-001;1.124261133372784E-002;3.817116841673851E-003;3.518140409141779E-003;
2.406000000000000E+009;1.790830045938492E-001;1.070914696902037E-002;4.027951974421740E-003;3.673446830362082E-003;
2.406166666666667E+009;1.795345544815064E-001;1.040801778435707E-002;4.039668943732977E-003;3.184739965945482E-003;
2.406333333333334E+009;1.801185458898544E-001;1.022075675427914E-002;4.381763283163309E-003;3.113805316388607E-003;
2.406500000000000E+009;1.803667992353439E-001;9.856764227151871E-003;4.401340615004301E-003;2.833655802533031E-003;
2.406666666666667E+009;1.804725974798203E-001;9.576264768838882E-003;4.588603973388672E-003;2.590027870610356E-003;
2.406833333333334E+009;1.807915568351746E-001;9.106306359171867E-003;4.540906753391028E-003;2.549652941524983E-003;
2.407000000000000E+009;1.809755265712738E-001;8.883924223482609E-003;4.579466767609119E-003;2.419738564640284E-003;
2.407166666666667E+009;1.811488717794418E-001;8.569747209548950E-003;4.639761522412300E-003;2.016947139054537E-003;
2.407333333333334E+009;1.810644567012787E-001;8.172474801540375E-003;4.612268414348364E-003;1.925833406858146E-003;
2.407500000000000E+009;1.809057891368866E-001;7.782912347465754E-003;4.742057062685490E-003;1.783871208317578E-003;
2.407666666666667E+009;1.806762814521790E-001;7.566606160253286E-003;4.796032793819904E-003;1.507418695837259E-003;
2.407833333333334E+009;1.802776902914047E-001;6.749660708010197E-003;4.740010015666485E-003;1.215040218085051E-003;
2.408000000000000E+009;1.799183934926987E-001;6.226325873285532E-003;4.721045028418303E-003;1.086820848286152E-003;
2.408166666666667E+009;1.795681864023209E-001;5.787855014204979E-003;4.815103020519018E-003;8.963568252511323E-004;
2.408333333333334E+009;1.792707741260529E-001;5.036075133830309E-003;4.795889835804701E-003;7.056267349980772E-004;
2.408500000000000E+009;1.785886734724045E-001;4.170764703303576E-003;4.682988859713078E-003;4.736456030514091E-004;
2.408666666666667E+009;1.781140267848969E-001;3.351427614688873E-003;4.801617003977299E-003;3.022534074261785E-004;
2.408833333333334E+009;1.775729507207871E-001;2.523430157452822E-003;4.584341775625944E-003;2.251373225590214E-004;
2.409000000000000E+009;1.766943782567978E-001;1.504918094724417E-003;4.671257454901934E-003;-6.415630195988342E-005;
2.409166666666667E+009;1.761312931776047E-001;4.791051615029573E-004;4.605598282068968E-003;-2.336263423785567E-004;
2.409333333333334E+009;1.754122823476791E-001;-8.004934643395245E-004;4.599347244948149E-003;-4.049954586662352E-004;
2.409500000000000E+009;1.745662987232208E-001;-2.110657747834921E-003;4.351633135229349E-003;-6.792687927372754E-004;
2.409666666666667E+009;1.739734411239624E-001;-3.243224462494254E-003;4.445973783731461E-003;-6.675553740933538E-004;
2.409833333333334E+009;1.730829626321793E-001;-4.757827613502741E-003;4.411360248923302E-003;-1.006028964184225E-003;
2.410000000000000E+009;1.725858598947525E-001;-6.092825438827276E-003;4.326800815761089E-003;-1.266909763216972E-003;
2.410166666666667E+009;1.719978004693985E-001;-7.700081914663315E-003;4.286531358957291E-003;-1.140607055276632E-003;
2.410333333333334E+009;1.713844090700150E-001;-9.300092235207558E-003;4.030970856547356E-003;-1.332594547420740E-003;
2.410500000000000E+009;1.706393063068390E-001;-1.104012969881296E-002;4.035093821585178E-003;-1.503197825513780E-003;
2.410666666666667E+009;1.699837297201157E-001;-1.282908860594034E-002;3.764637978747487E-003;-1.603538752533495E-003;
2.410833333333334E+009;1.697448194026947E-001;-1.457349583506584E-002;3.731527365744114E-003;-1.681804307736456E-003;
2.411000000000000E+009;1.692994683980942E-001;-1.634099520742893E-002;3.686592448502779E-003;-1.798626268282533E-003;
2.411166666666667E+009;1.686721891164780E-001;-1.819759048521519E-002;3.452862147241831E-003;-1.912155654281378E-003;
2.411333333333334E+009;1.683415174484253E-001;-2.000207640230656E-002;3.211504779756069E-003;-2.178032649680972E-003;
2.411500000000000E+009;1.681289225816727E-001;-2.217807248234749E-002;3.210298484191299E-003;-2.345167566090822E-003;
2.411666666666667E+009;1.682339906692505E-001;-2.403789013624191E-002;3.136688610538840E-003;-2.309189643710852E-003;
2.411833333333334E+009;1.679736077785492E-001;-2.589957602322102E-002;2.964742248877883E-003;-2.518159570172429E-003;
2.412000000000000E+009;1.680699288845062E-001;-2.797650359570980E-002;2.999216085299850E-003;-2.500276314094663E-003;
2.412166666666667E+009;1.679266393184662E-001;-2.995608188211918E-002;2.727138577029109E-003;-2.527948236092925E-003;
2.412333333333334E+009;1.682337075471878E-001;-3.179112449288368E-002;2.689460525289178E-003;-2.589247655123472E-003;
2.412500000000000E+009;1.683235168457031E-001;-3.371708840131760E-002;2.365223597735167E-003;-2.597982762381434E-003;
2.412666666666667E+009;1.687064766883850E-001;-3.579928353428841E-002;2.391117392107844E-003;-2.702807774767280E-003;
2.412833333333334E+009;1.690435856580734E-001;-3.767844662070274E-002;2.084432635456324E-003;-2.808223711326718E-003;
2.413000000000000E+009;1.693375557661057E-001;-3.941656649112701E-002;1.988813281059265E-003;-2.832024591043592E-003;
2.413166666666667E+009;1.696785986423492E-001;-4.119746759533882E-002;1.845677965320647E-003;-2.851464785635471E-003;
2.413333333333334E+009;1.701150685548782E-001;-4.289330542087555E-002;1.698089647106826E-003;-2.691619331017137E-003;
2.413500000000000E+009;1.705482006072998E-001;-4.461025074124336E-002;1.548348343931139E-003;-2.808662131428719E-003;
2.413666666666667E+009;1.711750030517578E-001;-4.627761617302895E-002;1.315755071118474E-003;-2.866222523152828E-003;
2.413833333333334E+009;1.715956926345825E-001;-4.771617799997330E-002;1.295828726142645E-003;-2.787214005365968E-003;
2.414000000000000E+009;1.720239669084549E-001;-4.927318543195725E-002;1.115597900934517E-003;-2.871049335226417E-003;
2.414166666666667E+009;1.727600544691086E-001;-5.057440325617790E-002;1.017403439618647E-003;-2.916543744504452E-003;
2.414333333333334E+009;1.732809841632843E-001;-5.187461897730827E-002;9.212612640112639E-004;-2.662224695086479E-003;
2.414500000000000E+009;1.738462597131729E-001;-5.307802930474281E-002;7.730202050879598E-004;-2.636433579027653E-003;
2.414666666666667E+009;1.743739396333695E-001;-5.407650768756867E-002;6.786282756365836E-004;-2.860852982848883E-003;
2.414833333333334E+009;1.749508380889893E-001;-5.513049662113190E-002;5.394996260292828E-004;-2.800339134410024E-003;
2.415000000000000E+009;1.751880347728729E-001;-5.589589104056358E-002;3.731284814421088E-004;-2.576729282736778E-003;
2.415166666666667E+009;1.756887733936310E-001;-5.687471479177475E-002;1.539358054287732E-004;-2.651356160640717E-003;
2.415333333333334E+009;1.763408333063126E-001;-5.761685967445374E-002;1.859884214354679E-004;-2.457970520481467E-003;
2.415500000000000E+009;1.764850914478302E-001;-5.824868008494377E-002;6.796790330554359E-006;-2.478073351085186E-003;
2.415666666666667E+009;1.768998801708221E-001;-5.878070369362831E-002;1.447553659090772E-004;-2.370550064370036E-003;
2.415833333333334E+009;1.770526915788651E-001;-5.929849296808243E-002;-8.377892663702369E-005;-2.163929399102926E-003;
2.416000000000000E+009;1.772290170192719E-001;-5.986597388982773E-002;-1.910307473735884E-004;-2.219063462689519E-003;
2.416166666666667E+009;1.774104684591293E-001;-6.031931191682816E-002;-9.262083040084690E-005;-2.082382328808308E-003;
2.416333333333334E+009;1.773430109024048E-001;-6.050964817404747E-002;-9.046609193319455E-005;-2.176211448386312E-003;
2.416500000000000E+009;1.773179322481155E-001;-6.088363379240036E-002;-2.590120129752904E-004;-2.005042508244515E-003;
2.416666666666667E+009;1.770786643028259E-001;-6.097559630870819E-002;-3.080978931393474E-004;-1.928442739881575E-003;
2.416833333333334E+009;1.770218163728714E-001;-6.141396239399910E-002;-3.568945685401559E-004;-1.810905872844160E-003;
2.417000000000000E+009;1.764709800481796E-001;-6.164517253637314E-002;-2.792481391225010E-004;-1.616420340724289E-003;
2.417166666666667E+009;1.761137098073959E-001;-6.171426549553871E-002;-2.988869382534176E-004;-1.753620803356171E-003;
2.417333333333334E+009;1.756443679332733E-001;-6.187279149889946E-002;-3.171385033056140E-004;-1.668010838329792E-003;
2.417500000000000E+009;1.749921590089798E-001;-6.226392835378647E-002;-2.067751338472590E-004;-1.546113169752061E-003;
2.417666666666667E+009;1.744779199361801E-001;-6.232533976435661E-002;-2.347912231925875E-004;-1.461418811231852E-003;
2.417833333333334E+009;1.736820191144943E-001;-6.251814216375351E-002;-2.153420355170965E-004;-1.542791142128408E-003;
2.418000000000000E+009;1.727680116891861E-001;-6.294379383325577E-002;-2.589553478173912E-004;-1.355841523036361E-003;
2.418166666666667E+009;1.719867438077927E-001;-6.314878165721893E-002;-3.073617990594357E-004;-1.446930342353880E-003;
2.418333333333334E+009;1.711514741182327E-001;-6.332586705684662E-002;-3.832442162092775E-004;-1.483614323660731E-003;
2.418500000000000E+009;1.700713336467743E-001;-6.386898458003998E-002;-1.614128414075822E-004;-1.387224416248500E-003;
2.418666666666667E+009;1.691201776266098E-001;-6.430549174547195E-002;-2.635275013744831E-004;-1.382499933242798E-003;
2.418833333333334E+009;1.678424775600433E-001;-6.482604891061783E-002;-2.182121388614178E-004;-1.319670816883445E-003;
2.419000000000000E+009;1.665217280387878E-001;-6.532501429319382E-002;-1.607755693839863E-004;-1.288244035094976E-003;
2.419166666666667E+009;1.655998677015305E-001;-6.598822772502899E-002;-1.360999303869903E-004;-1.447303686290979E-003;
2.419333333333334E+009;1.641334146261215E-001;-6.648529320955277E-002;-1.658403780311346E-004;-1.406952273100615E-003;
2.419500000000000E+009;1.629752963781357E-001;-6.749466806650162E-002;-3.520692116580904E-004;-1.396318781189621E-003;
2.419666666666667E+009;1.618989706039429E-001;-6.828178465366364E-002;-1.359374145977199E-004;-1.245634746737778E-003;
2.419833333333334E+009;1.605844795703888E-001;-6.916697323322296E-002;-2.091739443130791E-004;-1.239067059941590E-003;
2.420000000000000E+009;1.595939397811890E-001;-6.998400390148163E-002;-2.847009454853833E-004;-1.267750165425241E-003;
2.420166666666667E+009;1.583888530731201E-001;-7.113454490900040E-002;-2.895250509027392E-004;-1.331336447037756E-003;
2.420333333333334E+009;1.573464870452881E-001;-7.247155159711838E-002;-2.668275265023112E-004;-1.399526023305953E-003;
2.420500000000000E+009;1.564821898937225E-001;-7.344330102205277E-002;-2.145965554518625E-004;-1.438475213944912E-003;
2.420666666666667E+009;1.553363800048828E-001;-7.471958547830582E-002;-3.586991515476257E-004;-1.222063554450870E-003;
2.420833333333334E+009;1.543878018856049E-001;-7.624175399541855E-002;-2.377755590714514E-004;-1.401358284056187E-003;
2.421000000000000E+009;1.533459126949310E-001;-7.765138894319534E-002;-4.777263093274087E-004;-1.384837087243795E-003;
2.421166666666667E+009;1.528144925832748E-001;-7.908351719379425E-002;-5.324198864400387E-004;-1.322013791650534E-003;
2.421333333333334E+009;1.521002203226090E-001;-8.059921115636826E-002;-4.548400756902993E-004;-1.238757628016174E-003;
2.421500000000000E+009;1.512132734060288E-001;-8.205085247755051E-002;-4.162585828453302E-004;-1.395579893141985E-003;
2.421666666666667E+009;1.507726907730103E-001;-8.380210399627686E-002;-4.585717106238008E-004;-1.237499294802547E-003;
2.421833333333334E+009;1.503762006759644E-001;-8.546236902475357E-002;-6.127435481175780E-004;-1.447209157049656E-003;
2.422000000000000E+009;1.499297767877579E-001;-8.699027448892593E-002;-5.396811175160110E-004;-1.296177855692804E-003;
2.422166666666667E+009;1.494976133108139E-001;-8.888536691665649E-002;-5.894702626392245E-004;-1.223674044013023E-003;
2.422333333333334E+009;1.493743807077408E-001;-9.060164541006088E-002;-6.645815446972847E-004;-1.352240098640323E-003;
2.422500000000000E+009;1.492934972047806E-001;-9.209745377302170E-002;-7.432830752804875E-004;-1.110848155803978E-003;
2.422666666666667E+009;1.492043733596802E-001;-9.394615888595581E-002;-7.691987557336688E-004;-1.288710860535502E-003;
2.422833333333334E+009;1.492434740066528E-001;-9.571494907140732E-002;-8.990663336589932E-004;-1.194837386719883E-003;
2.423000000000000E+009;1.493123769760132E-001;-9.731791913509369E-002;-9.355070651508868E-004;-1.177262631244957E-003;
2.423166666666667E+009;1.495133042335510E-001;-9.898962080478668E-002;-8.103114087134600E-004;-1.146168797276914E-003;
2.423333333333334E+009;1.497939527034760E-001;-1.004574373364449E-001;-8.917073719203472E-004;-9.983760537579656E-004;
2.423500000000000E+009;1.501028835773468E-001;-1.021045520901680E-001;-8.892370969988406E-004;-9.982899064198136E-004;
2.423666666666667E+009;1.505600959062576E-001;-1.036993786692619E-001;-8.922747219912708E-004;-9.037147974595428E-004;
2.423833333333334E+009;1.510390639305115E-001;-1.052654534578323E-001;-9.994750143960118E-004;-7.396207656711340E-004;
2.424000000000000E+009;1.511507630348206E-001;-1.064856126904488E-001;-1.089632511138916E-003;-8.673766860738397E-004;
2.424166666666667E+009;1.516920477151871E-001;-1.079560071229935E-001;-7.625946891494095E-004;-6.601198692806065E-004;
2.424333333333334E+009;1.522807925939560E-001;-1.091676428914070E-001;-1.023505930788815E-003;-6.128580425865948E-004;
2.424500000000000E+009;1.527543216943741E-001;-1.103758215904236E-001;-9.553364361636341E-004;-5.119767738506198E-004;
2.424666666666667E+009;1.534236520528793E-001;-1.113228350877762E-001;-8.310792036354542E-004;-4.379455058369786E-004;
2.424833333333334E+009;1.537073552608490E-001;-1.124557405710220E-001;-8.131674840115011E-004;-4.129651933908463E-004;
2.425000000000000E+009;1.542730033397675E-001;-1.134986206889153E-001;-8.688980014994741E-004;-4.290874931029975E-004;
2.425166666666667E+009;1.545062214136124E-001;-1.142992824316025E-001;-5.958165274932981E-004;-4.033809236716479E-004;
2.425333333333334E+009;1.550527065992355E-001;-1.151564121246338E-001;-6.892066448926926E-004;-3.542214108165354E-004;
2.425500000000000E+009;1.554704159498215E-001;-1.159313544631004E-001;-7.690761121921241E-004;-3.236735356040299E-004;
2.425666666666667E+009;1.556861400604248E-001;-1.165735796093941E-001;-6.138844764791429E-004;-2.080578269669786E-004;
2.425833333333334E+009;1.559683084487915E-001;-1.171827688813210E-001;-6.247758865356445E-004;-2.067387249553576E-004;
2.426000000000000E+009;1.561236232519150E-001;-1.177265942096710E-001;-5.165475304238498E-004;-1.869338302640244E-004;
2.426166666666667E+009;1.564769744873047E-001;-1.181994155049324E-001;-5.242724437266588E-004;-2.989790227729827E-004;
2.426333333333334E+009;1.563088148832321E-001;-1.186154484748840E-001;-4.167736624367535E-004;-4.259741690475494E-004;
2.426500000000000E+009;1.565953046083450E-001;-1.188381314277649E-001;-3.451959055382758E-004;-2.908701135311276E-004;
2.426666666666667E+009;1.564626097679138E-001;-1.189926862716675E-001;-3.408374323043972E-004;-3.978371678385884E-004;
2.426833333333334E+009;1.563166826963425E-001;-1.191120222210884E-001;-1.697867119219154E-004;-4.568976291920990E-004;
2.427000000000000E+009;1.559896618127823E-001;-1.193829402327538E-001;-3.285747370682657E-004;-2.593870449345559E-004;
2.427166666666667E+009;1.556052714586258E-001;-1.193752810359001E-001;-3.268422733526677E-004;-3.807290631812066E-004;
2.427333333333334E+009;1.551599800586700E-001;-1.195371448993683E-001;-2.949243644252420E-004;-5.044067511335015E-004;
2.427500000000000E+009;1.546926349401474E-001;-1.196734532713890E-001;-1.367123477393761E-004;-6.190397543832660E-004;
2.427666666666667E+009;1.539690941572189E-001;-1.197917610406876E-001;-7.663846918148920E-005;-5.475290236063302E-004;
