# Version 1.00
#
freq[Hz];re:Trc1_S11;im:Trc1_S11;re:Trc2_S21;im:Trc2_S21;
2.400000000000000E+009;1.583789139986038E-001;6.290590018033981E-002;-2.813334809616208E-003;5.252609029412270E-003;
2.400166666666667E+009;1.582355201244354E-001;6.144108623266220E-002;-2.542405389249325E-003;5.216033663600683E-003;
2.400333333333334E+009;1.579543352127075E-001;5.940487980842590E-002;-2.484041731804609E-003;5.249114707112312E-003;
2.400500000000000E+009;1.578392684459686E-001;5.755428224802017E-002;-2.183686010539532E-003;5.328517407178879E-003;
2.400666666666667E+009;1.578911989927292E-001;5.561211705207825E-002;-1.868181512691081E-003;5.457918159663677E-003;
2.400833333333334E+009;1.579081267118454E-001;5.382784456014633E-002;-1.722654444165528E-003;5.371355917304754E-003;
2.401000000000000E+009;1.580332070589066E-001;5.166742205619812E-002;-1.506459317170084E-003;5.510109942406416E-003;
2.401166666666667E+009;1.580916345119476E-001;4.956202208995819E-002;-1.369317760691047E-003;5.521681159734726E-003;
2.401333333333334E+009;1.582751572132111E-001;4.734185338020325E-002;-1.158135128207505E-003;5.460933316498995E-003;
2.401500000000000E+009;1.584913581609726E-001;4.543708637356758E-002;-1.089471508748829E-003;5.624400451779366E-003;
2.401666666666667E+009;1.586449891328812E-001;4.336613416671753E-002;-9.143291390500963E-004;5.513612646609545E-003;
2.401833333333334E+009;1.590235233306885E-001;4.132753983139992E-002;-6.840138230472803E-004;5.624654702842236E-003;
2.402000000000000E+009;1.593558937311173E-001;3.913760557770729E-002;-4.976540803909302E-004;5.636086221784353E-003;
2.402166666666667E+009;1.597509682178497E-001;3.720175474882126E-002;-2.721115597523749E-004;5.480319261550903E-003;
2.402333333333334E+009;1.603284627199173E-001;3.523721173405647E-002;-6.346978352667065E-006;5.707058124244213E-003;
2.402500000000000E+009;1.610555201768875E-001;3.335557132959366E-002;1.964929688256234E-004;5.507597699761391E-003;
2.402666666666667E+009;1.617006957530975E-001;3.185265883803368E-002;3.401403955649585E-004;5.530756898224354E-003;
2.402833333333334E+009;1.624752730131149E-001;2.992749586701393E-002;6.288799922913313E-004;5.458603147417307E-003;
2.403000000000000E+009;1.631934046745300E-001;2.811315841972828E-002;8.279252215288580E-004;5.691010970622301E-003;
2.403166666666667E+009;1.640820205211639E-001;2.653533779084683E-002;9.997125016525388E-004;5.378471221774817E-003;
2.403333333333334E+009;1.650503724813461E-001;2.506697550415993E-002;1.208863221108913E-003;5.404378287494183E-003;
2.403500000000000E+009;1.658762395381928E-001;2.360008470714092E-002;1.532478840090334E-003;5.488662514835596E-003;
2.403666666666667E+009;1.667492389678955E-001;2.212544158101082E-002;1.622282899916172E-003;5.360226612538099E-003;
2.403833333333334E+009;1.679819077253342E-001;2.081861346960068E-002;2.016105456277728E-003;5.282754544168711E-003;
2.404000000000000E+009;1.687377244234085E-001;1.965506747364998E-002;2.103337086737156E-003;5.109279882162809E-003;
2.404166666666667E+009;1.697002798318863E-001;1.842996850609779E-002;2.381796482950449E-003;4.952454473823309E-003;
2.404333333333334E+009;1.708400100469589E-001;1.739349029958248E-002;2.408688887953758E-003;4.823811352252960E-003;
2.404500000000000E+009;1.716299802064896E-001;1.628437079489231E-002;2.783694304525852E-003;5.097840912640095E-003;
2.404666666666667E+009;1.726552993059158E-001;1.548710744827986E-002;2.979118144139648E-003;4.631096031516790E-003;
2.404833333333334E+009;1.735325455665588E-001;1.475799549371004E-002;3.034532070159912E-003;4.298244602978230E-003;
2.405000000000000E+009;1.745927929878235E-001;1.403627451509237E-002;3.136522369459271E-003;4.400994163006544E-003;
2.405166666666667E+009;1.752941608428955E-001;1.317282672971487E-002;3.245981177315116E-003;4.203630145639181E-003;
2.405333333333334E+009;1.762256771326065E-001;1.238098740577698E-002;3.403394483029842E-003;4.110408481210470E-003;
2.405500000000000E+009;1.770709902048111E-001;1.209688186645508E-002;3.666321979835630E-003;3.877350594848394E-003;
2.405666666666667E+009;1.778077483177185E-001;1.153873000293970E-002;3.666856326162815E-003;3.795549273490906E-003;
2.405833333333334E+009;1.784133166074753E-001;1.124404743313789E-002;3.813438583165407E-003;3.668851219117641E-003;
2.406000000000000E+009;1.790698617696762E-001;1.062383409589529E-002;4.018199164420366E-003;3.380340756848455E-003;
2.406166666666667E+009;1.794631332159042E-001;1.041916105896235E-002;4.167794249951839E-003;3.271205816417933E-003;
2.406333333333334E+009;1.800834387540817E-001;1.017661858350039E-002;4.211310297250748E-003;3.068828023970127E-003;
2.406500000000000E+009;1.803802102804184E-001;9.803498163819313E-003;4.354940261691809E-003;2.827320015057921E-003;
2.406666666666667E+009;1.804097443819046E-001;9.542376734316349E-003;4.301816690713167E-003;2.843932947143912E-003;
2.406833333333334E+009;1.808562278747559E-001;9.204994887113571E-003;4.752161912620068E-003;2.618733560666442E-003;
2.407000000000000E+009;1.808746606111527E-001;8.880633860826492E-003;4.462948534637690E-003;2.297494094818831E-003;
2.407166666666667E+009;1.812227964401245E-001;8.687886409461498E-003;4.751741420477629E-003;2.304301364347339E-003;
2.407333333333334E+009;1.810432970523834E-001;8.213175460696220E-003;4.528285469859839E-003;1.954065635800362E-003;
2.407500000000000E+009;1.808748543262482E-001;7.863624952733517E-003;4.747241735458374E-003;1.693793223239481E-003;
2.407666666666667E+009;1.808393001556397E-001;7.356124930083752E-003;4.775656852871180E-003;1.564962440170348E-003;
2.407833333333334E+009;1.804254651069641E-001;6.810138467699289E-003;4.759552422910929E-003;1.257643802091479E-003;
2.408000000000000E+009;1.801492869853973E-001;6.232511717826128E-003;4.838045686483383E-003;1.098699751310051E-003;
2.408166666666667E+009;1.796007603406906E-001;5.693882703781128E-003;4.930307157337666E-003;6.889126962050796E-004;
2.408333333333334E+009;1.792796254158020E-001;4.938215017318726E-003;4.703137557953596E-003;5.730877746827900E-004;
2.408500000000000E+009;1.788253188133240E-001;4.285720176994801E-003;4.614432342350483E-003;4.710225330200046E-004;
2.408666666666667E+009;1.780916154384613E-001;3.454996971413493E-003;4.758207127451897E-003;4.973221221007407E-004;
2.408833333333334E+009;1.775403022766113E-001;2.522880909964442E-003;4.722775891423225E-003;1.085893964045681E-004;
2.409000000000000E+009;1.767158061265945E-001;1.422024797648192E-003;4.659419879317284E-003;-9.756372310221195E-005;
2.409166666666667E+009;1.760784238576889E-001;4.487505939323455E-004;4.567929077893496E-003;-2.400708035565913E-004;
2.409333333333334E+009;1.755746603012085E-001;-7.326353224925697E-004;4.539642482995987E-003;-4.126027342863381E-004;
2.409500000000000E+009;1.748777031898499E-001;-2.077911049127579E-003;4.455375485122204E-003;-4.215947410557419E-004;
2.409666666666667E+009;1.739559471607208E-001;-3.332133404910564E-003;4.330141935497522E-003;-7.937964983284473E-004;
2.409833333333334E+009;1.733338087797165E-001;-4.689489956945181E-003;4.233813378959894E-003;-9.815613739192486E-004;
2.410000000000000E+009;1.726618558168411E-001;-6.138783413916826E-003;4.158276133239269E-003;-1.137849991209805E-003;
2.410166666666667E+009;1.721277087926865E-001;-7.749869022518396E-003;4.115511197596788E-003;-1.017607515677810E-003;
2.410333333333334E+009;1.713838279247284E-001;-9.297074750065804E-003;4.119871184229851E-003;-1.281725475564599E-003;
2.410500000000000E+009;1.708741635084152E-001;-1.098454371094704E-002;3.985182382166386E-003;-1.366752549074590E-003;
2.410666666666667E+009;1.702124327421188E-001;-1.273404620587826E-002;3.783938009291887E-003;-1.667658332735300E-003;
2.410833333333334E+009;1.696354895830154E-001;-1.461599394679070E-002;3.807732136920095E-003;-1.691975980065763E-003;
2.411000000000000E+009;1.693358421325684E-001;-1.626522280275822E-002;3.594520268961787E-003;-1.799769699573517E-003;
2.411166666666667E+009;1.688600182533264E-001;-1.816335134208202E-002;3.410137956961989E-003;-1.897492329590023E-003;
2.411333333333334E+009;1.685388535261154E-001;-2.014601603150368E-002;3.342113224789500E-003;-2.063995227217674E-003;
2.411500000000000E+009;1.683403849601746E-001;-2.234016545116901E-002;3.229205962270498E-003;-2.106440952047706E-003;
2.411666666666667E+009;1.681895256042481E-001;-2.402586303651333E-002;3.129990771412849E-003;-2.305000321939588E-003;
2.411833333333334E+009;1.680722236633301E-001;-2.608590386807919E-002;3.041740972548723E-003;-2.336839446797967E-003;
2.412000000000000E+009;1.681777089834213E-001;-2.815353311598301E-002;3.036953276023269E-003;-2.247980097308755E-003;
2.412166666666667E+009;1.679673045873642E-001;-3.006420470774174E-002;2.767454599961639E-003;-2.525846008211374E-003;
2.412333333333334E+009;1.683624833822250E-001;-3.173756226897240E-002;2.567250980064273E-003;-2.598112449049950E-003;
2.412500000000000E+009;1.681852191686630E-001;-3.380640223622322E-002;2.381660044193268E-003;-2.618839265778661E-003;
2.412666666666667E+009;1.685612946748734E-001;-3.588447347283363E-002;2.281217603012919E-003;-2.555252984166145E-003;
2.412833333333334E+009;1.690063476562500E-001;-3.762902319431305E-002;2.290453063324094E-003;-2.729436382651329E-003;
2.413000000000000E+009;1.694322675466538E-001;-3.950764238834381E-002;1.934303785674274E-003;-2.828234340995550E-003;
2.413166666666667E+009;1.697201877832413E-001;-4.133272916078568E-002;1.810993882827461E-003;-2.731568180024624E-003;
2.413333333333334E+009;1.701012253761292E-001;-4.303875565528870E-002;1.753277727402747E-003;-2.808427438139916E-003;
2.413500000000000E+009;1.706844568252564E-001;-4.476494714617729E-002;1.589102554135025E-003;-2.537910128012300E-003;
2.413666666666667E+009;1.710639595985413E-001;-4.637554660439491E-002;1.439328654669225E-003;-2.839809516444802E-003;
2.413833333333334E+009;1.716407686471939E-001;-4.775413870811462E-002;1.308966660872102E-003;-2.890924923121929E-003;
2.414000000000000E+009;1.719804555177689E-001;-4.936114326119423E-002;9.793776553124189E-004;-2.809232100844383E-003;
2.414166666666667E+009;1.727569103240967E-001;-5.066633969545364E-002;1.128985662944615E-003;-2.771605039015412E-003;
2.414333333333334E+009;1.731937974691391E-001;-5.186630785465241E-002;9.461145964451134E-004;-2.787203760817647E-003;
2.414500000000000E+009;1.740020513534546E-001;-5.301808193325996E-002;7.205210858955979E-004;-2.678546356037259E-003;
2.414666666666667E+009;1.744053810834885E-001;-5.404738336801529E-002;6.764022982679308E-004;-2.821518573909998E-003;
2.414833333333334E+009;1.748112142086029E-001;-5.532448738813400E-002;6.650672294199467E-004;-2.658954123035073E-003;
2.415000000000000E+009;1.753309518098831E-001;-5.622694268822670E-002;4.377250734250993E-004;-2.589432056993246E-003;
2.415166666666667E+009;1.757227182388306E-001;-5.689959600567818E-002;3.278007206972688E-004;-2.324774861335754E-003;
2.415333333333334E+009;1.761975586414337E-001;-5.768880993127823E-002;1.906408870127052E-004;-2.388552762567997E-003;
2.415500000000000E+009;1.765210628509522E-001;-5.826046690344811E-002;9.178523760056123E-005;-2.352687530219555E-003;
2.415666666666667E+009;1.767611950635910E-001;-5.885725468397141E-002;-1.126638198911678E-005;-2.351272152736783E-003;
2.415833333333334E+009;1.769981682300568E-001;-5.948748067021370E-002;-3.336635199957527E-005;-2.220160793513060E-003;
2.416000000000000E+009;1.770506203174591E-001;-5.984029173851013E-002;6.574823055416346E-005;-2.085967920720577E-003;
2.416166666666667E+009;1.774366796016693E-001;-6.019169837236404E-002;-2.037277008639649E-004;-2.119207754731178E-003;
2.416333333333334E+009;1.772403866052628E-001;-6.051982566714287E-002;-2.356743207201362E-004;-2.036033431068063E-003;
2.416500000000000E+009;1.772972792387009E-001;-6.092306226491928E-002;-1.327598292846233E-004;-1.946858945302665E-003;
2.416666666666667E+009;1.770341396331787E-001;-6.101923808455467E-002;-2.843450347427279E-004;-1.750387949869037E-003;
2.416833333333334E+009;1.769807934761047E-001;-6.151972711086273E-002;-1.892408909043297E-004;-1.856206101365387E-003;
2.417000000000000E+009;1.764170974493027E-001;-6.170380115509033E-002;-2.268107782583684E-004;-1.780059537850320E-003;
2.417166666666667E+009;1.760842651128769E-001;-6.180363520979881E-002;-3.292851615697146E-004;-1.831172965466976E-003;
2.417333333333334E+009;1.755738109350205E-001;-6.185288727283478E-002;-2.877860388252884E-004;-1.631074352189899E-003;
2.417500000000000E+009;1.750004887580872E-001;-6.230172514915466E-002;-6.942840991541743E-005;-1.458951854147017E-003;
2.417666666666667E+009;1.744344830513001E-001;-6.236711144447327E-002;-1.770204398781061E-004;-1.564507721923292E-003;
2.417833333333334E+009;1.736458390951157E-001;-6.254647672176361E-002;-3.646748373284936E-004;-1.362767652608454E-003;
2.418000000000000E+009;1.727814674377441E-001;-6.294955313205719E-002;-1.260617136722431E-004;-1.590265543200076E-003;
2.418166666666667E+009;1.718171983957291E-001;-6.307076662778854E-002;-1.648649631533772E-004;-1.373241306282580E-003;
2.418333333333334E+009;1.711180061101914E-001;-6.344962865114212E-002;-3.545108484104276E-004;-1.382126356475055E-003;
2.418500000000000E+009;1.699843406677246E-001;-6.378323584794998E-002;-1.047473124344833E-004;-1.450547249987721E-003;
2.418666666666667E+009;1.689723879098892E-001;-6.441765278577805E-002;-1.901006617117673E-004;-1.397010753862560E-003;
2.418833333333334E+009;1.677524149417877E-001;-6.482957303524017E-002;-1.934577012434602E-004;-1.459998427890241E-003;
2.419000000000000E+009;1.665767133235931E-001;-6.552653759717941E-002;-2.938049728982151E-004;-1.420551328919828E-003;
2.419166666666667E+009;1.653984487056732E-001;-6.606742739677429E-002;-1.332513202214614E-004;-1.503628795035183E-003;
2.419333333333334E+009;1.641139239072800E-001;-6.659363210201263E-002;-1.082556700566784E-004;-1.377549720928073E-003;
2.419500000000000E+009;1.630498319864273E-001;-6.738261878490448E-002;-1.651731872698292E-004;-1.333233434706926E-003;
2.419666666666667E+009;1.619011610746384E-001;-6.823932379484177E-002;-1.853891153587028E-004;-1.329735619947314E-003;
2.419833333333334E+009;1.605163812637329E-001;-6.923421472311020E-002;-2.335732278879732E-004;-1.259122160263360E-003;
2.420000000000000E+009;1.594698578119278E-001;-7.017920911312103E-002;-1.837611926021054E-004;-1.317305024713278E-003;
2.420166666666667E+009;1.583918184041977E-001;-7.118726521730423E-002;-2.413710608379915E-004;-1.400774577632546E-003;
2.420333333333334E+009;1.571238338947296E-001;-7.243905961513519E-002;-2.404164406470954E-004;-1.289415173232555E-003;
2.420500000000000E+009;1.562323719263077E-001;-7.336140424013138E-002;-4.179055395070463E-004;-1.302298041991890E-003;
2.420666666666667E+009;1.553213298320770E-001;-7.477998733520508E-002;-3.285780549049377E-004;-1.370905665680766E-003;
2.420833333333334E+009;1.544536054134369E-001;-7.619212567806244E-002;-3.208154230378568E-004;-1.292543602176011E-003;
2.421000000000000E+009;1.534683853387833E-001;-7.768477499485016E-002;-3.355999651830643E-004;-1.454664859920740E-003;
2.421166666666667E+009;1.527441143989563E-001;-7.905424386262894E-002;-3.728393639903516E-004;-1.360463560558856E-003;
2.421333333333334E+009;1.518831402063370E-001;-8.065839856863022E-002;-4.658852994907647E-004;-1.386403571814299E-003;
2.421500000000000E+009;1.512625217437744E-001;-8.215793967247009E-002;-4.641057748813182E-004;-1.313904533162713E-003;
2.421666666666667E+009;1.506149023771286E-001;-8.375514298677445E-002;-4.268761258572340E-004;-1.401252113282681E-003;
2.421833333333334E+009;1.503390967845917E-001;-8.539573848247528E-002;-4.584619018714875E-004;-1.386823831126094E-003;
2.422000000000000E+009;1.498635560274124E-001;-8.714926242828369E-002;-5.718260072171688E-004;-1.315154135227203E-003;
2.422166666666667E+009;1.495032459497452E-001;-8.896663784980774E-002;-6.680758669972420E-004;-1.295616151764989E-003;
2.422333333333334E+009;1.493137031793594E-001;-9.053657948970795E-002;-7.540002698078752E-004;-1.320037874393165E-003;
2.422500000000000E+009;1.491873562335968E-001;-9.222435951232910E-002;-8.141265134327114E-004;-1.270499895326793E-003;
2.422666666666667E+009;1.490242332220078E-001;-9.385339170694351E-002;-8.118468103930354E-004;-1.233898336067796E-003;
2.422833333333334E+009;1.490888148546219E-001;-9.574929624795914E-002;-8.726291707716882E-004;-1.248142332769930E-003;
2.423000000000000E+009;1.492356956005096E-001;-9.722979366779327E-002;-7.693779771216214E-004;-1.132526551373303E-003;
2.423166666666667E+009;1.496246755123138E-001;-9.902253746986389E-002;-9.263237589038909E-004;-1.076001441106200E-003;
2.423333333333334E+009;1.498742252588272E-001;-1.005521863698959E-001;-8.803759701550007E-004;-1.001369557343423E-003;
2.423500000000000E+009;1.500599831342697E-001;-1.019748151302338E-001;-8.739784825593233E-004;-9.790170006453991E-004;
2.423666666666667E+009;1.504715830087662E-001;-1.036551073193550E-001;-9.520738967694342E-004;-9.925717022269964E-004;
2.423833333333334E+009;1.509720236063004E-001;-1.053284630179405E-001;-1.028649741783738E-003;-7.911966531537473E-004;
2.424000000000000E+009;1.512218117713928E-001;-1.066907644271851E-001;-8.653735276311636E-004;-7.310691871680319E-004;
2.424166666666667E+009;1.515252590179443E-001;-1.080211102962494E-001;-9.842524304986000E-004;-8.274878491647542E-004;
2.424333333333334E+009;1.521658003330231E-001;-1.090085878968239E-001;-8.721777703613043E-004;-6.585720111615956E-004;
2.424500000000000E+009;1.527491807937622E-001;-1.103633195161820E-001;-8.187179919332266E-004;-6.009840290062130E-004;
2.424666666666667E+009;1.531896442174912E-001;-1.112981438636780E-001;-9.223235538229346E-004;-4.520279762800783E-004;
2.424833333333334E+009;1.537901610136032E-001;-1.124110296368599E-001;-9.349401807412505E-004;-4.113645118195564E-004;
2.425000000000000E+009;1.542008072137833E-001;-1.135256886482239E-001;-8.079444523900747E-004;-3.601353091653436E-004;
2.425166666666667E+009;1.544429510831833E-001;-1.143465116620064E-001;-8.250031969510019E-004;-4.051677242387086E-004;
2.425333333333334E+009;1.550154387950897E-001;-1.151269376277924E-001;-7.243307773023844E-004;-4.222409916110337E-004;
2.425500000000000E+009;1.554293036460877E-001;-1.159013658761978E-001;-6.302094552665949E-004;-1.787266664905474E-004;
2.425666666666667E+009;1.555864512920380E-001;-1.166427582502365E-001;-5.647051730193198E-004;-3.373897052370012E-004;
2.425833333333334E+009;1.559206396341324E-001;-1.171705871820450E-001;-6.478638970293105E-004;-3.813943767454475E-004;
2.426000000000000E+009;1.561779379844666E-001;-1.176368668675423E-001;-4.430565459188074E-004;-2.348731941310689E-004;
2.426166666666667E+009;1.565727591514587E-001;-1.181149482727051E-001;-5.492594209499657E-004;-3.036715206690133E-004;
2.426333333333334E+009;1.563307195901871E-001;-1.184898912906647E-001;-5.151281948201358E-004;-4.251943028066307E-004;
2.426500000000000E+009;1.564825922250748E-001;-1.186824813485146E-001;-4.035533929709345E-004;-4.025559755973518E-004;
2.426666666666667E+009;1.564549952745438E-001;-1.188914626836777E-001;-2.745636156760156E-004;-2.623214677441865E-004;
2.426833333333334E+009;1.562399715185165E-001;-1.191523820161820E-001;-1.742338936310262E-004;-3.941142349503934E-004;
2.427000000000000E+009;1.559761762619019E-001;-1.194050684571266E-001;-3.041335730813444E-004;-3.369739861227572E-004;
2.427166666666667E+009;1.556701511144638E-001;-1.194129586219788E-001;-1.921751827467233E-004;-5.287890089675784E-004;
2.427333333333334E+009;1.551516205072403E-001;-1.194897890090942E-001;-2.481915580574423E-004;-4.713827802333981E-004;
2.427500000000000E+009;1.547616571187973E-001;-1.196677163243294E-001;-2.057914389297366E-004;-5.178887513466179E-004;
2.427666666666667E+009;1.539263725280762E-001;-1.198219209909439E-001;-2.711705456022173E-004;-6.342329434119165E-004;
