# Version 1.00
#
freq[Hz];re:Trc1_S11;im:Trc1_S11;re:Trc2_S21;im:Trc2_S21;
2.400000000000000E+009;1.585892289876938E-001;6.293302774429321E-002;-2.759619383141398E-003;5.212898366153240E-003;
2.400166666666667E+009;1.582372784614563E-001;6.131075695157051E-002;-2.526125404983759E-003;5.204294808208942E-003;
2.400333333333334E+009;1.581421941518784E-001;5.952752754092217E-002;-2.325057983398438E-003;5.238767713308334E-003;
2.400500000000000E+009;1.581736207008362E-001;5.771967023611069E-002;-2.193138236179948E-003;5.247063934803009E-003;
2.400666666666667E+009;1.578692793846130E-001;5.547218024730682E-002;-1.851600245572627E-003;5.416573025286198E-003;
2.400833333333334E+009;1.578711420297623E-001;5.347888916730881E-002;-1.817378099076450E-003;5.471762269735336E-003;
2.401000000000000E+009;1.578838974237442E-001;5.164930969476700E-002;-1.420864602550864E-003;5.459430161863565E-003;
2.401166666666667E+009;1.580347567796707E-001;4.949305951595306E-002;-1.233142451383174E-003;5.663371644914150E-003;
2.401333333333334E+009;1.581038236618042E-001;4.740500450134277E-002;-1.025468111038208E-003;5.719265900552273E-003;
2.401500000000000E+009;1.585579365491867E-001;4.532647132873535E-002;-9.782881243154407E-004;5.497162695974112E-003;
2.401666666666667E+009;1.588726937770844E-001;4.347304627299309E-002;-8.142463630065322E-004;5.470536183565855E-003;
2.401833333333334E+009;1.590285301208496E-001;4.130500555038452E-002;-6.831031059846282E-004;5.693591199815273E-003;
2.402000000000000E+009;1.593468338251114E-001;3.934849798679352E-002;-4.309051437303424E-004;5.733685567975044E-003;
2.402166666666667E+009;1.598548740148544E-001;3.720149025321007E-002;-2.943304716609418E-004;5.715562496334314E-003;
2.402333333333334E+009;1.601183563470841E-001;3.540266305208206E-002;-1.914229942485690E-004;5.776207894086838E-003;
2.402500000000000E+009;1.611505448818207E-001;3.342405334115028E-002;2.508795005269349E-004;5.571578163653612E-003;
2.402666666666667E+009;1.617805808782578E-001;3.171119466423988E-002;2.684498613234609E-004;5.527113098651171E-003;
2.402833333333334E+009;1.625619828701019E-001;2.995911613106728E-002;7.222314598038793E-004;5.670867860317230E-003;
2.403000000000000E+009;1.632359027862549E-001;2.828137949109078E-002;8.363202214241028E-004;5.758569110184908E-003;
2.403166666666667E+009;1.640460342168808E-001;2.662274613976479E-002;1.130658318288624E-003;5.471643991768360E-003;
2.403333333333334E+009;1.648650318384171E-001;2.518214657902718E-002;1.335235545411706E-003;5.425999406725168E-003;
2.403500000000000E+009;1.657444238662720E-001;2.361038140952587E-002;1.530124805867672E-003;5.495889578014612E-003;
2.403666666666667E+009;1.666989922523499E-001;2.230115048587322E-002;1.605474739335477E-003;5.373695399612188E-003;
2.403833333333334E+009;1.678088754415512E-001;2.080675028264523E-002;1.876969705335796E-003;5.253639537841082E-003;
2.404000000000000E+009;1.686527580022812E-001;1.962702721357346E-002;2.068914473056793E-003;4.998018499463797E-003;
2.404166666666667E+009;1.698190867900848E-001;1.845232769846916E-002;2.378700999543071E-003;5.029394757002592E-003;
2.404333333333334E+009;1.707298010587692E-001;1.739081181585789E-002;2.503609517589212E-003;5.055177491158247E-003;
2.404500000000000E+009;1.715844720602036E-001;1.627582125365734E-002;2.756628207862377E-003;4.913252778351307E-003;
2.404666666666667E+009;1.725532859563828E-001;1.551100052893162E-002;2.910637995228171E-003;4.547640681266785E-003;
2.404833333333334E+009;1.735906898975372E-001;1.466471794992685E-002;3.005335107445717E-003;4.569771233946085E-003;
2.405000000000000E+009;1.744681745767593E-001;1.385291665792465E-002;3.126667579635978E-003;4.242739174515009E-003;
2.405166666666667E+009;1.754371821880341E-001;1.325849909335375E-002;3.413068363443017E-003;4.273881670087576E-003;
2.405333333333334E+009;1.762693226337433E-001;1.246939599514008E-002;3.513522911816835E-003;4.161042161285877E-003;
2.405500000000000E+009;1.770353913307190E-001;1.219813711941242E-002;3.501625498756766E-003;3.883162746205926E-003;
2.405666666666667E+009;1.778368502855301E-001;1.158537436276674E-002;3.805245738476515E-003;3.713892074301839E-003;
2.405833333333334E+009;1.781989783048630E-001;1.130153331905603E-002;3.817575518041849E-003;3.622697666287422E-003;
2.406000000000000E+009;1.791058629751205E-001;1.072770170867443E-002;3.898207098245621E-003;3.537103533744812E-003;
2.406166666666667E+009;1.795082539319992E-001;1.050757244229317E-002;4.035803489387035E-003;3.202959429472685E-003;
2.406333333333334E+009;1.801226735115051E-001;1.013150624930859E-002;4.044407512992621E-003;3.052064683288336E-003;
2.406500000000000E+009;1.803708374500275E-001;9.771325625479221E-003;4.284637514501810E-003;2.819763496518135E-003;
2.406666666666667E+009;1.805590093135834E-001;9.540470317006111E-003;4.495855886489153E-003;2.727207494899631E-003;
2.406833333333334E+009;1.807976961135864E-001;9.215618483722210E-003;4.634625744074583E-003;2.452315529808402E-003;
2.407000000000000E+009;1.809704750776291E-001;8.805256336927414E-003;4.573043435811997E-003;2.323796274140477E-003;
2.407166666666667E+009;1.811206489801407E-001;8.720953017473221E-003;4.563672933727503E-003;2.172310138121247E-003;
2.407333333333334E+009;1.809882670640945E-001;8.097575046122074E-003;4.661346320062876E-003;1.884791068732739E-003;
2.407500000000000E+009;1.808520108461380E-001;7.830688729882240E-003;4.712249618023634E-003;1.720779109746218E-003;
2.407666666666667E+009;1.807470470666885E-001;7.472696714103222E-003;4.806467331945896E-003;1.475140568800271E-003;
2.407833333333334E+009;1.803178191184998E-001;6.812939886003733E-003;4.809316247701645E-003;1.160569954663515E-003;
2.408000000000000E+009;1.799455285072327E-001;6.262644194066525E-003;4.912788514047861E-003;1.069447956979275E-003;
2.408166666666667E+009;1.796130388975143E-001;5.851817782968283E-003;4.661710932850838E-003;7.964342366904020E-004;
2.408333333333334E+009;1.792954355478287E-001;5.017003510147333E-003;4.857169929891825E-003;5.988097982481122E-004;
2.408500000000000E+009;1.787339299917221E-001;4.302238114178181E-003;4.718897398561239E-003;5.076520610600710E-004;
2.408666666666667E+009;1.780791282653809E-001;3.346843412145972E-003;4.696583840996027E-003;3.638506750576198E-004;
2.408833333333334E+009;1.774173974990845E-001;2.622253494337201E-003;4.633378237485886E-003;1.542227691970766E-004;
2.409000000000000E+009;1.767583191394806E-001;1.465956098400056E-003;4.649024456739426E-003;-7.195374200819060E-005;
2.409166666666667E+009;1.761436164379120E-001;4.500875365920365E-004;4.539451096206904E-003;-2.704485086724162E-004;
2.409333333333334E+009;1.755327135324478E-001;-6.233936292119324E-004;4.542097449302673E-003;-4.080837243236601E-004;
2.409500000000000E+009;1.747053861618042E-001;-2.130840905010700E-003;4.471144173294306E-003;-4.991653840988874E-004;
2.409666666666667E+009;1.740040928125382E-001;-3.255179617553949E-003;4.422308411449194E-003;-6.534042186103761E-004;
2.409833333333334E+009;1.732822358608246E-001;-4.703558050096035E-003;4.292006604373455E-003;-9.112124098464847E-004;
2.410000000000000E+009;1.725955754518509E-001;-6.048051174730063E-003;4.311229567974806E-003;-1.065752119757235E-003;
2.410166666666667E+009;1.720289140939713E-001;-7.660336792469025E-003;4.198440816253424E-003;-1.192871830426157E-003;
2.410333333333334E+009;1.713395714759827E-001;-9.171662852168083E-003;4.100969526916742E-003;-1.360578578896821E-003;
2.410500000000000E+009;1.708375960588455E-001;-1.089166011661291E-002;3.845622064545751E-003;-1.539903692901135E-003;
2.410666666666667E+009;1.701449900865555E-001;-1.274499204009771E-002;3.905208082869649E-003;-1.693719299510121E-003;
2.410833333333334E+009;1.696553081274033E-001;-1.445087883621454E-002;3.812507726252079E-003;-1.534849870949984E-003;
2.411000000000000E+009;1.692592054605484E-001;-1.615513116121292E-002;3.694982267916203E-003;-1.902226009406149E-003;
2.411166666666667E+009;1.687548309564591E-001;-1.825330033898354E-002;3.443331690505147E-003;-2.038390608504415E-003;
2.411333333333334E+009;1.686142832040787E-001;-2.018886432051659E-002;3.393799765035510E-003;-2.162232995033264E-003;
2.411500000000000E+009;1.683159172534943E-001;-2.233564853668213E-002;3.272638889029622E-003;-2.185914898291230E-003;
2.411666666666667E+009;1.683630049228668E-001;-2.419770881533623E-002;3.027847968041897E-003;-2.300129039213061E-003;
2.411833333333334E+009;1.680968850851059E-001;-2.603579498827457E-002;3.023746423423290E-003;-2.449780702590942E-003;
2.412000000000000E+009;1.680332571268082E-001;-2.810172364115715E-002;2.791002392768860E-003;-2.541311550885439E-003;
2.412166666666667E+009;1.681514382362366E-001;-3.009307757019997E-002;2.589970827102661E-003;-2.660152735188603E-003;
2.412333333333334E+009;1.684724539518356E-001;-3.196496143937111E-002;2.585855079814792E-003;-2.717463066801429E-003;
2.412500000000000E+009;1.684873849153519E-001;-3.379572182893753E-002;2.458275062963367E-003;-2.736302325502038E-003;
2.412666666666667E+009;1.688420474529266E-001;-3.597868233919144E-002;2.143915044143796E-003;-2.685155486688018E-003;
2.412833333333334E+009;1.690182685852051E-001;-3.773128241300583E-002;2.120151882991195E-003;-2.888269256800413E-003;
2.413000000000000E+009;1.694098114967346E-001;-3.955006599426270E-002;2.073449315503240E-003;-2.768407110124826E-003;
2.413166666666667E+009;1.697105169296265E-001;-4.131827875971794E-002;1.856014365330339E-003;-2.618485363200307E-003;
2.413333333333334E+009;1.699789315462112E-001;-4.312848299741745E-002;1.732365461066365E-003;-2.756524598225951E-003;
2.413500000000000E+009;1.704971045255661E-001;-4.466377943754196E-002;1.516273361630738E-003;-2.885835943743587E-003;
2.413666666666667E+009;1.711871773004532E-001;-4.629856720566750E-002;1.477236277423799E-003;-2.703374251723290E-003;
2.413833333333334E+009;1.716454327106476E-001;-4.779450222849846E-002;1.166796660982072E-003;-2.825683914124966E-003;
2.414000000000000E+009;1.720666289329529E-001;-4.930344969034195E-002;1.084808493033052E-003;-2.707842271775007E-003;
2.414166666666667E+009;1.726619303226471E-001;-5.056043714284897E-002;1.055131666362286E-003;-2.825849922373891E-003;
2.414333333333334E+009;1.732457280158997E-001;-5.192954093217850E-002;9.001623257063329E-004;-2.721290569752455E-003;
2.414500000000000E+009;1.738934963941574E-001;-5.307806283235550E-002;6.969545502215624E-004;-2.780438167974353E-003;
2.414666666666667E+009;1.744456738233566E-001;-5.407053604722023E-002;5.833590403199196E-004;-2.631215844303370E-003;
2.414833333333334E+009;1.747900396585465E-001;-5.524750798940659E-002;3.966847434639931E-004;-2.627939218655229E-003;
2.415000000000000E+009;1.753713190555573E-001;-5.595974251627922E-002;2.006274589803070E-004;-2.575346035882831E-003;
2.415166666666667E+009;1.756361573934555E-001;-5.699024349451065E-002;2.409347362117842E-004;-2.495593857020140E-003;
2.415333333333334E+009;1.763349473476410E-001;-5.758780986070633E-002;8.114497177302837E-005;-2.469624159857631E-003;
2.415500000000000E+009;1.765321046113968E-001;-5.830993503332138E-002;1.569082451169379E-005;-2.405092353001237E-003;
2.415666666666667E+009;1.767150312662125E-001;-5.882396176457405E-002;7.453183570760302E-006;-2.274314872920513E-003;
2.415833333333334E+009;1.770890355110169E-001;-5.936819687485695E-002;7.777643986628391E-006;-2.255891682580113E-003;
2.416000000000000E+009;1.771204024553299E-001;-5.977413430809975E-002;-1.806378422770649E-004;-2.083695260807872E-003;
2.416166666666667E+009;1.774130463600159E-001;-6.012105941772461E-002;-8.960234845289961E-005;-2.126406412571669E-003;
2.416333333333334E+009;1.772768646478653E-001;-6.050224974751473E-002;-1.825089566409588E-004;-1.914066378958523E-003;
2.416500000000000E+009;1.772954314947128E-001;-6.089173257350922E-002;-9.960181341739371E-005;-1.981313573196530E-003;
2.416666666666667E+009;1.770979762077332E-001;-6.104016676545143E-002;-3.075806889683008E-004;-1.755337580107153E-003;
2.416833333333334E+009;1.768717616796494E-001;-6.143027916550636E-002;-3.537864831741899E-004;-1.743485336191952E-003;
2.417000000000000E+009;1.764666140079498E-001;-6.167766451835632E-002;-2.407042920822278E-004;-1.733181299641728E-003;
2.417166666666667E+009;1.761401295661926E-001;-6.169010698795319E-002;-3.430097422096878E-004;-1.648239558562636E-003;
2.417333333333334E+009;1.756529211997986E-001;-6.184774264693260E-002;-3.961662296205759E-004;-1.539712189696729E-003;
2.417500000000000E+009;1.750186681747437E-001;-6.233033165335655E-002;-9.758432861417532E-005;-1.655253116041422E-003;
2.417666666666667E+009;1.745261847972870E-001;-6.240062043070793E-002;-3.335929068271071E-004;-1.515974057838321E-003;
2.417833333333334E+009;1.737044900655747E-001;-6.251624226570129E-002;-1.686202740529552E-004;-1.356408116407692E-003;
2.418000000000000E+009;1.727491468191147E-001;-6.305892765522003E-002;-7.590087625430897E-005;-1.485608168877661E-003;
2.418166666666667E+009;1.717429608106613E-001;-6.310205906629562E-002;-2.864931593649089E-004;-1.463681226596236E-003;
2.418333333333334E+009;1.711080670356751E-001;-6.350452452898026E-002;-1.563333062222228E-004;-1.433745026588440E-003;
2.418500000000000E+009;1.699472218751907E-001;-6.383091956377029E-002;-1.383794588036835E-004;-1.318224705755711E-003;
2.418666666666667E+009;1.689549088478088E-001;-6.436919420957565E-002;-2.133514062734321E-004;-1.292923116125166E-003;
2.418833333333334E+009;1.677108108997345E-001;-6.481242179870606E-002;-1.908556441776454E-004;-1.369389705359936E-003;
2.419000000000000E+009;1.665015965700150E-001;-6.528979539871216E-002;-2.692875568754971E-004;-1.459059771150351E-003;
2.419166666666667E+009;1.654751598834992E-001;-6.601253896951675E-002;-1.924006937770173E-004;-1.426944509148598E-003;
2.419333333333334E+009;1.641095727682114E-001;-6.646889448165894E-002;-2.707202511373907E-004;-1.270389533601701E-003;
2.419500000000000E+009;1.629709601402283E-001;-6.750691682100296E-002;-2.137363189831376E-004;-1.339980983175337E-003;
2.419666666666667E+009;1.619637608528137E-001;-6.838438659906387E-002;-2.658185840118676E-004;-1.370442216284573E-003;
2.419833333333334E+009;1.606573313474655E-001;-6.911014020442963E-002;-3.334820794407278E-004;-1.480163657106459E-003;
2.420000000000000E+009;1.595340520143509E-001;-7.011271268129349E-002;-2.476506051607430E-004;-1.351904473267496E-003;
2.420166666666667E+009;1.583828628063202E-001;-7.127904146909714E-002;-3.875992260873318E-004;-1.413424033671618E-003;
2.420333333333334E+009;1.571680754423142E-001;-7.233264297246933E-002;-3.004967584274709E-004;-1.423285459168255E-003;
2.420500000000000E+009;1.563204526901245E-001;-7.353897392749786E-002;-3.075676795560867E-004;-1.533314818516374E-003;
2.420666666666667E+009;1.551526486873627E-001;-7.467274367809296E-002;-3.105343785136938E-004;-1.402282156050205E-003;
2.420833333333334E+009;1.545400619506836E-001;-7.622706890106201E-002;-4.447698011063039E-004;-1.404338283464313E-003;
2.421000000000000E+009;1.533275246620178E-001;-7.756604254245758E-002;-4.114423354621977E-004;-1.368266763165593E-003;
2.421166666666667E+009;1.526830494403839E-001;-7.910653948783875E-002;-3.689654986374080E-004;-1.393399201333523E-003;
2.421333333333334E+009;1.520059108734131E-001;-8.053089678287506E-002;-3.928710939362645E-004;-1.277262112125754E-003;
2.421500000000000E+009;1.512397378683090E-001;-8.209448307752609E-002;-5.445397691801190E-004;-1.352310646325350E-003;
2.421666666666667E+009;1.508849561214447E-001;-8.382125943899155E-002;-5.850021843798459E-004;-1.354139298200607E-003;
2.421833333333334E+009;1.503118723630905E-001;-8.548808842897415E-002;-4.724962927866727E-004;-1.196008292026818E-003;
2.422000000000000E+009;1.498714536428452E-001;-8.718837797641754E-002;-5.035395151935518E-004;-1.239284290932119E-003;
2.422166666666667E+009;1.495780050754547E-001;-8.892162144184113E-002;-6.811644416302443E-004;-1.313165063038468E-003;
2.422333333333334E+009;1.494801789522171E-001;-9.045244008302689E-002;-6.952860858291388E-004;-1.280658529140055E-003;
2.422500000000000E+009;1.491448432207108E-001;-9.209658205509186E-002;-7.960945949889720E-004;-1.276795053854585E-003;
2.422666666666667E+009;1.491323709487915E-001;-9.382596611976624E-002;-7.509578717872500E-004;-1.245637540705502E-003;
2.422833333333334E+009;1.492249369621277E-001;-9.562336653470993E-002;-8.931698976084590E-004;-1.153897261247039E-003;
2.423000000000000E+009;1.492826044559479E-001;-9.737353771924973E-002;-8.398562204092741E-004;-1.248871674761176E-003;
2.423166666666667E+009;1.496658772230148E-001;-9.883939474821091E-002;-8.922463748604059E-004;-1.026366953738034E-003;
2.423333333333334E+009;1.498270928859711E-001;-1.003926321864128E-001;-9.146244265139103E-004;-9.769187308847904E-004;
2.423500000000000E+009;1.501455605030060E-001;-1.021874770522118E-001;-9.746028808876872E-004;-1.015989575535059E-003;
2.423666666666667E+009;1.503698676824570E-001;-1.037497669458389E-001;-9.899712167680264E-004;-8.648303919471800E-004;
2.423833333333334E+009;1.509979963302612E-001;-1.052410528063774E-001;-9.007033077068627E-004;-8.862707763910294E-004;
2.424000000000000E+009;1.512729525566101E-001;-1.064937710762024E-001;-1.051516621373594E-003;-7.938184426166117E-004;
2.424166666666667E+009;1.516597419977188E-001;-1.078694686293602E-001;-8.733537397347391E-004;-8.608978241682053E-004;
2.424333333333334E+009;1.520925313234329E-001;-1.091692596673966E-001;-9.083351469598711E-004;-6.023010355420411E-004;
2.424500000000000E+009;1.526221185922623E-001;-1.103863343596458E-001;-8.703217608854175E-004;-5.167676717974246E-004;
2.424666666666667E+009;1.534086465835571E-001;-1.113781556487083E-001;-8.263754425570369E-004;-6.839931011199951E-004;
2.424833333333334E+009;1.538418084383011E-001;-1.124972552061081E-001;-8.513563079759479E-004;-4.320873995311558E-004;
2.425000000000000E+009;1.541786640882492E-001;-1.134214624762535E-001;-8.722979109734297E-004;-5.397772765718401E-004;
2.425166666666667E+009;1.545077413320541E-001;-1.142783388495445E-001;-7.079201168380678E-004;-4.544113471638411E-004;
2.425333333333334E+009;1.549617499113083E-001;-1.150583848357201E-001;-7.858521421439946E-004;-3.513662086334080E-004;
2.425500000000000E+009;1.555499285459518E-001;-1.158838421106339E-001;-7.854740833863616E-004;-3.066962526645511E-004;
2.425666666666667E+009;1.556329727172852E-001;-1.165243536233902E-001;-5.777042242698371E-004;-1.903606607811526E-004;
2.425833333333334E+009;1.559419929981232E-001;-1.171746402978897E-001;-7.219011895358563E-004;-3.408247430343181E-004;
2.426000000000000E+009;1.561446487903595E-001;-1.177411004900932E-001;-5.294498987495899E-004;-1.854466390796006E-004;
2.426166666666667E+009;1.564476042985916E-001;-1.180884987115860E-001;-5.359616479836404E-004;-3.574847942218185E-004;
2.426333333333334E+009;1.564664542675018E-001;-1.183478534221649E-001;-2.857882354874164E-004;-3.724330454133451E-004;
2.426500000000000E+009;1.565094590187073E-001;-1.186354011297226E-001;-4.403463099151850E-004;-2.965891908388585E-004;
2.426666666666667E+009;1.565146446228027E-001;-1.189537793397903E-001;-2.802149683702737E-004;-3.176495083607733E-004;
2.426833333333334E+009;1.563357859849930E-001;-1.191834732890129E-001;-2.847225405275822E-004;-4.286990442778915E-004;
2.427000000000000E+009;1.559930890798569E-001;-1.193445026874542E-001;-2.552319201640785E-004;-4.125465347897261E-004;
2.427166666666667E+009;1.556451916694641E-001;-1.193797588348389E-001;-2.741384087130427E-004;-5.176581325940788E-004;
2.427333333333334E+009;1.550826877355576E-001;-1.195270493626595E-001;-1.626463490538299E-004;-4.989217850379646E-004;
2.427500000000000E+009;1.546483337879181E-001;-1.197401061654091E-001;-3.306260041426867E-004;-4.531123558990657E-004;
2.427666666666667E+009;1.539804339408875E-001;-1.197206005454063E-001;-2.490869956091046E-004;-7.997440989129245E-004;
