# Version 1.00
#
freq[Hz];re:Trc1_S11;im:Trc1_S11;re:Trc2_S21;im:Trc2_S21;
2.400000000000000E+009;1.546948552131653E-001;6.183191388845444E-002;-5.042101722210646E-003;2.807178301736713E-003;
2.400166666666667E+009;1.547429859638214E-001;5.997999757528305E-002;-4.955875221639872E-003;2.790214959532023E-003;
2.400333333333334E+009;1.546990722417831E-001;5.775947868824005E-002;-4.803422372788191E-003;2.957371994853020E-003;
2.400500000000000E+009;1.550370007753372E-001;5.565410107374191E-002;-4.832302685827017E-003;3.127424744889140E-003;
2.400666666666667E+009;1.551022082567215E-001;5.334200337529182E-002;-4.717142786830664E-003;3.218309488147497E-003;
2.400833333333334E+009;1.553977876901627E-001;5.127691477537155E-002;-4.694933071732521E-003;3.542034886777401E-003;
2.401000000000000E+009;1.556703001260757E-001;4.885642603039742E-002;-4.556758794933558E-003;3.475359873846173E-003;
2.401166666666667E+009;1.560910493135452E-001;4.686647653579712E-002;-4.496159031987190E-003;3.761510597541928E-003;
2.401333333333334E+009;1.567382812500000E-001;4.442125931382179E-002;-4.339478444308043E-003;3.926293924450874E-003;
2.401500000000000E+009;1.572724580764771E-001;4.239021241664887E-002;-4.290512762963772E-003;4.066623747348785E-003;
2.401666666666667E+009;1.579292565584183E-001;4.039098322391510E-002;-4.204590339213610E-003;4.177488386631012E-003;
2.401833333333334E+009;1.586037278175354E-001;3.804271295666695E-002;-4.192090593278408E-003;4.242531955242157E-003;
2.402000000000000E+009;1.590999215841293E-001;3.601928055286408E-002;-4.100718535482884E-003;4.435669630765915E-003;
2.402166666666667E+009;1.599844545125961E-001;3.392475843429565E-002;-3.921391908079386E-003;4.564564675092697E-003;
2.402333333333334E+009;1.608971208333969E-001;3.212690725922585E-002;-3.755603684112430E-003;4.801644477993250E-003;
2.402500000000000E+009;1.620123833417893E-001;3.027596324682236E-002;-3.696588566526771E-003;4.817570559680462E-003;
2.402666666666667E+009;1.627975106239319E-001;2.854006364941597E-002;-3.452316159382463E-003;5.075504537671804E-003;
2.402833333333334E+009;1.638662815093994E-001;2.717632241547108E-002;-3.336613299325109E-003;5.139289423823357E-003;
2.403000000000000E+009;1.650186330080032E-001;2.551014907658100E-002;-3.245790256187320E-003;5.480627063661814E-003;
2.403166666666667E+009;1.661582440137863E-001;2.407842501997948E-002;-2.885843161493540E-003;5.447064526379108E-003;
2.403333333333334E+009;1.672935187816620E-001;2.266051806509495E-002;-2.856580773368478E-003;5.578232929110527E-003;
2.403500000000000E+009;1.684465110301971E-001;2.150547876954079E-002;-2.681906102225184E-003;5.696601700037718E-003;
2.403666666666667E+009;1.695035994052887E-001;2.026263624429703E-002;-2.391248941421509E-003;5.802759435027838E-003;
2.403833333333334E+009;1.706622391939163E-001;1.920239627361298E-002;-2.309590810909867E-003;5.843871273100376E-003;
2.404000000000000E+009;1.717019975185394E-001;1.823414489626885E-002;-2.106291707605124E-003;5.991870071738958E-003;
2.404166666666667E+009;1.730343550443649E-001;1.748048141598702E-002;-1.886110636405647E-003;6.135514006018639E-003;
2.404333333333334E+009;1.739951968193054E-001;1.671569049358368E-002;-1.716878497973084E-003;6.135975476354361E-003;
2.404500000000000E+009;1.750425249338150E-001;1.585184410214424E-002;-1.375523512251675E-003;6.345031317323446E-003;
2.404666666666667E+009;1.759707480669022E-001;1.537973806262016E-002;-1.120375352911651E-003;6.474250461906195E-003;
2.404833333333334E+009;1.768270283937454E-001;1.462409924715757E-002;-9.404983720742166E-004;6.333478726446629E-003;
2.405000000000000E+009;1.776681393384934E-001;1.416824944317341E-002;-6.835962412878871E-004;6.501405965536833E-003;
2.405166666666667E+009;1.783658266067505E-001;1.379408966749907E-002;-3.367578319739550E-004;6.543575786054134E-003;
2.405333333333334E+009;1.792201548814774E-001;1.343323476612568E-002;-3.551136178430170E-004;6.402126047760248E-003;
2.405500000000000E+009;1.797452569007874E-001;1.319839339703322E-002;5.371309453039430E-005;6.636677309870720E-003;
2.405666666666667E+009;1.804167628288269E-001;1.299243047833443E-002;1.783266052370891E-004;6.529610138386488E-003;
2.405833333333334E+009;1.806996166706085E-001;1.279568020254374E-002;5.246847867965698E-004;6.608587689697743E-003;
2.406000000000000E+009;1.812465786933899E-001;1.248294860124588E-002;5.997401895001531E-004;6.515821907669306E-003;
2.406166666666667E+009;1.812480092048645E-001;1.253504492342472E-002;1.018119975924492E-003;6.548140197992325E-003;
2.406333333333334E+009;1.816057264804840E-001;1.240545604377985E-002;1.223127474077046E-003;6.440417841076851E-003;
2.406500000000000E+009;1.817075908184052E-001;1.229612529277802E-002;1.468849601224065E-003;6.338407285511494E-003;
2.406666666666667E+009;1.814508289098740E-001;1.214349921792746E-002;1.698990119621158E-003;6.465776823461056E-003;
2.406833333333334E+009;1.815380454063416E-001;1.190332882106304E-002;2.102565253153443E-003;6.088605150580406E-003;
2.407000000000000E+009;1.812269389629364E-001;1.159165613353252E-002;2.293889410793781E-003;6.236742250621319E-003;
2.407166666666667E+009;1.811491549015045E-001;1.153905596584082E-002;2.408295636996627E-003;6.081428378820419E-003;
2.407333333333334E+009;1.806257516145706E-001;1.095163822174072E-002;2.727404003962874E-003;5.827302578836680E-003;
2.407500000000000E+009;1.801421046257019E-001;1.062306296080351E-002;2.967900363728404E-003;5.576223600655794E-003;
2.407666666666667E+009;1.796605139970779E-001;1.026363112032414E-002;3.130157245323062E-003;5.498660262674093E-003;
2.407833333333334E+009;1.788562089204788E-001;9.517154656350613E-003;3.356353379786015E-003;5.230279173702002E-003;
2.408000000000000E+009;1.782706975936890E-001;8.786627091467381E-003;3.521040547639132E-003;5.260547157377005E-003;
2.408166666666667E+009;1.776767820119858E-001;8.245460689067841E-003;3.587250597774983E-003;5.155886989086866E-003;
2.408333333333334E+009;1.769937723875046E-001;7.370673585683107E-003;3.760784165933728E-003;4.909656010568142E-003;
2.408500000000000E+009;1.760111153125763E-001;6.398776546120644E-003;3.900112118571997E-003;4.744986072182655E-003;
2.408666666666667E+009;1.751793920993805E-001;5.254160612821579E-003;3.940882626920939E-003;4.527299664914608E-003;
2.408833333333334E+009;1.743258982896805E-001;4.192353691905737E-003;4.174024332314730E-003;4.453620873391628E-003;
2.409000000000000E+009;1.734204292297363E-001;3.037669928744435E-003;4.373854957520962E-003;4.282646812498570E-003;
2.409166666666667E+009;1.727154701948166E-001;1.587632228620350E-003;4.431084729731083E-003;3.961151465773583E-003;
2.409333333333334E+009;1.719340831041336E-001;1.582933182362467E-004;4.444649908691645E-003;3.877739887684584E-003;
2.409500000000000E+009;1.710323989391327E-001;-1.518839970231056E-003;4.422211553901434E-003;3.611668245866895E-003;
2.409666666666667E+009;1.700789481401444E-001;-2.846057061105967E-003;4.786392673850060E-003;3.617103211581707E-003;
2.409833333333334E+009;1.694303601980209E-001;-4.637892358005047E-003;4.639771766960621E-003;3.361945971846581E-003;
2.410000000000000E+009;1.687169522047043E-001;-6.399580277502537E-003;4.815296269953251E-003;3.147723851725459E-003;
2.410166666666667E+009;1.681797504425049E-001;-8.145716972649097E-003;4.857250489294529E-003;2.886652480810881E-003;
2.410333333333334E+009;1.675069034099579E-001;-1.011173706501722E-002;4.840521607547998E-003;2.795105567201972E-003;
2.410500000000000E+009;1.670723706483841E-001;-1.211723033338785E-002;4.951716866344214E-003;2.574247773736715E-003;
2.410666666666667E+009;1.666007190942764E-001;-1.424719486385584E-002;5.200834479182959E-003;2.379590412601829E-003;
2.410833333333334E+009;1.662083566188812E-001;-1.618045568466187E-002;5.054632667452097E-003;2.221550559625030E-003;
2.411000000000000E+009;1.659080684185028E-001;-1.807592064142227E-002;5.107464268803597E-003;2.101140562444925E-003;
2.411166666666667E+009;1.658613681793213E-001;-2.036437205970287E-002;5.215043202042580E-003;1.833909074775875E-003;
2.411333333333334E+009;1.654789894819260E-001;-2.242838405072689E-002;5.142388399690390E-003;1.803457620553672E-003;
2.411500000000000E+009;1.656454354524612E-001;-2.455189451575279E-002;5.115362815558910E-003;1.318132388405502E-003;
2.411666666666667E+009;1.658240109682083E-001;-2.664771117269993E-002;5.081654526293278E-003;1.171386800706387E-003;
2.411833333333334E+009;1.661270111799240E-001;-2.878361754119396E-002;5.226833280175924E-003;1.062139868736267E-003;
2.412000000000000E+009;1.663192510604858E-001;-3.088181652128696E-002;4.957949277013540E-003;9.615949238650501E-004;
2.412166666666667E+009;1.665939390659332E-001;-3.276196122169495E-002;5.069980397820473E-003;6.973005365580320E-004;
2.412333333333334E+009;1.673148274421692E-001;-3.472881764173508E-002;4.958181176334620E-003;4.226668970659375E-004;
2.412500000000000E+009;1.674205958843231E-001;-3.664089366793633E-002;4.912706557661295E-003;3.823142033070326E-004;
2.412666666666667E+009;1.681135892868042E-001;-3.867693245410919E-002;4.858244210481644E-003;1.241016434505582E-004;
2.412833333333334E+009;1.688729673624039E-001;-4.044025018811226E-002;4.759719595313072E-003;6.442858284572139E-005;
2.413000000000000E+009;1.694568246603012E-001;-4.202703759074211E-002;4.942362662404776E-003;-1.579747331561521E-004;
2.413166666666667E+009;1.701155304908752E-001;-4.383770376443863E-002;4.712799564003944E-003;-4.179668903816491E-004;
2.413333333333334E+009;1.708678007125855E-001;-4.542488604784012E-002;4.723330494016409E-003;-3.760700055863708E-004;
2.413500000000000E+009;1.716341972351074E-001;-4.704307392239571E-002;4.566245712339878E-003;-6.556494045071304E-004;
2.413666666666667E+009;1.725283116102219E-001;-4.835369810461998E-002;4.488924052566290E-003;-7.002981146797538E-004;
2.413833333333334E+009;1.731091737747192E-001;-4.966478794813156E-002;4.268535878509283E-003;-8.435098570771515E-004;
2.414000000000000E+009;1.737014353275299E-001;-5.097728967666626E-002;4.149983171373606E-003;-9.790500625967979E-004;
2.414166666666667E+009;1.745466738939285E-001;-5.197320878505707E-002;4.257143475115299E-003;-1.040959730744362E-003;
2.414333333333334E+009;1.754484772682190E-001;-5.311127007007599E-002;4.020792432129383E-003;-1.222103484906256E-003;
2.414500000000000E+009;1.762554794549942E-001;-5.403378233313561E-002;3.913226071745157E-003;-1.178293139673770E-003;
2.414666666666667E+009;1.767697185277939E-001;-5.481336638331413E-002;3.853193018585444E-003;-1.312927342951298E-003;
2.414833333333334E+009;1.773447394371033E-001;-5.560313910245895E-002;3.687832504510880E-003;-1.529996399767697E-003;
2.415000000000000E+009;1.778502315282822E-001;-5.619394779205322E-002;3.637765534222126E-003;-1.485552289523184E-003;
2.415166666666667E+009;1.782958507537842E-001;-5.680939182639122E-002;3.521063830703497E-003;-1.649862038902938E-003;
2.415333333333334E+009;1.787502020597458E-001;-5.734662339091301E-002;3.357946174219251E-003;-1.629207748919725E-003;
2.415500000000000E+009;1.790363937616348E-001;-5.758119747042656E-002;3.331267042085528E-003;-1.654669409617782E-003;
2.415666666666667E+009;1.792896986007690E-001;-5.794065073132515E-002;3.412232035771012E-003;-1.616976456716657E-003;
2.415833333333334E+009;1.794777959585190E-001;-5.810399726033211E-002;3.305838210508227E-003;-1.704753609374166E-003;
2.416000000000000E+009;1.794194877147675E-001;-5.838743969798088E-002;3.154490143060684E-003;-1.809178036637604E-003;
2.416166666666667E+009;1.795445680618286E-001;-5.861319601535797E-002;3.167009213939309E-003;-1.826567808166146E-003;
2.416333333333334E+009;1.793204396963120E-001;-5.862328782677651E-002;3.167649498209357E-003;-1.905718934722245E-003;
2.416500000000000E+009;1.790400445461273E-001;-5.888685956597328E-002;2.978777745738626E-003;-1.830523600801826E-003;
2.416666666666667E+009;1.785590201616287E-001;-5.871311202645302E-002;2.743865596130490E-003;-2.047952963039279E-003;
2.416833333333334E+009;1.782418042421341E-001;-5.889322236180306E-002;2.896280493587256E-003;-1.942723290994763E-003;
2.417000000000000E+009;1.775542646646500E-001;-5.892418324947357E-002;2.737903036177158E-003;-1.955044455826283E-003;
2.417166666666667E+009;1.769753992557526E-001;-5.882646515965462E-002;2.696908079087734E-003;-2.088147914037108E-003;
2.417333333333334E+009;1.762875765562058E-001;-5.898968875408173E-002;2.622293075546622E-003;-2.178393071517348E-003;
2.417500000000000E+009;1.752828061580658E-001;-5.931741371750832E-002;2.778463996946812E-003;-2.090479945763946E-003;
2.417666666666667E+009;1.744621396064758E-001;-5.914506316184998E-002;2.521940506994724E-003;-2.347987145185471E-003;
2.417833333333334E+009;1.733350604772568E-001;-5.951267108321190E-002;2.613275079056621E-003;-2.339966129511595E-003;
2.418000000000000E+009;1.722369343042374E-001;-5.976879596710205E-002;2.408678177744150E-003;-2.293665893375874E-003;
2.418166666666667E+009;1.709573417901993E-001;-6.003066524863243E-002;2.577080158516765E-003;-2.319233259186149E-003;
2.418333333333334E+009;1.699947863817215E-001;-6.051453948020935E-002;2.381727332249284E-003;-2.475385321304202E-003;
2.418500000000000E+009;1.685647964477539E-001;-6.087638065218926E-002;2.155957510694861E-003;-2.574671525508165E-003;
2.418666666666667E+009;1.673980206251144E-001;-6.159857660531998E-002;2.158601302653551E-003;-2.592782722786069E-003;
2.418833333333334E+009;1.658323109149933E-001;-6.223358586430550E-002;2.061683451756835E-003;-2.569388831034303E-003;
2.419000000000000E+009;1.645294725894928E-001;-6.284384429454804E-002;1.959615619853139E-003;-2.568909665569663E-003;
2.419166666666667E+009;1.631007939577103E-001;-6.367667764425278E-002;1.905754907056689E-003;-2.660017460584641E-003;
2.419333333333334E+009;1.617380827665329E-001;-6.436362117528915E-002;1.873527886345983E-003;-2.733450382947922E-003;
2.419500000000000E+009;1.603145599365234E-001;-6.559301912784576E-002;1.711113960482180E-003;-2.719346201047301E-003;
2.419666666666667E+009;1.591519117355347E-001;-6.660536676645279E-002;1.627815654501319E-003;-2.680444158613682E-003;
2.419833333333334E+009;1.577352136373520E-001;-6.771584600210190E-002;1.636919565498829E-003;-2.738326089456677E-003;
2.420000000000000E+009;1.567656248807907E-001;-6.894398480653763E-002;1.477392623201013E-003;-2.879094099625945E-003;
2.420166666666667E+009;1.554521620273590E-001;-7.035634666681290E-002;1.441403059288859E-003;-2.923645777627826E-003;
2.420333333333334E+009;1.542331278324127E-001;-7.168360054492950E-002;1.363817485980690E-003;-2.909723902121186E-003;
2.420500000000000E+009;1.532838642597199E-001;-7.309795916080475E-002;1.307193422690034E-003;-2.793453633785248E-003;
2.420666666666667E+009;1.522888094186783E-001;-7.470571249723434E-002;1.189570059068501E-003;-2.957320539280772E-003;
2.420833333333334E+009;1.514766067266464E-001;-7.637476921081543E-002;1.084370305761695E-003;-2.986926352605224E-003;
2.421000000000000E+009;1.506377607584000E-001;-7.822325080633164E-002;1.035175984725356E-003;-3.055598121136427E-003;
2.421166666666667E+009;1.499082446098328E-001;-7.966089248657227E-002;9.388407343067229E-004;-3.001195378601551E-003;
2.421333333333334E+009;1.494536250829697E-001;-8.148708194494247E-002;8.195774280466139E-004;-3.090766258537769E-003;
2.421500000000000E+009;1.488240212202072E-001;-8.333782106637955E-002;8.886398863978684E-004;-3.030335064977408E-003;
2.421666666666667E+009;1.485387384891510E-001;-8.506548404693604E-002;5.462717381305993E-004;-3.133836667984724E-003;
2.421833333333334E+009;1.483093947172165E-001;-8.711685985326767E-002;4.751123487949371E-004;-3.121545771136880E-003;
2.422000000000000E+009;1.480462998151779E-001;-8.889123797416687E-002;3.545576182659715E-004;-3.085733391344547E-003;
2.422166666666667E+009;1.480616182088852E-001;-9.081050753593445E-002;7.072751759551466E-005;-2.969346242025495E-003;
2.422333333333334E+009;1.480223089456558E-001;-9.251335263252258E-002;1.946430274983868E-004;-2.911114366725087E-003;
2.422500000000000E+009;1.477913260459900E-001;-9.415748715400696E-002;4.233039726386778E-005;-2.937589539214969E-003;
2.422666666666667E+009;1.480208635330200E-001;-9.615337103605270E-002;-2.228770608780906E-004;-2.882965840399265E-003;
2.422833333333334E+009;1.484994888305664E-001;-9.777510911226273E-002;-2.747232792899013E-004;-2.922550309449434E-003;
2.423000000000000E+009;1.487708091735840E-001;-9.930175542831421E-002;-4.489314742386341E-004;-2.897768514230847E-003;
2.423166666666667E+009;1.492578983306885E-001;-1.012094989418984E-001;-5.949055193923414E-004;-2.594728721305728E-003;
2.423333333333334E+009;1.497207581996918E-001;-1.027053445577622E-001;-5.366203840821981E-004;-2.737677423283458E-003;
2.423500000000000E+009;1.502188146114349E-001;-1.041157096624374E-001;-6.778213428333402E-004;-2.617503516376019E-003;
2.423666666666667E+009;1.506806910037994E-001;-1.057163551449776E-001;-7.675850647501648E-004;-2.419921103864908E-003;
2.423833333333334E+009;1.514829248189926E-001;-1.070971488952637E-001;-9.520166786387563E-004;-2.388119464740157E-003;
2.424000000000000E+009;1.519482880830765E-001;-1.082761213183403E-001;-9.777613449841738E-004;-2.339624334126711E-003;
2.424166666666667E+009;1.525628268718720E-001;-1.094062402844429E-001;-1.161198830232024E-003;-2.154252491891384E-003;
2.424333333333334E+009;1.533275544643402E-001;-1.104771643877029E-001;-1.145357615314424E-003;-2.066551940515637E-003;
2.424500000000000E+009;1.539395451545715E-001;-1.115478202700615E-001;-1.170197734609246E-003;-1.985379727557302E-003;
2.424666666666667E+009;1.546838581562042E-001;-1.123502403497696E-001;-1.359291025437415E-003;-1.885660341940820E-003;
2.424833333333334E+009;1.550854891538620E-001;-1.132755950093269E-001;-1.208215951919556E-003;-1.942457514815033E-003;
2.425000000000000E+009;1.557835936546326E-001;-1.140642613172531E-001;-1.151719479821622E-003;-1.666995813138783E-003;
2.425166666666667E+009;1.561391502618790E-001;-1.147155389189720E-001;-1.175120123662055E-003;-1.512101967819035E-003;
2.425333333333334E+009;1.567382216453552E-001;-1.152442246675491E-001;-1.091697253286839E-003;-1.357153407298029E-003;
2.425500000000000E+009;1.571282893419266E-001;-1.157377958297730E-001;-1.090536592528224E-003;-1.334388041868806E-003;
2.425666666666667E+009;1.573046743869782E-001;-1.161043643951416E-001;-1.105692237615585E-003;-1.234986120834947E-003;
2.425833333333334E+009;1.576776206493378E-001;-1.164056733250618E-001;-1.047823112457991E-003;-1.111068530008197E-003;
2.426000000000000E+009;1.578835248947144E-001;-1.167950555682182E-001;-1.067318953573704E-003;-1.082621747627854E-003;
2.426166666666667E+009;1.581293940544128E-001;-1.169485747814179E-001;-1.043144729919732E-003;-9.370610350742936E-004;
2.426333333333334E+009;1.579873561859131E-001;-1.171204596757889E-001;-9.507798822596669E-004;-1.041193958371878E-003;
2.426500000000000E+009;1.579450368881226E-001;-1.171123385429382E-001;-8.042089175432921E-004;-9.564855135977268E-004;
2.426666666666667E+009;1.578337997198105E-001;-1.170301660895348E-001;-8.238155860453844E-004;-9.728916338644922E-004;
2.426833333333334E+009;1.574970781803131E-001;-1.171803399920464E-001;-8.904415299184620E-004;-8.285007788799703E-004;
2.427000000000000E+009;1.570850014686585E-001;-1.172258108854294E-001;-8.723286446183920E-004;-8.837528293952346E-004;
2.427166666666667E+009;1.565311253070831E-001;-1.171254515647888E-001;-7.649257895536721E-004;-8.965806919150055E-004;
2.427333333333334E+009;1.558741629123688E-001;-1.171033009886742E-001;-6.112557020969689E-004;-7.892638095654547E-004;
2.427500000000000E+009;1.552142500877380E-001;-1.171081885695458E-001;-6.673166644759476E-004;-8.210182422772050E-004;
2.427666666666667E+009;1.543854326009750E-001;-1.172164380550385E-001;-6.587402313016355E-004;-7.199488463811576E-004;
2.427833333333334E+009;1.533245891332626E-001;-1.171818003058434E-001;-6.031672237440944E-004;-7.116393535397947E-004;
