# Version 1.00
#
freq[Hz];re:Trc1_S11;im:Trc1_S11;re:Trc2_S21;im:Trc2_S21;
2.400000000000000E+009;1.546888798475266E-001;6.168153509497643E-002;-4.885429050773382E-003;2.934737363830209E-003;
2.400166666666667E+009;1.548127979040146E-001;5.990996956825256E-002;-4.825626034289599E-003;2.867055591195822E-003;
2.400333333333334E+009;1.547995209693909E-001;5.773780867457390E-002;-4.733928479254246E-003;3.114123595878482E-003;
2.400500000000000E+009;1.549384593963623E-001;5.566687881946564E-002;-4.788050428032875E-003;3.069164697080851E-003;
2.400666666666667E+009;1.549892127513886E-001;5.337819829583168E-002;-4.643128719180822E-003;3.273881506174803E-003;
2.400833333333334E+009;1.553454846143723E-001;5.137153714895248E-002;-4.660379141569138E-003;3.396706422790885E-003;
2.401000000000000E+009;1.556555032730103E-001;4.894364625215530E-002;-4.563095513731241E-003;3.731571603566408E-003;
2.401166666666667E+009;1.562465131282806E-001;4.660439491271973E-002;-4.547575023025274E-003;3.713721875101328E-003;
2.401333333333334E+009;1.564584225416184E-001;4.449440166354179E-002;-4.504551179707050E-003;3.783553605899215E-003;
2.401500000000000E+009;1.571836471557617E-001;4.237426444888115E-002;-4.390359856188297E-003;4.207082558423281E-003;
2.401666666666667E+009;1.578335613012314E-001;4.030898213386536E-002;-4.221605602651835E-003;4.143415484577417E-003;
2.401833333333334E+009;1.584671288728714E-001;3.807397931814194E-002;-4.340183455497026E-003;4.219414200633764E-003;
2.402000000000000E+009;1.590427905321121E-001;3.618325665593147E-002;-3.920240327715874E-003;4.395294468849897E-003;
2.402166666666667E+009;1.599614173173904E-001;3.394091874361038E-002;-3.825728083029389E-003;4.658876918256283E-003;
2.402333333333334E+009;1.609344780445099E-001;3.217803686857224E-002;-3.655796404927969E-003;4.777847789227963E-003;
2.402500000000000E+009;1.618737727403641E-001;3.049350529909134E-002;-3.477422986179590E-003;4.805594682693481E-003;
2.402666666666667E+009;1.628672629594803E-001;2.887493930757046E-002;-3.523215185850859E-003;5.031295120716095E-003;
2.402833333333334E+009;1.639998257160187E-001;2.711388282477856E-002;-3.552162786945701E-003;5.083758383989334E-003;
2.403000000000000E+009;1.650874763727188E-001;2.557467482984066E-002;-3.194921417161822E-003;5.249589215964079E-003;
2.403166666666667E+009;1.661634892225266E-001;2.414376474916935E-002;-3.003259655088186E-003;5.320258904248476E-003;
2.403333333333334E+009;1.673097461462021E-001;2.278150990605354E-002;-2.885219408199191E-003;5.734197329729796E-003;
2.403500000000000E+009;1.683317720890045E-001;2.164507657289505E-002;-2.753025386482477E-003;5.847867112606764E-003;
2.403666666666667E+009;1.693948805332184E-001;2.026218920946121E-002;-2.565164119005203E-003;5.781000945717096E-003;
2.403833333333334E+009;1.707025617361069E-001;1.930226758122444E-002;-2.252143807709217E-003;5.808515939861536E-003;
2.404000000000000E+009;1.717755049467087E-001;1.834036037325859E-002;-2.024377463385463E-003;5.922865122556686E-003;
2.404166666666667E+009;1.729358881711960E-001;1.739872992038727E-002;-2.028979361057282E-003;6.165523547679186E-003;
2.404333333333334E+009;1.739487797021866E-001;1.661943644285202E-002;-1.614546636119485E-003;6.213020533323288E-003;
2.404500000000000E+009;1.748601198196411E-001;1.578174158930779E-002;-1.436535851098597E-003;6.172478664666414E-003;
2.404666666666667E+009;1.761983036994934E-001;1.520971674472094E-002;-1.215767231769860E-003;6.310424301773310E-003;
2.404833333333334E+009;1.769256591796875E-001;1.461420208215714E-002;-9.714505285955966E-004;6.485865917056799E-003;
2.405000000000000E+009;1.776767373085022E-001;1.417960040271282E-002;-8.295943844132125E-004;6.443776655942202E-003;
2.405166666666667E+009;1.784512996673584E-001;1.382596883922815E-002;-5.934803048148751E-004;6.438937969505787E-003;
2.405333333333334E+009;1.794061064720154E-001;1.357591059058905E-002;-1.892829895950854E-004;6.526875309646130E-003;
2.405500000000000E+009;1.800189763307571E-001;1.321798190474510E-002;5.744482405134477E-005;6.667410023510456E-003;
2.405666666666667E+009;1.804530620574951E-001;1.307242922484875E-002;1.241586433025077E-004;6.609019823372364E-003;
2.405833333333334E+009;1.807826608419418E-001;1.280005276203156E-002;4.930918803438544E-004;6.726737134158611E-003;
2.406000000000000E+009;1.812703609466553E-001;1.261591631919146E-002;7.700579008087516E-004;6.617558188736439E-003;
2.406166666666667E+009;1.812767833471298E-001;1.252653822302818E-002;9.695842745713890E-004;6.685355678200722E-003;
2.406333333333334E+009;1.816777735948563E-001;1.241153851151466E-002;1.275232876650989E-003;6.512346677482128E-003;
2.406500000000000E+009;1.816437393426895E-001;1.223199721425772E-002;1.443540095351636E-003;6.452287547290325E-003;
2.406666666666667E+009;1.815817803144455E-001;1.215524505823851E-002;1.809143577702344E-003;6.330695003271103E-003;
2.406833333333334E+009;1.815858483314514E-001;1.177624613046646E-002;1.793344039469957E-003;6.167958956211805E-003;
2.407000000000000E+009;1.813354492187500E-001;1.160414610058069E-002;2.120973309502006E-003;6.213626358658075E-003;
2.407166666666667E+009;1.810987591743469E-001;1.152142602950335E-002;2.400914905592799E-003;5.970972124487162E-003;
2.407333333333334E+009;1.804742068052292E-001;1.089150551706553E-002;2.713426016271114E-003;5.969729740172625E-003;
2.407500000000000E+009;1.800996512174606E-001;1.056162454187870E-002;2.922038780525327E-003;5.734778009355068E-003;
2.407666666666667E+009;1.796158552169800E-001;1.013602036982775E-002;3.022843040525913E-003;5.568855907768011E-003;
2.407833333333334E+009;1.788261383771896E-001;9.480733424425125E-003;3.290056483820081E-003;5.570808425545692E-003;
2.408000000000000E+009;1.783396154642105E-001;8.743463084101677E-003;3.286948660388589E-003;5.352420266717672E-003;
2.408166666666667E+009;1.774581968784332E-001;8.178662508726120E-003;3.604475874453783E-003;5.122494883835316E-003;
2.408333333333334E+009;1.769690811634064E-001;7.299509830772877E-003;3.836940042674542E-003;5.021038930863142E-003;
2.408500000000000E+009;1.761163771152496E-001;6.298897322267294E-003;3.815228352323175E-003;4.671012051403523E-003;
2.408666666666667E+009;1.752069890499115E-001;5.179939325898886E-003;3.995249047875404E-003;4.529075231403112E-003;
2.408833333333334E+009;1.741681247949600E-001;4.204043652862310E-003;4.160416778177023E-003;4.355621524155140E-003;
2.409000000000000E+009;1.733573675155640E-001;3.057047026231885E-003;4.254788625985384E-003;4.204874392598867E-003;
2.409166666666667E+009;1.725727617740631E-001;1.635948196053505E-003;4.313590005040169E-003;4.099193494766951E-003;
2.409333333333334E+009;1.717848628759384E-001;2.174708424718119E-005;4.520353395491839E-003;3.907834179699421E-003;
2.409500000000000E+009;1.709250211715698E-001;-1.650870894081891E-003;4.477781709283590E-003;3.757300088182092E-003;
2.409666666666667E+009;1.702057123184204E-001;-2.918296726420522E-003;4.730213899165392E-003;3.519664751365781E-003;
2.409833333333334E+009;1.693433076143265E-001;-4.703818820416927E-003;4.783169366419315E-003;3.258322365581989E-003;
2.410000000000000E+009;1.686797142028809E-001;-6.302034482359886E-003;4.758659284561873E-003;3.188241505995393E-003;
2.410166666666667E+009;1.680557280778885E-001;-8.350772783160210E-003;4.877873696386814E-003;2.908311085775495E-003;
2.410333333333334E+009;1.675163954496384E-001;-1.012512203305960E-002;4.832664970308542E-003;2.726547885686159E-003;
2.410500000000000E+009;1.670132428407669E-001;-1.195051334798336E-002;4.985519219189882E-003;2.521369606256485E-003;
2.410666666666667E+009;1.664405614137650E-001;-1.440444961190224E-002;4.998406860977411E-003;2.454394241794944E-003;
2.410833333333334E+009;1.661962866783142E-001;-1.618201285600662E-002;5.045719910413027E-003;2.277110936120153E-003;
2.411000000000000E+009;1.660202294588089E-001;-1.816823519766331E-002;4.922965075820684E-003;1.909304526634514E-003;
2.411166666666667E+009;1.659700870513916E-001;-2.025071345269680E-002;5.061928648501635E-003;1.817779033444822E-003;
2.411333333333334E+009;1.656619012355804E-001;-2.247509919106960E-002;5.115696229040623E-003;1.616053283214569E-003;
2.411500000000000E+009;1.656946986913681E-001;-2.452478557825089E-002;5.025140009820461E-003;1.435896148905158E-003;
2.411666666666667E+009;1.659051179885864E-001;-2.644476667046547E-002;5.150122568011284E-003;1.272574299946427E-003;
2.411833333333334E+009;1.660732030868530E-001;-2.851749211549759E-002;5.181539338082075E-003;9.207911207340658E-004;
2.412000000000000E+009;1.663961410522461E-001;-3.070243820548058E-002;5.178479012101889E-003;9.560236358083785E-004;
2.412166666666667E+009;1.667219549417496E-001;-3.264578431844711E-002;5.009633954614401E-003;7.394701242446899E-004;
2.412333333333334E+009;1.673750132322311E-001;-3.460143133997917E-002;5.026703234761953E-003;4.083786043338478E-004;
2.412500000000000E+009;1.675815582275391E-001;-3.663294389843941E-002;4.871229175478220E-003;2.520856214687228E-004;
2.412666666666667E+009;1.681993007659912E-001;-3.858750313520432E-002;4.847862292081118E-003;2.722655772231519E-004;
2.412833333333334E+009;1.687926501035690E-001;-4.047431051731110E-002;4.893521312624216E-003;-6.817989196861163E-005;
2.413000000000000E+009;1.696320921182632E-001;-4.221804067492485E-002;4.860593471676111E-003;-3.523417981341481E-004;
2.413166666666667E+009;1.700813472270966E-001;-4.377540573477745E-002;4.781200084835291E-003;-3.224644460715354E-004;
2.413333333333334E+009;1.708270758390427E-001;-4.536860436201096E-002;4.640801809728146E-003;-5.800027283839881E-004;
2.413500000000000E+009;1.718329191207886E-001;-4.695130884647369E-002;4.509107675403357E-003;-6.911640521138907E-004;
2.413666666666667E+009;1.725236922502518E-001;-4.832152277231216E-002;4.466776270419359E-003;-7.898647454567254E-004;
2.413833333333334E+009;1.731175482273102E-001;-4.965138435363770E-002;4.290321376174688E-003;-8.400596561841667E-004;
2.414000000000000E+009;1.738139688968658E-001;-5.099924281239510E-002;4.181390162557364E-003;-1.101101632229984E-003;
2.414166666666667E+009;1.747544258832932E-001;-5.220641940832138E-002;4.289445001631975E-003;-1.200425322167575E-003;
2.414333333333334E+009;1.753320246934891E-001;-5.315398797392845E-002;4.034182522445917E-003;-1.192092662677169E-003;
2.414500000000000E+009;1.761304736137390E-001;-5.415543541312218E-002;3.847178304567933E-003;-1.394491875544190E-003;
2.414666666666667E+009;1.767081320285797E-001;-5.473921075463295E-002;3.831586800515652E-003;-1.292897504754365E-003;
2.414833333333334E+009;1.773154586553574E-001;-5.561276152729988E-002;3.677232889458537E-003;-1.377984299324453E-003;
2.415000000000000E+009;1.777285486459732E-001;-5.621617287397385E-002;3.578457981348038E-003;-1.515289884991944E-003;
2.415166666666667E+009;1.782734841108322E-001;-5.677284300327301E-002;3.582618432119489E-003;-1.548473141156137E-003;
2.415333333333334E+009;1.788610517978668E-001;-5.734241381287575E-002;3.426192561164498E-003;-1.660666079260409E-003;
2.415500000000000E+009;1.791266202926636E-001;-5.766002088785172E-002;3.286323742941022E-003;-1.751386327669025E-003;
2.415666666666667E+009;1.792186498641968E-001;-5.790894851088524E-002;3.238518489524722E-003;-1.717539038509131E-003;
2.415833333333334E+009;1.795603036880493E-001;-5.811897665262222E-002;3.118341555818915E-003;-1.681058434769511E-003;
2.416000000000000E+009;1.793952435255051E-001;-5.836817622184753E-002;3.118690801784396E-003;-1.831588218919933E-003;
2.416166666666667E+009;1.795501410961151E-001;-5.849916860461235E-002;3.032875712960959E-003;-1.950685167685151E-003;
2.416333333333334E+009;1.793150752782822E-001;-5.859009549021721E-002;2.944214269518852E-003;-1.783694257028401E-003;
2.416500000000000E+009;1.790992319583893E-001;-5.875702947378159E-002;2.780732465907931E-003;-2.007644390687347E-003;
2.416666666666667E+009;1.786813288927078E-001;-5.879639461636543E-002;2.845468232408166E-003;-1.936370623297989E-003;
2.416833333333334E+009;1.783177405595779E-001;-5.893890559673309E-002;2.825814997777343E-003;-1.995424740016460E-003;
2.417000000000000E+009;1.776385903358460E-001;-5.899094790220261E-002;2.743555465713143E-003;-1.970902318134904E-003;
2.417166666666667E+009;1.769867688417435E-001;-5.903267487883568E-002;2.791617298498750E-003;-2.093868795782328E-003;
2.417333333333334E+009;1.762470155954361E-001;-5.899012461304665E-002;2.629766939207912E-003;-2.196500776335597E-003;
2.417500000000000E+009;1.752410531044006E-001;-5.925648659467697E-002;2.618752419948578E-003;-2.193975960835815E-003;
2.417666666666667E+009;1.745315790176392E-001;-5.922177433967590E-002;2.449769526720047E-003;-2.241617767140269E-003;
2.417833333333334E+009;1.733679622411728E-001;-5.934594571590424E-002;2.498503541573882E-003;-2.332591917365789E-003;
2.418000000000000E+009;1.722854375839233E-001;-5.992546677589417E-002;2.342276973649859E-003;-2.257687505334616E-003;
2.418166666666667E+009;1.709783822298050E-001;-5.994683504104614E-002;2.366948639973998E-003;-2.355284290388227E-003;
2.418333333333334E+009;1.700249910354614E-001;-6.058557331562042E-002;2.342532854527235E-003;-2.433190355077386E-003;
2.418500000000000E+009;1.686825752258301E-001;-6.077222898602486E-002;2.313347067683935E-003;-2.575335325673223E-003;
2.418666666666667E+009;1.674310266971588E-001;-6.143605336546898E-002;2.220162190496922E-003;-2.598066814243794E-003;
2.418833333333334E+009;1.659046262502670E-001;-6.204322725534439E-002;2.168506616726518E-003;-2.671682275831699E-003;
2.419000000000000E+009;1.645013093948364E-001;-6.269088387489319E-002;2.121774014085531E-003;-2.617661608383060E-003;
2.419166666666667E+009;1.631204336881638E-001;-6.362903118133545E-002;2.062315586954355E-003;-2.731351181864739E-003;
2.419333333333334E+009;1.618019640445709E-001;-6.428848952054977E-002;1.785881933756173E-003;-2.792726270854473E-003;
2.419500000000000E+009;1.604054123163223E-001;-6.542382389307022E-002;1.962617272511125E-003;-2.865110756829381E-003;
2.419666666666667E+009;1.592270433902741E-001;-6.667821854352951E-002;1.744433306157589E-003;-2.994026523083448E-003;
2.419833333333334E+009;1.579005569219589E-001;-6.766775995492935E-002;1.593972323462367E-003;-2.848595380783081E-003;
2.420000000000000E+009;1.568039804697037E-001;-6.890458613634110E-002;1.637476729229093E-003;-2.726849401369691E-003;
2.420166666666667E+009;1.554690599441528E-001;-7.031641900539398E-002;1.214546267874539E-003;-2.991165267303586E-003;
2.420333333333334E+009;1.544020622968674E-001;-7.174854725599289E-002;1.271634362637997E-003;-2.884083427488804E-003;
2.420500000000000E+009;1.533438861370087E-001;-7.305702567100525E-002;1.242399332113564E-003;-3.099066670984030E-003;
2.420666666666667E+009;1.524255871772766E-001;-7.473196834325790E-002;1.259436598047614E-003;-3.071980550885201E-003;
2.420833333333334E+009;1.515517830848694E-001;-7.633293420076370E-002;1.114169019274414E-003;-2.968730172142386E-003;
2.421000000000000E+009;1.505850106477737E-001;-7.805786281824112E-002;1.070411643013358E-003;-3.131170291453600E-003;
2.421166666666667E+009;1.500210464000702E-001;-7.986193895339966E-002;8.397058118134737E-004;-3.072559833526611E-003;
2.421333333333334E+009;1.495759040117264E-001;-8.157712966203690E-002;7.494564051739872E-004;-3.108147298917174E-003;
2.421500000000000E+009;1.488997042179108E-001;-8.325015008449554E-002;6.014747195877135E-004;-3.143109614029527E-003;
2.421666666666667E+009;1.485916674137116E-001;-8.512808382511139E-002;6.064740591682494E-004;-2.947174943983555E-003;
2.421833333333334E+009;1.482072919607163E-001;-8.700908720493317E-002;3.944913332816213E-004;-2.988148014992476E-003;
2.422000000000000E+009;1.480205357074738E-001;-8.882728964090347E-002;3.375552478246391E-004;-3.028244478628039E-003;
2.422166666666667E+009;1.479299366474152E-001;-9.088776260614395E-002;2.961559221148491E-004;-3.083396935835481E-003;
2.422333333333334E+009;1.479685753583908E-001;-9.238030016422272E-002;1.242689904756844E-004;-3.001266391947866E-003;
2.422500000000000E+009;1.480368077754974E-001;-9.419915825128555E-002;-8.600081491749734E-005;-2.945091109722853E-003;
2.422666666666667E+009;1.481568813323975E-001;-9.607972204685211E-002;-1.226718154612172E-006;-2.921385457739234E-003;
2.422833333333334E+009;1.484613120555878E-001;-9.785545617341995E-002;-2.015401551034302E-004;-2.869444666430354E-003;
2.423000000000000E+009;1.489621400833130E-001;-9.949140250682831E-002;-3.940302703995258E-004;-2.855915110558271E-003;
2.423166666666667E+009;1.492625176906586E-001;-1.010224819183350E-001;-4.063501546625048E-004;-2.845858689397574E-003;
2.423333333333334E+009;1.498584300279617E-001;-1.025734841823578E-001;-6.585692754015327E-004;-2.792201936244965E-003;
2.423500000000000E+009;1.503936499357224E-001;-1.041369363665581E-001;-7.861257763579488E-004;-2.648695837706327E-003;
2.423666666666667E+009;1.506742835044861E-001;-1.057335138320923E-001;-8.395190234296024E-004;-2.472467720508575E-003;
2.423833333333334E+009;1.514727324247360E-001;-1.070913970470429E-001;-9.516940335743129E-004;-2.392089227214456E-003;
2.424000000000000E+009;1.520619094371796E-001;-1.083270311355591E-001;-1.072746468707919E-003;-2.322632586583495E-003;
2.424166666666667E+009;1.525755971670151E-001;-1.095593273639679E-001;-1.116863684728742E-003;-2.294410951435566E-003;
2.424333333333334E+009;1.533756405115128E-001;-1.104601919651032E-001;-1.126144197769463E-003;-2.040523570030928E-003;
2.424500000000000E+009;1.540062576532364E-001;-1.116506904363632E-001;-1.102986629121006E-003;-2.044400665909052E-003;
2.424666666666667E+009;1.547498404979706E-001;-1.123228818178177E-001;-1.203924301080406E-003;-1.841242774389684E-003;
2.424833333333334E+009;1.551537066698074E-001;-1.132510825991631E-001;-1.216855831444264E-003;-1.642277580685914E-003;
2.425000000000000E+009;1.556569337844849E-001;-1.140950694680214E-001;-1.132120029069483E-003;-1.596537535078824E-003;
2.425166666666667E+009;1.560799926519394E-001;-1.146484836935997E-001;-1.362746697850525E-003;-1.524126389995217E-003;
2.425333333333334E+009;1.566907167434692E-001;-1.152565702795982E-001;-1.294039306230843E-003;-1.432821969501674E-003;
2.425500000000000E+009;1.571292430162430E-001;-1.158082410693169E-001;-1.366145908832550E-003;-1.417487277649343E-003;
2.425666666666667E+009;1.572698652744293E-001;-1.160537675023079E-001;-1.190804177895188E-003;-1.216768869198859E-003;
2.425833333333334E+009;1.577098220586777E-001;-1.164152547717094E-001;-1.072425046004355E-003;-1.173219177871943E-003;
2.426000000000000E+009;1.578210294246674E-001;-1.167048141360283E-001;-1.089947414584458E-003;-1.028124825097621E-003;
2.426166666666667E+009;1.581030935049057E-001;-1.169068515300751E-001;-1.014225650578737E-003;-8.870944730006158E-004;
2.426333333333334E+009;1.579173058271408E-001;-1.170909926295281E-001;-1.056939479894936E-003;-9.809299372136593E-004;
2.426500000000000E+009;1.580492407083511E-001;-1.170888468623161E-001;-1.175074605271220E-003;-8.960606646724045E-004;
2.426666666666667E+009;1.577815115451813E-001;-1.170452460646629E-001;-8.225588244386017E-004;-8.365762769244611E-004;
2.426833333333334E+009;1.574443131685257E-001;-1.170605421066284E-001;-8.852214086800814E-004;-8.334742742590606E-004;
2.427000000000000E+009;1.570878624916077E-001;-1.172301843762398E-001;-7.573606562800705E-004;-9.374929941259325E-004;
2.427166666666667E+009;1.566208899021149E-001;-1.170210540294647E-001;-8.410358568653464E-004;-7.098789792507887E-004;
2.427333333333334E+009;1.558589339256287E-001;-1.171296089887619E-001;-8.097023237496615E-004;-6.133549613878131E-004;
2.427500000000000E+009;1.552626639604569E-001;-1.170739606022835E-001;-7.785116904415190E-004;-7.847071974538267E-004;
2.427666666666667E+009;1.543764621019363E-001;-1.171491816639900E-001;-5.072659696452320E-004;-6.457533454522491E-004;
