# Version 1.00
#
freq[Hz];re:Trc1_S11;im:Trc1_S11;re:Trc2_S21;im:Trc2_S21;
2.400000000000000E+009;1.547232419252396E-001;6.191911175847054E-002;-4.922459367662668E-003;2.964329672977328E-003;
2.400166666666667E+009;1.548349261283875E-001;5.992662161588669E-002;-4.993861541152000E-003;3.030478022992611E-003;
2.400333333333334E+009;1.547234207391739E-001;5.795281380414963E-002;-4.951995331794024E-003;3.089104779064655E-003;
2.400500000000000E+009;1.550031751394272E-001;5.571031570434570E-002;-4.972493276000023E-003;3.364258678629994E-003;
2.400666666666667E+009;1.550484299659729E-001;5.334715172648430E-002;-4.728546831756830E-003;3.471876727417111E-003;
2.400833333333334E+009;1.554244309663773E-001;5.140284076333046E-002;-4.701070487499237E-003;3.554734867066145E-003;
2.401000000000000E+009;1.558011323213577E-001;4.897040128707886E-002;-4.623557906597853E-003;3.593396861106157E-003;
2.401166666666667E+009;1.560959666967392E-001;4.685355350375176E-002;-4.689518362283707E-003;3.746865317225456E-003;
2.401333333333334E+009;1.565861552953720E-001;4.463062435388565E-002;-4.384863190352917E-003;3.957714419811964E-003;
2.401500000000000E+009;1.573291569948196E-001;4.234972223639488E-002;-4.386064130812883E-003;4.210890270769596E-003;
2.401666666666667E+009;1.578355431556702E-001;4.041938111186028E-002;-4.328464623540640E-003;4.269905388355255E-003;
2.401833333333334E+009;1.584515273571014E-001;3.814240545034409E-002;-4.140483681112528E-003;4.406872205436230E-003;
2.402000000000000E+009;1.592100411653519E-001;3.617611899971962E-002;-3.977886401116848E-003;4.582830239087343E-003;
2.402166666666667E+009;1.600997745990753E-001;3.417150676250458E-002;-3.955841995775700E-003;4.864090122282505E-003;
2.402333333333334E+009;1.609564125537872E-001;3.232486918568611E-002;-3.771878313273192E-003;4.779713228344917E-003;
2.402500000000000E+009;1.621759980916977E-001;3.037378378212452E-002;-3.819284960627556E-003;4.916897974908352E-003;
2.402666666666667E+009;1.629962176084518E-001;2.868723683059216E-002;-3.453656099736691E-003;4.994158167392016E-003;
2.402833333333334E+009;1.641383916139603E-001;2.715852670371532E-002;-3.465250367298722E-003;5.294201429933310E-003;
2.403000000000000E+009;1.651553362607956E-001;2.560614421963692E-002;-3.282156307250261E-003;5.540792830288410E-003;
2.403166666666667E+009;1.662154644727707E-001;2.409713156521320E-002;-3.057195572182536E-003;5.585951264947653E-003;
2.403333333333334E+009;1.673457622528076E-001;2.285042218863964E-002;-2.780575538054109E-003;5.588054656982422E-003;
2.403500000000000E+009;1.684156507253647E-001;2.159219607710838E-002;-2.599687781184912E-003;5.830910056829453E-003;
2.403666666666667E+009;1.695252954959869E-001;2.046292833983898E-002;-2.521033864468336E-003;5.812564864754677E-003;
2.403833333333334E+009;1.707767993211746E-001;1.935707591474056E-002;-2.281919121742249E-003;5.955309141427279E-003;
2.404000000000000E+009;1.718402951955795E-001;1.836302317678928E-002;-2.021526452153921E-003;6.097922567278147E-003;
2.404166666666667E+009;1.731225401163101E-001;1.756597869098187E-002;-1.884350436739624E-003;6.370800081640482E-003;
2.404333333333334E+009;1.741529107093811E-001;1.678741537034512E-002;-1.643545692786574E-003;6.314099300652742E-003;
2.404500000000000E+009;1.751216500997543E-001;1.583058945834637E-002;-1.486878143623471E-003;6.335375364869833E-003;
2.404666666666667E+009;1.761043816804886E-001;1.521074306219816E-002;-1.229015062563121E-003;6.276562809944153E-003;
2.404833333333334E+009;1.770711094141007E-001;1.474818401038647E-002;-8.526637102477253E-004;6.465023383498192E-003;
2.405000000000000E+009;1.778314858675003E-001;1.430855039507151E-002;-7.119432557374239E-004;6.453901529312134E-003;
2.405166666666667E+009;1.786919832229614E-001;1.386748999357224E-002;-5.117777618579567E-004;6.683620158582926E-003;
2.405333333333334E+009;1.794237345457077E-001;1.346799731254578E-002;-3.891715023200959E-004;6.613583303987980E-003;
2.405500000000000E+009;1.799915730953217E-001;1.336735393851996E-002;-1.476391917094588E-004;6.798567716032267E-003;
2.405666666666667E+009;1.806853264570236E-001;1.311515737324953E-002;1.155010031652637E-004;6.634356919676065E-003;
2.405833333333334E+009;1.809245049953461E-001;1.291439589112997E-002;5.101917195133865E-004;6.660796701908112E-003;
2.406000000000000E+009;1.812819391489029E-001;1.275322213768959E-002;8.404309046454728E-004;6.606377661228180E-003;
2.406166666666667E+009;1.813642680644989E-001;1.263680122792721E-002;9.257937781512737E-004;6.590317469090223E-003;
2.406333333333334E+009;1.817928701639175E-001;1.239124499261379E-002;1.325806137174368E-003;6.463471800088882E-003;
2.406500000000000E+009;1.818774193525314E-001;1.220101863145828E-002;1.515819923952222E-003;6.423653569072485E-003;
2.406666666666667E+009;1.815753430128098E-001;1.200056262314320E-002;1.796075026504695E-003;6.318557541817427E-003;
2.406833333333334E+009;1.814976930618286E-001;1.174219418317080E-002;2.072496339678764E-003;6.087550427764654E-003;
2.407000000000000E+009;1.814478486776352E-001;1.156654488295317E-002;2.175375819206238E-003;6.230552215129137E-003;
2.407166666666667E+009;1.811740994453430E-001;1.132720336318016E-002;2.624796936288476E-003;6.022499408572912E-003;
2.407333333333334E+009;1.806362867355347E-001;1.084941346198320E-002;2.692537847906351E-003;5.837784148752689E-003;
2.407500000000000E+009;1.802186518907547E-001;1.043834816664457E-002;2.968114102259278E-003;5.659366957843304E-003;
2.407666666666667E+009;1.796592622995377E-001;1.013609487563372E-002;3.039198229089379E-003;5.490076262503862E-003;
2.407833333333334E+009;1.789986789226532E-001;9.400987066328526E-003;3.406242001801729E-003;5.452855024486780E-003;
2.408000000000000E+009;1.782636642456055E-001;8.799005299806595E-003;3.446420654654503E-003;5.214849021285772E-003;
2.408166666666667E+009;1.774989515542984E-001;8.072824217379093E-003;3.758540377020836E-003;5.039620678871870E-003;
2.408333333333334E+009;1.768894195556641E-001;7.257763296365738E-003;3.806659020483494E-003;4.755405243486166E-003;
2.408500000000000E+009;1.761708110570908E-001;6.158047821372747E-003;4.095819313079119E-003;4.794339649379253E-003;
2.408666666666667E+009;1.753219217061997E-001;5.173816811293364E-003;3.960535395890474E-003;4.574604798108339E-003;
2.408833333333334E+009;1.742843240499497E-001;4.073927644640207E-003;4.155491013079882E-003;4.349855240434408E-003;
2.409000000000000E+009;1.735155731439591E-001;2.864231821149588E-003;4.216086585074663E-003;4.315862897783518E-003;
2.409166666666667E+009;1.725226342678070E-001;1.495709060691297E-003;4.319067113101482E-003;4.031357821077108E-003;
2.409333333333334E+009;1.718830913305283E-001;1.198493700940162E-004;4.551338031888008E-003;3.964152187108994E-003;
2.409500000000000E+009;1.709909886121750E-001;-1.538854325190187E-003;4.391788505017757E-003;3.683624556288123E-003;
2.409666666666667E+009;1.701575368642807E-001;-3.000131109729409E-003;4.559424705803394E-003;3.654884407296777E-003;
2.409833333333334E+009;1.693658828735352E-001;-4.688080865889788E-003;4.659667145460844E-003;3.335050540044904E-003;
2.410000000000000E+009;1.687221825122833E-001;-6.356387864798307E-003;4.698043223470449E-003;3.173363860696554E-003;
2.410166666666667E+009;1.681192517280579E-001;-8.144738152623177E-003;4.834745544940233E-003;2.915584482252598E-003;
2.410333333333334E+009;1.675217300653458E-001;-1.025880314409733E-002;4.863053094595671E-003;2.882584929466248E-003;
2.410500000000000E+009;1.670234799385071E-001;-1.214202307164669E-002;4.936923272907734E-003;2.454930450767279E-003;
2.410666666666667E+009;1.665606200695038E-001;-1.422453485429287E-002;5.044023506343365E-003;2.384735969826579E-003;
2.410833333333334E+009;1.662552356719971E-001;-1.622661575675011E-002;5.095317959785461E-003;2.173836342990398E-003;
2.411000000000000E+009;1.660199612379074E-001;-1.816879957914352E-002;5.107658915221691E-003;1.912388717755675E-003;
2.411166666666667E+009;1.657477617263794E-001;-2.034748718142510E-002;5.024731159210205E-003;1.851086737588048E-003;
2.411333333333334E+009;1.657824367284775E-001;-2.229581773281097E-002;5.118706729263067E-003;1.643044175580144E-003;
2.411500000000000E+009;1.655890643596649E-001;-2.473109401762486E-002;5.090006627142429E-003;1.405438524670899E-003;
2.411666666666667E+009;1.659064888954163E-001;-2.661777101457119E-002;5.212026182562113E-003;1.220326754264534E-003;
2.411833333333334E+009;1.658538430929184E-001;-2.873598039150238E-002;4.989552311599255E-003;1.168286777101457E-003;
2.412000000000000E+009;1.665572524070740E-001;-3.093579597771168E-002;4.974209703505039E-003;7.279893616214395E-004;
2.412166666666667E+009;1.664304435253143E-001;-3.267904371023178E-002;4.938021767884493E-003;6.035622791387141E-004;
2.412333333333334E+009;1.673228293657303E-001;-3.469642996788025E-002;4.878778941929340E-003;4.988322034478188E-004;
2.412500000000000E+009;1.675300449132919E-001;-3.662198781967163E-002;4.857888910919428E-003;3.012279921676964E-004;
2.412666666666667E+009;1.681953072547913E-001;-3.869136422872543E-002;4.905818961560726E-003;1.985039125429466E-004;
2.412833333333334E+009;1.688045412302017E-001;-4.052375257015228E-002;4.713354632258415E-003;-5.566708932747133E-005;
2.413000000000000E+009;1.695181280374527E-001;-4.224912077188492E-002;4.732209257781506E-003;-2.118871489074081E-004;
2.413166666666667E+009;1.700998991727829E-001;-4.371783882379532E-002;4.672095179557800E-003;-2.832408354151994E-004;
2.413333333333334E+009;1.708275526762009E-001;-4.551262035965920E-002;4.529544152319431E-003;-4.500797076616436E-004;
2.413500000000000E+009;1.717420071363449E-001;-4.709764569997788E-002;4.509221296757460E-003;-6.591044948436320E-004;
2.413666666666667E+009;1.724420785903931E-001;-4.856088757514954E-002;4.407062195241451E-003;-7.834208663553000E-004;
2.413833333333334E+009;1.730677783489227E-001;-4.970159754157066E-002;4.350075963884592E-003;-8.783148368820548E-004;
2.414000000000000E+009;1.738096326589584E-001;-5.094904080033302E-002;4.220890346914530E-003;-1.005177036859095E-003;
2.414166666666667E+009;1.746948808431625E-001;-5.223295092582703E-002;4.073936957865953E-003;-1.154654775746167E-003;
2.414333333333334E+009;1.753965467214584E-001;-5.322107300162315E-002;4.081021063029766E-003;-1.139871426858008E-003;
2.414500000000000E+009;1.762115061283112E-001;-5.398347973823547E-002;3.782634856179357E-003;-1.349495025351644E-003;
2.414666666666667E+009;1.767001897096634E-001;-5.491944029927254E-002;3.928050398826599E-003;-1.370364683680236E-003;
2.414833333333334E+009;1.772515475749970E-001;-5.569584295153618E-002;3.608008148148656E-003;-1.432572957128286E-003;
2.415000000000000E+009;1.778703778982163E-001;-5.630702152848244E-002;3.711282508447766E-003;-1.562774996273220E-003;
2.415166666666667E+009;1.783262491226196E-001;-5.682744085788727E-002;3.473768243566155E-003;-1.610705745406449E-003;
2.415333333333334E+009;1.788165420293808E-001;-5.741579830646515E-002;3.404834773391485E-003;-1.661522313952446E-003;
2.415500000000000E+009;1.791049987077713E-001;-5.766011029481888E-002;3.347855759784579E-003;-1.777584431692958E-003;
2.415666666666667E+009;1.793868094682694E-001;-5.802707746624947E-002;3.289094893261790E-003;-1.789108035154641E-003;
2.415833333333334E+009;1.794645041227341E-001;-5.829922109842300E-002;3.218390978872776E-003;-1.870485139079392E-003;
2.416000000000000E+009;1.794852763414383E-001;-5.828436091542244E-002;3.175198100507259E-003;-1.735303783789277E-003;
2.416166666666667E+009;1.796201169490814E-001;-5.855694413185120E-002;3.016181290149689E-003;-1.793206203728914E-003;
2.416333333333334E+009;1.793011426925659E-001;-5.861491337418556E-002;3.042271127924323E-003;-1.854131463915110E-003;
2.416500000000000E+009;1.790909916162491E-001;-5.875611305236816E-002;2.885843394324184E-003;-1.904207863844931E-003;
2.416666666666667E+009;1.786851882934570E-001;-5.865988880395889E-002;2.813179511576891E-003;-1.841805642470717E-003;
2.416833333333334E+009;1.783591359853745E-001;-5.889951437711716E-002;2.838784130290151E-003;-2.104384591802955E-003;
2.417000000000000E+009;1.775803118944168E-001;-5.897429957985878E-002;2.709540072828531E-003;-2.043838845565915E-003;
2.417166666666667E+009;1.769091337919235E-001;-5.891003087162972E-002;2.762507647275925E-003;-2.030100673437119E-003;
2.417333333333334E+009;1.762252897024155E-001;-5.890725180506706E-002;2.583975205197930E-003;-2.096364041790366E-003;
2.417500000000000E+009;1.752852350473404E-001;-5.933851003646851E-002;2.679584547877312E-003;-2.148554194718599E-003;
2.417666666666667E+009;1.744684129953384E-001;-5.923841521143913E-002;2.385775325819850E-003;-2.207323675975204E-003;
2.417833333333334E+009;1.733460277318955E-001;-5.942453816533089E-002;2.449907362461090E-003;-2.221895381808281E-003;
2.418000000000000E+009;1.721426248550415E-001;-6.000327691435814E-002;2.415930386632681E-003;-2.226716605946422E-003;
2.418166666666667E+009;1.710267364978790E-001;-6.000337004661560E-002;2.344697946682572E-003;-2.335308818146586E-003;
2.418333333333334E+009;1.700951159000397E-001;-6.051143258810043E-002;2.327381167560816E-003;-2.358700614422560E-003;
2.418500000000000E+009;1.686512082815170E-001;-6.102058663964272E-002;2.194410189986229E-003;-2.406338229775429E-003;
2.418666666666667E+009;1.674247980117798E-001;-6.152572482824326E-002;2.173185348510742E-003;-2.461682073771954E-003;
2.418833333333334E+009;1.658984869718552E-001;-6.219361349940300E-002;2.105230465531349E-003;-2.591261174529791E-003;
2.419000000000000E+009;1.646709442138672E-001;-6.270620226860046E-002;2.076920121908188E-003;-2.623501233756542E-003;
2.419166666666667E+009;1.631605029106140E-001;-6.368518620729446E-002;1.850864617154002E-003;-2.637167694047093E-003;
2.419333333333334E+009;1.617865711450577E-001;-6.429659575223923E-002;1.826066523790360E-003;-2.649075817316771E-003;
2.419500000000000E+009;1.603457182645798E-001;-6.555163860321045E-002;1.919099711813033E-003;-2.759810537099838E-003;
2.419666666666667E+009;1.592085659503937E-001;-6.664776057004929E-002;1.614960725419223E-003;-2.792781218886375E-003;
2.419833333333334E+009;1.577684283256531E-001;-6.766968965530396E-002;1.589236082509160E-003;-2.848068485036492E-003;
2.420000000000000E+009;1.567945629358292E-001;-6.895198673009872E-002;1.490595517680049E-003;-2.962872153148055E-003;
2.420166666666667E+009;1.554797887802124E-001;-7.042363286018372E-002;1.370348851196468E-003;-2.881647553294897E-003;
2.420333333333334E+009;1.543690860271454E-001;-7.173513621091843E-002;1.332300715148449E-003;-2.855448983609676E-003;
2.420500000000000E+009;1.534938812255859E-001;-7.319264113903046E-002;1.343652955256403E-003;-2.954133087769151E-003;
2.420666666666667E+009;1.524159759283066E-001;-7.485057413578033E-002;1.239553908817470E-003;-2.917452016845346E-003;
2.420833333333334E+009;1.515078991651535E-001;-7.629534602165222E-002;1.129240030422807E-003;-2.879203064367175E-003;
2.421000000000000E+009;1.505354046821594E-001;-7.819887995719910E-002;9.153250721283257E-004;-3.054446075111628E-003;
2.421166666666667E+009;1.501059234142304E-001;-7.982946187257767E-002;8.824781980365515E-004;-3.103145398199558E-003;
2.421333333333334E+009;1.494704633951187E-001;-8.163446187973023E-002;6.912482203915715E-004;-3.084317082539201E-003;
2.421500000000000E+009;1.488445848226547E-001;-8.326995372772217E-002;8.078629034571350E-004;-3.027766710147262E-003;
2.421666666666667E+009;1.484599262475967E-001;-8.520866185426712E-002;6.487384671345353E-004;-3.062209812924266E-003;
2.421833333333334E+009;1.483125686645508E-001;-8.697833120822907E-002;5.650849780067802E-004;-3.087545512244105E-003;
2.422000000000000E+009;1.481421291828156E-001;-8.888403326272965E-002;2.822739770635963E-004;-3.004113445058465E-003;
2.422166666666667E+009;1.478925496339798E-001;-9.084504097700119E-002;2.504906442482024E-004;-3.080456284806132E-003;
2.422333333333334E+009;1.479952335357666E-001;-9.241028130054474E-002;4.331185846240260E-005;-2.938769990578294E-003;
2.422500000000000E+009;1.480710804462433E-001;-9.415115416049957E-002;-7.340772572206333E-005;-3.009842243045569E-003;
2.422666666666667E+009;1.481909602880478E-001;-9.617310762405396E-002;-8.749249536776915E-005;-3.023496130481362E-003;
2.422833333333334E+009;1.485273540019989E-001;-9.783583879470825E-002;-2.694114518817514E-004;-2.897175494581461E-003;
2.423000000000000E+009;1.487335115671158E-001;-9.968549013137817E-002;-4.241109418217093E-004;-2.833915175870061E-003;
2.423166666666667E+009;1.492903679609299E-001;-1.013156026601791E-001;-4.604447458405048E-004;-2.782329684123397E-003;
2.423333333333334E+009;1.498252898454666E-001;-1.025989651679993E-001;-6.000635912641883E-004;-2.813190687447786E-003;
2.423500000000000E+009;1.503575146198273E-001;-1.042917594313622E-001;-7.976723718456924E-004;-2.577173057943583E-003;
2.423666666666667E+009;1.507288217544556E-001;-1.057020053267479E-001;-8.304531802423298E-004;-2.659395337104797E-003;
2.423833333333334E+009;1.514042764902115E-001;-1.071155443787575E-001;-7.185715949162841E-004;-2.396812429651618E-003;
2.424000000000000E+009;1.519819498062134E-001;-1.081882864236832E-001;-9.793541394174099E-004;-2.307846443727613E-003;
2.424166666666667E+009;1.525125652551651E-001;-1.094909980893135E-001;-1.054592663422227E-003;-2.229530131444335E-003;
2.424333333333334E+009;1.532661765813828E-001;-1.105367615818977E-001;-1.077992958016694E-003;-2.184265060350299E-003;
2.424500000000000E+009;1.539382487535477E-001;-1.115969195961952E-001;-1.132886973209679E-003;-1.923251897096634E-003;
2.424666666666667E+009;1.548077166080475E-001;-1.123453900218010E-001;-1.249301130883396E-003;-1.962763955816627E-003;
2.424833333333334E+009;1.550780236721039E-001;-1.132910773158073E-001;-1.196372089907527E-003;-1.716378494165838E-003;
2.425000000000000E+009;1.557601988315582E-001;-1.140600964426994E-001;-1.212764182128012E-003;-1.808993169106543E-003;
2.425166666666667E+009;1.561121791601181E-001;-1.147328317165375E-001;-1.153949764557183E-003;-1.465377747081220E-003;
2.425333333333334E+009;1.567262560129166E-001;-1.152207031846046E-001;-1.045315992087126E-003;-1.337968860752881E-003;
2.425500000000000E+009;1.571559458971024E-001;-1.157448664307594E-001;-1.170850475318730E-003;-1.221885206177831E-003;
2.425666666666667E+009;1.572119295597076E-001;-1.161124259233475E-001;-1.011632033623755E-003;-1.178773702122271E-003;
2.425833333333334E+009;1.576325744390488E-001;-1.164534613490105E-001;-1.113648875616491E-003;-1.052762381732464E-003;
2.426000000000000E+009;1.578155905008316E-001;-1.168330162763596E-001;-1.174218952655792E-003;-9.035378461703658E-004;
2.426166666666667E+009;1.581255346536636E-001;-1.169551163911820E-001;-1.187911489978433E-003;-9.742999100126326E-004;
2.426333333333334E+009;1.579799056053162E-001;-1.170940175652504E-001;-1.065540011040866E-003;-9.231147123500705E-004;
2.426500000000000E+009;1.580415368080139E-001;-1.171041503548622E-001;-9.644187521189451E-004;-8.216559072025120E-004;
2.426666666666667E+009;1.578317880630493E-001;-1.169947981834412E-001;-8.011890458874404E-004;-7.905073580332100E-004;
2.426833333333334E+009;1.574526131153107E-001;-1.171416342258453E-001;-7.972976309247315E-004;-9.187138639390469E-004;
2.427000000000000E+009;1.570390611886978E-001;-1.171984523534775E-001;-7.928294944576919E-004;-7.549736765213311E-004;
2.427166666666667E+009;1.565407812595367E-001;-1.171367615461350E-001;-7.559222867712379E-004;-8.877639193087816E-004;
2.427333333333334E+009;1.558639705181122E-001;-1.169693693518639E-001;-5.923584685660899E-004;-7.671281928196549E-004;
2.427500000000000E+009;1.553212255239487E-001;-1.170797869563103E-001;-6.074289558455348E-004;-6.248917779885232E-004;
2.427666666666667E+009;1.543265581130981E-001;-1.171086952090263E-001;-5.708552780561149E-004;-6.631303695030510E-004;
