# Version 1.00
#
freq[Hz];re:Trc1_S11;im:Trc1_S11;re:Trc2_S21;im:Trc2_S21;
2.400000000000000E+009;1.549065560102463E-001;1.116328388452530E-001;1.533968606963754E-003;6.359911058098078E-003;
2.400166666666667E+009;1.544476896524429E-001;1.094198897480965E-001;1.854365225881338E-003;6.297194864600897E-003;
2.400333333333334E+009;1.542481333017349E-001;1.071336120367050E-001;2.018868690356612E-003;6.521782837808132E-003;
2.400500000000000E+009;1.539263576269150E-001;1.043768599629402E-001;2.253376180306077E-003;6.358541548252106E-003;
2.400666666666667E+009;1.538243889808655E-001;1.020886898040772E-001;2.552555641159415E-003;6.352723110467196E-003;
2.400833333333334E+009;1.534644514322281E-001;9.911087155342102E-002;2.742052543908358E-003;6.396912503987551E-003;
2.401000000000000E+009;1.535133570432663E-001;9.637426584959030E-002;2.922273008152843E-003;6.236064713448286E-003;
2.401166666666667E+009;1.533764600753784E-001;9.339774399995804E-002;3.390975762158632E-003;6.024343427270651E-003;
2.401333333333334E+009;1.534571200609207E-001;9.042313694953919E-002;3.605408361181617E-003;6.053738296031952E-003;
2.401500000000000E+009;1.536413580179215E-001;8.751508593559265E-002;3.632435342296958E-003;6.007179617881775E-003;
2.401666666666667E+009;1.539046764373779E-001;8.456024527549744E-002;3.907294012606144E-003;5.881242919713259E-003;
2.401833333333334E+009;1.543692946434021E-001;8.158864080905914E-002;4.191250540316105E-003;5.794743541628122E-003;
2.402000000000000E+009;1.548603475093842E-001;7.860229909420013E-002;4.218073561787605E-003;5.635284818708897E-003;
2.402166666666667E+009;1.558010876178742E-001;7.604748010635376E-002;4.650871269404888E-003;5.712210200726986E-003;
2.402333333333334E+009;1.563961654901505E-001;7.295460253953934E-002;5.036275368183851E-003;5.475752521306276E-003;
2.402500000000000E+009;1.575567126274109E-001;7.005150616168976E-002;5.087120458483696E-003;5.476400256156921E-003;
2.402666666666667E+009;1.586373001337051E-001;6.745014339685440E-002;5.229773465543985E-003;5.354456137865782E-003;
2.402833333333334E+009;1.599525809288025E-001;6.469527631998062E-002;5.659650079905987E-003;5.201422143727541E-003;
2.403000000000000E+009;1.612174063920975E-001;6.203512847423554E-002;5.881080869585276E-003;4.962479230016470E-003;
2.403166666666667E+009;1.630654633045197E-001;5.959989875555039E-002;5.999598652124405E-003;4.764439538121223E-003;
2.403333333333334E+009;1.644649058580399E-001;5.726699531078339E-002;6.388289388269186E-003;4.409189336001873E-003;
2.403500000000000E+009;1.662718355655670E-001;5.496690049767494E-002;6.631272379308939E-003;4.223254509270191E-003;
2.403666666666667E+009;1.680074930191040E-001;5.270714685320854E-002;6.820681039243937E-003;4.008633550256491E-003;
2.403833333333334E+009;1.697640419006348E-001;5.053976178169251E-002;7.140305824577808E-003;3.632506122812629E-003;
2.404000000000000E+009;1.714122742414475E-001;4.870638251304627E-002;7.373156957328320E-003;3.215647535398603E-003;
2.404166666666667E+009;1.734535992145538E-001;4.687771201133728E-002;7.611854933202267E-003;3.135268576443195E-003;
2.404333333333334E+009;1.752170026302338E-001;4.525990039110184E-002;7.828454487025738E-003;2.452144864946604E-003;
2.404500000000000E+009;1.770924478769302E-001;4.376969859004021E-002;7.892577908933163E-003;2.031668322160840E-003;
2.404666666666667E+009;1.789224445819855E-001;4.248380288481712E-002;7.948040962219238E-003;1.711492310278118E-003;
2.404833333333334E+009;1.808548420667648E-001;4.133348912000656E-002;7.992803119122982E-003;1.241621677763760E-003;
2.405000000000000E+009;1.824101954698563E-001;4.034928977489471E-002;7.993400096893311E-003;8.693946874700487E-004;
2.405166666666667E+009;1.840078532695770E-001;3.957463428378105E-002;7.925344631075859E-003;5.047309678047895E-004;
2.405333333333334E+009;1.859240382909775E-001;3.891749680042267E-002;8.016533218324184E-003;1.012672655633651E-004;
2.405500000000000E+009;1.875130832195282E-001;3.836098313331604E-002;7.831132039427757E-003;-3.398353292141110E-004;
2.405666666666667E+009;1.888658851385117E-001;3.801889345049858E-002;7.674260530620813E-003;-6.077486905269325E-004;
2.405833333333334E+009;1.905236393213272E-001;3.786575421690941E-002;7.697451859712601E-003;-9.380555711686611E-004;
2.406000000000000E+009;1.918866783380508E-001;3.761033341288567E-002;7.600439246743918E-003;-1.280120806768537E-003;
2.406166666666667E+009;1.932249963283539E-001;3.752999752759934E-002;7.206195034086704E-003;-1.544980099424720E-003;
2.406333333333334E+009;1.943981796503067E-001;3.767167031764984E-002;7.155170664191246E-003;-1.873054308816791E-003;
2.406500000000000E+009;1.953851282596588E-001;3.775488585233688E-002;6.946369539946318E-003;-2.137709874659777E-003;
2.406666666666667E+009;1.961724162101746E-001;3.800548985600472E-002;6.812606006860733E-003;-2.366325119510293E-003;
2.406833333333334E+009;1.970682144165039E-001;3.810938820242882E-002;6.601707544177771E-003;-2.644906751811504E-003;
2.407000000000000E+009;1.975897252559662E-001;3.860110044479370E-002;6.390971131622791E-003;-2.815368585288525E-003;
2.407166666666667E+009;1.981409788131714E-001;3.870286792516708E-002;6.235525012016296E-003;-3.201059298589826E-003;
2.407333333333334E+009;1.982784420251846E-001;3.899021074175835E-002;5.942129530012608E-003;-3.358457935974002E-003;
2.407500000000000E+009;1.983566880226135E-001;3.940911963582039E-002;5.681549664586783E-003;-3.321550786495209E-003;
2.407666666666667E+009;1.986385732889175E-001;3.961912170052528E-002;5.439168773591518E-003;-3.519981168210506E-003;
2.407833333333334E+009;1.984208673238754E-001;3.989690914750099E-002;5.419188179075718E-003;-3.622281830757856E-003;
2.408000000000000E+009;1.983929872512817E-001;4.004470631480217E-002;5.085756070911884E-003;-3.832647111266851E-003;
2.408166666666667E+009;1.979176253080368E-001;3.991379216313362E-002;4.950141068547964E-003;-3.987902775406838E-003;
2.408333333333334E+009;1.973798424005508E-001;3.973354771733284E-002;4.702988080680370E-003;-4.019613377749920E-003;
2.408500000000000E+009;1.967611163854599E-001;3.980795294046402E-002;4.605810157954693E-003;-3.999346867203713E-003;
2.408666666666667E+009;1.962089538574219E-001;3.953614458441734E-002;4.184887278825045E-003;-4.239206202328205E-003;
2.408833333333334E+009;1.953722536563873E-001;3.913197293877602E-002;3.999299369752407E-003;-4.287471529096365E-003;
2.409000000000000E+009;1.944345980882645E-001;3.844958171248436E-002;3.796507837250829E-003;-4.312884062528610E-003;
2.409166666666667E+009;1.934240162372589E-001;3.789603337645531E-002;3.623471828177571E-003;-4.248055629432201E-003;
2.409333333333334E+009;1.924905329942703E-001;3.710995614528656E-002;3.355542663484812E-003;-4.170336294919252E-003;
2.409500000000000E+009;1.911200433969498E-001;3.624977543950081E-002;3.225695108994842E-003;-4.319818224757910E-003;
2.409666666666667E+009;1.900065094232559E-001;3.489050269126892E-002;2.985320752486587E-003;-4.243595525622368E-003;
2.409833333333334E+009;1.888172328472138E-001;3.376660123467445E-002;2.836586441844702E-003;-4.250098019838333E-003;
2.410000000000000E+009;1.877441555261612E-001;3.221619874238968E-002;2.774056745693088E-003;-4.085201304405928E-003;
2.410166666666667E+009;1.863847821950913E-001;3.060214780271053E-002;2.603580243885517E-003;-4.181739408522844E-003;
2.410333333333334E+009;1.853567063808441E-001;2.901397645473480E-002;2.503115916624665E-003;-4.065263550728560E-003;
2.410500000000000E+009;1.839308440685272E-001;2.725628949701786E-002;2.481236588209868E-003;-3.917564637959003E-003;
2.410666666666667E+009;1.827705353498459E-001;2.504872716963291E-002;2.341605955734849E-003;-3.897733520716429E-003;
2.410833333333334E+009;1.819019168615341E-001;2.290510199964047E-002;2.259345026686788E-003;-3.755059558898211E-003;
2.411000000000000E+009;1.808221936225891E-001;2.089584618806839E-002;2.316881204023957E-003;-3.757377620786429E-003;
2.411166666666667E+009;1.800576448440552E-001;1.865699887275696E-002;2.240031026303768E-003;-3.821635385975242E-003;
2.411333333333334E+009;1.792399436235428E-001;1.605935581028462E-002;2.094180090352893E-003;-3.842540550976992E-003;
2.411500000000000E+009;1.786568909883499E-001;1.361103914678097E-002;1.969021977856755E-003;-3.729053540155292E-003;
2.411666666666667E+009;1.781861633062363E-001;1.122537814080715E-002;1.985785784199834E-003;-3.853085217997432E-003;
2.411833333333334E+009;1.776001155376434E-001;8.675982244312763E-003;1.973450183868408E-003;-3.845798550173640E-003;
2.412000000000000E+009;1.776296198368073E-001;5.954524502158165E-003;1.858861069194973E-003;-3.725196467712522E-003;
2.412166666666667E+009;1.775487363338471E-001;3.526581684127450E-003;1.740508363582194E-003;-3.652282990515232E-003;
2.412333333333334E+009;1.775469481945038E-001;9.336502407677472E-004;1.943194540217519E-003;-3.593598259612918E-003;
2.412500000000000E+009;1.778323799371719E-001;-1.727783004753292E-003;1.873379806056619E-003;-3.768598195165396E-003;
2.412666666666667E+009;1.783163696527481E-001;-4.472401458770037E-003;1.720930798910558E-003;-3.711655503138900E-003;
2.412833333333334E+009;1.789553165435791E-001;-7.023955229669809E-003;1.894421060569584E-003;-3.834591014310718E-003;
2.413000000000000E+009;1.794167459011078E-001;-9.733441285789013E-003;1.778234960511327E-003;-3.604354336857796E-003;
2.413166666666667E+009;1.800652295351028E-001;-1.218419335782528E-002;1.823513885028660E-003;-3.982818685472012E-003;
2.413333333333334E+009;1.812113076448441E-001;-1.478283479809761E-002;1.969025703147054E-003;-3.849137807264924E-003;
2.413500000000000E+009;1.820770204067230E-001;-1.724066399037838E-002;1.819583587348461E-003;-4.115892574191093E-003;
2.413666666666667E+009;1.832361519336700E-001;-1.957983523607254E-002;2.021268708631396E-003;-4.104693885892630E-003;
2.413833333333334E+009;1.845599114894867E-001;-2.188869379460812E-002;1.788837951608002E-003;-4.326183348894119E-003;
2.414000000000000E+009;1.856349557638168E-001;-2.407238259911537E-002;1.940245740115643E-003;-4.421380348503590E-003;
2.414166666666667E+009;1.870422512292862E-001;-2.617331221699715E-002;1.714268582873046E-003;-4.599398933351040E-003;
2.414333333333334E+009;1.880654394626617E-001;-2.851536683738232E-002;1.562781399115920E-003;-4.594759084284306E-003;
2.414500000000000E+009;1.896895319223404E-001;-3.006376884877682E-002;1.475229975767434E-003;-4.777758382260799E-003;
2.414666666666667E+009;1.910509616136551E-001;-3.190284967422485E-002;1.375688938423991E-003;-5.026364233344793E-003;
2.414833333333334E+009;1.923287808895111E-001;-3.330007940530777E-002;1.326950034126639E-003;-5.058970768004656E-003;
2.415000000000000E+009;1.936101764440537E-001;-3.487080708146095E-002;1.130228047259152E-003;-5.359475035220385E-003;
2.415166666666667E+009;1.952641308307648E-001;-3.638710081577301E-002;8.491287590004504E-004;-5.273596849292517E-003;
2.415333333333334E+009;1.965942978858948E-001;-3.738162666559219E-002;6.421394064091146E-004;-5.569499451667070E-003;
2.415500000000000E+009;1.979737132787705E-001;-3.827023133635521E-002;5.262062768451870E-004;-5.780898965895176E-003;
2.415666666666667E+009;1.992494016885757E-001;-3.926401212811470E-002;3.685614210553467E-004;-5.712687503546476E-003;
2.415833333333334E+009;2.003691643476486E-001;-3.990921750664711E-002;1.045180033543147E-004;-5.849852226674557E-003;
2.416000000000000E+009;2.015095949172974E-001;-4.059612378478050E-002;7.216178801172646E-006;-5.924308672547340E-003;
2.416166666666667E+009;2.025478333234787E-001;-4.127746447920799E-002;-2.497366804163903E-004;-5.878770723938942E-003;
2.416333333333334E+009;2.034523934125900E-001;-4.157194122672081E-002;-6.176824681460857E-004;-5.905098281800747E-003;
2.416500000000000E+009;2.042508870363236E-001;-4.183973371982575E-002;-7.450544508174062E-004;-5.957815330475569E-003;
2.416666666666667E+009;2.046642750501633E-001;-4.225122928619385E-002;-1.215340103954077E-003;-5.901593714952469E-003;
2.416833333333334E+009;2.052173316478729E-001;-4.228329658508301E-002;-1.409953925758600E-003;-6.023534107953310E-003;
2.417000000000000E+009;2.057778537273407E-001;-4.230416938662529E-002;-1.596023794263601E-003;-5.916183348745108E-003;
2.417166666666667E+009;2.056437432765961E-001;-4.212438315153122E-002;-2.038627164438367E-003;-5.895700305700302E-003;
2.417333333333334E+009;2.056357413530350E-001;-4.194096103310585E-002;-2.202989533543587E-003;-5.771583877503872E-003;
2.417500000000000E+009;2.056321948766708E-001;-4.182178899645805E-002;-2.377848373726010E-003;-5.572712980210781E-003;
2.417666666666667E+009;2.053326368331909E-001;-4.143428802490234E-002;-2.644246676936746E-003;-5.380684509873390E-003;
2.417833333333334E+009;2.051375210285187E-001;-4.105585068464279E-002;-2.619676524773240E-003;-5.366454832255840E-003;
2.418000000000000E+009;2.047117054462433E-001;-4.066552221775055E-002;-2.890972886234522E-003;-5.303639452904463E-003;
2.418166666666667E+009;2.039737701416016E-001;-4.053774848580360E-002;-3.165360074490309E-003;-5.201617255806923E-003;
2.418333333333334E+009;2.031292468309403E-001;-4.013666510581970E-002;-3.172893309965730E-003;-4.937142133712769E-003;
2.418500000000000E+009;2.023503333330154E-001;-3.983582556247711E-002;-3.417125437408686E-003;-4.939593374729157E-003;
2.418666666666667E+009;2.013891041278839E-001;-3.963385894894600E-002;-3.579198615625501E-003;-4.905408713966608E-003;
2.418833333333334E+009;2.002236247062683E-001;-3.946050629019737E-002;-3.659202717244625E-003;-4.728289321064949E-003;
2.419000000000000E+009;1.990337073802948E-001;-3.943247720599175E-002;-3.827552078291774E-003;-4.721377510577440E-003;
2.419166666666667E+009;1.977326571941376E-001;-3.963152319192886E-002;-3.954816143959761E-003;-4.703446291387081E-003;
2.419333333333334E+009;1.962858140468597E-001;-3.986473754048348E-002;-4.112018737941980E-003;-4.440241493284702E-003;
2.419500000000000E+009;1.948638558387756E-001;-4.015827924013138E-002;-4.423167556524277E-003;-4.281007219105959E-003;
2.419666666666667E+009;1.931973844766617E-001;-4.058117792010307E-002;-4.488714970648289E-003;-4.338592756539583E-003;
2.419833333333334E+009;1.915245205163956E-001;-4.121377691626549E-002;-4.630681127309799E-003;-4.055345430970192E-003;
2.420000000000000E+009;1.897927522659302E-001;-4.187059774994850E-002;-4.871864803135395E-003;-4.080412909388542E-003;
2.420166666666667E+009;1.879484951496124E-001;-4.264320060610771E-002;-5.019383970648050E-003;-3.804052481427789E-003;
2.420333333333334E+009;1.860674321651459E-001;-4.384338483214378E-002;-5.261834245175123E-003;-3.653683001175523E-003;
2.420500000000000E+009;1.841792762279511E-001;-4.490436986088753E-002;-5.283016245812178E-003;-3.352300031110644E-003;
2.420666666666667E+009;1.823661625385284E-001;-4.608251899480820E-002;-5.575464572757483E-003;-3.216776298359036E-003;
2.420833333333334E+009;1.805934309959412E-001;-4.744681715965271E-002;-5.686437711119652E-003;-2.980559132993221E-003;
2.421000000000000E+009;1.790578216314316E-001;-4.903945699334145E-002;-5.737962201237679E-003;-2.700145356357098E-003;
2.421166666666667E+009;1.772183179855347E-001;-5.051409825682640E-002;-5.820374470204115E-003;-2.437216462567449E-003;
2.421333333333334E+009;1.752836555242539E-001;-5.228396877646446E-002;-5.851692520081997E-003;-2.287711948156357E-003;
2.421500000000000E+009;1.739480644464493E-001;-5.407850444316864E-002;-5.943734664469957E-003;-2.248326549306512E-003;
2.421666666666667E+009;1.724108308553696E-001;-5.602256953716278E-002;-5.815041251480579E-003;-1.750343362800777E-003;
2.421833333333334E+009;1.709852218627930E-001;-5.788664519786835E-002;-5.932542495429516E-003;-1.510874368250370E-003;
2.422000000000000E+009;1.695038527250290E-001;-5.996399000287056E-002;-5.915237125009298E-003;-1.349533325992525E-003;
2.422166666666667E+009;1.683443635702133E-001;-6.213935464620590E-002;-6.019668653607369E-003;-1.197456964291632E-003;
2.422333333333334E+009;1.673302799463272E-001;-6.433828175067902E-002;-5.946238990873098E-003;-8.972379146143794E-004;
2.422500000000000E+009;1.663909852504730E-001;-6.639873236417770E-002;-5.991645622998476E-003;-5.319718620739877E-004;
2.422666666666667E+009;1.655974984169006E-001;-6.856550276279450E-002;-5.810682661831379E-003;-4.063675587531179E-004;
2.422833333333334E+009;1.647922992706299E-001;-7.089899480342865E-002;-5.870243534445763E-003;-2.921516716014594E-004;
2.423000000000000E+009;1.640648245811462E-001;-7.316376268863678E-002;-5.734283477067947E-003;-1.404719387210207E-005;
2.423166666666667E+009;1.636549085378647E-001;-7.532658427953720E-002;-5.738315172493458E-003;4.052284930367023E-005;
2.423333333333334E+009;1.633564978837967E-001;-7.764206081628799E-002;-5.844200495630503E-003;2.541282738093287E-004;
2.423500000000000E+009;1.631267964839935E-001;-7.962991297245026E-002;-5.682072136551142E-003;6.421017460525036E-004;
2.423666666666667E+009;1.630651801824570E-001;-8.183381706476212E-002;-5.484253633767366E-003;6.658322527073324E-004;
2.423833333333334E+009;1.628921777009964E-001;-8.365200459957123E-002;-5.589681677520275E-003;8.565312600694597E-004;
2.424000000000000E+009;1.632017642259598E-001;-8.587148785591126E-002;-5.461668595671654E-003;1.038774615153670E-003;
2.424166666666667E+009;1.631501615047455E-001;-8.764197677373886E-002;-5.476220045238733E-003;1.388423494063318E-003;
2.424333333333334E+009;1.636319756507874E-001;-8.945001661777496E-002;-5.251372233033180E-003;1.395890954881907E-003;
2.424500000000000E+009;1.639654487371445E-001;-9.145367145538330E-002;-5.109241232275963E-003;1.538803451694548E-003;
2.424666666666667E+009;1.643255054950714E-001;-9.303933382034302E-002;-5.186535418033600E-003;1.725412788800895E-003;
2.424833333333334E+009;1.649540513753891E-001;-9.459925442934036E-002;-4.958841484040022E-003;2.009806223213673E-003;
2.425000000000000E+009;1.654730141162872E-001;-9.601129591464996E-002;-4.781873431056738E-003;2.017185790464282E-003;
2.425166666666667E+009;1.659434139728546E-001;-9.721656888723373E-002;-4.717049654573202E-003;2.049391623586416E-003;
2.425333333333334E+009;1.664403080940247E-001;-9.845700114965439E-002;-4.532139282673597E-003;2.254401333630085E-003;
2.425500000000000E+009;1.670289039611816E-001;-9.956607222557068E-002;-4.561813082545996E-003;2.314207376912236E-003;
2.425666666666667E+009;1.676804870367050E-001;-1.002710610628128E-001;-4.431177861988545E-003;2.512864535674453E-003;
2.425833333333334E+009;1.681386381387711E-001;-1.013389751315117E-001;-4.329270217567682E-003;2.445085439831018E-003;
2.426000000000000E+009;1.688863933086395E-001;-1.018902882933617E-001;-4.206384997814894E-003;2.652479335665703E-003;
2.426166666666667E+009;1.695156842470169E-001;-1.025844588875771E-001;-4.027063492685556E-003;2.638041041791439E-003;
2.426333333333334E+009;1.698838621377945E-001;-1.031696349382401E-001;-3.756727091968060E-003;2.741547534242272E-003;
2.426500000000000E+009;1.705077588558197E-001;-1.035109609365463E-001;-3.842350794002414E-003;2.808847464621067E-003;
2.426666666666667E+009;1.709466278553009E-001;-1.038349643349648E-001;-3.790124785155058E-003;2.740483731031418E-003;
2.426833333333334E+009;1.714525073766708E-001;-1.041695475578308E-001;-3.661065828055143E-003;2.835195511579514E-003;
2.427000000000000E+009;1.716888099908829E-001;-1.043226495385170E-001;-3.627729834988713E-003;2.910067792981863E-003;
2.427166666666667E+009;1.718810945749283E-001;-1.043776944279671E-001;-3.657774534076452E-003;3.034996800124645E-003;
2.427333333333334E+009;1.721343994140625E-001;-1.046026423573494E-001;-3.441637149080634E-003;3.147413255646825E-003;
2.427500000000000E+009;1.720716059207916E-001;-1.046459153294563E-001;-3.302239580079913E-003;3.161685774102807E-003;
2.427666666666667E+009;1.718904376029968E-001;-1.045844331383705E-001;-3.222415456548333E-003;3.209312213584781E-003;
