# Version 1.00
#
freq[Hz];re:Trc1_S11;im:Trc1_S11;re:Trc2_S21;im:Trc2_S21;
2.400000000000000E+009;1.550192832946777E-001;1.115786209702492E-001;1.453516888432205E-003;5.992687772959471E-003;
2.400166666666667E+009;1.544073522090912E-001;1.092079058289528E-001;9.160968475043774E-004;6.450515240430832E-003;
2.400333333333334E+009;1.542212069034576E-001;1.071736738085747E-001;2.609966788440943E-003;6.808328442275524E-003;
2.400500000000000E+009;1.537830829620361E-001;1.046880856156349E-001;3.021608106791973E-003;6.053868215531111E-003;
2.400666666666667E+009;1.536897122859955E-001;1.020752638578415E-001;3.175859106704593E-003;5.870072636753321E-003;
2.400833333333334E+009;1.532926112413406E-001;9.923215210437775E-002;3.361454932019115E-003;6.793406326323748E-003;
2.401000000000000E+009;1.536356955766678E-001;9.621123224496841E-002;2.422745106741786E-003;5.744565278291702E-003;
2.401166666666667E+009;1.530938297510147E-001;9.349530935287476E-002;3.346056211739779E-003;6.114361807703972E-003;
2.401333333333334E+009;1.535298675298691E-001;9.056656062602997E-002;3.614696674048901E-003;6.004102062433958E-003;
2.401500000000000E+009;1.537024676799774E-001;8.750431984663010E-002;3.757690778002143E-003;5.943563301116228E-003;
2.401666666666667E+009;1.539669781923294E-001;8.440652489662170E-002;3.863695077598095E-003;5.788018461316824E-003;
2.401833333333334E+009;1.542758047580719E-001;8.159793168306351E-002;4.217420239001513E-003;5.669389851391316E-003;
2.402000000000000E+009;1.551091670989990E-001;7.866010814905167E-002;4.306613933295012E-003;5.619296338409185E-003;
2.402166666666667E+009;1.556757688522339E-001;7.596303522586823E-002;4.581890068948269E-003;5.534165538847446E-003;
2.402333333333334E+009;1.566047072410584E-001;7.278785109519959E-002;4.824877716600895E-003;5.508400034159422E-003;
2.402500000000000E+009;1.575391888618469E-001;7.017927616834641E-002;5.069463513791561E-003;5.410417448729277E-003;
2.402666666666667E+009;1.586602181196213E-001;6.748531013727188E-002;5.399895831942558E-003;5.188375245779753E-003;
2.402833333333334E+009;1.599711924791336E-001;6.480196118354797E-002;5.406988784670830E-003;4.995318595319986E-003;
2.403000000000000E+009;1.612868458032608E-001;6.211952120065689E-002;5.917333066463471E-003;4.877951927483082E-003;
2.403166666666667E+009;1.628420352935791E-001;5.989233031868935E-002;6.065719760954380E-003;4.670588299632072E-003;
2.403333333333334E+009;1.643288880586624E-001;5.727825686335564E-002;6.310553289949894E-003;4.539791494607925E-003;
2.403500000000000E+009;1.661125123500824E-001;5.492496490478516E-002;6.586918607354164E-003;4.407692234963179E-003;
2.403666666666667E+009;1.681749224662781E-001;5.277531221508980E-002;6.891463417559862E-003;4.009136464446783E-003;
2.403833333333334E+009;1.697946935892105E-001;5.064250528812408E-002;7.047271355986595E-003;3.673908533528447E-003;
2.404000000000000E+009;1.715144664049149E-001;4.874685406684876E-002;7.397295907139778E-003;3.314258996397257E-003;
2.404166666666667E+009;1.732743382453919E-001;4.708676040172577E-002;7.488801609724760E-003;3.020572476089001E-003;
2.404333333333334E+009;1.752362400293350E-001;4.520090669393539E-002;7.878730073571205E-003;2.477611415088177E-003;
2.404500000000000E+009;1.769672930240631E-001;4.360562935471535E-002;7.765322923660278E-003;2.265931339934468E-003;
2.404666666666667E+009;1.790294647216797E-001;4.256861284375191E-002;7.907157763838768E-003;1.667749369516969E-003;
2.404833333333334E+009;1.809324771165848E-001;4.130489006638527E-002;7.999770343303680E-003;1.312019769102335E-003;
2.405000000000000E+009;1.823980361223221E-001;4.040614143013954E-002;8.065614849328995E-003;9.043688769452274E-004;
2.405166666666667E+009;1.841009259223938E-001;3.953161835670471E-002;7.925645448267460E-003;6.055673584342003E-004;
2.405333333333334E+009;1.857876926660538E-001;3.897502273321152E-002;7.876988500356674E-003;2.346011897316203E-004;
2.405500000000000E+009;1.874344199895859E-001;3.846631571650505E-002;7.885684259235859E-003;-2.381646918365732E-004;
2.405666666666667E+009;1.889463067054749E-001;3.798911720514298E-002;7.777621038258076E-003;-5.947651225142181E-004;
2.405833333333334E+009;1.905352324247360E-001;3.770941868424416E-002;7.639272604137659E-003;-8.537989924661815E-004;
2.406000000000000E+009;1.918297708034515E-001;3.778313100337982E-002;7.526165805757046E-003;-1.255863113328815E-003;
2.406166666666667E+009;1.930988430976868E-001;3.758421540260315E-002;7.269519846886396E-003;-1.523241633549333E-003;
2.406333333333334E+009;1.942438185214996E-001;3.776245564222336E-002;7.325254380702972E-003;-1.752299140207470E-003;
2.406500000000000E+009;1.953418701887131E-001;3.784247115254402E-002;7.141931913793087E-003;-2.052494557574391E-003;
2.406666666666667E+009;1.962577700614929E-001;3.797147795557976E-002;6.798075046390295E-003;-2.459842478856444E-003;
2.406833333333334E+009;1.970936954021454E-001;3.831973299384117E-002;6.498533301055431E-003;-2.523861359804869E-003;
2.407000000000000E+009;1.974681615829468E-001;3.864107653498650E-002;6.291242782026529E-003;-2.923728432506323E-003;
2.407166666666667E+009;1.982768625020981E-001;3.863232955336571E-002;6.131382193416357E-003;-3.115559695288539E-003;
2.407333333333334E+009;1.983801871538162E-001;3.900873288512230E-002;5.928263533860445E-003;-3.254023613408208E-003;
2.407500000000000E+009;1.983998119831085E-001;3.936220332980156E-002;5.699651315808296E-003;-3.346946556121111E-003;
2.407666666666667E+009;1.987336575984955E-001;3.957302868366242E-002;5.498217884451151E-003;-3.513382514938712E-003;
2.407833333333334E+009;1.983259171247482E-001;3.977796807885170E-002;5.208429414778948E-003;-3.632294945418835E-003;
2.408000000000000E+009;1.983300894498825E-001;3.996377065777779E-002;5.136067979037762E-003;-3.820830490440130E-003;
2.408166666666667E+009;1.978557258844376E-001;3.987859934568405E-002;5.111206322908402E-003;-3.904097015038133E-003;
2.408333333333334E+009;1.974543482065201E-001;3.983015194535255E-002;4.764458630234003E-003;-3.963506780564785E-003;
2.408500000000000E+009;1.967936307191849E-001;3.980177268385887E-002;4.572378937155008E-003;-4.077155608683825E-003;
2.408666666666667E+009;1.962003856897354E-001;3.954948484897614E-002;4.301534965634346E-003;-4.038071259856224E-003;
2.408833333333334E+009;1.954222023487091E-001;3.909142315387726E-002;4.031809512525797E-003;-4.276350606232882E-003;
2.409000000000000E+009;1.943244487047195E-001;3.852644190192223E-002;3.889637766405940E-003;-4.221143200993538E-003;
2.409166666666667E+009;1.934177428483963E-001;3.785591572523117E-002;3.610162297263742E-003;-4.120041616261005E-003;
2.409333333333334E+009;1.924538463354111E-001;3.716978058218956E-002;3.359504509717226E-003;-4.340630955994129E-003;
2.409500000000000E+009;1.911484003067017E-001;3.620160743594170E-002;3.261489327996969E-003;-4.205948207527399E-003;
2.409666666666667E+009;1.900881826877594E-001;3.496892005205154E-002;2.994985086843371E-003;-4.165826365351677E-003;
2.409833333333334E+009;1.887465864419937E-001;3.382068872451782E-002;2.800079993903637E-003;-4.067679867148399E-003;
2.410000000000000E+009;1.875989586114883E-001;3.224719315767288E-002;2.741818316280842E-003;-4.067537840455771E-003;
2.410166666666667E+009;1.863691657781601E-001;3.058212436735630E-002;2.614854369312525E-003;-3.984628710895777E-003;
2.410333333333334E+009;1.852622926235199E-001;2.899472042918205E-002;2.555424580350518E-003;-3.935685381293297E-003;
2.410500000000000E+009;1.840189844369888E-001;2.723264880478382E-002;2.310279058292508E-003;-3.972948528826237E-003;
2.410666666666667E+009;1.828641891479492E-001;2.501160651445389E-002;2.324290340766311E-003;-3.732308745384216E-003;
2.410833333333334E+009;1.819183677434921E-001;2.298737131059170E-002;2.334855496883392E-003;-3.924747928977013E-003;
2.411000000000000E+009;1.809962987899780E-001;2.071921154856682E-002;2.199351787567139E-003;-3.931138664484024E-003;
2.411166666666667E+009;1.799805313348770E-001;1.868195086717606E-002;2.154471818357706E-003;-3.765064058825374E-003;
2.411333333333334E+009;1.793262958526611E-001;1.594332046806812E-002;2.142619574442506E-003;-3.776840865612030E-003;
2.411500000000000E+009;1.786783933639526E-001;1.376241166144610E-002;2.105168299749494E-003;-3.836623160168529E-003;
2.411666666666667E+009;1.781936436891556E-001;1.137993577867746E-002;2.071103081107140E-003;-3.823680337518454E-003;
2.411833333333334E+009;1.776296347379684E-001;8.786024525761604E-003;1.911008264869452E-003;-3.882230957970023E-003;
2.412000000000000E+009;1.777989268302918E-001;6.249909754842520E-003;1.934308675117791E-003;-3.819939214736223E-003;
2.412166666666667E+009;1.776653379201889E-001;3.631632775068283E-003;1.869306201115251E-003;-3.702006069943309E-003;
2.412333333333334E+009;1.775520890951157E-001;8.768825791776180E-004;1.810493064112961E-003;-3.781479317694902E-003;
2.412500000000000E+009;1.780076920986176E-001;-1.805776730179787E-003;1.755929202772677E-003;-3.780932165682316E-003;
2.412666666666667E+009;1.782415509223938E-001;-4.534673877060413E-003;1.833090791478753E-003;-3.723369678482413E-003;
2.412833333333334E+009;1.788584887981415E-001;-7.091355044394732E-003;1.857428578659892E-003;-3.781662555411458E-003;
2.413000000000000E+009;1.795557737350464E-001;-9.674842469394207E-003;1.906309509649873E-003;-3.868958912789822E-003;
2.413166666666667E+009;1.801903545856476E-001;-1.209958177059889E-002;1.979705411940813E-003;-3.795359050855041E-003;
2.413333333333334E+009;1.811199784278870E-001;-1.475427858531475E-002;1.876567490398884E-003;-3.814864205196500E-003;
2.413500000000000E+009;1.821351498365402E-001;-1.725652627646923E-002;1.769170281477273E-003;-3.886476159095764E-003;
2.413666666666667E+009;1.833873093128204E-001;-1.971771754324436E-002;1.773206517100334E-003;-4.043780732899904E-003;
2.413833333333334E+009;1.845925003290176E-001;-2.197333984076977E-002;1.868753228336573E-003;-4.205495119094849E-003;
2.414000000000000E+009;1.857420206069946E-001;-2.430978789925575E-002;1.664601033553481E-003;-4.301939625293016E-003;
2.414166666666667E+009;1.870277523994446E-001;-2.621970884501934E-002;1.694596721790731E-003;-4.588420502841473E-003;
2.414333333333334E+009;1.882765740156174E-001;-2.848300896584988E-002;1.622374635189772E-003;-4.628148861229420E-003;
2.414500000000000E+009;1.897929906845093E-001;-3.001558408141136E-002;1.545855426229537E-003;-4.799742251634598E-003;
2.414666666666667E+009;1.911354064941406E-001;-3.192928433418274E-002;1.496876007877290E-003;-4.946026485413313E-003;
2.414833333333334E+009;1.923795938491821E-001;-3.342637047171593E-002;1.451753312721849E-003;-5.072858650237322E-003;
2.415000000000000E+009;1.937419623136520E-001;-3.501342609524727E-002;1.036118716001511E-003;-5.155556835234165E-003;
2.415166666666667E+009;1.951768696308136E-001;-3.624168038368225E-002;1.107311807572842E-003;-5.342432763427496E-003;
2.415333333333334E+009;1.966068595647812E-001;-3.727982938289642E-002;6.650055875070393E-004;-5.516323260962963E-003;
2.415500000000000E+009;1.980668753385544E-001;-3.826736286282539E-002;4.968408611603081E-004;-5.634102504700422E-003;
2.415666666666667E+009;1.993666142225266E-001;-3.924153372645378E-002;3.279979282524437E-004;-5.633777938783169E-003;
2.415833333333334E+009;2.003992348909378E-001;-4.001035168766975E-002;2.762700023595244E-004;-5.810268688946962E-003;
2.416000000000000E+009;2.014958113431931E-001;-4.060473293066025E-002;-2.658193261595443E-005;-5.844538565725088E-003;
2.416166666666667E+009;2.025741934776306E-001;-4.116768017411232E-002;-4.046093963552266E-004;-5.876857321709395E-003;
2.416333333333334E+009;2.034416794776917E-001;-4.167885333299637E-002;-5.364164826460183E-004;-5.990155041217804E-003;
2.416500000000000E+009;2.042590826749802E-001;-4.195678979158402E-002;-9.911273373290896E-004;-6.024685688316822E-003;
2.416666666666667E+009;2.048575878143311E-001;-4.229854792356491E-002;-1.243674661964178E-003;-5.922952666878700E-003;
2.416833333333334E+009;2.052942812442780E-001;-4.231208562850952E-002;-1.443260349333286E-003;-5.953562445938587E-003;
2.417000000000000E+009;2.056639939546585E-001;-4.225865378975868E-002;-1.582652796059847E-003;-5.930445622652769E-003;
2.417166666666667E+009;2.056995481252670E-001;-4.222700372338295E-002;-1.879401621408761E-003;-5.839453078806400E-003;
2.417333333333334E+009;2.056614309549332E-001;-4.192792251706123E-002;-2.196031855419278E-003;-5.830366630107164E-003;
2.417500000000000E+009;2.055616825819016E-001;-4.185565933585167E-002;-2.517024986445904E-003;-5.677489098161459E-003;
2.417666666666667E+009;2.052677869796753E-001;-4.148771613836289E-002;-2.598916413262487E-003;-5.609828978776932E-003;
2.417833333333334E+009;2.049359083175659E-001;-4.112589359283447E-002;-2.737759146839380E-003;-5.507514346390963E-003;
2.418000000000000E+009;2.046193182468414E-001;-4.073895886540413E-002;-2.910893876105547E-003;-5.270794034004211E-003;
2.418166666666667E+009;2.038877606391907E-001;-4.038685560226440E-002;-3.075226210057735E-003;-5.187675356864929E-003;
2.418333333333334E+009;2.031213790178299E-001;-4.013623669743538E-002;-3.256452037021518E-003;-5.166437476873398E-003;
2.418500000000000E+009;2.023258060216904E-001;-3.993677720427513E-002;-3.374060383066535E-003;-5.025969818234444E-003;
2.418666666666667E+009;2.014343291521072E-001;-3.960509225726128E-002;-3.461806569248438E-003;-4.900923930108547E-003;
2.418833333333334E+009;2.002684921026230E-001;-3.965600579977036E-002;-3.762124571949244E-003;-4.829536192119122E-003;
2.419000000000000E+009;1.988988071680069E-001;-3.952630981802940E-002;-3.810102818533778E-003;-4.650189075618982E-003;
2.419166666666667E+009;1.977323293685913E-001;-3.965969756245613E-002;-4.047832451760769E-003;-4.682502709329128E-003;
2.419333333333334E+009;1.963376998901367E-001;-3.990589827299118E-002;-4.172163549810648E-003;-4.502026364207268E-003;
2.419500000000000E+009;1.947668045759201E-001;-4.022084549069405E-002;-4.324841313064098E-003;-4.426982719451189E-003;
2.419666666666667E+009;1.930381655693054E-001;-4.078690707683563E-002;-4.631800577044487E-003;-4.391417838633061E-003;
2.419833333333334E+009;1.914102435112000E-001;-4.120040684938431E-002;-4.690180998295546E-003;-4.144787322729826E-003;
2.420000000000000E+009;1.896259188652039E-001;-4.191318899393082E-002;-4.804036114364862E-003;-4.086446948349476E-003;
2.420166666666667E+009;1.879712194204330E-001;-4.273479431867600E-002;-5.033001769334078E-003;-3.920895978808403E-003;
2.420333333333334E+009;1.860756576061249E-001;-4.380217567086220E-002;-5.212137941271067E-003;-3.763941815122962E-003;
2.420500000000000E+009;1.842109113931656E-001;-4.498704522848129E-002;-5.379867274314165E-003;-3.479490289464593E-003;
2.420666666666667E+009;1.823264807462692E-001;-4.615361243486404E-002;-5.523366387933493E-003;-3.224169369786978E-003;
2.420833333333334E+009;1.806294769048691E-001;-4.754005745053291E-002;-5.738753359764814E-003;-3.017663257196546E-003;
2.421000000000000E+009;1.789219230413437E-001;-4.888834431767464E-002;-5.802368745207787E-003;-2.813497791066766E-003;
2.421166666666667E+009;1.771709471940994E-001;-5.057145655155182E-002;-5.778551567345858E-003;-2.499467227607966E-003;
2.421333333333334E+009;1.753771007061005E-001;-5.222107097506523E-002;-5.823854822665453E-003;-2.348004840314388E-003;
2.421500000000000E+009;1.738420724868774E-001;-5.413232371211052E-002;-5.949515383690596E-003;-2.122196601703763E-003;
2.421666666666667E+009;1.723555922508240E-001;-5.603804066777229E-002;-6.046847905963659E-003;-1.897186390124261E-003;
2.421833333333334E+009;1.710064411163330E-001;-5.792733281850815E-002;-5.963298026472330E-003;-1.622210256755352E-003;
2.422000000000000E+009;1.694333255290985E-001;-5.991585925221443E-002;-6.100255530327559E-003;-1.435682410374284E-003;
2.422166666666667E+009;1.684324592351914E-001;-6.223342567682266E-002;-6.026297807693481E-003;-1.234599621966481E-003;
2.422333333333334E+009;1.673006266355515E-001;-6.432860344648361E-002;-6.028987932950258E-003;-9.719154913909733E-004;
2.422500000000000E+009;1.662777811288834E-001;-6.638313829898834E-002;-5.995184648782015E-003;-7.309667998924851E-004;
2.422666666666667E+009;1.653798520565033E-001;-6.869271397590637E-002;-5.851139314472675E-003;-6.205020472407341E-004;
2.422833333333334E+009;1.649108082056046E-001;-7.098099589347839E-002;-5.953905638307333E-003;-2.666779328137636E-004;
2.423000000000000E+009;1.640884876251221E-001;-7.315285503864288E-002;-5.876938812434673E-003;-1.601507683517411E-004;
2.423166666666667E+009;1.635315567255020E-001;-7.539257407188416E-002;-5.902182310819626E-003;9.377041715197265E-005;
2.423333333333334E+009;1.634036749601364E-001;-7.758832722902298E-002;-5.819091573357582E-003;2.162490127375349E-004;
2.423500000000000E+009;1.631221771240234E-001;-7.963487505912781E-002;-5.769851617515087E-003;4.294037353247404E-004;
2.423666666666667E+009;1.630510687828064E-001;-8.183195441961289E-002;-5.696688313037157E-003;6.847846671007574E-004;
2.423833333333334E+009;1.629428267478943E-001;-8.376875519752502E-002;-5.466246511787176E-003;8.763532969169319E-004;
2.424000000000000E+009;1.631301790475845E-001;-8.585462719202042E-002;-5.627053324133158E-003;1.047461410053074E-003;
2.424166666666667E+009;1.632086485624313E-001;-8.758208900690079E-002;-5.522132385522127E-003;1.177579630166292E-003;
2.424333333333334E+009;1.635890305042267E-001;-8.945683389902115E-002;-5.330715794116259E-003;1.457914011552930E-003;
2.424500000000000E+009;1.638970077037811E-001;-9.136873483657837E-002;-5.208872724324465E-003;1.633493346162140E-003;
2.424666666666667E+009;1.642993092536926E-001;-9.300195425748825E-002;-5.235532298684120E-003;1.830032560974360E-003;
2.424833333333334E+009;1.648962348699570E-001;-9.464830905199051E-002;-5.077773705124855E-003;1.730308402329683E-003;
2.425000000000000E+009;1.654790937900543E-001;-9.603252261877060E-002;-4.910735413432121E-003;1.980250002816320E-003;
2.425166666666667E+009;1.658150255680084E-001;-9.727151691913605E-002;-4.809543490409851E-003;2.098312368616462E-003;
2.425333333333334E+009;1.664398312568665E-001;-9.839212149381638E-002;-4.611340351402760E-003;2.276049461215735E-003;
2.425500000000000E+009;1.670130342245102E-001;-9.960444271564484E-002;-4.561179783195257E-003;2.470497507601976E-003;
2.425666666666667E+009;1.676055490970612E-001;-1.004254445433617E-001;-4.444874357432127E-003;2.537148073315620E-003;
2.425833333333334E+009;1.680966317653656E-001;-1.012798622250557E-001;-4.282911773771048E-003;2.500351751223207E-003;
2.426000000000000E+009;1.688166707754135E-001;-1.018302589654923E-001;-4.211876541376114E-003;2.599674277007580E-003;
2.426166666666667E+009;1.694155633449554E-001;-1.025084480643272E-001;-3.954339772462845E-003;2.552219899371266E-003;
2.426333333333334E+009;1.697626411914825E-001;-1.031118407845497E-001;-3.956376574933529E-003;2.696786541491747E-003;
2.426500000000000E+009;1.703995466232300E-001;-1.033427342772484E-001;-3.880949923768640E-003;2.837153151631355E-003;
2.426666666666667E+009;1.708649396896362E-001;-1.038853079080582E-001;-3.780522150918841E-003;2.823445713147521E-003;
2.426833333333334E+009;1.712982356548309E-001;-1.041309237480164E-001;-3.657803172245622E-003;2.841114299371839E-003;
2.427000000000000E+009;1.715921610593796E-001;-1.043025404214859E-001;-3.703384660184383E-003;2.965553663671017E-003;
2.427166666666667E+009;1.718000620603561E-001;-1.043610498309135E-001;-3.441056236624718E-003;2.988876542076469E-003;
2.427333333333334E+009;1.719691753387451E-001;-1.045058369636536E-001;-3.530105808749795E-003;3.115001833066344E-003;
2.427500000000000E+009;1.719639748334885E-001;-1.045797690749168E-001;-3.454464022070169E-003;3.155160695314407E-003;
2.427666666666667E+009;1.719485372304916E-001;-1.046604737639427E-001;-3.358570393174887E-003;3.290511434897780E-003;
