# Version 1.00
#
freq[Hz];re:Trc1_S11;im:Trc1_S11;re:Trc2_S21;im:Trc2_S21;
2.400000000000000E+009;1.687763780355454E-001;4.689363762736321E-002;-1.120973378419876E-003;2.717661671340466E-003;
2.400166666666667E+009;1.698194742202759E-001;4.600291699171066E-002;-1.352670718915761E-003;2.601153217256069E-003;
2.400333333333334E+009;1.705602556467056E-001;4.486614838242531E-002;-1.311339205130935E-003;2.401664620265365E-003;
2.400500000000000E+009;1.715977787971497E-001;4.400802403688431E-002;-1.360264024697244E-003;2.267926232889295E-003;
2.400666666666667E+009;1.723192632198334E-001;4.286641627550125E-002;-1.569651649333537E-003;2.518228022381663E-003;
2.400833333333334E+009;1.732925027608872E-001;4.235177114605904E-002;-1.399990054778755E-003;2.556334715336561E-003;
2.401000000000000E+009;1.739986687898636E-001;4.150058701634407E-002;-1.502992236055434E-003;2.462694188579917E-003;
2.401166666666667E+009;1.748095154762268E-001;4.066731035709381E-002;-1.665504183620215E-003;2.571753924712539E-003;
2.401333333333334E+009;1.753829866647720E-001;4.004702344536781E-002;-1.674789818935096E-003;2.702179132029414E-003;
2.401500000000000E+009;1.761451959609985E-001;3.954538702964783E-002;-1.703402958810329E-003;2.910490846261382E-003;
2.401666666666667E+009;1.767215132713318E-001;3.884047269821167E-002;-1.615708693861961E-003;2.994830720126629E-003;
2.401833333333334E+009;1.775157153606415E-001;3.820492327213287E-002;-1.905539305880666E-003;3.062058473005891E-003;
2.402000000000000E+009;1.776123940944672E-001;3.762627393007278E-002;-1.630634767934680E-003;3.234468400478363E-003;
2.402166666666667E+009;1.778680980205536E-001;3.686630353331566E-002;-1.528012449853122E-003;3.308904822915793E-003;
2.402333333333334E+009;1.784299463033676E-001;3.630015626549721E-002;-1.443977700546384E-003;3.362968331202865E-003;
2.402500000000000E+009;1.790102869272232E-001;3.576985746622086E-002;-1.387685886584222E-003;3.601714503020048E-003;
2.402666666666667E+009;1.790960133075714E-001;3.501230105757713E-002;-1.374388812109828E-003;3.392596030607820E-003;
2.402833333333334E+009;1.791262775659561E-001;3.425804153084755E-002;-1.176204415969551E-003;3.797721816226840E-003;
2.403000000000000E+009;1.791724264621735E-001;3.332084044814110E-002;-1.348226098343730E-003;3.798724850639701E-003;
2.403166666666667E+009;1.793476641178131E-001;3.246842697262764E-002;-1.225955667905510E-003;3.912035375833511E-003;
2.403333333333334E+009;1.792706400156021E-001;3.159951791167259E-002;-9.163507493212819E-004;3.913138993084431E-003;
2.403500000000000E+009;1.789511442184448E-001;3.073066473007202E-002;-8.370989235118032E-004;4.108845721930265E-003;
2.403666666666667E+009;1.788174062967300E-001;2.971268258988857E-002;-7.217911770567298E-004;4.121124278753996E-003;
2.403833333333334E+009;1.786182522773743E-001;2.851882763206959E-002;-6.313643534667790E-004;4.219666589051485E-003;
2.404000000000000E+009;1.781795769929886E-001;2.736366540193558E-002;-5.225552013143897E-004;4.196427296847105E-003;
2.404166666666667E+009;1.779263466596603E-001;2.625681273639202E-002;-4.597580118570477E-004;4.304945003241301E-003;
2.404333333333334E+009;1.775213927030563E-001;2.477925643324852E-002;-3.252832393627614E-004;4.421750083565712E-003;
2.404500000000000E+009;1.767237633466721E-001;2.326370403170586E-002;-2.739211777225137E-004;4.804857540875673E-003;
2.404666666666667E+009;1.765225082635880E-001;2.205026149749756E-002;1.027181715471670E-004;4.718802869319916E-003;
2.404833333333334E+009;1.759701967239380E-001;2.041602507233620E-002;6.527220102725551E-005;4.735013004392386E-003;
2.405000000000000E+009;1.755314022302628E-001;1.885406486690044E-002;4.270888166502118E-004;4.750285763293505E-003;
2.405166666666667E+009;1.750991940498352E-001;1.731981150805950E-002;3.465520276222378E-004;4.908701404929161E-003;
2.405333333333334E+009;1.747694313526154E-001;1.569229550659657E-002;6.368137546814978E-004;4.894250072538853E-003;
2.405500000000000E+009;1.742838919162750E-001;1.402999740093947E-002;9.237267076969147E-004;4.892541095614433E-003;
2.405666666666667E+009;1.738002002239227E-001;1.217927038669586E-002;1.174068078398705E-003;5.090360064059496E-003;
2.405833333333334E+009;1.733533293008804E-001;1.045370753854513E-002;1.356231281533837E-003;4.863048903644085E-003;
2.406000000000000E+009;1.732608824968338E-001;8.469603024423122E-003;1.556108007207513E-003;5.080555565655232E-003;
2.406166666666667E+009;1.730630248785019E-001;6.560136564075947E-003;1.831599511206150E-003;4.922517575323582E-003;
2.406333333333334E+009;1.730162352323532E-001;4.694917239248753E-003;1.994945108890533E-003;4.916038364171982E-003;
2.406500000000000E+009;1.727924644947052E-001;2.533543389290571E-003;2.206454752013087E-003;4.776903428137302E-003;
2.406666666666667E+009;1.726247668266296E-001;6.311656907200813E-004;2.555585233494639E-003;4.884409252554178E-003;
2.406833333333334E+009;1.728374511003494E-001;-1.346973585896194E-003;2.879295498132706E-003;4.707810003310442E-003;
2.407000000000000E+009;1.729027181863785E-001;-3.434011247009039E-003;2.960061654448509E-003;4.643291234970093E-003;
2.407166666666667E+009;1.732169389724731E-001;-5.572706460952759E-003;3.318464383482933E-003;4.526059608906508E-003;
2.407333333333334E+009;1.733304709196091E-001;-7.606525439769030E-003;3.515444695949554E-003;4.277674946933985E-003;
2.407500000000000E+009;1.734645217657089E-001;-9.660176932811737E-003;3.883733646944165E-003;4.252399783581495E-003;
2.407666666666667E+009;1.738630682229996E-001;-1.167672500014305E-002;3.941058646887541E-003;3.953328356146812E-003;
2.407833333333334E+009;1.740713268518448E-001;-1.390615385025740E-002;4.170014988631010E-003;3.889274783432484E-003;
2.408000000000000E+009;1.745604723691940E-001;-1.589684747159481E-002;4.399908240884543E-003;3.667751559987664E-003;
2.408166666666667E+009;1.748777329921722E-001;-1.777425594627857E-002;4.408902022987604E-003;3.261134261265397E-003;
2.408333333333334E+009;1.756011694669724E-001;-1.967503316700459E-002;4.547672346234322E-003;2.986914711073041E-003;
2.408500000000000E+009;1.757364869117737E-001;-2.167664468288422E-002;4.719071090221405E-003;2.758933929726481E-003;
2.408666666666667E+009;1.761337071657181E-001;-2.358194068074226E-002;4.734250716865063E-003;2.476463327184320E-003;
2.408833333333334E+009;1.765494495630264E-001;-2.525440044701099E-002;4.874022677540779E-003;2.247835975140333E-003;
2.409000000000000E+009;1.769358366727829E-001;-2.680460363626480E-002;4.901607520878315E-003;1.996916253119707E-003;
2.409166666666667E+009;1.775546222925186E-001;-2.829829417169094E-002;4.804435186088085E-003;1.692220335826278E-003;
2.409333333333334E+009;1.779199689626694E-001;-2.980950288474560E-002;4.772820975631475E-003;1.437080791220069E-003;
2.409500000000000E+009;1.783050149679184E-001;-3.119062818586826E-002;4.788600839674473E-003;1.312614651396871E-003;
2.409666666666667E+009;1.788204014301300E-001;-3.221312165260315E-002;4.747591447085142E-003;1.169960945844650E-003;
2.409833333333334E+009;1.791114807128906E-001;-3.312493488192558E-002;4.785701632499695E-003;8.473953930661082E-004;
2.410000000000000E+009;1.796039938926697E-001;-3.412371501326561E-002;4.680738318711519E-003;8.205768535844982E-004;
2.410166666666667E+009;1.800301671028137E-001;-3.496441990137100E-002;4.616559017449617E-003;5.456099170260131E-004;
2.410333333333334E+009;1.803808063268662E-001;-3.567229211330414E-002;4.478202667087317E-003;3.501852625049651E-004;
2.410500000000000E+009;1.809384375810623E-001;-3.650718182325363E-002;4.519362933933735E-003;2.784706884995103E-004;
2.410666666666667E+009;1.810123324394226E-001;-3.727197274565697E-002;4.633797798305750E-003;2.236795844510198E-004;
2.410833333333334E+009;1.814295053482056E-001;-3.761130943894386E-002;4.399006720632315E-003;1.427772440365516E-005;
2.411000000000000E+009;1.818343251943588E-001;-3.825143352150917E-002;4.357168450951576E-003;-1.676351239439100E-004;
2.411166666666667E+009;1.818890869617462E-001;-3.886393085122109E-002;4.250611644238234E-003;-2.901948464568704E-004;
2.411333333333334E+009;1.821447610855103E-001;-3.911328688263893E-002;4.217918030917645E-003;-4.903980297967792E-004;
2.411500000000000E+009;1.820214688777924E-001;-3.972609713673592E-002;4.144660197198391E-003;-4.601059772539884E-004;
2.411666666666667E+009;1.821716129779816E-001;-4.009097069501877E-002;3.858557436615229E-003;-5.689659737981856E-004;
2.411833333333334E+009;1.820296198129654E-001;-4.038038849830627E-002;3.853766480460763E-003;-6.266473792493343E-004;
2.412000000000000E+009;1.819388121366501E-001;-4.086009785532951E-002;3.753151511773467E-003;-6.772690103389323E-004;
2.412166666666667E+009;1.814391762018204E-001;-4.104590043425560E-002;3.772838506847620E-003;-6.537648732773960E-004;
2.412333333333334E+009;1.811713874340057E-001;-4.136677458882332E-002;3.696349915117025E-003;-6.837396649643779E-004;
2.412500000000000E+009;1.805232167243958E-001;-4.180703684687614E-002;3.678834997117519E-003;-7.669110200367868E-004;
2.412666666666667E+009;1.799622476100922E-001;-4.235032200813294E-002;3.583341836929321E-003;-8.345780079253018E-004;
2.412833333333334E+009;1.793406754732132E-001;-4.266734048724175E-002;3.603528253734112E-003;-8.311021956615150E-004;
2.413000000000000E+009;1.783907413482666E-001;-4.297659546136856E-002;3.524557687342167E-003;-9.132901905104518E-004;
2.413166666666667E+009;1.773573160171509E-001;-4.355579242110252E-002;3.567435545846820E-003;-7.947325357235968E-004;
2.413333333333334E+009;1.765120327472687E-001;-4.402958601713181E-002;3.563673933967948E-003;-8.721443591639400E-004;
2.413500000000000E+009;1.757311671972275E-001;-4.428808391094208E-002;3.496447578072548E-003;-9.231377043761313E-004;
2.413666666666667E+009;1.745323389768601E-001;-4.502566903829575E-002;3.536535426974297E-003;-1.055912813171744E-003;
2.413833333333334E+009;1.732970476150513E-001;-4.552472010254860E-002;3.554967930540443E-003;-9.984677890315652E-004;
2.414000000000000E+009;1.721409559249878E-001;-4.629748314619064E-002;3.539724275469780E-003;-1.115828286856413E-003;
2.414166666666667E+009;1.710922420024872E-001;-4.694120958447456E-002;3.652823390439153E-003;-1.129852025769651E-003;
2.414333333333334E+009;1.698660850524902E-001;-4.792640358209610E-002;3.714963095262647E-003;-1.146236550994217E-003;
2.414500000000000E+009;1.688210368156433E-001;-4.876226931810379E-002;3.787543158978224E-003;-1.388348988257349E-003;
2.414666666666667E+009;1.674986928701401E-001;-4.970500245690346E-002;3.957335837185383E-003;-1.394408987835050E-003;
2.414833333333334E+009;1.663654893636704E-001;-5.086127668619156E-002;3.917708061635494E-003;-1.668277662247419E-003;
2.415000000000000E+009;1.650153398513794E-001;-5.199425294995308E-002;3.862794255837798E-003;-1.611806685104966E-003;
2.415166666666667E+009;1.639424264431000E-001;-5.322046205401421E-002;3.792779752984643E-003;-1.933827530592680E-003;
2.415333333333334E+009;1.628754287958145E-001;-5.462767183780670E-002;3.989873453974724E-003;-1.961183734238148E-003;
2.415500000000000E+009;1.616266816854477E-001;-5.605594068765640E-002;3.948141355067492E-003;-2.304916502907872E-003;
2.415666666666667E+009;1.605228781700134E-001;-5.743954330682755E-002;3.907838370651007E-003;-2.335783559828997E-003;
2.415833333333334E+009;1.595011502504349E-001;-5.914768949151039E-002;3.889858722686768E-003;-2.447430277243257E-003;
2.416000000000000E+009;1.583274453878403E-001;-6.086543574929237E-002;3.894626162946224E-003;-2.692099893465638E-003;
2.416166666666667E+009;1.576367467641830E-001;-6.255497038364410E-002;3.729551797732711E-003;-2.796419197693467E-003;
2.416333333333334E+009;1.565156430006027E-001;-6.440698355436325E-002;3.671287791803479E-003;-3.143596928566694E-003;
2.416500000000000E+009;1.556208133697510E-001;-6.637399643659592E-002;3.654200350865722E-003;-3.301253076642752E-003;
2.416666666666667E+009;1.546574234962463E-001;-6.820245832204819E-002;3.576198127120733E-003;-3.459190484136343E-003;
2.416833333333334E+009;1.541084200143814E-001;-7.016248255968094E-002;3.470344003289938E-003;-3.574338043108583E-003;
2.417000000000000E+009;1.531430631875992E-001;-7.216396182775497E-002;3.302205121144652E-003;-3.636545734480023E-003;
2.417166666666667E+009;1.525864452123642E-001;-7.404565066099167E-002;3.225491615012288E-003;-3.900391282513738E-003;
2.417333333333334E+009;1.519686430692673E-001;-7.589634507894516E-002;3.099358407780528E-003;-4.067919682711363E-003;
2.417500000000000E+009;1.514802575111389E-001;-7.803290337324143E-002;2.914556302130222E-003;-4.162957426160574E-003;
2.417666666666667E+009;1.510460674762726E-001;-7.964454591274262E-002;2.992507070302963E-003;-4.496817942708731E-003;
2.417833333333334E+009;1.506577283143997E-001;-8.154196292161942E-002;2.620159881189466E-003;-4.459616262465715E-003;
2.418000000000000E+009;1.503562331199646E-001;-8.350861817598343E-002;2.599823521450162E-003;-4.764353856444359E-003;
2.418166666666667E+009;1.501822173595429E-001;-8.498696237802506E-002;2.299865940585733E-003;-4.957336466759443E-003;
2.418333333333334E+009;1.501667499542236E-001;-8.673035353422165E-002;2.083661500364542E-003;-4.925363231450319E-003;
2.418500000000000E+009;1.499825567007065E-001;-8.848289400339127E-002;1.795300049707294E-003;-5.235258955508471E-003;
2.418666666666667E+009;1.499560177326202E-001;-8.994971215724945E-002;1.681371359154582E-003;-5.283521488308907E-003;
2.418833333333334E+009;1.499071121215820E-001;-9.145281463861466E-002;1.383284921757877E-003;-5.541049875319004E-003;
2.419000000000000E+009;1.499446779489517E-001;-9.263220429420471E-002;1.082593924365938E-003;-5.453985650092363E-003;
2.419166666666667E+009;1.502044051885605E-001;-9.397386014461517E-002;8.861424867063761E-004;-5.582887213677168E-003;
2.419333333333334E+009;1.500226706266403E-001;-9.484384208917618E-002;4.934236640110612E-004;-5.389974452555180E-003;
2.419500000000000E+009;1.504399925470352E-001;-9.603635966777802E-002;2.240376343252137E-004;-5.625362973660231E-003;
2.419666666666667E+009;1.507305055856705E-001;-9.679879993200302E-002;6.243585812626407E-005;-5.571406334638596E-003;
2.419833333333334E+009;1.508966237306595E-001;-9.760312736034393E-002;-2.976321266032755E-004;-5.454948171973229E-003;
2.420000000000000E+009;1.513216048479080E-001;-9.817010164260864E-002;-5.768371629528701E-004;-5.448343232274056E-003;
2.420166666666667E+009;1.514659821987152E-001;-9.881960600614548E-002;-9.770817123353481E-004;-5.309245083481073E-003;
2.420333333333334E+009;1.517594456672669E-001;-9.941314160823822E-002;-1.145961461588740E-003;-5.180506501346827E-003;
2.420500000000000E+009;1.521536856889725E-001;-9.943779557943344E-002;-1.499576494097710E-003;-5.099881906062365E-003;
2.420666666666667E+009;1.523631960153580E-001;-9.968472272157669E-002;-1.616884837858379E-003;-4.993961658328772E-003;
2.420833333333334E+009;1.526324450969696E-001;-9.994839876890183E-002;-1.854319008998573E-003;-4.676464013755322E-003;
2.421000000000000E+009;1.528627723455429E-001;-9.993698447942734E-002;-2.056974219158292E-003;-4.510079976171255E-003;
2.421166666666667E+009;1.531157195568085E-001;-1.000039353966713E-001;-2.200592309236527E-003;-4.353155847638845E-003;
2.421333333333334E+009;1.533874273300171E-001;-9.990673512220383E-002;-2.409895882010460E-003;-4.162063822150230E-003;
2.421500000000000E+009;1.532668769359589E-001;-9.973073005676270E-002;-2.560362452641130E-003;-4.094579257071018E-003;
2.421666666666667E+009;1.532547771930695E-001;-9.954378753900528E-002;-2.719732467085123E-003;-3.958814311772585E-003;
2.421833333333334E+009;1.532433331012726E-001;-9.924977272748947E-002;-2.788136713206768E-003;-3.568457672372460E-003;
2.422000000000000E+009;1.530158221721649E-001;-9.908949583768845E-002;-2.887788694351912E-003;-3.510024631395936E-003;
2.422166666666667E+009;1.525736153125763E-001;-9.913806617259979E-002;-2.958127064630389E-003;-3.339930670335889E-003;
2.422333333333334E+009;1.522911936044693E-001;-9.869275987148285E-002;-3.152416320517659E-003;-3.028785111382604E-003;
2.422500000000000E+009;1.518264412879944E-001;-9.825778007507324E-002;-3.183933440595865E-003;-2.772775944322348E-003;
2.422666666666667E+009;1.510776132345200E-001;-9.785117208957672E-002;-3.000936703756452E-003;-2.648178255185485E-003;
2.422833333333334E+009;1.504893004894257E-001;-9.748853743076325E-002;-3.030101535841823E-003;-2.524004783481360E-003;
2.423000000000000E+009;1.496471166610718E-001;-9.725277125835419E-002;-3.086003242060542E-003;-2.319420222193003E-003;
2.423166666666667E+009;1.488325595855713E-001;-9.684776514768601E-002;-2.959284465759993E-003;-2.284042304381728E-003;
2.423333333333334E+009;1.477774381637573E-001;-9.636254608631134E-002;-2.939175814390183E-003;-1.926081487908959E-003;
2.423500000000000E+009;1.465685665607452E-001;-9.607592970132828E-002;-2.919014310464263E-003;-1.777812489308417E-003;
2.423666666666667E+009;1.452071517705917E-001;-9.595055133104324E-002;-2.751186257228255E-003;-1.840300974436104E-003;
2.423833333333334E+009;1.441537886857987E-001;-9.560333192348480E-002;-2.662299200892448E-003;-1.739170751534402E-003;
2.424000000000000E+009;1.426489204168320E-001;-9.529758244752884E-002;-2.742079086601734E-003;-1.651122234761715E-003;
2.424166666666667E+009;1.412853598594666E-001;-9.528938680887222E-002;-2.624183194711804E-003;-1.749804010614753E-003;
2.424333333333334E+009;1.399661898612976E-001;-9.500620514154434E-002;-2.697638934478164E-003;-1.721231266856194E-003;
2.424500000000000E+009;1.384994983673096E-001;-9.514677524566650E-002;-2.495886990800500E-003;-1.717059174552560E-003;
2.424666666666667E+009;1.371216028928757E-001;-9.496420621871948E-002;-2.382333390414715E-003;-1.804462983272970E-003;
2.424833333333334E+009;1.355861723423004E-001;-9.545417129993439E-002;-2.577731618657708E-003;-1.732817385345697E-003;
2.425000000000000E+009;1.340682953596115E-001;-9.573408961296082E-002;-2.668807050213218E-003;-1.709367381408811E-003;
2.425166666666667E+009;1.323923319578171E-001;-9.615462273359299E-002;-2.565100789070129E-003;-1.706555718556047E-003;
2.425333333333334E+009;1.309706270694733E-001;-9.657713025808334E-002;-2.654187381267548E-003;-1.526507316157222E-003;
2.425500000000000E+009;1.296688616275787E-001;-9.734902530908585E-002;-2.784511540085077E-003;-1.581062679179013E-003;
2.425666666666667E+009;1.279474496841431E-001;-9.818793833255768E-002;-2.788995392620564E-003;-1.531543210148811E-003;
2.425833333333334E+009;1.265181452035904E-001;-9.910158067941666E-002;-2.770372899249196E-003;-1.433789147995412E-003;
2.426000000000000E+009;1.252008378505707E-001;-1.001512631773949E-001;-2.896475838497281E-003;-1.390614197589457E-003;
2.426166666666667E+009;1.239150315523148E-001;-1.013156175613403E-001;-2.903014188632369E-003;-1.520936726592481E-003;
2.426333333333334E+009;1.225597187876701E-001;-1.025080308318138E-001;-2.897650236263871E-003;-1.318636932410300E-003;
2.426500000000000E+009;1.213378086686134E-001;-1.038270220160484E-001;-3.033579094335437E-003;-1.086339820176363E-003;
2.426666666666667E+009;1.202809587121010E-001;-1.050613448023796E-001;-3.141805063933134E-003;-1.046471064910293E-003;
2.426833333333334E+009;1.191144511103630E-001;-1.065781190991402E-001;-3.131182631477714E-003;-9.630403947085142E-004;
2.427000000000000E+009;1.181093528866768E-001;-1.082615181803703E-001;-3.003363730385900E-003;-9.843753650784493E-004;
2.427166666666667E+009;1.170881241559982E-001;-1.097000688314438E-001;-3.079645801335573E-003;-7.212618365883827E-004;
2.427333333333334E+009;1.161007061600685E-001;-1.115336790680885E-001;-3.031174186617136E-003;-7.649288163520396E-004;
2.427500000000000E+009;1.154779493808746E-001;-1.132215932011604E-001;-2.968838671222329E-003;-5.805370747111738E-004;
2.427666666666667E+009;1.147195920348167E-001;-1.149644628167152E-001;-2.970529021695256E-003;-5.163140012882650E-004;
