# Version 1.00
#
freq[Hz];re:Trc1_S11;im:Trc1_S11;re:Trc2_S21;im:Trc2_S21;
2.400000000000000E+009;1.686852127313614E-001;4.702465981245041E-002;-1.225437154062092E-003;2.721019554883242E-003;
2.400166666666667E+009;1.696693748235703E-001;4.604849591851234E-002;-1.170918578281999E-003;2.769105136394501E-003;
2.400333333333334E+009;1.706138849258423E-001;4.491107165813446E-002;-1.405393588356674E-003;2.572154859080911E-003;
2.400500000000000E+009;1.714566648006439E-001;4.388287290930748E-002;-1.389043522067368E-003;2.477878704667091E-003;
2.400666666666667E+009;1.724358946084976E-001;4.297238215804100E-002;-1.370746991597116E-003;2.560896333307028E-003;
2.400833333333334E+009;1.732646077871323E-001;4.221857711672783E-002;-1.394172431901097E-003;2.545803086832166E-003;
2.401000000000000E+009;1.740320026874542E-001;4.142183065414429E-002;-1.674117287620902E-003;2.637841505929828E-003;
2.401166666666667E+009;1.746800541877747E-001;4.072410985827446E-002;-1.587187987752259E-003;2.832278376445174E-003;
2.401333333333334E+009;1.752099245786667E-001;3.999814018607140E-002;-1.802584039978683E-003;2.730228472501040E-003;
2.401500000000000E+009;1.762307584285736E-001;3.928080201148987E-002;-1.620622235350311E-003;2.943015191704035E-003;
2.401666666666667E+009;1.768031716346741E-001;3.881580382585526E-002;-1.606860780157149E-003;3.099462948739529E-003;
2.401833333333334E+009;1.774088740348816E-001;3.815848752856255E-002;-1.586711849085987E-003;3.236013697460294E-003;
2.402000000000000E+009;1.777004897594452E-001;3.761693462729454E-002;-1.592920394614339E-003;3.342977026477456E-003;
2.402166666666667E+009;1.780392527580261E-001;3.675054013729096E-002;-1.644101459532976E-003;3.479533595964313E-003;
2.402333333333334E+009;1.784272193908691E-001;3.627533093094826E-002;-1.431631157174707E-003;3.589856671169400E-003;
2.402500000000000E+009;1.790381819009781E-001;3.555568307638168E-002;-1.393125159665942E-003;3.735828213393688E-003;
2.402666666666667E+009;1.788999885320664E-001;3.488837555050850E-002;-1.305215177126229E-003;3.688387572765350E-003;
2.402833333333334E+009;1.792985796928406E-001;3.438432514667511E-002;-1.238889642991126E-003;3.850437467917800E-003;
2.403000000000000E+009;1.790750026702881E-001;3.340169042348862E-002;-1.070612692274153E-003;4.060607403516769E-003;
2.403166666666667E+009;1.793646216392517E-001;3.254550322890282E-002;-1.089362544007599E-003;3.993028774857521E-003;
2.403333333333334E+009;1.792762279510498E-001;3.166741505265236E-002;-9.333058260381222E-004;4.087565466761589E-003;
2.403500000000000E+009;1.790324002504349E-001;3.078119270503521E-002;-8.858948131091893E-004;4.285573959350586E-003;
2.403666666666667E+009;1.786932796239853E-001;2.947374805808067E-002;-8.403414394706488E-004;4.290408454835415E-003;
2.403833333333334E+009;1.786358058452606E-001;2.843623049557209E-002;-4.902577493339777E-004;4.384113475680351E-003;
2.404000000000000E+009;1.781921237707138E-001;2.742419391870499E-002;-4.750599327962846E-004;4.439173731952906E-003;
2.404166666666667E+009;1.778287589550018E-001;2.605276554822922E-002;-3.336149675305933E-004;4.558331798762083E-003;
2.404333333333334E+009;1.774038821458817E-001;2.485708519816399E-002;-2.379800862399861E-004;4.628081806004047E-003;
2.404500000000000E+009;1.768736839294434E-001;2.328589744865894E-002;-1.307032944168896E-004;4.749389830976725E-003;
2.404666666666667E+009;1.764192134141922E-001;2.191664837300777E-002;1.043013980961405E-004;4.806695040315390E-003;
2.404833333333334E+009;1.759266853332520E-001;2.049964666366577E-002;2.887769369408488E-004;4.735261201858521E-003;
2.405000000000000E+009;1.755647510290146E-001;1.901542209088802E-002;4.181709664408118E-004;4.942762199789286E-003;
2.405166666666667E+009;1.750854700803757E-001;1.732388511300087E-002;5.362441879697144E-004;4.909818992018700E-003;
2.405333333333334E+009;1.746499985456467E-001;1.556788012385368E-002;7.160464301705360E-004;5.047013517469168E-003;
2.405500000000000E+009;1.742691397666931E-001;1.403742842376232E-002;9.617256582714617E-004;5.159545689821243E-003;
2.405666666666667E+009;1.738935112953186E-001;1.213490590453148E-002;1.284854370169342E-003;5.010555963963270E-003;
2.405833333333334E+009;1.734634190797806E-001;1.046169549226761E-002;1.628355123102665E-003;4.968703724443913E-003;
2.406000000000000E+009;1.733068674802780E-001;8.477453142404556E-003;1.649808022193611E-003;4.960756283253431E-003;
2.406166666666667E+009;1.730694472789764E-001;6.720843724906445E-003;2.021692926064134E-003;4.975045565515757E-003;
2.406333333333334E+009;1.729442179203033E-001;4.691998474299908E-003;2.141461241990328E-003;4.883590620011091E-003;
2.406500000000000E+009;1.728527694940567E-001;2.744973404332995E-003;2.509862184524536E-003;4.946814384311438E-003;
2.406666666666667E+009;1.727621853351593E-001;6.568297394551337E-004;2.727282932028174E-003;4.847791977226734E-003;
2.406833333333334E+009;1.728795170783997E-001;-1.580331707373262E-003;3.115200437605381E-003;4.759354051202536E-003;
2.407000000000000E+009;1.729468256235123E-001;-3.468865063041449E-003;3.276852658018470E-003;4.625348374247551E-003;
2.407166666666667E+009;1.732150912284851E-001;-5.487485788762569E-003;3.453287528827786E-003;4.585087299346924E-003;
2.407333333333334E+009;1.732484102249146E-001;-7.672000676393509E-003;3.806255059316754E-003;4.534071311354637E-003;
2.407500000000000E+009;1.735178679227829E-001;-9.697260335087776E-003;3.815646516159177E-003;4.410179331898689E-003;
2.407666666666667E+009;1.738776266574860E-001;-1.165486779063940E-002;4.094889853149653E-003;4.070471972227097E-003;
2.407833333333334E+009;1.740991920232773E-001;-1.393374800682068E-002;4.428029991686344E-003;3.711103461682797E-003;
2.408000000000000E+009;1.745357513427734E-001;-1.586889103055000E-002;4.571838304400444E-003;3.518906189128757E-003;
2.408166666666667E+009;1.749328970909119E-001;-1.774981245398521E-002;4.724741913378239E-003;3.483788808807731E-003;
2.408333333333334E+009;1.756010800600052E-001;-1.983325555920601E-002;4.894100595265627E-003;2.959667239338160E-003;
2.408500000000000E+009;1.758566796779633E-001;-2.170733362436295E-002;4.921734798699617E-003;2.756870118901134E-003;
2.408666666666667E+009;1.762855350971222E-001;-2.340092882514000E-002;4.940148908644915E-003;2.346343128010631E-003;
2.408833333333334E+009;1.765769273042679E-001;-2.512928098440170E-002;5.120179615914822E-003;2.197030698880553E-003;
2.409000000000000E+009;1.769280582666397E-001;-2.668334543704987E-002;5.174858961254358E-003;2.011410892009735E-003;
2.409166666666667E+009;1.774383932352066E-001;-2.820386551320553E-002;5.019250325858593E-003;1.675811363384128E-003;
2.409333333333334E+009;1.778357625007629E-001;-2.970225363969803E-002;5.184568930417299E-003;1.510300324298441E-003;
2.409500000000000E+009;1.782117038965225E-001;-3.104337118566036E-002;5.042497999966145E-003;1.084032934159041E-003;
2.409666666666667E+009;1.787778139114380E-001;-3.227606788277626E-002;4.989489912986755E-003;9.953638073056936E-004;
2.409833333333334E+009;1.791073977947235E-001;-3.297461196780205E-002;4.908374045044184E-003;7.149045122787356E-004;
2.410000000000000E+009;1.796448975801468E-001;-3.410489857196808E-002;4.912476055324078E-003;7.371989195235074E-004;
2.410166666666667E+009;1.800239831209183E-001;-3.484714776277542E-002;4.815281834453344E-003;5.576829425990582E-004;
2.410333333333334E+009;1.806167215108872E-001;-3.581947460770607E-002;4.730817861855030E-003;3.322383272461593E-004;
2.410500000000000E+009;1.809656322002411E-001;-3.650066256523132E-002;4.719981458038092E-003;2.879617968574166E-004;
2.410666666666667E+009;1.811232566833496E-001;-3.719395026564598E-002;4.574207589030266E-003;-4.256582178641111E-005;
2.410833333333334E+009;1.814916431903839E-001;-3.762732073664665E-002;4.496892448514700E-003;-5.828251232742332E-005;
2.411000000000000E+009;1.819349080324173E-001;-3.819182142615318E-002;4.491654690355063E-003;-3.610775747802109E-004;
2.411166666666667E+009;1.820508986711502E-001;-3.881700709462166E-002;4.411228932440281E-003;-3.701940004248172E-004;
2.411333333333334E+009;1.820058077573776E-001;-3.912305831909180E-002;4.291978664696217E-003;-4.553489270620048E-004;
2.411500000000000E+009;1.820113211870194E-001;-3.973668441176415E-002;4.295776598155499E-003;-7.385521894320846E-004;
2.411666666666667E+009;1.822081655263901E-001;-4.010046273469925E-002;4.237971734255552E-003;-6.226490950211883E-004;
2.411833333333334E+009;1.821963489055634E-001;-4.042226821184158E-002;4.126514308154583E-003;-9.230762370862067E-004;
2.412000000000000E+009;1.818051934242249E-001;-4.083580523729324E-002;4.069991409778595E-003;-8.514907094649971E-004;
2.412166666666667E+009;1.814103722572327E-001;-4.113242030143738E-002;4.061550367623568E-003;-9.780887048691511E-004;
2.412333333333334E+009;1.812566816806793E-001;-4.146935790777206E-002;3.939945716410875E-003;-9.449411882087588E-004;
2.412500000000000E+009;1.806399226188660E-001;-4.179907590150833E-002;3.840414341539145E-003;-8.466907311230898E-004;
2.412666666666667E+009;1.798926442861557E-001;-4.224387183785439E-002;3.735703416168690E-003;-9.898722637444735E-004;
2.412833333333334E+009;1.793415248394013E-001;-4.267291724681854E-002;3.696274477988482E-003;-1.125310664065182E-003;
2.413000000000000E+009;1.785050183534622E-001;-4.300656914710999E-002;3.611208871006966E-003;-1.210830407217145E-003;
2.413166666666667E+009;1.776480674743652E-001;-4.341912642121315E-002;3.710856661200523E-003;-1.269700587727130E-003;
2.413333333333334E+009;1.765451282262802E-001;-4.393482208251953E-002;3.674313658848405E-003;-1.165224006399512E-003;
2.413500000000000E+009;1.756577938795090E-001;-4.445741325616837E-002;3.582899924367666E-003;-1.271957415156066E-003;
2.413666666666667E+009;1.745697706937790E-001;-4.503127187490463E-002;3.584433579817414E-003;-1.364398864097893E-003;
2.413833333333334E+009;1.733613461256027E-001;-4.558948054909706E-002;3.642767900601029E-003;-1.206619897857308E-003;
2.414000000000000E+009;1.721823513507843E-001;-4.639369621872902E-002;3.620922798290849E-003;-1.382190501317382E-003;
2.414166666666667E+009;1.710428446531296E-001;-4.703088849782944E-002;3.757345257326961E-003;-1.339038950391114E-003;
2.414333333333334E+009;1.698874235153198E-001;-4.782801121473312E-002;3.782695857807994E-003;-1.485664513893426E-003;
2.414500000000000E+009;1.689025163650513E-001;-4.874661937355995E-002;3.857420757412911E-003;-1.611604704521596E-003;
2.414666666666667E+009;1.676377058029175E-001;-4.978554695844650E-002;3.963469062000513E-003;-1.601918600499630E-003;
2.414833333333334E+009;1.663060635328293E-001;-5.083150416612625E-002;3.859631950035691E-003;-1.851214910857379E-003;
2.415000000000000E+009;1.650456935167313E-001;-5.186946317553520E-002;3.907599952071905E-003;-1.941440626978874E-003;
2.415166666666667E+009;1.638430058956146E-001;-5.329816415905953E-002;3.958641551434994E-003;-2.017133869230747E-003;
2.415333333333334E+009;1.629444360733032E-001;-5.464925244450569E-002;3.930053208023310E-003;-2.204781165346503E-003;
2.415500000000000E+009;1.617355644702911E-001;-5.607980489730835E-002;4.017620347440243E-003;-2.619331469759345E-003;
2.415666666666667E+009;1.604168564081192E-001;-5.752352625131607E-002;3.976315259933472E-003;-2.536212094128132E-003;
2.415833333333334E+009;1.593928337097168E-001;-5.914591997861862E-002;3.955116495490074E-003;-2.764263190329075E-003;
2.416000000000000E+009;1.583564430475235E-001;-6.099417805671692E-002;3.815256757661700E-003;-2.962386002764106E-003;
2.416166666666667E+009;1.576258838176727E-001;-6.268358230590820E-002;3.828396787866950E-003;-3.135116770863533E-003;
2.416333333333334E+009;1.564914584159851E-001;-6.450123339891434E-002;3.676360007375479E-003;-3.373676212504506E-003;
2.416500000000000E+009;1.555432975292206E-001;-6.642317026853561E-002;3.687243210151792E-003;-3.508282126858831E-003;
2.416666666666667E+009;1.546637415885925E-001;-6.831786036491394E-002;3.482050960883498E-003;-3.636077512055636E-003;
2.416833333333334E+009;1.540250480175018E-001;-7.024587690830231E-002;3.482756670564413E-003;-3.768581198528409E-003;
2.417000000000000E+009;1.531627923250198E-001;-7.219059765338898E-002;3.254893003031611E-003;-3.955189138650894E-003;
2.417166666666667E+009;1.525668799877167E-001;-7.407108694314957E-002;3.350502112880349E-003;-4.080113023519516E-003;
2.417333333333334E+009;1.519951671361923E-001;-7.594764977693558E-002;2.943823812529445E-003;-4.338683560490608E-003;
2.417500000000000E+009;1.514934301376343E-001;-7.801020890474320E-002;2.861825516447425E-003;-4.419727716594935E-003;
2.417666666666667E+009;1.511726975440979E-001;-7.970657199621201E-002;2.609569812193513E-003;-4.580112639814615E-003;
2.417833333333334E+009;1.506440043449402E-001;-8.147519081830978E-002;2.684041857719421E-003;-4.810487851500511E-003;
2.418000000000000E+009;1.503834128379822E-001;-8.349095284938812E-002;2.437762683257461E-003;-4.921134561300278E-003;
2.418166666666667E+009;1.500937640666962E-001;-8.511264622211456E-002;2.118462463840842E-003;-5.018304102122784E-003;
2.418333333333334E+009;1.501547694206238E-001;-8.687818795442581E-002;1.975379185751081E-003;-5.126473959535360E-003;
2.418500000000000E+009;1.499276757240295E-001;-8.833824098110199E-002;1.771006151102483E-003;-5.354369990527630E-003;
2.418666666666667E+009;1.499467045068741E-001;-9.008149057626724E-002;1.634587417356670E-003;-5.411601625382900E-003;
2.418833333333334E+009;1.496861129999161E-001;-9.137520194053650E-002;1.234273426234722E-003;-5.469359923154116E-003;
2.419000000000000E+009;1.498603969812393E-001;-9.265499562025070E-002;8.336986647918820E-004;-5.565976258367300E-003;
2.419166666666667E+009;1.500515192747116E-001;-9.391334652900696E-002;6.350953481160104E-004;-5.562426522374153E-003;
2.419333333333334E+009;1.500994712114334E-001;-9.486886113882065E-002;3.700355882756412E-004;-5.590273067355156E-003;
2.419500000000000E+009;1.503244638442993E-001;-9.608834981918335E-002;-1.239558332599700E-005;-5.658594425767660E-003;
2.419666666666667E+009;1.507628709077835E-001;-9.699372947216034E-002;-2.477159723639488E-004;-5.776922218501568E-003;
2.419833333333334E+009;1.508812308311462E-001;-9.768006205558777E-002;-5.056365625932813E-004;-5.541500635445118E-003;
2.420000000000000E+009;1.512505263090134E-001;-9.823784232139587E-002;-8.281624759547412E-004;-5.661061964929104E-003;
2.420166666666667E+009;1.512314230203629E-001;-9.885084629058838E-002;-1.041450654156506E-003;-5.506182555109263E-003;
2.420333333333334E+009;1.516359746456146E-001;-9.941981732845306E-002;-1.467244001105428E-003;-5.230419337749481E-003;
2.420500000000000E+009;1.520898789167404E-001;-9.950452297925949E-002;-1.576437614858151E-003;-5.085534881800413E-003;
2.420666666666667E+009;1.524477750062943E-001;-9.972469508647919E-002;-1.738840714097023E-003;-4.895519930869341E-003;
2.420833333333334E+009;1.525777727365494E-001;-9.993679821491242E-002;-2.067276043817401E-003;-4.922582302242518E-003;
2.421000000000000E+009;1.528331488370895E-001;-9.993376582860947E-002;-2.235008403658867E-003;-4.733087960630655E-003;
2.421166666666667E+009;1.529430747032166E-001;-1.000198647379875E-001;-2.420955337584019E-003;-4.490761552006006E-003;
2.421333333333334E+009;1.531772166490555E-001;-9.991308301687241E-002;-2.607029164209962E-003;-4.342645872384310E-003;
2.421500000000000E+009;1.531833559274674E-001;-9.968952834606171E-002;-2.768990816548467E-003;-4.259864799678326E-003;
2.421666666666667E+009;1.532838493585587E-001;-9.956660866737366E-002;-2.850437071174383E-003;-4.075178410857916E-003;
2.421833333333334E+009;1.532696783542633E-001;-9.940874576568604E-002;-2.980852033942938E-003;-3.783133346587420E-003;
2.422000000000000E+009;1.527171730995178E-001;-9.921087324619293E-002;-3.122190712019801E-003;-3.590456210076809E-003;
2.422166666666667E+009;1.525891721248627E-001;-9.906195849180222E-002;-3.368171164765954E-003;-3.282171674072743E-003;
2.422333333333334E+009;1.523235291242600E-001;-9.853168576955795E-002;-3.327098907902837E-003;-3.110157558694482E-003;
2.422500000000000E+009;1.517623662948608E-001;-9.811736643314362E-002;-3.386395052075386E-003;-2.896583639085293E-003;
2.422666666666667E+009;1.509086787700653E-001;-9.805902093648911E-002;-3.197039477527142E-003;-2.712132176384330E-003;
2.422833333333334E+009;1.504953652620316E-001;-9.744662791490555E-002;-3.305932739749551E-003;-2.450925996527076E-003;
2.423000000000000E+009;1.495777070522308E-001;-9.712488949298859E-002;-3.226315602660179E-003;-2.359096426516771E-003;
2.423166666666667E+009;1.486861407756805E-001;-9.683431684970856E-002;-3.235569689422846E-003;-2.200296148657799E-003;
2.423333333333334E+009;1.477253437042236E-001;-9.649678319692612E-002;-3.200147300958633E-003;-2.011938951909542E-003;
2.423500000000000E+009;1.465858817100525E-001;-9.622550755739212E-002;-3.126104129478335E-003;-1.794485957361758E-003;
2.423666666666667E+009;1.451386213302612E-001;-9.579252451658249E-002;-2.904203021898866E-003;-1.857913914136589E-003;
2.423833333333334E+009;1.442114114761353E-001;-9.567430615425110E-002;-2.966674976050854E-003;-1.619295217096806E-003;
2.424000000000000E+009;1.427261382341385E-001;-9.515369683504105E-002;-2.914550481364131E-003;-1.688697957433760E-003;
2.424166666666667E+009;1.413351148366928E-001;-9.516606479883194E-002;-2.839044900611043E-003;-1.835729810409248E-003;
2.424333333333334E+009;1.400048881769180E-001;-9.495539218187332E-002;-2.848690841346979E-003;-1.525198109447956E-003;
2.424500000000000E+009;1.384325027465820E-001;-9.508039802312851E-002;-2.621905878186226E-003;-1.736092730425298E-003;
2.424666666666667E+009;1.371215134859085E-001;-9.514644742012024E-002;-2.764059463515878E-003;-1.646348042413592E-003;
2.424833333333334E+009;1.355403363704681E-001;-9.528989344835281E-002;-2.600672189146280E-003;-1.642642891965807E-003;
2.425000000000000E+009;1.341927498579025E-001;-9.573204815387726E-002;-2.730195410549641E-003;-1.709365169517696E-003;
2.425166666666667E+009;1.325276046991348E-001;-9.607050567865372E-002;-2.804817166179419E-003;-1.589388470165432E-003;
2.425333333333334E+009;1.310101598501205E-001;-9.674480557441711E-002;-2.863018307834864E-003;-1.729288604110479E-003;
2.425500000000000E+009;1.296296566724777E-001;-9.739215672016144E-002;-2.819498302415013E-003;-1.549110165797174E-003;
2.425666666666667E+009;1.280389130115509E-001;-9.819962829351425E-002;-2.926844172179699E-003;-1.340483664534986E-003;
2.425833333333334E+009;1.266893148422241E-001;-9.906117618083954E-002;-2.980227814987302E-003;-1.296754111535847E-003;
2.426000000000000E+009;1.252192407846451E-001;-1.000805422663689E-001;-3.127178875729442E-003;-1.487896544858813E-003;
2.426166666666667E+009;1.240095943212509E-001;-1.012406125664711E-001;-3.057891270145774E-003;-1.229783054441214E-003;
2.426333333333334E+009;1.225515827536583E-001;-1.024914607405663E-001;-3.052786923944950E-003;-1.219803700223565E-003;
2.426500000000000E+009;1.214113831520081E-001;-1.037205457687378E-001;-3.175032790750265E-003;-1.106280717067421E-003;
2.426666666666667E+009;1.202943772077560E-001;-1.050220280885696E-001;-3.161929780617356E-003;-9.614318259991705E-004;
2.426833333333334E+009;1.190865710377693E-001;-1.065758466720581E-001;-3.176115220412612E-003;-8.349476265721023E-004;
2.427000000000000E+009;1.180112063884735E-001;-1.082255691289902E-001;-3.209920134395361E-003;-8.925300789996982E-004;
2.427166666666667E+009;1.170951575040817E-001;-1.097595691680908E-001;-3.207867732271552E-003;-6.679539801552892E-004;
2.427333333333334E+009;1.161845251917839E-001;-1.113405898213387E-001;-3.129706252366304E-003;-5.605016485787928E-004;
2.427500000000000E+009;1.154454573988915E-001;-1.131382584571838E-001;-2.995982998982072E-003;-5.026787985116243E-004;
2.427666666666667E+009;1.147419065237045E-001;-1.148492321372032E-001;-3.110377816483378E-003;-4.323640605434775E-004;
