# Version 1.00
#
freq[Hz];re:Trc1_S11;im:Trc1_S11;re:Trc2_S21;im:Trc2_S21;
2.400000000000000E+009;1.687143594026566E-001;4.689019173383713E-002;-1.272029243409634E-003;2.684687497094274E-003;
2.400166666666667E+009;1.698305904865265E-001;4.602694883942604E-002;-1.218673540279269E-003;2.633367432281375E-003;
2.400333333333334E+009;1.706528067588806E-001;4.486588761210442E-002;-1.283383346162736E-003;2.555462066084147E-003;
2.400500000000000E+009;1.716139018535614E-001;4.392829164862633E-002;-1.400157925672829E-003;2.434584777802229E-003;
2.400666666666667E+009;1.722672432661057E-001;4.303155466914177E-002;-1.441702479496598E-003;2.534248866140842E-003;
2.400833333333334E+009;1.733869612216950E-001;4.224934801459312E-002;-1.314321998506784E-003;2.516952808946371E-003;
2.401000000000000E+009;1.739234328269959E-001;4.146284237504005E-002;-1.546479645185173E-003;2.759357448667288E-003;
2.401166666666667E+009;1.747267544269562E-001;4.068491607904434E-002;-1.651109545491636E-003;2.723832847550511E-003;
2.401333333333334E+009;1.753682345151901E-001;3.992010653018951E-002;-1.593554508872330E-003;2.656912896782160E-003;
2.401500000000000E+009;1.762638539075851E-001;3.949958086013794E-002;-1.743371132761240E-003;2.847562544047833E-003;
2.401666666666667E+009;1.767037361860275E-001;3.898100182414055E-002;-1.761339139193296E-003;3.011274617165327E-003;
2.401833333333334E+009;1.772519052028656E-001;3.805166855454445E-002;-1.688716933131218E-003;3.081648610532284E-003;
2.402000000000000E+009;1.776743829250336E-001;3.748403489589691E-002;-1.661873538978398E-003;3.227932145819068E-003;
2.402166666666667E+009;1.782312691211700E-001;3.685209155082703E-002;-1.650368678383529E-003;3.447233233600855E-003;
2.402333333333334E+009;1.784412562847138E-001;3.639397397637367E-002;-1.527012907899916E-003;3.417504485696554E-003;
2.402500000000000E+009;1.788780391216278E-001;3.567469120025635E-002;-1.540265744552016E-003;3.621568437665701E-003;
2.402666666666667E+009;1.790029406547546E-001;3.514995425939560E-002;-1.405064016580582E-003;3.785920329391956E-003;
2.402833333333334E+009;1.792984455823898E-001;3.418260067701340E-002;-1.315862638875842E-003;3.833775408565998E-003;
2.403000000000000E+009;1.791362166404724E-001;3.351634368300438E-002;-1.008429098874331E-003;3.813161747530103E-003;
2.403166666666667E+009;1.792448014020920E-001;3.270637243986130E-002;-1.161761465482414E-003;3.975226543843746E-003;
2.403333333333334E+009;1.791699677705765E-001;3.169111534953117E-002;-1.079492387361825E-003;3.949125763028860E-003;
2.403500000000000E+009;1.788754314184189E-001;3.080267272889614E-002;-6.588197429664433E-004;4.132625646889210E-003;
2.403666666666667E+009;1.786971390247345E-001;2.966663800179958E-002;-7.704516174271703E-004;4.341154824942350E-003;
2.403833333333334E+009;1.785904467105866E-001;2.855098061263561E-002;-6.957658333703876E-004;4.337176680564880E-003;
2.404000000000000E+009;1.781858503818512E-001;2.729329653084278E-002;-4.329453804530203E-004;4.506016615778208E-003;
2.404166666666667E+009;1.776832193136215E-001;2.602453157305718E-002;-4.742553574033082E-004;4.378987941890955E-003;
2.404333333333334E+009;1.774991452693939E-001;2.494850568473339E-002;-1.603061828063801E-004;4.596843849867582E-003;
2.404500000000000E+009;1.767475455999374E-001;2.342828176915646E-002;-1.000145566649735E-004;4.647102206945419E-003;
2.404666666666667E+009;1.764692962169647E-001;2.212984301149845E-002;-2.479019349266309E-005;4.579731728881598E-003;
2.404833333333334E+009;1.759768128395081E-001;2.051350288093090E-002;8.891079778550193E-005;4.797106143087149E-003;
2.405000000000000E+009;1.755904853343964E-001;1.899078674614430E-002;4.559051012620330E-004;4.921765066683292E-003;
2.405166666666667E+009;1.750778257846832E-001;1.744602061808109E-002;4.711098154075444E-004;4.996035713702440E-003;
2.405333333333334E+009;1.746670305728912E-001;1.558035705238581E-002;7.199466344900429E-004;4.982449114322662E-003;
2.405500000000000E+009;1.742825657129288E-001;1.404838822782040E-002;9.149013203568757E-004;4.836153239011765E-003;
2.405666666666667E+009;1.740085333585739E-001;1.235711295157671E-002;1.275223330594599E-003;4.970447625964880E-003;
2.405833333333334E+009;1.735100597143173E-001;1.054925844073296E-002;1.472644275054336E-003;4.938882309943438E-003;
2.406000000000000E+009;1.733999103307724E-001;8.442531339824200E-003;1.604027929715812E-003;4.981988575309515E-003;
2.406166666666667E+009;1.729620546102524E-001;6.780422758311033E-003;1.838724478147924E-003;4.688202403485775E-003;
2.406333333333334E+009;1.730367988348007E-001;4.742737393826246E-003;2.233866369351745E-003;4.890012089163065E-003;
2.406500000000000E+009;1.728870570659638E-001;2.683633705601096E-003;2.405479783192277E-003;4.975602962076664E-003;
2.406666666666667E+009;1.727104336023331E-001;7.737817941233516E-004;2.614557975903153E-003;4.924178123474121E-003;
2.406833333333334E+009;1.728675514459610E-001;-1.437596511095762E-003;2.792447106912732E-003;4.824498202651739E-003;
2.407000000000000E+009;1.728449165821075E-001;-3.451016265898943E-003;3.100391244515777E-003;4.663341678678989E-003;
2.407166666666667E+009;1.730652749538422E-001;-5.474623758345842E-003;3.257448319345713E-003;4.504713229835033E-003;
2.407333333333334E+009;1.732585430145264E-001;-7.657011505216360E-003;3.536442061886191E-003;4.383299965411425E-003;
2.407500000000000E+009;1.735243648290634E-001;-9.751973673701286E-003;3.827410051599145E-003;4.168481566011906E-003;
2.407666666666667E+009;1.738576591014862E-001;-1.169137936085463E-002;4.007047042250633E-003;4.045749548822641E-003;
2.407833333333334E+009;1.740906387567520E-001;-1.381737738847733E-002;4.040603991597891E-003;3.875687252730131E-003;
2.408000000000000E+009;1.744553446769714E-001;-1.589011400938034E-002;4.479258786886931E-003;3.626075107604265E-003;
2.408166666666667E+009;1.748517602682114E-001;-1.774801686406136E-002;4.660140722990036E-003;3.371021943166852E-003;
2.408333333333334E+009;1.755125075578690E-001;-1.972169801592827E-002;4.647030495107174E-003;3.059422131627798E-003;
2.408500000000000E+009;1.758751571178436E-001;-2.169634029269218E-002;4.824575968086720E-003;2.810497069731355E-003;
2.408666666666667E+009;1.763481050729752E-001;-2.341909147799015E-002;4.906023852527142E-003;2.515702042728663E-003;
2.408833333333334E+009;1.765727698802948E-001;-2.503130212426186E-002;4.986123647540808E-003;2.256526146084070E-003;
2.409000000000000E+009;1.769660860300064E-001;-2.676006779074669E-002;4.999950528144836E-003;2.017794642597437E-003;
2.409166666666667E+009;1.774865686893463E-001;-2.815251424908638E-002;5.015352740883827E-003;1.655560801737011E-003;
2.409333333333334E+009;1.780694872140884E-001;-2.963967621326447E-002;4.920334555208683E-003;1.585554913617671E-003;
2.409500000000000E+009;1.782140582799912E-001;-3.102428838610649E-002;5.042985547333956E-003;1.194016076624394E-003;
2.409666666666667E+009;1.786520630121231E-001;-3.205722570419312E-002;4.936447367072105E-003;1.110213459469378E-003;
2.409833333333334E+009;1.791133582592011E-001;-3.310804441571236E-002;4.757407587021589E-003;8.790692663751543E-004;
2.410000000000000E+009;1.797061860561371E-001;-3.386030718684197E-002;4.764487966895104E-003;7.597198127768934E-004;
2.410166666666667E+009;1.802111268043518E-001;-3.475817665457726E-002;4.739399533718824E-003;5.964359734207392E-004;
2.410333333333334E+009;1.805015504360199E-001;-3.558658808469772E-002;4.632860422134399E-003;3.748558228835464E-004;
2.410500000000000E+009;1.808712929487228E-001;-3.647850826382637E-002;4.646508954465389E-003;2.322174987057224E-004;
2.410666666666667E+009;1.812975406646729E-001;-3.719694167375565E-002;4.605016205459833E-003;1.375808205921203E-004;
2.410833333333334E+009;1.815310567617416E-001;-3.758389875292778E-002;4.424682818353176E-003;-1.659223635215312E-004;
2.411000000000000E+009;1.818427443504334E-001;-3.812327980995178E-002;4.452378489077091E-003;-1.673064252827317E-004;
2.411166666666667E+009;1.820499449968338E-001;-3.880208730697632E-002;4.332745447754860E-003;-3.620951320044696E-004;
2.411333333333334E+009;1.821476519107819E-001;-3.914812579751015E-002;4.358293022960424E-003;-3.977002925239503E-004;
2.411500000000000E+009;1.821368187665939E-001;-3.979381918907166E-002;4.227411933243275E-003;-4.304407339077443E-004;
2.411666666666667E+009;1.822999715805054E-001;-4.006181284785271E-002;3.958478104323149E-003;-5.328431143425405E-004;
2.411833333333334E+009;1.820770353078842E-001;-4.044093936681747E-002;4.045800771564245E-003;-6.591798737645149E-004;
2.412000000000000E+009;1.819146424531937E-001;-4.070035740733147E-002;3.946903161704540E-003;-8.417518110945821E-004;
2.412166666666667E+009;1.815456300973892E-001;-4.125580936670303E-002;3.932526800781488E-003;-8.257117588073015E-004;
2.412333333333334E+009;1.811440438032150E-001;-4.146693274378777E-002;3.766603302210569E-003;-8.467322913929820E-004;
2.412500000000000E+009;1.806067675352097E-001;-4.182685911655426E-002;3.799353959038854E-003;-9.976747678592801E-004;
2.412666666666667E+009;1.800245344638825E-001;-4.237692430615425E-002;3.747185226529837E-003;-9.255498298443854E-004;
2.412833333333334E+009;1.794152706861496E-001;-4.267621040344238E-002;3.625163575634360E-003;-9.336978546343744E-004;
2.413000000000000E+009;1.785513609647751E-001;-4.305349662899971E-002;3.622088348492980E-003;-1.050698570907116E-003;
2.413166666666667E+009;1.776072680950165E-001;-4.346923530101776E-002;3.637080546468496E-003;-1.134949503466487E-003;
2.413333333333334E+009;1.766382008790970E-001;-4.387193173170090E-002;3.580089425668120E-003;-1.029492123052478E-003;
2.413500000000000E+009;1.756687462329865E-001;-4.437386989593506E-002;3.638476599007845E-003;-9.923984762281179E-004;
2.413666666666667E+009;1.745921522378922E-001;-4.527009278535843E-002;3.534533781930804E-003;-1.114787999540567E-003;
2.413833333333334E+009;1.732923984527588E-001;-4.569044709205627E-002;3.611331572756171E-003;-1.144175301305950E-003;
2.414000000000000E+009;1.722118705511093E-001;-4.625693336129189E-002;3.594120964407921E-003;-1.175543991848826E-003;
2.414166666666667E+009;1.710851043462753E-001;-4.702673479914665E-002;3.694094019010663E-003;-1.245131250470877E-003;
2.414333333333334E+009;1.699012964963913E-001;-4.779785126447678E-002;3.738997969776392E-003;-1.352146733552218E-003;
2.414500000000000E+009;1.688165813684464E-001;-4.880127683281899E-002;3.754755016416311E-003;-1.398356980644167E-003;
2.414666666666667E+009;1.674735397100449E-001;-4.977197572588921E-002;3.817413933575153E-003;-1.597872935235500E-003;
2.414833333333334E+009;1.662860363721848E-001;-5.083695426583290E-002;3.961335401982069E-003;-1.696752384305000E-003;
2.415000000000000E+009;1.649880409240723E-001;-5.198054760694504E-002;4.085958935320377E-003;-1.803398714400828E-003;
2.415166666666667E+009;1.638841629028320E-001;-5.329050123691559E-002;4.089092370122671E-003;-1.906412071548402E-003;
2.415333333333334E+009;1.628139615058899E-001;-5.455477908253670E-002;3.926876466721296E-003;-2.172733191400766E-003;
2.415500000000000E+009;1.616325676441193E-001;-5.591739341616631E-002;4.020213149487972E-003;-2.434707712382078E-003;
2.415666666666667E+009;1.605292260646820E-001;-5.760321393609047E-002;4.026803188025951E-003;-2.444827929139137E-003;
2.415833333333334E+009;1.593638807535172E-001;-5.922660976648331E-002;3.977827727794647E-003;-2.609376795589924E-003;
2.416000000000000E+009;1.582857668399811E-001;-6.089409068226814E-002;3.799730911850929E-003;-2.812127815559506E-003;
2.416166666666667E+009;1.575534939765930E-001;-6.266445666551590E-002;3.748853458091617E-003;-3.117085900157690E-003;
2.416333333333334E+009;1.564625799655914E-001;-6.442334502935410E-002;3.739124163985252E-003;-3.165804548189044E-003;
2.416500000000000E+009;1.555355638265610E-001;-6.627350300550461E-002;3.691655118018389E-003;-3.470876952633262E-003;
2.416666666666667E+009;1.547416895627976E-001;-6.824641674757004E-002;3.565645078197122E-003;-3.573993919417262E-003;
2.416833333333334E+009;1.540044844150543E-001;-7.033595442771912E-002;3.446277463808656E-003;-3.687106305733323E-003;
2.417000000000000E+009;1.530838459730148E-001;-7.220665365457535E-002;3.209633985534310E-003;-3.905164543539286E-003;
2.417166666666667E+009;1.525793373584747E-001;-7.409239560365677E-002;3.218195866793394E-003;-4.118717741221190E-003;
2.417333333333334E+009;1.519917100667954E-001;-7.593911886215210E-002;3.211941802874208E-003;-4.244425334036350E-003;
2.417500000000000E+009;1.514221131801605E-001;-7.805745303630829E-002;2.919417107477784E-003;-4.285114351660013E-003;
2.417666666666667E+009;1.510573625564575E-001;-7.972105592489243E-002;2.924975007772446E-003;-4.560253117233515E-003;
2.417833333333334E+009;1.506800055503845E-001;-8.154333382844925E-002;2.577653154730797E-003;-4.600197542458773E-003;
2.418000000000000E+009;1.503188759088516E-001;-8.348192274570465E-002;2.326399553567171E-003;-4.869799129664898E-003;
2.418166666666667E+009;1.501057147979736E-001;-8.506200462579727E-002;2.317791339010000E-003;-4.929199814796448E-003;
2.418333333333334E+009;1.501813232898712E-001;-8.677498996257782E-002;1.853393507190049E-003;-5.143227986991406E-003;
2.418500000000000E+009;1.499443501234055E-001;-8.835072815418243E-002;1.911318278871477E-003;-5.306955892592669E-003;
2.418666666666667E+009;1.501731127500534E-001;-8.996680378913879E-002;1.464202883653343E-003;-5.479667335748673E-003;
2.418833333333334E+009;1.498312056064606E-001;-9.141540527343750E-002;1.516561373136938E-003;-5.486020352691412E-003;
2.419000000000000E+009;1.498380601406097E-001;-9.268344193696976E-002;1.014544744975865E-003;-5.518501624464989E-003;
2.419166666666667E+009;1.500468850135803E-001;-9.387572854757309E-002;8.665709174238145E-004;-5.590511020272970E-003;
2.419333333333334E+009;1.501035243272781E-001;-9.497007727622986E-002;4.637762031052262E-004;-5.858111660927534E-003;
2.419500000000000E+009;1.504141390323639E-001;-9.610936790704727E-002;1.248400076292455E-004;-5.705540534108877E-003;
2.419666666666667E+009;1.507220715284348E-001;-9.689513593912125E-002;-1.593957858858630E-004;-5.753050092607737E-003;
2.419833333333334E+009;1.507770121097565E-001;-9.766105562448502E-002;-4.713966627605259E-004;-5.632389336824417E-003;
2.420000000000000E+009;1.512460112571716E-001;-9.838490933179855E-002;-6.604235386475921E-004;-5.625839810818434E-003;
2.420166666666667E+009;1.515161544084549E-001;-9.882759302854538E-002;-1.069417805410922E-003;-5.414879415184259E-003;
2.420333333333334E+009;1.517021954059601E-001;-9.923698753118515E-002;-1.186569803394377E-003;-5.399290937930346E-003;
2.420500000000000E+009;1.521707475185394E-001;-9.944127500057221E-002;-1.454023993574083E-003;-5.276488605886698E-003;
2.420666666666667E+009;1.523460596799851E-001;-9.957788884639740E-002;-1.683493610471487E-003;-4.970841575413942E-003;
2.420833333333334E+009;1.526263058185577E-001;-9.988822788000107E-002;-1.989856828004122E-003;-4.954987205564976E-003;
2.421000000000000E+009;1.527799069881439E-001;-1.001227423548698E-001;-2.239374443888664E-003;-4.741158802062273E-003;
2.421166666666667E+009;1.530252248048782E-001;-9.988331049680710E-002;-2.402377547696233E-003;-4.639467224478722E-003;
2.421333333333334E+009;1.531921923160553E-001;-9.990825504064560E-002;-2.521608024835587E-003;-4.564975388348103E-003;
2.421500000000000E+009;1.533184945583344E-001;-9.978764504194260E-002;-2.688005333766341E-003;-4.345110151916742E-003;
2.421666666666667E+009;1.534347683191299E-001;-9.958917647600174E-002;-2.759976778179407E-003;-4.029948264360428E-003;
2.421833333333334E+009;1.534029245376587E-001;-9.921891987323761E-002;-2.971990266814828E-003;-3.802142804488540E-003;
2.422000000000000E+009;1.529187560081482E-001;-9.908905625343323E-002;-2.973263384774327E-003;-3.563035745173693E-003;
2.422166666666667E+009;1.527284681797028E-001;-9.904874861240387E-002;-3.094868268817663E-003;-3.190115792676806E-003;
2.422333333333334E+009;1.523580700159073E-001;-9.850940108299255E-002;-3.204555017873645E-003;-3.210797673091292E-003;
2.422500000000000E+009;1.518947035074234E-001;-9.818722307682037E-002;-3.161394270136952E-003;-2.867720089852810E-003;
2.422666666666667E+009;1.510983854532242E-001;-9.787380695343018E-002;-3.218099009245634E-003;-2.676382660865784E-003;
2.422833333333334E+009;1.504553258419037E-001;-9.768315404653549E-002;-3.073543077334762E-003;-2.509585581719875E-003;
2.423000000000000E+009;1.494968235492706E-001;-9.716091305017471E-002;-3.025307552888989E-003;-2.410381101071835E-003;
2.423166666666667E+009;1.487952619791031E-001;-9.698177874088287E-002;-3.029837273061276E-003;-2.134215319529176E-003;
2.423333333333334E+009;1.478037238121033E-001;-9.642788022756577E-002;-3.168737515807152E-003;-1.988340402022004E-003;
2.423500000000000E+009;1.466019302606583E-001;-9.611788392066956E-002;-2.880573505535722E-003;-1.813830458559096E-003;
2.423666666666667E+009;1.452196240425110E-001;-9.588297456502914E-002;-2.745773177593947E-003;-1.814559684135020E-003;
2.423833333333334E+009;1.442104279994965E-001;-9.576324373483658E-002;-2.803473966196179E-003;-1.787594985216856E-003;
2.424000000000000E+009;1.428000181913376E-001;-9.546122699975967E-002;-2.669824287295342E-003;-1.652986393310130E-003;
2.424166666666667E+009;1.412966102361679E-001;-9.519763290882111E-002;-2.779994159936905E-003;-1.613356056623161E-003;
2.424333333333334E+009;1.399907022714615E-001;-9.489610791206360E-002;-2.650792710483074E-003;-1.676186919212341E-003;
2.424500000000000E+009;1.386136412620544E-001;-9.506597369909287E-002;-2.740253694355488E-003;-1.573811634443700E-003;
2.424666666666667E+009;1.372608840465546E-001;-9.507670253515244E-002;-2.656876575201750E-003;-1.663666218519211E-003;
2.424833333333334E+009;1.356129199266434E-001;-9.531538188457489E-002;-2.714286558330059E-003;-1.581314019858837E-003;
2.425000000000000E+009;1.340725719928742E-001;-9.565563499927521E-002;-2.631251001730561E-003;-1.618012902326882E-003;
2.425166666666667E+009;1.325251013040543E-001;-9.601365029811859E-002;-2.685602521523833E-003;-1.587154692970216E-003;
2.425333333333334E+009;1.310239434242249E-001;-9.661005437374115E-002;-2.779763424769044E-003;-1.605379278771579E-003;
2.425500000000000E+009;1.297160685062408E-001;-9.736254811286926E-002;-2.835390390828252E-003;-1.604782301001251E-003;
2.425666666666667E+009;1.280201822519302E-001;-9.808277338743210E-002;-2.999335993081331E-003;-1.516286050900817E-003;
2.425833333333334E+009;1.266336590051651E-001;-9.910030663013458E-002;-2.991079119965434E-003;-1.505212392657995E-003;
2.426000000000000E+009;1.252107769250870E-001;-1.001053005456924E-001;-2.997245173901320E-003;-1.471176394261420E-003;
2.426166666666667E+009;1.240008175373077E-001;-1.013120934367180E-001;-3.189378185197711E-003;-1.325750839896500E-003;
2.426333333333334E+009;1.226205453276634E-001;-1.024128943681717E-001;-3.160507185384631E-003;-1.160569954663515E-003;
2.426500000000000E+009;1.214435920119286E-001;-1.036681383848190E-001;-3.344902070239186E-003;-1.150676049292088E-003;
2.426666666666667E+009;1.203656867146492E-001;-1.050933599472046E-001;-3.160559805110097E-003;-1.068099169060588E-003;
2.426833333333334E+009;1.192043796181679E-001;-1.065585315227509E-001;-3.278827294707298E-003;-9.677186026237905E-004;
2.427000000000000E+009;1.181246712803841E-001;-1.081830188632011E-001;-3.233748488128185E-003;-8.646409842185676E-004;
2.427166666666667E+009;1.171314343810082E-001;-1.096982359886169E-001;-3.231627866625786E-003;-6.727857980877161E-004;
2.427333333333334E+009;1.162041723728180E-001;-1.115198284387589E-001;-3.291772911325097E-003;-6.100367172621191E-004;
2.427500000000000E+009;1.154810935258865E-001;-1.131649315357208E-001;-3.019716124981642E-003;-5.481893313117325E-004;
2.427666666666667E+009;1.147434934973717E-001;-1.148484572768211E-001;-3.013532841578126E-003;-4.819138848688453E-004;
