# Version 1.00
#
freq[Hz];re:Trc1_S11;im:Trc1_S11;re:Trc2_S21;im:Trc2_S21;
2.400000000000000E+009;1.578712910413742E-001;1.118919998407364E-001;3.562659490853548E-003;-1.682978356257081E-003;
2.400166666666667E+009;1.573528945446014E-001;1.098239049315453E-001;3.572064451873303E-003;-1.969491364434362E-003;
2.400333333333334E+009;1.569440662860870E-001;1.077027320861816E-001;3.478607628494501E-003;-2.213713014498353E-003;
2.400500000000000E+009;1.565964818000794E-001;1.051403805613518E-001;3.432355821132660E-003;-2.706487663090229E-003;
2.400666666666667E+009;1.564500927925110E-001;1.025916859507561E-001;3.205101471394301E-003;-2.743596676737070E-003;
2.400833333333334E+009;1.560610830783844E-001;9.975516796112061E-002;3.201857442036271E-003;-3.088600002229214E-003;
2.401000000000000E+009;1.557946205139160E-001;9.690985083580017E-002;2.903169952332974E-003;-3.321116324514151E-003;
2.401166666666667E+009;1.555906683206558E-001;9.425900876522064E-002;2.459794050082564E-003;-3.388040233403444E-003;
2.401333333333334E+009;1.554581522941589E-001;9.109485894441605E-002;2.447356935590506E-003;-3.457044251263142E-003;
2.401500000000000E+009;1.555048227310181E-001;8.816351741552353E-002;2.104953397065401E-003;-3.611771157011390E-003;
2.401666666666667E+009;1.553928703069687E-001;8.512329310178757E-002;1.866604550741613E-003;-3.546349005773664E-003;
2.401833333333334E+009;1.556207388639450E-001;8.226978778839111E-002;1.724637346342206E-003;-3.423512214794755E-003;
2.402000000000000E+009;1.561039686203003E-001;7.929261028766632E-002;1.421558088622987E-003;-3.520696656778455E-003;
2.402166666666667E+009;1.565916985273361E-001;7.658099383115768E-002;1.321072923019528E-003;-3.433302044868469E-003;
2.402333333333334E+009;1.574413180351257E-001;7.343980669975281E-002;9.932769462466240E-004;-3.458575811237097E-003;
2.402500000000000E+009;1.583236604928970E-001;7.070612162351608E-002;9.894634131342173E-004;-3.501807572320104E-003;
2.402666666666667E+009;1.592212915420532E-001;6.802126765251160E-002;8.338702027685940E-004;-3.403380280360580E-003;
2.402833333333334E+009;1.603614836931229E-001;6.515546143054962E-002;7.391042890958488E-004;-3.183635883033276E-003;
2.403000000000000E+009;1.615729182958603E-001;6.235615909099579E-002;6.444550817832351E-004;-3.351663937792182E-003;
2.403166666666667E+009;1.631093621253967E-001;5.992730706930161E-002;5.002968246117234E-004;-3.094413084909320E-003;
2.403333333333334E+009;1.646148860454559E-001;5.719710141420364E-002;6.221983931027353E-004;-3.224564483389258E-003;
2.403500000000000E+009;1.661389768123627E-001;5.487174540758133E-002;4.689440829679370E-004;-3.112274222075939E-003;
2.403666666666667E+009;1.677822321653366E-001;5.254362523555756E-002;4.815442371182144E-004;-3.148401156067848E-003;
2.403833333333334E+009;1.696850657463074E-001;5.034732073545456E-002;1.968822762137279E-004;-3.177601145580411E-003;
2.404000000000000E+009;1.713412553071976E-001;4.820855334401131E-002;3.147787356283516E-004;-3.289644140750170E-003;
2.404166666666667E+009;1.732219904661179E-001;4.631691798567772E-002;1.353557454422116E-004;-3.291257889941335E-003;
2.404333333333334E+009;1.747488379478455E-001;4.449585080146790E-002;1.279483403777704E-004;-3.057122929021716E-003;
2.404500000000000E+009;1.766385138034821E-001;4.267569258809090E-002;5.964748925180174E-005;-3.288093954324722E-003;
2.404666666666667E+009;1.785032451152802E-001;4.141112416982651E-002;-1.425620430381969E-004;-3.238304285332561E-003;
2.404833333333334E+009;1.802911311388016E-001;3.988980501890183E-002;-4.500062277656980E-005;-3.284673439338803E-003;
2.405000000000000E+009;1.819509565830231E-001;3.905383124947548E-002;-1.680852874414995E-004;-3.209963208064437E-003;
2.405166666666667E+009;1.837030947208405E-001;3.801894932985306E-002;-4.391607944853604E-004;-3.312043845653534E-003;
2.405333333333334E+009;1.854459047317505E-001;3.740701824426651E-002;-4.754497203975916E-004;-3.279263619333506E-003;
2.405500000000000E+009;1.871891319751740E-001;3.673417493700981E-002;-6.745681748725474E-004;-3.258566837757826E-003;
2.405666666666667E+009;1.886889785528183E-001;3.635477647185326E-002;-8.892608457244933E-004;-3.322242060676217E-003;
2.405833333333334E+009;1.903564929962158E-001;3.588830307126045E-002;-9.345612488687038E-004;-3.205197164788842E-003;
2.406000000000000E+009;1.916774511337280E-001;3.578108921647072E-002;-9.787566959857941E-004;-3.009198000654578E-003;
2.406166666666667E+009;1.929606199264526E-001;3.543853759765625E-002;-1.181261846795678E-003;-2.964653074741364E-003;
2.406333333333334E+009;1.941665709018707E-001;3.536781296133995E-002;-1.377332257106900E-003;-2.941478043794632E-003;
2.406500000000000E+009;1.954121440649033E-001;3.562188148498535E-002;-1.399353379383683E-003;-2.813553204759955E-003;
2.406666666666667E+009;1.963211297988892E-001;3.569028899073601E-002;-1.496375538408756E-003;-2.863917732611299E-003;
2.406833333333334E+009;1.973144710063934E-001;3.591349720954895E-002;-1.463814987801015E-003;-2.685986692085862E-003;
2.407000000000000E+009;1.979067176580429E-001;3.614941984415054E-002;-1.591835054568946E-003;-2.656464930623770E-003;
2.407166666666667E+009;1.987007409334183E-001;3.625986725091934E-002;-1.496416050940752E-003;-2.319633960723877E-003;
2.407333333333334E+009;1.989169865846634E-001;3.669358044862747E-002;-1.602314994670451E-003;-2.635023090988398E-003;
2.407500000000000E+009;1.992871314287186E-001;3.700596839189529E-002;-1.603470416739583E-003;-2.498592482879758E-003;
2.407666666666667E+009;1.995303630828857E-001;3.721226751804352E-002;-1.639583264477551E-003;-2.334222430363298E-003;
2.407833333333334E+009;1.992092579603195E-001;3.739422932267189E-002;-1.820508274249733E-003;-2.242352347820997E-003;
2.408000000000000E+009;1.995043307542801E-001;3.752157092094421E-002;-1.752047799527645E-003;-2.261129906401038E-003;
2.408166666666667E+009;1.991278678178787E-001;3.755427896976471E-002;-1.663567149080336E-003;-2.107704291120172E-003;
2.408333333333334E+009;1.987338662147522E-001;3.744219988584518E-002;-2.010025316849351E-003;-2.070455579087138E-003;
2.408500000000000E+009;1.982410997152329E-001;3.761215135455132E-002;-2.116421936079860E-003;-2.124622697010636E-003;
2.408666666666667E+009;1.975787878036499E-001;3.738347813487053E-002;-2.038807142525911E-003;-2.031359588727355E-003;
2.408833333333334E+009;1.970853358507156E-001;3.713378310203552E-002;-2.009945455938578E-003;-1.997062470763922E-003;
2.409000000000000E+009;1.960941255092621E-001;3.656842559576035E-002;-2.006855793297291E-003;-1.936230924911797E-003;
2.409166666666667E+009;1.951440423727036E-001;3.607487678527832E-002;-2.010470256209374E-003;-1.822289312258363E-003;
2.409333333333334E+009;1.941644549369812E-001;3.536602109670639E-002;-2.085353946313262E-003;-1.821266836486757E-003;
2.409500000000000E+009;1.931067854166031E-001;3.452544659376144E-002;-1.965442439541221E-003;-1.758401049301028E-003;
2.409666666666667E+009;1.919345706701279E-001;3.348566591739655E-002;-2.016733866184950E-003;-1.796783297322691E-003;
2.409833333333334E+009;1.906000077724457E-001;3.240766003727913E-002;-2.082798164337874E-003;-1.866546226665378E-003;
2.410000000000000E+009;1.895284056663513E-001;3.119733743369579E-002;-1.939423615112901E-003;-1.863720943219960E-003;
2.410166666666667E+009;1.881439834833145E-001;2.958739735186100E-002;-1.884285011328757E-003;-1.760330051183701E-003;
2.410333333333334E+009;1.869185864925385E-001;2.800532989203930E-002;-2.083578379824758E-003;-1.817840617150068E-003;
2.410500000000000E+009;1.857757419347763E-001;2.636917494237423E-002;-2.286042086780071E-003;-1.806187210604549E-003;
2.410666666666667E+009;1.846936643123627E-001;2.432386204600334E-002;-2.275640377774835E-003;-1.833746442571282E-003;
2.410833333333334E+009;1.835350096225739E-001;2.235657721757889E-002;-2.386351581662893E-003;-1.864954130724073E-003;
2.411000000000000E+009;1.825996190309525E-001;2.021203003823757E-002;-2.482568845152855E-003;-1.876184367574751E-003;
2.411166666666667E+009;1.814137548208237E-001;1.820075325667858E-002;-2.696331823244691E-003;-1.770714530721307E-003;
2.411333333333334E+009;1.807424128055573E-001;1.573594100773335E-002;-2.769328420981765E-003;-1.603078329935670E-003;
2.411500000000000E+009;1.797528415918350E-001;1.353909634053707E-002;-2.847099909558892E-003;-1.516007119789720E-003;
2.411666666666667E+009;1.793380826711655E-001;1.102219335734844E-002;-3.002698998898268E-003;-1.445672824047506E-003;
2.411833333333334E+009;1.786770224571228E-001;8.512193337082863E-003;-2.930815331637859E-003;-1.347114099189639E-003;
2.412000000000000E+009;1.785707324743271E-001;5.918464157730341E-003;-3.113285638391972E-003;-1.119121094234288E-003;
2.412166666666667E+009;1.782561540603638E-001;3.550781635567546E-003;-3.112475387752056E-003;-1.032265601679683E-003;
2.412333333333334E+009;1.782073527574539E-001;6.985559011809528E-004;-3.184670116752386E-003;-9.438965353183448E-004;
2.412500000000000E+009;1.784619092941284E-001;-1.909113838337362E-003;-3.185518318787217E-003;-8.543937001377344E-004;
2.412666666666667E+009;1.788076311349869E-001;-4.534342791885138E-003;-3.234008094295859E-003;-6.591682322323322E-004;
2.412833333333334E+009;1.791346669197083E-001;-7.257512770593166E-003;-3.311318578198552E-003;-4.787209618370980E-004;
2.413000000000000E+009;1.795735359191895E-001;-9.808610193431377E-003;-3.276828676462174E-003;-4.537244967650622E-004;
2.413166666666667E+009;1.804090887308121E-001;-1.241805404424667E-002;-3.121843561530113E-003;-2.890647447202355E-004;
2.413333333333334E+009;1.812610626220703E-001;-1.492973975837231E-002;-3.273461945354939E-003;-2.218340960098431E-004;
2.413500000000000E+009;1.819542646408081E-001;-1.765451207756996E-002;-3.359528956934810E-003;-2.762857548077591E-005;
2.413666666666667E+009;1.830851286649704E-001;-2.008530870079994E-002;-3.324175486341119E-003;-8.468407031614333E-005;
2.413833333333334E+009;1.840048730373383E-001;-2.253527566790581E-002;-3.264809260144830E-003;6.661453517153859E-005;
2.414000000000000E+009;1.850191950798035E-001;-2.469036541879177E-002;-3.336202120408416E-003;2.816588676068932E-004;
2.414166666666667E+009;1.863728165626526E-001;-2.688089013099670E-002;-3.166679525747895E-003;4.055553581565619E-004;
2.414333333333334E+009;1.874959766864777E-001;-2.925392240285873E-002;-3.193488577380776E-003;4.236158856656402E-004;
2.414500000000000E+009;1.887909621000290E-001;-3.109137900173664E-002;-3.271280089393258E-003;6.474009715020657E-004;
2.414666666666667E+009;1.900618374347687E-001;-3.284750133752823E-002;-3.045768709853292E-003;7.885304512456060E-004;
2.414833333333334E+009;1.914440095424652E-001;-3.446987643837929E-002;-3.116708714514971E-003;7.171157049015164E-004;
2.415000000000000E+009;1.927132606506348E-001;-3.608639910817146E-002;-3.041963325813413E-003;9.644505917094648E-004;
2.415166666666667E+009;1.941404491662979E-001;-3.759294375777245E-002;-2.903981599956751E-003;1.034645480103791E-003;
2.415333333333334E+009;1.954878270626068E-001;-3.877181187272072E-002;-2.928204601630569E-003;1.054442953318358E-003;
2.415500000000000E+009;1.968262195587158E-001;-3.966204077005386E-002;-2.981321886181831E-003;1.284006284549832E-003;
2.415666666666667E+009;1.980863362550736E-001;-4.078331962227821E-002;-2.902277978137136E-003;1.160864136181772E-003;
2.415833333333334E+009;1.991410255432129E-001;-4.160873219370842E-002;-2.813323866575956E-003;1.422682777047157E-003;
2.416000000000000E+009;2.003505378961563E-001;-4.233449697494507E-002;-2.913800999522209E-003;1.602580305188894E-003;
2.416166666666667E+009;2.013022750616074E-001;-4.293276369571686E-002;-2.897816943004727E-003;1.754297525621951E-003;
2.416333333333334E+009;2.023688107728958E-001;-4.342947900295258E-002;-2.657999983057380E-003;1.744123757816851E-003;
2.416500000000000E+009;2.030827254056931E-001;-4.366176202893257E-002;-2.631826326251030E-003;2.138969022780657E-003;
2.416666666666667E+009;2.036233991384506E-001;-4.417994990944862E-002;-2.586365910246968E-003;1.924481359310448E-003;
2.416833333333334E+009;2.041686475276947E-001;-4.410953819751740E-002;-2.274725586175919E-003;2.202159957960248E-003;
2.417000000000000E+009;2.047633826732636E-001;-4.419420659542084E-002;-2.054483164101839E-003;2.237198641523719E-003;
2.417166666666667E+009;2.047818601131439E-001;-4.395750164985657E-002;-2.081456826999784E-003;2.334904391318560E-003;
2.417333333333334E+009;2.047122865915299E-001;-4.385837167501450E-002;-1.700154622085393E-003;2.217581029981375E-003;
2.417500000000000E+009;2.046715766191483E-001;-4.363068193197250E-002;-1.781877130270004E-003;2.117385854944587E-003;
2.417666666666667E+009;2.045346200466156E-001;-4.335989430546761E-002;-1.669839140959084E-003;2.086142543703318E-003;
2.417833333333334E+009;2.043878436088562E-001;-4.293551295995712E-002;-1.493466435931623E-003;2.016216982156038E-003;
2.418000000000000E+009;2.040090262889862E-001;-4.248158261179924E-002;-1.415381673723459E-003;2.014509402215481E-003;
2.418166666666667E+009;2.034544050693512E-001;-4.226122424006462E-002;-1.491541741415858E-003;1.900669070892036E-003;
2.418333333333334E+009;2.027788907289505E-001;-4.189915210008621E-002;-1.566835795529187E-003;1.984248170629144E-003;
2.418500000000000E+009;2.018834650516510E-001;-4.166807234287262E-002;-1.684942748397589E-003;1.800914527848363E-003;
2.418666666666667E+009;2.010555118322372E-001;-4.118250310420990E-002;-1.591197680681944E-003;1.968967029824853E-003;
2.418833333333334E+009;1.998765915632248E-001;-4.103799909353256E-002;-1.576953334733844E-003;2.101615536957979E-003;
2.419000000000000E+009;1.988153457641602E-001;-4.087512195110321E-002;-1.667905016802251E-003;2.219640184193850E-003;
2.419166666666667E+009;1.975620090961456E-001;-4.098613932728767E-002;-1.685344148427248E-003;2.280554967001081E-003;
2.419333333333334E+009;1.962499618530273E-001;-4.111658036708832E-002;-1.603597658686340E-003;2.257460961118341E-003;
2.419500000000000E+009;1.946564763784409E-001;-4.121199622750282E-002;-1.641162903979421E-003;2.467985264956951E-003;
2.419666666666667E+009;1.930560320615768E-001;-4.157630726695061E-002;-1.563439960591495E-003;2.664586296305060E-003;
2.419833333333334E+009;1.912448406219482E-001;-4.204617813229561E-002;-1.409207703545690E-003;2.799344249069691E-003;
2.420000000000000E+009;1.896032691001892E-001;-4.260964691638947E-002;-1.361218746751547E-003;2.899373415857554E-003;
2.420166666666667E+009;1.877222061157227E-001;-4.329915717244148E-002;-1.226642285473645E-003;2.920740749686956E-003;
2.420333333333334E+009;1.860621720552445E-001;-4.429021850228310E-002;-1.013319822959602E-003;2.979930490255356E-003;
2.420500000000000E+009;1.841383129358292E-001;-4.526950791478157E-002;-9.609573171474040E-004;3.093549283221364E-003;
2.420666666666667E+009;1.822598278522492E-001;-4.623396694660187E-002;-6.819647387601435E-004;2.981065073981881E-003;
2.420833333333334E+009;1.804015934467316E-001;-4.751080647110939E-002;-6.090647657401860E-004;3.086570650339127E-003;
2.421000000000000E+009;1.786624789237976E-001;-4.882047325372696E-002;-4.251744830980897E-004;2.962156897410750E-003;
2.421166666666667E+009;1.769517511129379E-001;-5.035492405295372E-002;-2.683862112462521E-004;3.118260530754924E-003;
2.421333333333334E+009;1.750168800354004E-001;-5.172226577997208E-002;-8.926283044274896E-005;2.969786291942000E-003;
2.421500000000000E+009;1.734542250633240E-001;-5.376100912690163E-002;-1.627733436180279E-004;2.992740133777261E-003;
2.421666666666667E+009;1.719712615013123E-001;-5.554172396659851E-002;-7.017025927780196E-005;2.899538958445191E-003;
2.421833333333334E+009;1.702198386192322E-001;-5.732086673378944E-002;6.790109182475135E-005;2.812165999785066E-003;
2.422000000000000E+009;1.689067184925079E-001;-5.920833721756935E-002;2.832612080965191E-004;2.834144048392773E-003;
2.422166666666667E+009;1.678105443716049E-001;-6.149420142173767E-002;5.193355027586222E-004;2.847723430022597E-003;
2.422333333333334E+009;1.662827581167221E-001;-6.351938843727112E-002;4.766412603203207E-004;2.792423125356436E-003;
2.422500000000000E+009;1.653792858123779E-001;-6.547109037637711E-002;5.358287598937750E-004;2.593432553112507E-003;
2.422666666666667E+009;1.643784493207932E-001;-6.765018403530121E-002;5.998679553158581E-004;2.695295494049788E-003;
2.422833333333334E+009;1.636859476566315E-001;-6.987493485212326E-002;7.203819695860148E-004;2.580368658527732E-003;
2.423000000000000E+009;1.629740297794342E-001;-7.232385128736496E-002;7.171593606472015E-004;2.642695093527436E-003;
2.423166666666667E+009;1.622660905122757E-001;-7.442060858011246E-002;9.868848137557507E-004;2.541556721553206E-003;
2.423333333333334E+009;1.620619446039200E-001;-7.672922313213348E-002;9.195330785587430E-004;2.537674736231566E-003;
2.423500000000000E+009;1.617210656404495E-001;-7.874637097120285E-002;9.780335240066052E-004;2.272778656333685E-003;
2.423666666666667E+009;1.617042720317841E-001;-8.088243007659912E-002;1.113747246563435E-003;2.407287713140249E-003;
2.423833333333334E+009;1.613850146532059E-001;-8.304828405380249E-002;1.196927856653929E-003;2.290638163685799E-003;
2.424000000000000E+009;1.616050302982330E-001;-8.511129021644592E-002;9.858428966253996E-004;2.323308959603310E-003;
2.424166666666667E+009;1.615988761186600E-001;-8.696042001247406E-002;1.196992117911577E-003;2.256424864754081E-003;
2.424333333333334E+009;1.618767827749252E-001;-8.885069936513901E-002;1.096959924325347E-003;2.037563128396869E-003;
2.424500000000000E+009;1.621183305978775E-001;-9.091826528310776E-002;1.238579628989101E-003;1.986821647733450E-003;
2.424666666666667E+009;1.626144498586655E-001;-9.258211404085159E-002;1.396091189235449E-003;2.020181389525533E-003;
2.424833333333334E+009;1.631480753421783E-001;-9.415646642446518E-002;1.378249144181609E-003;1.977903768420219E-003;
2.425000000000000E+009;1.637006551027298E-001;-9.566926211118698E-002;1.339179929345846E-003;1.937262597493827E-003;
2.425166666666667E+009;1.640264391899109E-001;-9.697967022657394E-002;1.497297780588269E-003;1.863303128629923E-003;
2.425333333333334E+009;1.647232174873352E-001;-9.838742762804031E-002;1.591228879988194E-003;1.887594233267009E-003;
2.425500000000000E+009;1.653276234865189E-001;-9.955389052629471E-002;1.478574355132878E-003;1.785655622370541E-003;
2.425666666666667E+009;1.659992635250092E-001;-1.005113571882248E-001;1.683010836131871E-003;1.606653560884297E-003;
2.425833333333334E+009;1.665205806493759E-001;-1.015741229057312E-001;1.675991807132959E-003;1.794178038835526E-003;
2.426000000000000E+009;1.672048419713974E-001;-1.021814495325089E-001;1.710189739242196E-003;1.584811019711196E-003;
2.426166666666667E+009;1.678507328033447E-001;-1.028914824128151E-001;1.745053334161639E-003;1.454555313102901E-003;
2.426333333333334E+009;1.683522611856461E-001;-1.035835444927216E-001;1.555240480229259E-003;1.415994833223522E-003;
2.426500000000000E+009;1.691130399703980E-001;-1.038224175572395E-001;1.601400668732822E-003;1.403324888087809E-003;
2.426666666666667E+009;1.696470528841019E-001;-1.042353436350822E-001;1.842068857513368E-003;1.225337502546608E-003;
2.426833333333334E+009;1.702839732170105E-001;-1.047125011682510E-001;1.700695604085922E-003;1.229966059327126E-003;
2.427000000000000E+009;1.706632524728775E-001;-1.047644466161728E-001;1.747368602082133E-003;1.101239118725061E-003;
2.427166666666667E+009;1.710400730371475E-001;-1.049928665161133E-001;1.829144544899464E-003;1.202800194732845E-003;
2.427333333333334E+009;1.712905764579773E-001;-1.051817163825035E-001;1.766794594004750E-003;1.024041674099863E-003;
2.427500000000000E+009;1.714234650135040E-001;-1.053102985024452E-001;1.818333053961396E-003;9.757754160091281E-004;
2.427666666666667E+009;1.714437305927277E-001;-1.052484214305878E-001;1.831142581067979E-003;9.119361056946218E-004;
