# Version 1.00
#
freq[Hz];re:Trc1_S11;im:Trc1_S11;re:Trc2_S21;im:Trc2_S21;
2.400000000000000E+009;1.576388925313950E-001;1.117222532629967E-001;3.644610289484263E-003;-1.610021921806037E-003;
2.400166666666667E+009;1.571242958307266E-001;1.097057387232781E-001;3.648106241598725E-003;-1.988418400287628E-003;
2.400333333333334E+009;1.566577404737473E-001;1.075568348169327E-001;3.462709020823240E-003;-2.142035402357578E-003;
2.400500000000000E+009;1.564970612525940E-001;1.047609224915505E-001;3.425675677135587E-003;-2.611805917695165E-003;
2.400666666666667E+009;1.560415774583817E-001;1.023681014776230E-001;3.428343916311860E-003;-2.871946198865771E-003;
2.400833333333334E+009;1.555444747209549E-001;9.968750178813934E-002;3.124137874692679E-003;-2.909901784732938E-003;
2.401000000000000E+009;1.555415093898773E-001;9.679736942052841E-002;2.814752282574773E-003;-3.223670879378915E-003;
2.401166666666667E+009;1.551876217126846E-001;9.389431029558182E-002;2.581938402727246E-003;-3.397533437237144E-003;
2.401333333333334E+009;1.552658379077911E-001;9.118220955133438E-002;2.297035651281476E-003;-3.448401112109423E-003;
2.401500000000000E+009;1.551985442638397E-001;8.802290260791779E-002;1.959440996870399E-003;-3.445322159677744E-003;
2.401666666666667E+009;1.551623195409775E-001;8.489191532135010E-002;1.776688150130212E-003;-3.443330759182572E-003;
2.401833333333334E+009;1.554605811834335E-001;8.208636939525604E-002;1.701355911791325E-003;-3.480820450931788E-003;
2.402000000000000E+009;1.558923572301865E-001;7.927411049604416E-002;1.545300241559744E-003;-3.577649826183915E-003;
2.402166666666667E+009;1.563712805509567E-001;7.620888948440552E-002;1.313868095166981E-003;-3.460408188402653E-003;
2.402333333333334E+009;1.569980531930924E-001;7.347469776868820E-002;1.243837992660701E-003;-3.451074473559856E-003;
2.402500000000000E+009;1.579990237951279E-001;7.045383751392365E-002;1.066003227606416E-003;-3.476400393992662E-003;
2.402666666666667E+009;1.588532328605652E-001;6.777612119913101E-002;8.207756909541786E-004;-3.351555904373527E-003;
2.402833333333334E+009;1.599498540163040E-001;6.513761729001999E-002;7.534362957812846E-004;-3.261565696448088E-003;
2.403000000000000E+009;1.613497883081436E-001;6.223691999912262E-002;5.623801262117922E-004;-3.258185228332877E-003;
2.403166666666667E+009;1.627988219261169E-001;5.995114147663117E-002;5.197130958549678E-004;-3.156982827931643E-003;
2.403333333333334E+009;1.642741411924362E-001;5.728397890925407E-002;5.384304095059633E-004;-3.238784382119775E-003;
2.403500000000000E+009;1.659610122442246E-001;5.497847124934197E-002;2.776712935883552E-004;-3.259861608967185E-003;
2.403666666666667E+009;1.676206290721893E-001;5.244767293334007E-002;4.080129729118198E-004;-3.512727096676827E-003;
2.403833333333334E+009;1.694752573966980E-001;5.023910105228424E-002;3.187628753948957E-004;-3.251078771427274E-003;
2.404000000000000E+009;1.708837598562241E-001;4.828934371471405E-002;3.136573359370232E-004;-3.394663333892822E-003;
2.404166666666667E+009;1.728027164936066E-001;4.627502709627152E-002;2.794826577883214E-004;-3.163009649142623E-003;
2.404333333333334E+009;1.747169941663742E-001;4.444860294461250E-002;2.019273379119113E-004;-3.225992666557431E-003;
2.404500000000000E+009;1.762989610433579E-001;4.259478673338890E-002;1.191984847537242E-004;-3.258218290284276E-003;
2.404666666666667E+009;1.782610565423966E-001;4.124947637319565E-002;1.190997954836348E-005;-3.140027634799480E-003;
2.404833333333334E+009;1.802125275135040E-001;3.988527879118919E-002;-1.094040562747978E-004;-3.461927641183138E-003;
2.405000000000000E+009;1.817967146635056E-001;3.893661871552467E-002;-2.207590587204322E-004;-3.342752112075687E-003;
2.405166666666667E+009;1.835596859455109E-001;3.807472065091133E-002;-4.936702316626906E-004;-3.405931405723095E-003;
2.405333333333334E+009;1.851716190576553E-001;3.740868344902992E-002;-6.325632566586137E-004;-3.434640821069479E-003;
2.405500000000000E+009;1.868796348571777E-001;3.666840493679047E-002;-6.330351461656392E-004;-3.256921889260411E-003;
2.405666666666667E+009;1.884412765502930E-001;3.620272874832153E-002;-8.299865876324475E-004;-3.293641144409776E-003;
2.405833333333334E+009;1.901327222585678E-001;3.591970354318619E-002;-9.360436233691871E-004;-3.107073483988643E-003;
2.406000000000000E+009;1.915568262338638E-001;3.561896830797195E-002;-9.925496997311711E-004;-3.197189886122942E-003;
2.406166666666667E+009;1.928535103797913E-001;3.550566360354424E-002;-1.272228080779314E-003;-3.078476060181856E-003;
2.406333333333334E+009;1.941227912902832E-001;3.552693873643875E-002;-1.216866658069193E-003;-2.995657734572887E-003;
2.406500000000000E+009;1.951457113027573E-001;3.568711131811142E-002;-1.344935502856970E-003;-2.930223010480404E-003;
2.406666666666667E+009;1.962377130985260E-001;3.568110615015030E-002;-1.453881268389523E-003;-2.710946602746844E-003;
2.406833333333334E+009;1.971238553524017E-001;3.582759946584702E-002;-1.476896810345352E-003;-2.661284292116761E-003;
2.407000000000000E+009;1.978350728750229E-001;3.634099662303925E-002;-1.801586011424661E-003;-2.575804712250829E-003;
2.407166666666667E+009;1.984842270612717E-001;3.631069138646126E-002;-1.573618734255433E-003;-2.566987182945013E-003;
2.407333333333334E+009;1.986995488405228E-001;3.680159151554108E-002;-1.631710794754326E-003;-2.457057824358344E-003;
2.407500000000000E+009;1.990666687488556E-001;3.712217137217522E-002;-1.688662101514638E-003;-2.379281213507056E-003;
2.407666666666667E+009;1.993571221828461E-001;3.731617704033852E-002;-1.610248349606991E-003;-2.419583732262254E-003;
2.407833333333334E+009;1.990796327590942E-001;3.750362619757652E-002;-1.665079034864903E-003;-2.334146294742823E-003;
2.408000000000000E+009;1.994080841541290E-001;3.768686577677727E-002;-1.788530964404345E-003;-2.245001029223204E-003;
2.408166666666667E+009;1.987818330526352E-001;3.789794445037842E-002;-1.799350837245584E-003;-2.137407194823027E-003;
2.408333333333334E+009;1.987314522266388E-001;3.767558932304382E-002;-1.899926690384746E-003;-2.166742226108909E-003;
2.408500000000000E+009;1.981201767921448E-001;3.773475065827370E-002;-1.866643433459103E-003;-2.054036129266024E-003;
2.408666666666667E+009;1.974712759256363E-001;3.764409944415093E-002;-1.894191838800907E-003;-2.038567326962948E-003;
2.408833333333334E+009;1.968157738447189E-001;3.738971427083015E-002;-2.003600122407079E-003;-2.033773344010115E-003;
2.409000000000000E+009;1.959026157855988E-001;3.681411594152451E-002;-1.982640940696001E-003;-1.813084934838116E-003;
2.409166666666667E+009;1.950734853744507E-001;3.647926822304726E-002;-1.899178838357329E-003;-1.775400247424841E-003;
2.409333333333334E+009;1.940466761589050E-001;3.574722632765770E-002;-2.003825735300779E-003;-1.870916690677404E-003;
2.409500000000000E+009;1.927540302276611E-001;3.478781133890152E-002;-1.975209219381213E-003;-1.844616141170263E-003;
2.409666666666667E+009;1.916484981775284E-001;3.385120630264282E-002;-1.913075800985098E-003;-1.671819249168038E-003;
2.409833333333334E+009;1.905117779970169E-001;3.275627642869949E-002;-1.945097115822136E-003;-1.846916391514242E-003;
2.410000000000000E+009;1.893838793039322E-001;3.137395530939102E-002;-1.934382598847151E-003;-1.764594111591578E-003;
2.410166666666667E+009;1.880896240472794E-001;2.990168519318104E-002;-2.021786523982883E-003;-1.947178272530437E-003;
2.410333333333334E+009;1.868742257356644E-001;2.829960174858570E-002;-2.046440495178103E-003;-1.856797607615590E-003;
2.410500000000000E+009;1.855703890323639E-001;2.657809108495712E-002;-2.177293412387371E-003;-1.896405476145446E-003;
2.410666666666667E+009;1.843647658824921E-001;2.455401979386807E-002;-2.317363861948252E-003;-1.871221582405269E-003;
2.410833333333334E+009;1.835047155618668E-001;2.257450297474861E-002;-2.417616778984666E-003;-1.771850045770407E-003;
2.411000000000000E+009;1.824408769607544E-001;2.050026319921017E-002;-2.488667611032724E-003;-1.678754459135234E-003;
2.411166666666667E+009;1.814540028572083E-001;1.836268231272697E-002;-2.622693078592420E-003;-1.661103451624513E-003;
2.411333333333334E+009;1.806865036487579E-001;1.593110524117947E-002;-2.833944512531161E-003;-1.614466193132103E-003;
2.411500000000000E+009;1.796106100082398E-001;1.358850393444300E-002;-2.970292465761304E-003;-1.531112357042730E-003;
2.411666666666667E+009;1.794762760400772E-001;1.121020969003439E-002;-2.959109377115965E-003;-1.424430171027780E-003;
2.411833333333334E+009;1.787399351596832E-001;8.695968426764011E-003;-2.916114870458841E-003;-1.266718842089176E-003;
2.412000000000000E+009;1.783255934715271E-001;6.141249556094408E-003;-3.092893864959478E-003;-1.096389023587108E-003;
2.412166666666667E+009;1.780923902988434E-001;3.602510783821344E-003;-3.142524277791381E-003;-1.121391775086522E-003;
2.412333333333334E+009;1.781647801399231E-001;1.037678215652704E-003;-3.168551716953516E-003;-8.991997456178069E-004;
2.412500000000000E+009;1.782034039497376E-001;-1.393879880197346E-003;-3.280664561316371E-003;-7.082694792188704E-004;
2.412666666666667E+009;1.783949434757233E-001;-4.369453527033329E-003;-3.284152364358306E-003;-7.185067515820265E-004;
2.412833333333334E+009;1.790361255407333E-001;-6.899921689182520E-003;-3.154291538521648E-003;-5.423481925390661E-004;
2.413000000000000E+009;1.795253753662109E-001;-9.602144360542297E-003;-3.253525123000145E-003;-3.355563094373792E-004;
2.413166666666667E+009;1.801071763038635E-001;-1.200992986559868E-002;-3.222358645871282E-003;-2.083475847030059E-004;
2.413333333333334E+009;1.812046617269516E-001;-1.456411089748144E-002;-3.298730123788118E-003;-1.600096729816869E-004;
2.413500000000000E+009;1.817321479320526E-001;-1.727891340851784E-002;-3.188307862728834E-003;-3.384164301678538E-005;
2.413666666666667E+009;1.829835027456284E-001;-1.988081075251102E-002;-3.291607135906816E-003;1.411339212609164E-006;
2.413833333333334E+009;1.839684993028641E-001;-2.217225544154644E-002;-3.236442571505904E-003;2.119530108757317E-004;
2.414000000000000E+009;1.850968897342682E-001;-2.453331835567951E-002;-3.122240072116256E-003;3.498522273730487E-004;
2.414166666666667E+009;1.862978637218475E-001;-2.671170420944691E-002;-3.119587199762464E-003;3.988165990449488E-004;
2.414333333333334E+009;1.875857561826706E-001;-2.893535792827606E-002;-3.143770853057504E-003;5.989518831484020E-004;
2.414500000000000E+009;1.889853775501251E-001;-3.078243322670460E-002;-2.991712884977460E-003;6.445000180974603E-004;
2.414666666666667E+009;1.902281343936920E-001;-3.256110101938248E-002;-3.062690608203411E-003;8.185121114365757E-004;
2.414833333333334E+009;1.914187818765640E-001;-3.440309688448906E-002;-3.182063577696681E-003;7.415414438582957E-004;
2.415000000000000E+009;1.927708387374878E-001;-3.578159958124161E-002;-3.074367297813296E-003;8.575267274864018E-004;
2.415166666666667E+009;1.941427141427994E-001;-3.729593008756638E-002;-3.014266723766923E-003;1.038476824760437E-003;
2.415333333333334E+009;1.955945044755936E-001;-3.848560154438019E-002;-2.932271920144558E-003;1.028191065415740E-003;
2.415500000000000E+009;1.968877017498016E-001;-3.951414674520493E-002;-2.850227290764451E-003;1.153805875219405E-003;
2.415666666666667E+009;1.982617080211639E-001;-4.055858775973320E-002;-2.928258385509253E-003;1.244080951437354E-003;
2.415833333333334E+009;1.994173079729080E-001;-4.142311215400696E-002;-2.910891780629754E-003;1.302831340581179E-003;
2.416000000000000E+009;2.003304511308670E-001;-4.210893437266350E-002;-2.916409401223064E-003;1.453901058994234E-003;
2.416166666666667E+009;2.014689594507217E-001;-4.285799339413643E-002;-2.861669985577464E-003;1.670545898377895E-003;
2.416333333333334E+009;2.024750858545303E-001;-4.317132756114006E-002;-2.685255138203502E-003;1.850579516030848E-003;
2.416500000000000E+009;2.032268941402435E-001;-4.357719048857689E-002;-2.705989638343453E-003;1.897940528579056E-003;
2.416666666666667E+009;2.038295120000839E-001;-4.391450807452202E-002;-2.504400210455060E-003;2.008660929277539E-003;
2.416833333333334E+009;2.042401880025864E-001;-4.397888109087944E-002;-2.362245228141546E-003;2.274316269904375E-003;
2.417000000000000E+009;2.048409879207611E-001;-4.405623301863670E-002;-2.210110425949097E-003;2.302021486684680E-003;
2.417166666666667E+009;2.048828750848770E-001;-4.389634728431702E-002;-1.983130117878318E-003;2.203356241807342E-003;
2.417333333333334E+009;2.049908787012100E-001;-4.364253208041191E-002;-1.796251512132585E-003;2.220158232375979E-003;
2.417500000000000E+009;2.050863206386566E-001;-4.350783675909042E-002;-1.705528819002211E-003;2.120964927598834E-003;
2.417666666666667E+009;2.048003077507019E-001;-4.322553798556328E-002;-1.643684809096158E-003;2.082921564579010E-003;
2.417833333333334E+009;2.046705782413483E-001;-4.283627495169640E-002;-1.647503348067403E-003;2.022080356255174E-003;
2.418000000000000E+009;2.042077779769898E-001;-4.238442704081535E-002;-1.566083403304219E-003;2.056987723335624E-003;
2.418166666666667E+009;2.036155164241791E-001;-4.205416887998581E-002;-1.518742530606687E-003;2.056940924376249E-003;
2.418333333333334E+009;2.029308527708054E-001;-4.180662706494331E-002;-1.629331032745540E-003;1.983442343771458E-003;
2.418500000000000E+009;2.021327614784241E-001;-4.141069203615189E-002;-1.666235853917897E-003;1.810174901038408E-003;
2.418666666666667E+009;2.013991773128510E-001;-4.100358486175537E-002;-1.696942723356187E-003;2.032762626186013E-003;
2.418833333333334E+009;2.001983076334000E-001;-4.091582447290421E-002;-1.600442454218864E-003;1.913184649311006E-003;
2.419000000000000E+009;1.990002393722534E-001;-4.077552258968353E-002;-1.651192666031420E-003;2.178187714889646E-003;
2.419166666666667E+009;1.977716386318207E-001;-4.087397083640099E-002;-1.720297965221107E-003;2.323408611118794E-003;
2.419333333333334E+009;1.962683945894241E-001;-4.092206805944443E-002;-1.658965717069805E-003;2.294047502800822E-003;
2.419500000000000E+009;1.948909759521484E-001;-4.109203442931175E-002;-1.569276675581932E-003;2.473882865160704E-003;
2.419666666666667E+009;1.931209564208984E-001;-4.155825451016426E-002;-1.534124487079680E-003;2.740558702498674E-003;
2.419833333333334E+009;1.914585828781128E-001;-4.193036258220673E-002;-1.416784478351474E-003;2.804527524858713E-003;
2.420000000000000E+009;1.898313760757446E-001;-4.257648065686226E-002;-1.428127754479647E-003;2.927824389189482E-003;
2.420166666666667E+009;1.881427913904190E-001;-4.318595305085182E-002;-1.166294445283711E-003;2.983945887535811E-003;
2.420333333333334E+009;1.863733381032944E-001;-4.395508393645287E-002;-9.448619675822556E-004;3.121820976957679E-003;
2.420500000000000E+009;1.843910813331604E-001;-4.512634128332138E-002;-8.935146615840495E-004;3.131649922579527E-003;
2.420666666666667E+009;1.825528591871262E-001;-4.602695629000664E-002;-6.412315415218473E-004;3.025167854502797E-003;
2.420833333333334E+009;1.807581186294556E-001;-4.750267788767815E-002;-5.927062011323869E-004;3.036777023226023E-003;
2.421000000000000E+009;1.788921952247620E-001;-4.874341562390328E-002;-3.507915535010397E-004;3.070006379857659E-003;
2.421166666666667E+009;1.773467063903809E-001;-5.029093101620674E-002;-1.738495921017602E-004;3.091538557782769E-003;
2.421333333333334E+009;1.753092408180237E-001;-5.174400284886360E-002;-2.178082504542545E-004;2.981071360409260E-003;
2.421500000000000E+009;1.736876368522644E-001;-5.371796339750290E-002;8.274302672361955E-005;3.082366893067956E-003;
2.421666666666667E+009;1.719461530447006E-001;-5.534021928906441E-002;-4.099584475625306E-005;2.865369431674480E-003;
2.421833333333334E+009;1.706037670373917E-001;-5.734517425298691E-002;1.891975261969492E-004;3.017144277691841E-003;
2.422000000000000E+009;1.690422743558884E-001;-5.925480648875237E-002;2.616999845486134E-004;2.954269992187619E-003;
2.422166666666667E+009;1.680906265974045E-001;-6.137584894895554E-002;2.796007611323148E-004;2.981734694913030E-003;
2.422333333333334E+009;1.666423976421356E-001;-6.361600011587143E-002;4.746621998492628E-004;2.895144512876868E-003;
2.422500000000000E+009;1.656481623649597E-001;-6.546067446470261E-002;5.401438684202731E-004;2.762143965810537E-003;
2.422666666666667E+009;1.645648181438446E-001;-6.770177185535431E-002;5.846737767569721E-004;2.844059141352773E-003;
2.422833333333334E+009;1.638913154602051E-001;-6.990902870893478E-002;8.074460783973336E-004;2.661013975739479E-003;
2.423000000000000E+009;1.632524579763413E-001;-7.218491286039352E-002;8.373941527679563E-004;2.603936707600951E-003;
2.423166666666667E+009;1.627236753702164E-001;-7.443415373563767E-002;9.499146835878491E-004;2.549090888351202E-003;
2.423333333333334E+009;1.621563881635666E-001;-7.679238170385361E-002;1.052694977261126E-003;2.490130485966802E-003;
2.423500000000000E+009;1.620088368654251E-001;-7.863175868988037E-002;8.263484924100339E-004;2.460552845150232E-003;
2.423666666666667E+009;1.618819832801819E-001;-8.100384473800659E-002;1.044545904733241E-003;2.300717402249575E-003;
2.423833333333334E+009;1.617180258035660E-001;-8.312983065843582E-002;9.463548776693642E-004;2.113978844136000E-003;
2.424000000000000E+009;1.619121730327606E-001;-8.520830422639847E-002;1.131664612330496E-003;2.096165902912617E-003;
2.424166666666667E+009;1.617850214242935E-001;-8.712691068649292E-002;1.287408987991512E-003;2.084934618324041E-003;
2.424333333333334E+009;1.621111333370209E-001;-8.889470994472504E-002;1.206139917485416E-003;2.083156956359744E-003;
2.424500000000000E+009;1.624834239482880E-001;-9.095854312181473E-002;1.321931718848646E-003;2.049668459221721E-003;
2.424666666666667E+009;1.626257449388504E-001;-9.260199964046478E-002;1.273925532586873E-003;2.093211980536580E-003;
2.424833333333334E+009;1.634461134672165E-001;-9.424493461847305E-002;1.361513510346413E-003;1.917510177008808E-003;
2.425000000000000E+009;1.639447510242462E-001;-9.574095159769058E-002;1.399497501552105E-003;1.944913063198328E-003;
2.425166666666667E+009;1.643342077732086E-001;-9.714321792125702E-002;1.493492163717747E-003;1.912265783175826E-003;
2.425333333333334E+009;1.649363189935684E-001;-9.850869327783585E-002;1.518677105195820E-003;1.881118747405708E-003;
2.425500000000000E+009;1.653956472873688E-001;-9.970781952142716E-002;1.538093434646726E-003;1.788033521734178E-003;
2.425666666666667E+009;1.661335378885269E-001;-1.005192250013351E-001;1.551881548948586E-003;1.809054985642433E-003;
2.425833333333334E+009;1.667643934488297E-001;-1.016266718506813E-001;1.546618645079434E-003;1.785862259566784E-003;
2.426000000000000E+009;1.674120873212814E-001;-1.022784486413002E-001;1.656359527260065E-003;1.476613106206060E-003;
2.426166666666667E+009;1.681013405323029E-001;-1.029560118913651E-001;1.613264204934239E-003;1.393817481584847E-003;
2.426333333333334E+009;1.684609949588776E-001;-1.036466658115387E-001;1.723046880215406E-003;1.415235921740532E-003;
2.426500000000000E+009;1.693103611469269E-001;-1.040921956300736E-001;1.689824392087758E-003;1.386653631925583E-003;
2.426666666666667E+009;1.698498874902725E-001;-1.044632196426392E-001;1.789692672900856E-003;1.406599185429514E-003;
2.426833333333334E+009;1.703902333974838E-001;-1.048516705632210E-001;1.738101709634066E-003;1.297361101023853E-003;
2.427000000000000E+009;1.707290858030319E-001;-1.050338372588158E-001;1.745749381370843E-003;1.304898178204894E-003;
2.427166666666667E+009;1.711918264627457E-001;-1.051128730177879E-001;1.824449631385505E-003;1.163342385552824E-003;
2.427333333333334E+009;1.714810281991959E-001;-1.053301617503166E-001;1.816881354898214E-003;1.060698647052050E-003;
2.427500000000000E+009;1.715195029973984E-001;-1.055078357458115E-001;1.726924558170140E-003;1.102968235500157E-003;
2.427666666666667E+009;1.716173738241196E-001;-1.054525151848793E-001;1.765094348229468E-003;9.549317182973027E-004;
