# Version 1.00
#
freq[Hz];re:Trc1_S11;im:Trc1_S11;re:Trc2_S21;im:Trc2_S21;
2.400000000000000E+009;1.573420017957687E-001;1.118655949831009E-001;3.690279088914394E-003;-1.797416363842785E-003;
2.400166666666667E+009;1.567573100328445E-001;1.096495762467384E-001;3.587977495044470E-003;-2.086957683786750E-003;
2.400333333333334E+009;1.565574854612351E-001;1.076132059097290E-001;3.468846902251244E-003;-2.299358136951923E-003;
2.400500000000000E+009;1.559157818555832E-001;1.049796417355537E-001;3.450655844062567E-003;-2.624229062348604E-003;
2.400666666666667E+009;1.558865755796433E-001;1.025884151458740E-001;3.219433594495058E-003;-2.804423915222287E-003;
2.400833333333334E+009;1.554741412401199E-001;9.988968074321747E-002;3.112164558842778E-003;-3.176802070811391E-003;
2.401000000000000E+009;1.552890837192535E-001;9.685249626636505E-002;2.827358199283481E-003;-3.212715033441782E-003;
2.401166666666667E+009;1.548692137002945E-001;9.411054849624634E-002;2.631273120641708E-003;-3.292097011581063E-003;
2.401333333333334E+009;1.550228893756867E-001;9.121373295783997E-002;2.322516404092312E-003;-3.469244344159961E-003;
2.401500000000000E+009;1.549882739782333E-001;8.833739906549454E-002;2.205737400799990E-003;-3.669189987704158E-003;
2.401666666666667E+009;1.550395190715790E-001;8.537169545888901E-002;2.007890259847045E-003;-3.611567663028836E-003;
2.401833333333334E+009;1.552091687917709E-001;8.224104344844818E-002;1.586426747962833E-003;-3.707846393808723E-003;
2.402000000000000E+009;1.558302044868469E-001;7.914108037948608E-002;1.510323607362807E-003;-3.839190816506743E-003;
2.402166666666667E+009;1.563678085803986E-001;7.677859812974930E-002;1.319155562669039E-003;-3.438153071328998E-003;
2.402333333333334E+009;1.570966094732285E-001;7.352498173713684E-002;1.557229203172028E-003;-3.368800040334463E-003;
2.402500000000000E+009;1.579033732414246E-001;7.037231326103210E-002;1.463741995394230E-003;-3.641639836132526E-003;
2.402666666666667E+009;1.590293794870377E-001;6.804654002189636E-002;1.129873562604189E-003;-3.592017339542508E-003;
2.402833333333334E+009;1.597627699375153E-001;6.532512605190277E-002;8.248165249824524E-004;-3.364352742210031E-003;
2.403000000000000E+009;1.612678319215775E-001;6.252815574407578E-002;6.683544488623738E-004;-3.503648098558188E-003;
2.403166666666667E+009;1.628220975399017E-001;5.996303632855415E-002;7.482982473447919E-004;-3.724597161635757E-003;
2.403333333333334E+009;1.641879230737686E-001;5.744710937142372E-002;7.080363575369120E-004;-3.566210158169270E-003;
2.403500000000000E+009;1.657003164291382E-001;5.524701252579689E-002;5.380215588957071E-004;-2.874674275517464E-003;
2.403666666666667E+009;1.676980406045914E-001;5.280679836869240E-002;5.962384166195989E-004;-3.124497365206480E-003;
2.403833333333334E+009;1.691343486309052E-001;5.045368522405624E-002;4.051542491652072E-004;-3.315081121399999E-003;
2.404000000000000E+009;1.708573400974274E-001;4.848309978842735E-002;3.513896372169256E-004;-3.324996680021286E-003;
2.404166666666667E+009;1.726928502321243E-001;4.653190821409226E-002;1.658374094404280E-004;-3.349449019879103E-003;
2.404333333333334E+009;1.744099557399750E-001;4.480243846774101E-002;-4.090243965038098E-005;-3.355772467330098E-003;
2.404500000000000E+009;1.761955022811890E-001;4.292896762490273E-002;4.564654591376893E-005;-3.448760369792581E-003;
2.404666666666667E+009;1.780976206064224E-001;4.166029021143913E-002;-1.193772041006014E-004;-3.341363975778222E-003;
2.404833333333334E+009;1.800981462001801E-001;4.019919037818909E-002;-3.954073326895014E-005;-3.355484455823898E-003;
2.405000000000000E+009;1.816150248050690E-001;3.955895453691483E-002;-3.816431271843612E-004;-3.466999391093850E-003;
2.405166666666667E+009;1.832978874444962E-001;3.838275745511055E-002;-3.730283642653376E-004;-3.250377485528588E-003;
2.405333333333334E+009;1.850467771291733E-001;3.775911405682564E-002;-5.453552585095167E-004;-3.269214183092117E-003;
2.405500000000000E+009;1.866906434297562E-001;3.710155561566353E-002;-7.806615903973579E-004;-3.296114271506667E-003;
2.405666666666667E+009;1.883335560560226E-001;3.659138828516007E-002;-8.888098527677357E-004;-3.329435829073191E-003;
2.405833333333334E+009;1.899976730346680E-001;3.622727096080780E-002;-8.327196701429784E-004;-3.488701768219471E-003;
2.406000000000000E+009;1.912159025669098E-001;3.605116158723831E-002;-9.905918268486857E-004;-3.171660006046295E-003;
2.406166666666667E+009;1.926566362380981E-001;3.594705089926720E-002;-1.084196381270886E-003;-3.054204396903515E-003;
2.406333333333334E+009;1.940297335386276E-001;3.590560331940651E-002;-1.365979667752981E-003;-3.043997334316373E-003;
2.406500000000000E+009;1.951177865266800E-001;3.613842278718948E-002;-1.513133873231709E-003;-2.922120736911893E-003;
2.406666666666667E+009;1.961562335491180E-001;3.608231246471405E-002;-1.504681189544499E-003;-2.748614642769098E-003;
2.406833333333334E+009;1.969719082117081E-001;3.629769012331963E-002;-1.667138421908021E-003;-2.749316161498427E-003;
2.407000000000000E+009;1.976806074380875E-001;3.666105493903160E-002;-1.484023174270988E-003;-2.596366219222546E-003;
2.407166666666667E+009;1.984286010265350E-001;3.670990094542503E-002;-1.562314573675394E-003;-2.481433097273111E-003;
2.407333333333334E+009;1.986801177263260E-001;3.717682510614395E-002;-1.566425198689103E-003;-2.504163188859820E-003;
2.407500000000000E+009;1.990125030279160E-001;3.752527758479118E-002;-1.628141617402434E-003;-2.501063281670213E-003;
2.407666666666667E+009;1.993971019983292E-001;3.775769099593163E-002;-1.715028076432645E-003;-2.352830953896046E-003;
2.407833333333334E+009;1.991054564714432E-001;3.791342303156853E-002;-1.833894872106612E-003;-2.455744659528136E-003;
2.408000000000000E+009;1.992829144001007E-001;3.808753564953804E-002;-1.820163568481803E-003;-2.313467673957348E-003;
2.408166666666667E+009;1.988270878791809E-001;3.816339746117592E-002;-1.844502403400838E-003;-2.237610286101699E-003;
2.408333333333334E+009;1.987383812665939E-001;3.812628984451294E-002;-1.894852030090988E-003;-2.066034357994795E-003;
2.408500000000000E+009;1.980268061161041E-001;3.803520277142525E-002;-2.039293525740504E-003;-2.086288528516889E-003;
2.408666666666667E+009;1.975767463445664E-001;3.801899030804634E-002;-1.827883068472147E-003;-1.983121037483215E-003;
2.408833333333334E+009;1.969639211893082E-001;3.766115382313728E-002;-2.035299548879266E-003;-1.968504395335913E-003;
2.409000000000000E+009;1.959929764270783E-001;3.710844367742539E-002;-2.079296857118607E-003;-1.873442553915083E-003;
2.409166666666667E+009;1.951571106910706E-001;3.675629943609238E-002;-1.948443474248052E-003;-1.913710613735020E-003;
2.409333333333334E+009;1.940732300281525E-001;3.601262718439102E-002;-2.016520593315363E-003;-1.670998870395124E-003;
2.409500000000000E+009;1.928541809320450E-001;3.488501906394959E-002;-1.859635463915765E-003;-1.697964267805219E-003;
2.409666666666667E+009;1.918222159147263E-001;3.403922170400620E-002;-2.153013600036502E-003;-1.875115209259093E-003;
2.409833333333334E+009;1.906070113182068E-001;3.283575177192688E-002;-2.077879616990686E-003;-1.852476387284696E-003;
2.410000000000000E+009;1.893370449542999E-001;3.162961825728416E-002;-2.166126621887088E-003;-1.778267440386117E-003;
2.410166666666667E+009;1.881169974803925E-001;3.003137372434139E-002;-2.117060590535402E-003;-1.673774328082800E-003;
2.410333333333334E+009;1.870092451572418E-001;2.870962582528591E-002;-2.186869503930211E-003;-1.753900665789843E-003;
2.410500000000000E+009;1.855508089065552E-001;2.695946767926216E-002;-2.391347195953131E-003;-1.747188391163945E-003;
2.410666666666667E+009;1.844860017299652E-001;2.487292513251305E-002;-2.467828337103128E-003;-1.799985999241471E-003;
2.410833333333334E+009;1.834728121757507E-001;2.284684963524342E-002;-2.475286601111293E-003;-1.839168951846659E-003;
2.411000000000000E+009;1.825661659240723E-001;2.081444114446640E-002;-2.766668330878019E-003;-1.722336746752262E-003;
2.411166666666667E+009;1.815055161714554E-001;1.872216351330280E-002;-2.705469029024243E-003;-1.629028003662825E-003;
2.411333333333334E+009;1.807747036218643E-001;1.616595499217510E-002;-2.583545399829745E-003;-1.648647943511605E-003;
2.411500000000000E+009;1.797172129154205E-001;1.400311663746834E-002;-2.951842267066240E-003;-1.344768563285470E-003;
2.411666666666667E+009;1.794336885213852E-001;1.159441191703081E-002;-2.961225574836135E-003;-1.377908862195909E-003;
2.411833333333334E+009;1.787792891263962E-001;9.099663235247135E-003;-2.924266271293163E-003;-1.108684693463147E-003;
2.412000000000000E+009;1.786268502473831E-001;6.518153939396143E-003;-3.146945033222437E-003;-1.287277205847204E-003;
2.412166666666667E+009;1.783472448587418E-001;3.953533247113228E-003;-3.164597554132342E-003;-9.691733284853399E-004;
2.412333333333334E+009;1.784153431653976E-001;1.252301270142198E-003;-3.198612248525024E-003;-8.627326460555196E-004;
2.412500000000000E+009;1.785936057567596E-001;-1.308103092014790E-003;-3.205992979928851E-003;-6.935544661246240E-004;
2.412666666666667E+009;1.787952035665512E-001;-4.149377811700106E-003;-3.321159398183227E-003;-6.005463656038046E-004;
2.412833333333334E+009;1.792268902063370E-001;-6.715394090861082E-003;-3.265956416726112E-003;-4.941596416756511E-004;
2.413000000000000E+009;1.797947585582733E-001;-9.388180449604988E-003;-3.344145836308599E-003;-4.043625376652926E-004;
2.413166666666667E+009;1.805212497711182E-001;-1.199715211987495E-002;-3.181069856509566E-003;-3.081123868469149E-004;
2.413333333333334E+009;1.812869757413864E-001;-1.457033026963472E-002;-3.258829936385155E-003;-1.114307815441862E-004;
2.413500000000000E+009;1.820314377546310E-001;-1.715561561286449E-002;-3.168459981679916E-003;2.598629407657427E-006;
2.413666666666667E+009;1.831660568714142E-001;-1.974033005535603E-002;-3.336305264383555E-003;9.469933866057545E-005;
2.413833333333334E+009;1.842041164636612E-001;-2.188295312225819E-002;-3.113333601504564E-003;1.701628934824839E-004;
2.414000000000000E+009;1.853088140487671E-001;-2.440929226577282E-002;-3.204541513696313E-003;3.371052152942866E-004;
2.414166666666667E+009;1.865846067667007E-001;-2.655497007071972E-002;-3.202210180461407E-003;4.585507267620415E-004;
2.414333333333334E+009;1.877590268850327E-001;-2.882855758070946E-002;-3.050505416467786E-003;5.856063216924667E-004;
2.414500000000000E+009;1.890863776206970E-001;-3.055698238313198E-002;-3.143487032502890E-003;6.675342447124422E-004;
2.414666666666667E+009;1.904571503400803E-001;-3.249863907694817E-002;-3.079841611906886E-003;7.629155297763646E-004;
2.414833333333334E+009;1.917588412761688E-001;-3.399258479475975E-002;-3.055943641811609E-003;1.030523097142577E-003;
2.415000000000000E+009;1.930027008056641E-001;-3.590865060687065E-002;-3.130525117740035E-003;8.217117865569890E-004;
2.415166666666667E+009;1.944344490766525E-001;-3.720706701278687E-002;-2.920723985880613E-003;1.189458533190191E-003;
2.415333333333334E+009;1.958010345697403E-001;-3.842960670590401E-002;-3.064819378778338E-003;1.071386854164302E-003;
2.415500000000000E+009;1.972411721944809E-001;-3.932217881083489E-002;-2.916840370744467E-003;1.194220734760165E-003;
2.415666666666667E+009;1.984291821718216E-001;-4.051143676042557E-002;-2.972155576571822E-003;1.176065648905933E-003;
2.415833333333334E+009;1.995353847742081E-001;-4.128291830420494E-002;-2.932533156126738E-003;1.430322416126728E-003;
2.416000000000000E+009;2.006956189870834E-001;-4.202876612544060E-002;-2.826218958944082E-003;1.656900742091239E-003;
2.416166666666667E+009;2.017721980810165E-001;-4.270933941006661E-002;-2.817596774548292E-003;1.618997426703572E-003;
2.416333333333334E+009;2.027461826801300E-001;-4.314561188220978E-002;-2.634948352351785E-003;1.889618928544223E-003;
2.416500000000000E+009;2.035263180732727E-001;-4.337804019451141E-002;-2.586378483101726E-003;2.053198870271444E-003;
2.416666666666667E+009;2.040116637945175E-001;-4.375441744923592E-002;-2.397992881014943E-003;2.182361669838429E-003;
2.416833333333334E+009;2.046907395124435E-001;-4.391932114958763E-002;-2.220766851678491E-003;2.285554306581616E-003;
2.417000000000000E+009;2.050535380840302E-001;-4.400423541665077E-002;-1.961758593097329E-003;2.214053645730019E-003;
2.417166666666667E+009;2.051331400871277E-001;-4.374733194708824E-002;-2.042793203145266E-003;2.431367756798863E-003;
2.417333333333334E+009;2.052993476390839E-001;-4.362893104553223E-002;-1.806929823942483E-003;2.235499210655689E-003;
2.417500000000000E+009;2.053244411945343E-001;-4.359026253223419E-002;-1.763052423484623E-003;2.218165434896946E-003;
2.417666666666667E+009;2.050831168889999E-001;-4.316904023289681E-002;-1.538456534035504E-003;2.201616531237960E-003;
2.417833333333334E+009;2.049728184938431E-001;-4.275795817375183E-002;-1.521872705779970E-003;2.158606192097068E-003;
2.418000000000000E+009;2.045907825231552E-001;-4.219882190227509E-002;-1.460110768675804E-003;2.117900410667062E-003;
2.418166666666667E+009;2.039199620485306E-001;-4.209088161587715E-002;-1.363342278636992E-003;1.978277927264571E-003;
2.418333333333334E+009;2.031912207603455E-001;-4.171709343791008E-002;-1.448562950827181E-003;1.982987159863114E-003;
2.418500000000000E+009;2.024010717868805E-001;-4.147203266620636E-002;-1.614360488019884E-003;1.993286889046431E-003;
2.418666666666667E+009;2.016099244356155E-001;-4.109280928969383E-002;-1.740513136610389E-003;1.956480089575052E-003;
2.418833333333334E+009;2.004530578851700E-001;-4.094627499580383E-002;-1.570415217429400E-003;2.099832287058234E-003;
2.419000000000000E+009;1.993223726749420E-001;-4.084952175617218E-002;-1.641128677874804E-003;2.191387815400958E-003;
2.419166666666667E+009;1.981220394372940E-001;-4.089247807860375E-002;-1.581812161020935E-003;2.411070745438337E-003;
2.419333333333334E+009;1.967008709907532E-001;-4.112194105982781E-002;-1.638777321204543E-003;2.437429968267679E-003;
2.419500000000000E+009;1.952201277017593E-001;-4.113743454217911E-002;-1.481869141571224E-003;2.488480648025870E-003;
2.419666666666667E+009;1.935425251722336E-001;-4.172559827566147E-002;-1.410399563610554E-003;2.699283650144935E-003;
2.419833333333334E+009;1.918149590492249E-001;-4.198711365461350E-002;-1.359165878966451E-003;2.740829717367888E-003;
2.420000000000000E+009;1.901968270540237E-001;-4.275714606046677E-002;-1.236786250956357E-003;2.877318998798728E-003;
2.420166666666667E+009;1.883502006530762E-001;-4.336971417069435E-002;-1.153228920884430E-003;2.974502043798566E-003;
2.420333333333334E+009;1.864897906780243E-001;-4.434992000460625E-002;-8.777977200224996E-004;3.193412674590945E-003;
2.420500000000000E+009;1.846666485071182E-001;-4.533888399600983E-002;-7.005097577348352E-004;3.159644780680537E-003;
2.420666666666667E+009;1.828615665435791E-001;-4.625039920210838E-002;-5.605772603303194E-004;3.100300673395395E-003;
2.420833333333334E+009;1.808594018220902E-001;-4.756882414221764E-002;-5.359190981835127E-004;3.049151506274939E-003;
2.421000000000000E+009;1.791401505470276E-001;-4.877550527453423E-002;-3.257029748056084E-004;3.070333739742637E-003;
2.421166666666667E+009;1.775081902742386E-001;-5.036744847893715E-002;-2.376581251155585E-004;3.142671659588814E-003;
2.421333333333334E+009;1.755592077970505E-001;-5.187556520104408E-002;-9.733065962791443E-005;3.017836716026068E-003;
2.421500000000000E+009;1.738188564777374E-001;-5.379795655608177E-002;7.434595318045467E-005;3.022530116140842E-003;
2.421666666666667E+009;1.722069531679153E-001;-5.561239644885063E-002;-2.071682956739096E-006;3.069118596613407E-003;
2.421833333333334E+009;1.709010750055313E-001;-5.750473588705063E-002;2.938118414022028E-004;2.814340405166149E-003;
2.422000000000000E+009;1.693225055932999E-001;-5.936003103852272E-002;3.974029386881739E-004;2.858850406482816E-003;
2.422166666666667E+009;1.683056801557541E-001;-6.157785654067993E-002;4.152993496973068E-004;2.757736714556813E-003;
2.422333333333334E+009;1.669635176658630E-001;-6.363995373249054E-002;4.375729768071324E-004;2.798257162794471E-003;
2.422500000000000E+009;1.659084111452103E-001;-6.580775231122971E-002;5.244151689112186E-004;2.620588755235076E-003;
2.422666666666667E+009;1.647420078516007E-001;-6.794274598360062E-002;6.774230860173702E-004;2.717557828873396E-003;
2.422833333333334E+009;1.642078310251236E-001;-7.012419402599335E-002;8.220215095207095E-004;2.464492805302143E-003;
2.423000000000000E+009;1.633466780185700E-001;-7.256443053483963E-002;9.620562777854502E-004;2.516949316486716E-003;
2.423166666666667E+009;1.628265380859375E-001;-7.468627393245697E-002;8.722046623006463E-004;2.527625765651465E-003;
2.423333333333334E+009;1.624192744493485E-001;-7.695212215185165E-002;9.923746110871434E-004;2.428510226309300E-003;
2.423500000000000E+009;1.620480865240097E-001;-7.903184741735458E-002;9.513635304756463E-004;2.397920703515410E-003;
2.423666666666667E+009;1.620784699916840E-001;-8.139704167842865E-002;1.125488430261612E-003;2.265878953039646E-003;
2.423833333333334E+009;1.617898941040039E-001;-8.335123211145401E-002;1.182772219181061E-003;2.104212064296007E-003;
2.424000000000000E+009;1.619765162467957E-001;-8.548595011234283E-002;1.017405535094440E-003;2.148748841136694E-003;
2.424166666666667E+009;1.618924289941788E-001;-8.731047064065933E-002;1.276747090741992E-003;2.118319040164352E-003;
2.424333333333334E+009;1.622518002986908E-001;-8.920393139123917E-002;1.214730087667704E-003;2.031128620728850E-003;
2.424500000000000E+009;1.625652760267258E-001;-9.126815944910049E-002;1.239509438164532E-003;1.953926635906100E-003;
2.424666666666667E+009;1.628783643245697E-001;-9.289771318435669E-002;1.220148522406817E-003;1.943073817528784E-003;
2.424833333333334E+009;1.634878218173981E-001;-9.453038126230240E-002;1.293633482418954E-003;1.838278258219361E-003;
2.425000000000000E+009;1.639506965875626E-001;-9.616170078516007E-002;1.354341278783977E-003;1.707345130853355E-003;
2.425166666666667E+009;1.645069122314453E-001;-9.738395363092423E-002;1.461519743315876E-003;1.748340786434710E-003;
2.425333333333334E+009;1.650008261203766E-001;-9.862862527370453E-002;1.377703505568206E-003;1.827813219279051E-003;
2.425500000000000E+009;1.657318919897080E-001;-1.000254079699516E-001;1.339710666798055E-003;1.687655341811478E-003;
2.425666666666667E+009;1.662251353263855E-001;-1.008778661489487E-001;1.637905952520669E-003;1.461890875361860E-003;
2.425833333333334E+009;1.667531579732895E-001;-1.019715666770935E-001;1.741145970299840E-003;1.647048746235669E-003;
2.426000000000000E+009;1.674505025148392E-001;-1.024129316210747E-001;1.640955451875925E-003;1.445218687877059E-003;
2.426166666666667E+009;1.681440472602844E-001;-1.032639592885971E-001;1.685326220467687E-003;1.439679879695177E-003;
2.426333333333334E+009;1.684993058443070E-001;-1.038800179958344E-001;1.497292425483465E-003;1.233447575941682E-003;
2.426500000000000E+009;1.692373901605606E-001;-1.042897924780846E-001;1.687499927356839E-003;1.370474812574685E-003;
2.426666666666667E+009;1.698572486639023E-001;-1.047875955700874E-001;1.673949649557471E-003;1.195500255562365E-003;
2.426833333333334E+009;1.703222990036011E-001;-1.049758642911911E-001;1.647889381274581E-003;1.280394499190152E-003;
2.427000000000000E+009;1.707668453454971E-001;-1.052714213728905E-001;1.735329162329435E-003;1.105162664316595E-003;
2.427166666666667E+009;1.711321175098419E-001;-1.053809523582459E-001;1.746636000461876E-003;1.048094592988491E-003;
2.427333333333334E+009;1.713363975286484E-001;-1.056448891758919E-001;1.779031590558589E-003;9.512253454886377E-004;
2.427500000000000E+009;1.715392619371414E-001;-1.057864576578140E-001;1.713077188469470E-003;9.544350323267281E-004;
2.427666666666667E+009;1.715054064989090E-001;-1.057255119085312E-001;1.644596224650741E-003;8.244509226642549E-004;
