# Version 1.00
#
freq[Hz];re:Trc1_S11;im:Trc1_S11;re:Trc2_S21;im:Trc2_S21;
2.400000000000000E+009;1.573362797498703E-001;1.118219047784805E-001;3.628033446148038E-003;-1.642750808969140E-003;
2.400166666666667E+009;1.567448675632477E-001;1.096738576889038E-001;3.598257200792432E-003;-2.047511050477624E-003;
2.400333333333334E+009;1.563932597637177E-001;1.075520366430283E-001;3.491766750812531E-003;-2.356874523684382E-003;
2.400500000000000E+009;1.559458225965500E-001;1.050478816032410E-001;3.414913779124618E-003;-2.506673801690340E-003;
2.400666666666667E+009;1.556824147701263E-001;1.025995388627052E-001;3.278000745922327E-003;-2.866265131160617E-003;
2.400833333333334E+009;1.553843766450882E-001;9.971724450588226E-002;3.080489812418819E-003;-3.114585531875491E-003;
2.401000000000000E+009;1.552664935588837E-001;9.691565483808518E-002;2.672330010682344E-003;-3.290161956101656E-003;
2.401166666666667E+009;1.548767238855362E-001;9.416043758392334E-002;2.537001157179475E-003;-3.332980442792177E-003;
2.401333333333334E+009;1.549577116966248E-001;9.119617938995361E-002;2.306148177012801E-003;-3.435404505580664E-003;
2.401500000000000E+009;1.550711095333099E-001;8.808419853448868E-002;2.029135823249817E-003;-3.581798402592540E-003;
2.401666666666667E+009;1.549030095338821E-001;8.518618345260620E-002;1.857297727838159E-003;-3.449443960562348E-003;
2.401833333333334E+009;1.550883352756500E-001;8.240779489278793E-002;1.583226257935166E-003;-3.557262942194939E-003;
2.402000000000000E+009;1.556397080421448E-001;7.916904985904694E-002;1.390781952068210E-003;-3.708849661052227E-003;
2.402166666666667E+009;1.559894829988480E-001;7.646224647760391E-002;1.233364106155932E-003;-3.429023548960686E-003;
2.402333333333334E+009;1.567089706659317E-001;7.344789803028107E-002;1.115402439609170E-003;-3.549227723851800E-003;
2.402500000000000E+009;1.574906408786774E-001;7.061910629272461E-002;9.777605300769210E-004;-3.442927030846477E-003;
2.402666666666667E+009;1.584408283233643E-001;6.822004914283752E-002;8.707337547093630E-004;-3.307139733806253E-003;
2.402833333333334E+009;1.598596423864365E-001;6.528751552104950E-002;7.882272475399077E-004;-3.303876612335444E-003;
2.403000000000000E+009;1.610347330570221E-001;6.269539147615433E-002;6.755592185072601E-004;-3.523807041347027E-003;
2.403166666666667E+009;1.627408415079117E-001;6.013330072164536E-002;4.358661535661668E-004;-3.177515696734190E-003;
2.403333333333334E+009;1.641730219125748E-001;5.754567682743073E-002;4.905296373181045E-004;-3.242382081225514E-003;
2.403500000000000E+009;1.657655090093613E-001;5.502444505691528E-002;4.492938460316509E-004;-3.268464468419552E-003;
2.403666666666667E+009;1.675226092338562E-001;5.275331437587738E-002;3.301959659438580E-004;-3.143877023831010E-003;
2.403833333333334E+009;1.690685600042343E-001;5.050515756011009E-002;4.217239329591394E-004;-3.136115381494165E-003;
2.404000000000000E+009;1.708132773637772E-001;4.837218672037125E-002;2.485110599081963E-004;-3.294939873740077E-003;
2.404166666666667E+009;1.727863848209381E-001;4.661703854799271E-002;2.967747568618506E-004;-3.276638453826308E-003;
2.404333333333334E+009;1.744687855243683E-001;4.472237080335617E-002;7.150607416406274E-005;-3.259914461523294E-003;
2.404500000000000E+009;1.763794273138046E-001;4.289388656616211E-002;-3.377486063982360E-005;-3.333910834044218E-003;
2.404666666666667E+009;1.781724840402603E-001;4.155334085226059E-002;-2.416395545878913E-005;-3.270599991083145E-003;
2.404833333333334E+009;1.800917834043503E-001;4.020299017429352E-002;-1.958039647433907E-004;-3.571847686544061E-003;
2.405000000000000E+009;1.816610842943192E-001;3.919757530093193E-002;-2.783175150398165E-004;-3.366203047335148E-003;
2.405166666666667E+009;1.833967715501785E-001;3.822442144155502E-002;-5.550085334107280E-004;-3.205297049134970E-003;
2.405333333333334E+009;1.850123405456543E-001;3.752489387989044E-002;-6.348752067424357E-004;-3.361759707331657E-003;
2.405500000000000E+009;1.866299360990524E-001;3.682804852724075E-002;-7.589033921249211E-004;-3.207218367606401E-003;
2.405666666666667E+009;1.883269548416138E-001;3.647334873676300E-002;-8.425695705227554E-004;-3.192125819623470E-003;
2.405833333333334E+009;1.900475770235062E-001;3.612980991601944E-002;-1.106718671508133E-003;-3.056634915992618E-003;
2.406000000000000E+009;1.912492215633392E-001;3.598083555698395E-002;-1.046290039084852E-003;-3.127764211967588E-003;
2.406166666666667E+009;1.927686482667923E-001;3.566778451204300E-002;-1.330801285803318E-003;-3.071289975196123E-003;
2.406333333333334E+009;1.941419392824173E-001;3.572510182857513E-002;-1.288465573452413E-003;-2.913322998210788E-003;
2.406500000000000E+009;1.952058076858521E-001;3.598704934120178E-002;-1.451778807677329E-003;-2.872274722903967E-003;
2.406666666666667E+009;1.960780173540115E-001;3.608448430895805E-002;-1.344242249615490E-003;-2.709791064262390E-003;
2.406833333333334E+009;1.969780921936035E-001;3.615186363458633E-002;-1.483748201280832E-003;-2.719767391681671E-003;
2.407000000000000E+009;1.976799070835114E-001;3.656868636608124E-002;-1.621658215299249E-003;-2.529423916712403E-003;
2.407166666666667E+009;1.984040439128876E-001;3.661903366446495E-002;-1.723395311273634E-003;-2.497616456821561E-003;
2.407333333333334E+009;1.986420750617981E-001;3.706354647874832E-002;-1.626663724891841E-003;-2.528989687561989E-003;
2.407500000000000E+009;1.990322619676590E-001;3.742478787899017E-002;-1.648002187721431E-003;-2.413115929812193E-003;
2.407666666666667E+009;1.993205249309540E-001;3.757430613040924E-002;-1.660944079048932E-003;-2.398785902187228E-003;
2.407833333333334E+009;1.990431845188141E-001;3.790719807147980E-002;-1.777425059117377E-003;-2.290977630764246E-003;
2.408000000000000E+009;1.992643028497696E-001;3.805652260780335E-002;-1.738917082548142E-003;-2.295349026098847E-003;
2.408166666666667E+009;1.988377124071121E-001;3.809719905257225E-002;-1.824596431106329E-003;-2.175778849050403E-003;
2.408333333333334E+009;1.986227929592133E-001;3.802166134119034E-002;-1.843963866122067E-003;-2.057892968878150E-003;
2.408500000000000E+009;1.980383545160294E-001;3.809593617916107E-002;-1.959403976798058E-003;-2.138139680027962E-003;
2.408666666666667E+009;1.974159628152847E-001;3.799409046769142E-002;-1.890586456283927E-003;-1.968206604942679E-003;
2.408833333333334E+009;1.968180090188980E-001;3.763503953814507E-002;-1.825300394557416E-003;-1.970340264961124E-003;
2.409000000000000E+009;1.959446668624878E-001;3.716446831822395E-002;-2.040363615378737E-003;-2.034965669736266E-003;
2.409166666666667E+009;1.949479281902313E-001;3.661756590008736E-002;-1.938366098329425E-003;-1.830408466048539E-003;
2.409333333333334E+009;1.940600723028183E-001;3.607765212655067E-002;-1.849023858085275E-003;-1.900152186863124E-003;
2.409500000000000E+009;1.929005831480026E-001;3.514583781361580E-002;-1.918497728183866E-003;-1.818469143472612E-003;
2.409666666666667E+009;1.916906833648682E-001;3.407838940620422E-002;-1.957648899406195E-003;-1.873378292657435E-003;
2.409833333333334E+009;1.905257552862167E-001;3.285481780767441E-002;-1.810378977097571E-003;-1.811084453947842E-003;
2.410000000000000E+009;1.892849057912827E-001;3.157547861337662E-002;-2.037671627476811E-003;-1.753649441525340E-003;
2.410166666666667E+009;1.880692988634110E-001;3.003737516701222E-002;-2.178873401135206E-003;-1.801486476324499E-003;
2.410333333333334E+009;1.869333535432816E-001;2.871715277433395E-002;-2.136951079592109E-003;-1.841165008954704E-003;
2.410500000000000E+009;1.856626421213150E-001;2.690696530044079E-002;-2.352679846808314E-003;-1.892268657684326E-003;
2.410666666666667E+009;1.844422668218613E-001;2.484792470932007E-002;-2.306734211742878E-003;-1.845662132836878E-003;
2.410833333333334E+009;1.837023198604584E-001;2.279696613550186E-002;-2.458602888509631E-003;-1.790028065443039E-003;
2.411000000000000E+009;1.825050413608551E-001;2.089139446616173E-002;-2.495811553671956E-003;-1.637279056012631E-003;
2.411166666666667E+009;1.815208494663239E-001;1.866333745419979E-002;-2.729414962232113E-003;-1.535511575639248E-003;
2.411333333333334E+009;1.806093156337738E-001;1.627993397414684E-002;-2.812586259096861E-003;-1.554041984491050E-003;
2.411500000000000E+009;1.799584329128265E-001;1.378183159977198E-002;-2.964740619063377E-003;-1.532748108729720E-003;
2.411666666666667E+009;1.794434189796448E-001;1.150352787226439E-002;-2.902945736423135E-003;-1.326591009274125E-003;
2.411833333333334E+009;1.789846569299698E-001;9.031795896589756E-003;-2.903278218582273E-003;-1.254765549674630E-003;
2.412000000000000E+009;1.785276085138321E-001;6.393935997039080E-003;-3.040698822587729E-003;-1.186669571325183E-003;
2.412166666666667E+009;1.782346814870834E-001;3.796200966462493E-003;-3.032694803550839E-003;-1.019758987240493E-003;
2.412333333333334E+009;1.783307343721390E-001;1.113210571929812E-003;-3.181004198268056E-003;-9.016804397106171E-004;
2.412500000000000E+009;1.784438341856003E-001;-1.391589874401689E-003;-3.340007271617651E-003;-8.458434022031725E-004;
2.412666666666667E+009;1.786408424377441E-001;-4.184411838650703E-003;-3.276446601375938E-003;-6.128005916252732E-004;
2.412833333333334E+009;1.793068051338196E-001;-6.859250366687775E-003;-3.201309125870466E-003;-3.026647900696844E-004;
2.413000000000000E+009;1.797322183847427E-001;-9.359013289213181E-003;-3.329595550894737E-003;-3.715382190421224E-004;
2.413166666666667E+009;1.803590357303619E-001;-1.177694369107485E-002;-3.252242226153612E-003;-2.532915095798671E-004;
2.413333333333334E+009;1.811135858297348E-001;-1.465998683124781E-002;-3.334801876917481E-003;-1.295040128752589E-004;
2.413500000000000E+009;1.819917559623718E-001;-1.720243319869041E-002;-3.234386909753084E-003;2.967771069961600E-005;
2.413666666666667E+009;1.832659542560577E-001;-1.970434188842773E-002;-3.247567918151617E-003;2.042758133029565E-004;
2.413833333333334E+009;1.842595338821411E-001;-2.194270305335522E-002;-3.231448354199529E-003;2.070070331683382E-004;
2.414000000000000E+009;1.853124946355820E-001;-2.444937080144882E-002;-3.174915676936507E-003;3.027439233846963E-004;
2.414166666666667E+009;1.865509748458862E-001;-2.645203471183777E-002;-3.183487802743912E-003;5.265026702545583E-004;
2.414333333333334E+009;1.877139061689377E-001;-2.868102677166462E-002;-3.094271989539266E-003;5.072020576335490E-004;
2.414500000000000E+009;1.890922337770462E-001;-3.056898526847363E-002;-3.093549748882651E-003;6.914256373420358E-004;
2.414666666666667E+009;1.904044598340988E-001;-3.238758444786072E-002;-3.102952148765326E-003;7.446660893037915E-004;
2.414833333333334E+009;1.917033046483994E-001;-3.417861461639404E-002;-3.044317476451397E-003;9.067374048754573E-004;
2.415000000000000E+009;1.929131448268890E-001;-3.570739179849625E-002;-3.009974025189877E-003;6.289589218795300E-004;
2.415166666666667E+009;1.944816857576370E-001;-3.699651733040810E-002;-2.989688422530890E-003;1.057494431734085E-003;
2.415333333333334E+009;1.958220154047012E-001;-3.836580365896225E-002;-3.028774401172996E-003;1.036793109960854E-003;
2.415500000000000E+009;1.971661895513535E-001;-3.938381373882294E-002;-2.932920353487134E-003;1.221462385728955E-003;
2.415666666666667E+009;1.984720528125763E-001;-4.040304943919182E-002;-2.808466088026762E-003;1.307879458181560E-003;
2.415833333333334E+009;1.994782984256744E-001;-4.129547998309135E-002;-2.871788805350661E-003;1.497778808698058E-003;
2.416000000000000E+009;2.006080448627472E-001;-4.198557138442993E-002;-2.805004827678204E-003;1.608459861017764E-003;
2.416166666666667E+009;2.015882134437561E-001;-4.273379966616631E-002;-2.732711611315608E-003;1.645767595618963E-003;
2.416333333333334E+009;2.026041448116303E-001;-4.307048022747040E-002;-2.693546237424016E-003;1.967552350834012E-003;
2.416500000000000E+009;2.034473866224289E-001;-4.352814704179764E-002;-2.497426932677627E-003;2.038814825937152E-003;
2.416666666666667E+009;2.041329741477966E-001;-4.390230402350426E-002;-2.412931062281132E-003;2.019816776737571E-003;
2.416833333333334E+009;2.045346051454544E-001;-4.386373609304428E-002;-2.283622277900577E-003;2.189446007832885E-003;
2.417000000000000E+009;2.050469368696213E-001;-4.393513128161430E-002;-2.032796619459987E-003;2.319845138117671E-003;
2.417166666666667E+009;2.051945924758911E-001;-4.381598159670830E-002;-1.927928300574422E-003;2.205489436164498E-003;
2.417333333333334E+009;2.052561640739441E-001;-4.364448785781860E-002;-1.724408823065460E-003;2.278331667184830E-003;
2.417500000000000E+009;2.052437961101532E-001;-4.351133480668068E-002;-1.726468792185187E-003;2.156427130103111E-003;
2.417666666666667E+009;2.050372511148453E-001;-4.318986088037491E-002;-1.514483359642327E-003;2.139672171324492E-003;
2.417833333333334E+009;2.049277424812317E-001;-4.279549792408943E-002;-1.475140685215592E-003;1.925974152982235E-003;
2.418000000000000E+009;2.044502794742584E-001;-4.232219979166985E-002;-1.582863624207676E-003;1.998135121539235E-003;
2.418166666666667E+009;2.039342522621155E-001;-4.210508987307549E-002;-1.474484335631132E-003;1.907090190798044E-003;
2.418333333333334E+009;2.031420469284058E-001;-4.166554659605026E-002;-1.509426045231521E-003;1.940582762472332E-003;
2.418500000000000E+009;2.023328244686127E-001;-4.144384711980820E-002;-1.510099973529577E-003;1.976751722395420E-003;
2.418666666666667E+009;2.015995532274246E-001;-4.107093065977097E-002;-1.488851732574403E-003;1.934006344527006E-003;
2.418833333333334E+009;2.004151046276093E-001;-4.098110273480415E-002;-1.641870010644198E-003;1.943174051120877E-003;
2.419000000000000E+009;1.992659419775009E-001;-4.088671877980232E-002;-1.676711952313781E-003;2.284716814756393E-003;
2.419166666666667E+009;1.980623453855515E-001;-4.091035202145577E-002;-1.550231943838298E-003;2.203170210123062E-003;
2.419333333333334E+009;1.967737674713135E-001;-4.101247712969780E-002;-1.537735341116786E-003;2.414928749203682E-003;
2.419500000000000E+009;1.949891746044159E-001;-4.112441465258598E-002;-1.538821263238788E-003;2.543260809034109E-003;
2.419666666666667E+009;1.935516446828842E-001;-4.156554490327835E-002;-1.524709048680961E-003;2.697979332879186E-003;
2.419833333333334E+009;1.917954683303833E-001;-4.200119152665138E-002;-1.445719623006880E-003;2.685219049453735E-003;
2.420000000000000E+009;1.901644468307495E-001;-4.253488779067993E-002;-1.210043556056917E-003;2.849925309419632E-003;
2.420166666666667E+009;1.884054392576218E-001;-4.325571656227112E-002;-1.088244956918061E-003;2.977502997964621E-003;
2.420333333333334E+009;1.864210218191147E-001;-4.413812234997749E-002;-8.558407425880432E-004;2.920447383075953E-003;
2.420500000000000E+009;1.845407187938690E-001;-4.528414458036423E-002;-6.873873062431812E-004;3.155425889417529E-003;
2.420666666666667E+009;1.827565878629684E-001;-4.622592404484749E-002;-5.913624190725386E-004;3.037064569070935E-003;
2.420833333333334E+009;1.809938400983810E-001;-4.762195795774460E-002;-4.591529723256826E-004;2.987779444083571E-003;
2.421000000000000E+009;1.791239529848099E-001;-4.902696609497070E-002;-3.261298988945782E-004;2.910820534452796E-003;
2.421166666666667E+009;1.774806678295136E-001;-5.053355544805527E-002;-1.722830493235961E-004;3.016430651769042E-003;
2.421333333333334E+009;1.753686368465424E-001;-5.183067172765732E-002;-8.346532558789477E-005;2.932622097432613E-003;
2.421500000000000E+009;1.738533228635788E-001;-5.380784720182419E-002;6.133934220997617E-005;2.961016958579421E-003;
2.421666666666667E+009;1.722166687250137E-001;-5.547337979078293E-002;1.273423822567565E-005;2.897513797506690E-003;
2.421833333333334E+009;1.708011478185654E-001;-5.742974951863289E-002;3.199501079507172E-004;2.935264026746154E-003;
2.422000000000000E+009;1.693883687257767E-001;-5.943717435002327E-002;2.270404947921634E-004;2.806982956826687E-003;
2.422166666666667E+009;1.681839674711227E-001;-6.147178262472153E-002;4.569488228298724E-004;2.809478435665369E-003;
2.422333333333334E+009;1.668253391981125E-001;-6.366576254367828E-002;5.446575814858079E-004;2.696161391213536E-003;
2.422500000000000E+009;1.658841967582703E-001;-6.568833440542221E-002;5.379376816563308E-004;2.798254601657391E-003;
2.422666666666667E+009;1.648617833852768E-001;-6.787334382534027E-002;6.737510557286441E-004;2.672831527888775E-003;
2.422833333333334E+009;1.642032563686371E-001;-7.018344849348068E-002;7.074625464156270E-004;2.572674769908190E-003;
2.423000000000000E+009;1.634348183870316E-001;-7.254968583583832E-002;8.853462059050798E-004;2.553187077865005E-003;
2.423166666666667E+009;1.627636551856995E-001;-7.469575107097626E-002;7.251015631482005E-004;2.568933879956603E-003;
2.423333333333334E+009;1.624696552753449E-001;-7.703156024217606E-002;1.010828767903149E-003;2.519750036299229E-003;
2.423500000000000E+009;1.621222645044327E-001;-7.904892414808273E-002;9.303935803472996E-004;2.207134151831269E-003;
2.423666666666667E+009;1.620311737060547E-001;-8.117812871932983E-002;1.071886857971549E-003;2.153225708752871E-003;
2.423833333333334E+009;1.619109660387039E-001;-8.317975699901581E-002;9.702007519081235E-004;2.229911508038640E-003;
2.424000000000000E+009;1.619039326906204E-001;-8.547409623861313E-002;1.062546041794121E-003;2.007191302254796E-003;
2.424166666666667E+009;1.619337797164917E-001;-8.730986714363098E-002;1.127375406213105E-003;2.073318697512150E-003;
2.424333333333334E+009;1.622117012739182E-001;-8.908799290657044E-002;9.915096452459693E-004;2.095840871334076E-003;
2.424500000000000E+009;1.626582443714142E-001;-9.126234054565430E-002;1.252731541171670E-003;1.949185621924698E-003;
2.424666666666667E+009;1.629370003938675E-001;-9.290446341037750E-002;1.252554357051849E-003;1.948912860825658E-003;
2.424833333333334E+009;1.633884012699127E-001;-9.451970458030701E-002;1.196426106616855E-003;1.859368407167494E-003;
2.425000000000000E+009;1.639629453420639E-001;-9.601211547851563E-002;1.373248989693821E-003;1.932489918544889E-003;
2.425166666666667E+009;1.644176542758942E-001;-9.744675457477570E-002;1.320943934842944E-003;1.705975853838027E-003;
2.425333333333334E+009;1.649365574121475E-001;-9.856773912906647E-002;1.295612193644047E-003;1.776481978595257E-003;
2.425500000000000E+009;1.656822264194489E-001;-9.993337094783783E-002;1.477360958233476E-003;1.631681923754513E-003;
2.425666666666667E+009;1.662267297506332E-001;-1.008954122662544E-001;1.633838168345392E-003;1.596230315044522E-003;
2.425833333333334E+009;1.668449789285660E-001;-1.018215939402580E-001;1.441656029783189E-003;1.678321277722716E-003;
2.426000000000000E+009;1.674225926399231E-001;-1.025807708501816E-001;1.478869700804353E-003;1.435285201296210E-003;
2.426166666666667E+009;1.680653244256973E-001;-1.031544953584671E-001;1.648864126764238E-003;1.496933633461595E-003;
2.426333333333334E+009;1.685847640037537E-001;-1.038668975234032E-001;1.569929183460772E-003;1.380366971716285E-003;
2.426500000000000E+009;1.692571192979813E-001;-1.043128669261932E-001;1.456660451367497E-003;1.319958362728357E-003;
2.426666666666667E+009;1.697600632905960E-001;-1.047045290470123E-001;1.666737138293684E-003;1.246301457285881E-003;
2.426833333333334E+009;1.704006493091583E-001;-1.049371287226677E-001;1.813493669033051E-003;1.274577574804425E-003;
2.427000000000000E+009;1.707742661237717E-001;-1.052208691835403E-001;1.633200678043068E-003;1.119766617193818E-003;
2.427166666666667E+009;1.712341159582138E-001;-1.053963452577591E-001;1.562117016874254E-003;1.112335361540318E-003;
2.427333333333334E+009;1.713668256998062E-001;-1.055681630969048E-001;1.764720305800438E-003;1.071006525307894E-003;
2.427500000000000E+009;1.714692860841751E-001;-1.055939272046089E-001;1.766345812939107E-003;9.218298364430666E-004;
2.427666666666667E+009;1.714818626642227E-001;-1.056580841541290E-001;1.649041776545346E-003;9.327181614935398E-004;
