# Version 1.00
#
freq[Hz];re:Trc1_S11;im:Trc1_S11;re:Trc2_S21;im:Trc2_S21;
2.400000000000000E+009;1.561331450939179E-001;1.116071790456772E-001;-4.296189581509680E-004;5.401050671935082E-003;
2.400166666666667E+009;1.556096225976944E-001;1.095127686858177E-001;-2.518580004107207E-004;5.376740358769894E-003;
2.400333333333334E+009;1.553331613540649E-001;1.071679741144180E-001;-3.928859950974584E-005;5.302418954670429E-003;
2.400500000000000E+009;1.549402326345444E-001;1.045614033937454E-001;1.815423602238298E-004;5.290668457746506E-003;
2.400666666666667E+009;1.548104435205460E-001;1.021294668316841E-001;3.551827685441822E-004;4.986575338989496E-003;
2.400833333333334E+009;1.544011086225510E-001;9.905753284692764E-002;4.974922048859298E-004;4.886835813522339E-003;
2.401000000000000E+009;1.543399095535278E-001;9.627276659011841E-002;5.820126971229911E-004;4.813343286514282E-003;
2.401166666666667E+009;1.542788445949554E-001;9.356650710105896E-002;6.292359903454781E-004;4.599093459546566E-003;
2.401333333333334E+009;1.542264968156815E-001;9.061042219400406E-002;6.465415935963392E-004;4.377058241516352E-003;
2.401500000000000E+009;1.544525325298309E-001;8.741720765829086E-002;7.101035444065929E-004;4.510499071329832E-003;
2.401666666666667E+009;1.545607894659042E-001;8.462686836719513E-002;8.143637678585947E-004;4.507169127464294E-003;
2.401833333333334E+009;1.550643742084503E-001;8.165221661329269E-002;7.658152608200908E-004;4.279042128473520E-003;
2.402000000000000E+009;1.555517166852951E-001;7.863180339336395E-002;8.530734339728952E-004;4.416407551616430E-003;
2.402166666666667E+009;1.563007682561874E-001;7.595542073249817E-002;9.522649925202131E-004;4.268701188266277E-003;
2.402333333333334E+009;1.570435464382172E-001;7.291726022958756E-002;1.197583507746458E-003;4.232736770063639E-003;
2.402500000000000E+009;1.580647677183151E-001;7.014503329992294E-002;1.337970490567386E-003;4.470456857234240E-003;
2.402666666666667E+009;1.591716110706329E-001;6.754849106073380E-002;1.366064301691949E-003;4.235000815242529E-003;
2.402833333333334E+009;1.604780256748200E-001;6.486797332763672E-002;1.641954528167844E-003;4.325180780142546E-003;
2.403000000000000E+009;1.618171632289887E-001;6.237175315618515E-002;1.814567134715617E-003;4.253735300153494E-003;
2.403166666666667E+009;1.637055724859238E-001;5.970831215381622E-002;1.797002740204334E-003;4.114156123250723E-003;
2.403333333333334E+009;1.651216894388199E-001;5.738650634884834E-002;2.157374750822783E-003;4.040514584630728E-003;
2.403500000000000E+009;1.669304519891739E-001;5.494826659560204E-002;2.290057716891170E-003;3.815635107457638E-003;
2.403666666666667E+009;1.686803549528122E-001;5.273940041661263E-002;2.405000850558281E-003;3.703113878145814E-003;
2.403833333333334E+009;1.703412979841232E-001;5.068228766322136E-002;2.579171909019351E-003;3.557330695912242E-003;
2.404000000000000E+009;1.720172911882401E-001;4.849892854690552E-002;2.628537360578775E-003;3.312826389446855E-003;
2.404166666666667E+009;1.740595400333405E-001;4.701722040772438E-002;2.608271781355143E-003;2.992243738844991E-003;
2.404333333333334E+009;1.755792647600174E-001;4.518769308924675E-002;2.767057390883565E-003;2.923487452790141E-003;
2.404500000000000E+009;1.775915920734406E-001;4.350814968347549E-002;2.473393920809031E-003;2.684469334781170E-003;
2.404666666666667E+009;1.794267296791077E-001;4.208569228649139E-002;2.544146729633212E-003;2.630536910146475E-003;
2.404833333333334E+009;1.812421232461929E-001;4.108877107501030E-002;2.560766180977225E-003;2.454936504364014E-003;
2.405000000000000E+009;1.828392595052719E-001;4.011387750506401E-002;2.464723307639360E-003;2.420454518869519E-003;
2.405166666666667E+009;1.846814006567001E-001;3.926102444529533E-002;2.484812168404460E-003;2.336256206035614E-003;
2.405333333333334E+009;1.862284094095230E-001;3.890028223395348E-002;2.566434908658266E-003;2.287363400682807E-003;
2.405500000000000E+009;1.879581958055496E-001;3.824357688426971E-002;2.293261932209134E-003;2.203125739470124E-003;
2.405666666666667E+009;1.894413530826569E-001;3.780693560838699E-002;2.322594402357936E-003;2.125996397808194E-003;
2.405833333333334E+009;1.910833269357681E-001;3.760736808180809E-002;2.466160338371992E-003;2.178239868953824E-003;
2.406000000000000E+009;1.923724710941315E-001;3.746677190065384E-002;2.541067311540246E-003;2.203104086220264E-003;
2.406166666666667E+009;1.935263425111771E-001;3.740338236093521E-002;2.388681285083294E-003;2.061632694676518E-003;
2.406333333333334E+009;1.947719305753708E-001;3.741729632019997E-002;2.331118565052748E-003;2.009430201724172E-003;
2.406500000000000E+009;1.959170550107956E-001;3.756627812981606E-002;2.324052155017853E-003;1.837737741880119E-003;
2.406666666666667E+009;1.967492848634720E-001;3.771042823791504E-002;2.325502224266529E-003;2.070254646241665E-003;
2.406833333333334E+009;1.976052969694138E-001;3.790619596838951E-002;2.391928806900978E-003;2.024303656071425E-003;
2.407000000000000E+009;1.980164945125580E-001;3.834618255496025E-002;2.310015726834536E-003;2.042421139776707E-003;
2.407166666666667E+009;1.987458020448685E-001;3.823265433311462E-002;2.297462895512581E-003;2.129866741597652E-003;
2.407333333333334E+009;1.988503485918045E-001;3.863310441374779E-002;2.331726718693972E-003;2.005211077630520E-003;
2.407500000000000E+009;1.989233940839768E-001;3.901847451925278E-002;2.407632302492857E-003;2.075337106361985E-003;
2.407666666666667E+009;1.991290450096130E-001;3.907631710171700E-002;2.272726735100150E-003;2.233871491625905E-003;
2.407833333333334E+009;1.986799836158752E-001;3.933696448802948E-002;2.289878437295556E-003;2.241586567834020E-003;
2.408000000000000E+009;1.988210529088974E-001;3.949734568595886E-002;2.571251243352890E-003;2.223912393674254E-003;
2.408166666666667E+009;1.983064413070679E-001;3.941373899579048E-002;2.503673313185573E-003;2.295586280524731E-003;
2.408333333333334E+009;1.978833079338074E-001;3.919011726975441E-002;2.629847731441259E-003;2.285399008542299E-003;
2.408500000000000E+009;1.971280574798584E-001;3.916113451123238E-002;2.754507353529334E-003;2.361188177019358E-003;
2.408666666666667E+009;1.966125965118408E-001;3.895333409309387E-002;2.870030468329787E-003;2.377470023930073E-003;
2.408833333333334E+009;1.957673430442810E-001;3.864388912916184E-002;3.083485877141357E-003;2.482477109879255E-003;
2.409000000000000E+009;1.947421729564667E-001;3.785979747772217E-002;3.257374512031674E-003;2.442311728373170E-003;
2.409166666666667E+009;1.935964375734329E-001;3.724548593163490E-002;3.497700439766049E-003;2.541071036830545E-003;
2.409333333333334E+009;1.927109211683273E-001;3.655820712447166E-002;3.654764499515295E-003;2.440829761326313E-003;
2.409500000000000E+009;1.912893652915955E-001;3.549917042255402E-002;3.844916122034192E-003;2.434184309095144E-003;
2.409666666666667E+009;1.901106387376785E-001;3.444033861160278E-002;4.026734735816717E-003;2.224687254056335E-003;
2.409833333333334E+009;1.889998763799667E-001;3.313595429062843E-002;4.259199835360050E-003;2.246394520625472E-003;
2.410000000000000E+009;1.876096576452255E-001;3.185200318694115E-002;4.274915903806686E-003;1.947690383531153E-003;
2.410166666666667E+009;1.864238530397415E-001;3.012485429644585E-002;4.372274503111839E-003;1.675280625931919E-003;
2.410333333333334E+009;1.850721538066864E-001;2.867094241082668E-002;4.646365065127611E-003;1.661068410612643E-003;
2.410500000000000E+009;1.841304153203964E-001;2.678388729691505E-002;4.851347766816616E-003;1.483467873185873E-003;
2.410666666666667E+009;1.827231645584106E-001;2.472281083464623E-002;4.829077050089836E-003;1.343024894595146E-003;
2.410833333333334E+009;1.819295138120651E-001;2.260539494454861E-002;4.963322542607784E-003;1.100937253795564E-003;
2.411000000000000E+009;1.808222085237503E-001;2.054414711892605E-002;4.922613501548767E-003;1.038813032209873E-003;
2.411166666666667E+009;1.800516992807388E-001;1.841560006141663E-002;5.081402603536844E-003;8.186214254237711E-004;
2.411333333333334E+009;1.791936010122299E-001;1.586448773741722E-002;4.961170721799135E-003;6.372238276526332E-004;
2.411500000000000E+009;1.786147356033325E-001;1.354485098272562E-002;5.181863438338041E-003;4.231048515066505E-004;
2.411666666666667E+009;1.783338189125061E-001;1.097907777875662E-002;5.229027476161718E-003;2.897471713367850E-004;
2.411833333333334E+009;1.776356101036072E-001;8.549724705517292E-003;5.287226289510727E-003;2.178805734729394E-004;
2.412000000000000E+009;1.776211559772492E-001;5.845994222909212E-003;5.239244084805250E-003;3.288800871814601E-005;
2.412166666666667E+009;1.774922460317612E-001;3.241530852392316E-003;5.430992692708969E-003;-1.561660028528422E-004;
2.412333333333334E+009;1.775194555521011E-001;6.749236490577459E-004;5.396226420998573E-003;-2.561041619628668E-004;
2.412500000000000E+009;1.778280436992645E-001;-2.111957874149084E-003;5.757892504334450E-003;-4.919089260511100E-004;
2.412666666666667E+009;1.781012862920761E-001;-4.636221099644899E-003;5.734710488468409E-003;-7.179027888923883E-004;
2.412833333333334E+009;1.786431968212128E-001;-7.220430765300989E-003;5.741743836551905E-003;-8.717312593944371E-004;
2.413000000000000E+009;1.794446259737015E-001;-9.758863598108292E-003;5.832556169480085E-003;-1.161760068498552E-003;
2.413166666666667E+009;1.799601614475250E-001;-1.214889530092478E-002;6.028546951711178E-003;-1.493648509494960E-003;
2.413333333333334E+009;1.810028105974197E-001;-1.466840039938688E-002;6.102587096393108E-003;-1.776916440576315E-003;
2.413500000000000E+009;1.818521916866303E-001;-1.734178327023983E-002;6.086339242756367E-003;-2.062498126178980E-003;
2.413666666666667E+009;1.832008659839630E-001;-1.977685280144215E-002;6.135719828307629E-003;-2.312033204361796E-003;
2.413833333333334E+009;1.842266321182251E-001;-2.201022952795029E-002;6.024252157658339E-003;-2.724776277318597E-003;
2.414000000000000E+009;1.854773014783859E-001;-2.426096796989441E-002;5.931130610406399E-003;-3.178826067596674E-003;
2.414166666666667E+009;1.868663132190704E-001;-2.627850696444511E-002;5.904839839786291E-003;-3.577148774638772E-003;
2.414333333333334E+009;1.880515068769455E-001;-2.840768918395042E-002;5.796229001134634E-003;-3.946293145418167E-003;
2.414500000000000E+009;1.893516182899475E-001;-3.017171099781990E-002;5.522727500647306E-003;-4.335133358836174E-003;
2.414666666666667E+009;1.906900256872177E-001;-3.186896815896034E-002;5.272158421576023E-003;-4.767213482409716E-003;
2.414833333333334E+009;1.921202689409256E-001;-3.351534157991409E-002;5.008813925087452E-003;-5.179003346711397E-003;
2.415000000000000E+009;1.934929341077805E-001;-3.499508276581764E-002;4.646324552595615E-003;-5.441586021333933E-003;
2.415166666666667E+009;1.949758231639862E-001;-3.624937683343887E-002;4.317961167544127E-003;-5.657560192048550E-003;
2.415333333333334E+009;1.963808387517929E-001;-3.740294650197029E-002;3.819991601631045E-003;-5.943706259131432E-003;
2.415500000000000E+009;1.978399455547333E-001;-3.834770992398262E-002;3.530345391482115E-003;-6.055425852537155E-003;
2.415666666666667E+009;1.989951431751251E-001;-3.930792957544327E-002;3.128770738840103E-003;-6.081098224967718E-003;
2.415833333333334E+009;1.999983936548233E-001;-3.999676927924156E-002;2.822802867740393E-003;-6.289169657975435E-003;
2.416000000000000E+009;2.013224661350250E-001;-4.061112180352211E-002;2.297047059983015E-003;-6.346832960844040E-003;
2.416166666666667E+009;2.022709846496582E-001;-4.122214019298554E-002;1.987704308703542E-003;-6.253809202462435E-003;
2.416333333333334E+009;2.030919790267944E-001;-4.145605489611626E-002;1.677719410508871E-003;-6.340935360640287E-003;
2.416500000000000E+009;2.039530426263809E-001;-4.186416044831276E-002;1.254080911166966E-003;-6.228084675967693E-003;
2.416666666666667E+009;2.045621722936630E-001;-4.225875809788704E-002;8.364960085600615E-004;-6.251359824091196E-003;
2.416833333333334E+009;2.049050629138947E-001;-4.218360409140587E-002;5.585927865467966E-004;-6.113929674029350E-003;
2.417000000000000E+009;2.053008526563644E-001;-4.230494052171707E-002;3.525582724250853E-004;-6.072547286748886E-003;
2.417166666666667E+009;2.053730934858322E-001;-4.204422235488892E-002;-1.096958076232113E-004;-5.819593090564013E-003;
2.417333333333334E+009;2.054805755615234E-001;-4.192868247628212E-002;-2.394343464402482E-004;-5.782550666481257E-003;
2.417500000000000E+009;2.053577154874802E-001;-4.173542186617851E-002;-4.398802702780813E-004;-5.602939054369927E-003;
2.417666666666667E+009;2.050883769989014E-001;-4.145881533622742E-002;-7.365487399511039E-004;-5.552822723984718E-003;
2.417833333333334E+009;2.048745155334473E-001;-4.098283126950264E-002;-9.107089717872441E-004;-5.441953893750906E-003;
2.418000000000000E+009;2.044098228216171E-001;-4.062369465827942E-002;-1.122182118706405E-003;-5.107008386403322E-003;
2.418166666666667E+009;2.037295848131180E-001;-4.050273448228836E-002;-1.184755121357739E-003;-5.151371471583843E-003;
2.418333333333334E+009;2.029027342796326E-001;-4.009864851832390E-002;-1.365945558063686E-003;-4.859706852585077E-003;
2.418500000000000E+009;2.020790576934815E-001;-3.986798971891403E-002;-1.597590278834105E-003;-4.768362268805504E-003;
2.418666666666667E+009;2.013107687234879E-001;-3.949604183435440E-002;-1.637990120798349E-003;-4.630642477422953E-003;
2.418833333333334E+009;2.000535577535629E-001;-3.946909308433533E-002;-1.828012522310019E-003;-4.400453995913267E-003;
2.419000000000000E+009;1.986322849988937E-001;-3.955854848027229E-002;-2.028623130172491E-003;-4.262751899659634E-003;
2.419166666666667E+009;1.975070238113403E-001;-3.948963060975075E-002;-2.036154037341476E-003;-3.926258534193039E-003;
2.419333333333334E+009;1.961444914340973E-001;-3.978021815419197E-002;-2.261925488710403E-003;-3.818025812506676E-003;
2.419500000000000E+009;1.945262402296066E-001;-3.998949006199837E-002;-2.289931988343597E-003;-3.683031303808093E-003;
2.419666666666667E+009;1.928746104240418E-001;-4.055430367588997E-002;-2.334672491997480E-003;-3.535123076289892E-003;
2.419833333333334E+009;1.911588758230209E-001;-4.100810736417770E-002;-2.349838847294450E-003;-3.218595637008548E-003;
2.420000000000000E+009;1.896050125360489E-001;-4.170423001050949E-002;-2.297461265698075E-003;-3.042965196073055E-003;
2.420166666666667E+009;1.877774894237518E-001;-4.248626157641411E-002;-2.281388966366649E-003;-2.854848280549049E-003;
2.420333333333334E+009;1.860345453023911E-001;-4.345756396651268E-002;-2.094303956255317E-003;-2.762537449598312E-003;
2.420500000000000E+009;1.842330843210220E-001;-4.471674188971520E-002;-2.208651974797249E-003;-2.475615590810776E-003;
2.420666666666667E+009;1.823945492506027E-001;-4.572075605392456E-002;-2.114713890478015E-003;-2.343869069591165E-003;
2.420833333333334E+009;1.806135773658752E-001;-4.720927402377129E-002;-2.093124669045210E-003;-2.268957439810038E-003;
2.421000000000000E+009;1.788354516029358E-001;-4.860473051667213E-002;-1.967062940821052E-003;-2.136027207598090E-003;
2.421166666666667E+009;1.772955507040024E-001;-5.040083825588226E-002;-1.735838828608394E-003;-1.889963168650866E-003;
2.421333333333334E+009;1.753182709217072E-001;-5.177691578865051E-002;-1.627687131986022E-003;-2.028570044785738E-003;
2.421500000000000E+009;1.738661527633667E-001;-5.371834710240364E-002;-1.386493328027427E-003;-2.019690582528710E-003;
2.421666666666667E+009;1.724443733692169E-001;-5.554899200797081E-002;-1.306400168687105E-003;-1.986445626243949E-003;
2.421833333333334E+009;1.711391210556030E-001;-5.760683491826057E-002;-1.150695141404867E-003;-2.014141296967864E-003;
2.422000000000000E+009;1.696969270706177E-001;-5.956879630684853E-002;-1.033182139508426E-003;-2.086368389427662E-003;
2.422166666666667E+009;1.686829030513763E-001;-6.179593876004219E-002;-9.212252334691584E-004;-2.275637583807111E-003;
2.422333333333334E+009;1.674831956624985E-001;-6.401190161705017E-002;-1.080868300050497E-003;-2.358411438763142E-003;
2.422500000000000E+009;1.665395945310593E-001;-6.604194641113281E-002;-8.705251966603100E-004;-2.329328330233693E-003;
2.422666666666667E+009;1.656524538993835E-001;-6.833577156066895E-002;-9.826762834563851E-004;-2.549713943153620E-003;
2.422833333333334E+009;1.651341766119003E-001;-7.062198221683502E-002;-1.020923373289406E-003;-2.724365098401904E-003;
2.423000000000000E+009;1.643955111503601E-001;-7.286749035120010E-002;-1.036097644828260E-003;-2.894547535106540E-003;
2.423166666666667E+009;1.638854295015335E-001;-7.498726248741150E-002;-1.205214066430926E-003;-2.854654565453529E-003;
2.423333333333334E+009;1.634241044521332E-001;-7.724655419588089E-002;-1.261318684555590E-003;-2.923545427620411E-003;
2.423500000000000E+009;1.633643805980682E-001;-7.936508953571320E-002;-1.188005437143147E-003;-3.053909167647362E-003;
2.423666666666667E+009;1.632725596427918E-001;-8.151378482580185E-002;-1.403150963597000E-003;-3.296195063740015E-003;
2.423833333333334E+009;1.632482111454010E-001;-8.345368504524231E-002;-1.391258090734482E-003;-3.079468850046396E-003;
2.424000000000000E+009;1.632458865642548E-001;-8.547840267419815E-002;-1.486863242462277E-003;-3.327346406877041E-003;
2.424166666666667E+009;1.634241193532944E-001;-8.728572726249695E-002;-1.629283418878913E-003;-3.402871545404196E-003;
2.424333333333334E+009;1.636635661125183E-001;-8.914024382829666E-002;-1.716027734801173E-003;-3.686951473355293E-003;
2.424500000000000E+009;1.640928238630295E-001;-9.124414622783661E-002;-1.993537880480290E-003;-3.469189628958702E-003;
2.424666666666667E+009;1.643081903457642E-001;-9.281183034181595E-002;-2.219577087089419E-003;-3.652698360383511E-003;
2.424833333333334E+009;1.651119440793991E-001;-9.428798407316208E-002;-2.430267399176955E-003;-3.857256611809135E-003;
2.425000000000000E+009;1.655977666378021E-001;-9.578042477369309E-002;-2.669099951162934E-003;-3.829036606475711E-003;
2.425166666666667E+009;1.659168452024460E-001;-9.696974605321884E-002;-2.811356680467725E-003;-3.819698700681329E-003;
2.425333333333334E+009;1.665835082530975E-001;-9.819147735834122E-002;-3.294015070423484E-003;-3.717710962519050E-003;
2.425500000000000E+009;1.671646684408188E-001;-9.933814406394959E-002;-3.393228864297271E-003;-3.728846786543727E-003;
2.425666666666667E+009;1.677751541137695E-001;-1.002306938171387E-001;-3.603906836360693E-003;-3.594354959204793E-003;
2.425833333333334E+009;1.682672947645187E-001;-1.011938303709030E-001;-3.944919444620609E-003;-3.430718788877130E-003;
2.426000000000000E+009;1.689863502979279E-001;-1.017338708043098E-001;-4.199015907943249E-003;-3.276265924796462E-003;
2.426166666666667E+009;1.695507019758225E-001;-1.024059057235718E-001;-4.507900215685368E-003;-2.946343272924423E-003;
2.426333333333334E+009;1.699286997318268E-001;-1.029852256178856E-001;-4.679049365222454E-003;-2.899054437875748E-003;
2.426500000000000E+009;1.704363375902176E-001;-1.033468022942543E-001;-4.827034194022417E-003;-2.585342153906822E-003;
2.426666666666667E+009;1.709775030612946E-001;-1.036688014864922E-001;-4.935393109917641E-003;-2.469310304149985E-003;
2.426833333333334E+009;1.715466827154160E-001;-1.039924174547195E-001;-5.325649399310350E-003;-2.347029279917479E-003;
2.427000000000000E+009;1.717404872179031E-001;-1.041483655571938E-001;-5.378949455916882E-003;-1.962060807272792E-003;
2.427166666666667E+009;1.720941215753555E-001;-1.042206212878227E-001;-5.352824926376343E-003;-1.827417057938874E-003;
2.427333333333334E+009;1.721321493387222E-001;-1.043592840433121E-001;-5.528469569981098E-003;-1.608805381692946E-003;
2.427500000000000E+009;1.721917837858200E-001;-1.045852452516556E-001;-5.634194239974022E-003;-1.314576831646264E-003;
2.427666666666667E+009;1.719849854707718E-001;-1.044558659195900E-001;-5.521579645574093E-003;-1.225609914399684E-003;
2.427833333333334E+009;1.718183755874634E-001;-1.044933199882507E-001;-5.659938324242830E-003;-9.355001384392381E-004;
