# Version 1.00
#
freq[Hz];re:Trc1_S11;im:Trc1_S11;re:Trc2_S21;im:Trc2_S21;
2.400000000000000E+009;1.560454517602921E-001;1.111694127321243E-001;-5.298863979987800E-004;5.383952055126429E-003;
2.400166666666667E+009;1.555558443069458E-001;1.088347584009171E-001;-1.661540736677125E-004;5.372019018977881E-003;
2.400333333333334E+009;1.551379710435867E-001;1.066267192363739E-001;-3.265975465183146E-006;5.290823522955179E-003;
2.400500000000000E+009;1.548919528722763E-001;1.039553582668304E-001;7.644536526640877E-005;5.275680683553219E-003;
2.400666666666667E+009;1.547148525714874E-001;1.015350148081780E-001;2.190768427681178E-004;4.924517590552568E-003;
2.400833333333334E+009;1.542871296405792E-001;9.859120100736618E-002;5.700504989363253E-004;4.907648544758558E-003;
2.401000000000000E+009;1.542044579982758E-001;9.579183906316757E-002;6.034651305526495E-004;4.571930970996618E-003;
2.401166666666667E+009;1.540603488683701E-001;9.303133189678192E-002;5.701447953470051E-004;4.532954189926386E-003;
2.401333333333334E+009;1.541686952114105E-001;9.009201824665070E-002;6.288803415372968E-004;4.442118573933840E-003;
2.401500000000000E+009;1.544449031352997E-001;8.705984055995941E-002;7.115787011571229E-004;4.394822288304567E-003;
2.401666666666667E+009;1.544432640075684E-001;8.411667495965958E-002;6.755431531928480E-004;4.209305159747601E-003;
2.401833333333334E+009;1.547297239303589E-001;8.102167397737503E-002;7.789142546243966E-004;4.233013372868300E-003;
2.402000000000000E+009;1.553315520286560E-001;7.831770926713944E-002;9.238463244400919E-004;4.151251167058945E-003;
2.402166666666667E+009;1.563203781843185E-001;7.549756765365601E-002;9.460733854211867E-004;4.324848297983408E-003;
2.402333333333334E+009;1.568590849637985E-001;7.235397398471832E-002;1.059361849911511E-003;4.178102128207684E-003;
2.402500000000000E+009;1.581219732761383E-001;6.960131973028183E-002;1.090838690288365E-003;4.164433106780052E-003;
2.402666666666667E+009;1.589489281177521E-001;6.707443296909332E-002;1.374348183162510E-003;4.271686077117920E-003;
2.402833333333334E+009;1.603373140096664E-001;6.449462473392487E-002;1.554608112201095E-003;4.139701370149851E-003;
2.403000000000000E+009;1.616464555263519E-001;6.174569949507713E-002;1.715521560981870E-003;4.124941769987345E-003;
2.403166666666667E+009;1.633301377296448E-001;5.943816900253296E-002;1.811951631680131E-003;4.015609622001648E-003;
2.403333333333334E+009;1.649317890405655E-001;5.682522058486939E-002;2.050891751423478E-003;4.023892339318991E-003;
2.403500000000000E+009;1.664143502712250E-001;5.463115870952606E-002;2.136979019269347E-003;3.840092802420259E-003;
2.403666666666667E+009;1.682722866535187E-001;5.231616646051407E-002;2.321349224075675E-003;3.630254184827209E-003;
2.403833333333334E+009;1.700094938278198E-001;5.029156431555748E-002;2.455423353239894E-003;3.455783473327756E-003;
2.404000000000000E+009;1.716053783893585E-001;4.832600429654121E-002;2.556905848905444E-003;3.244193270802498E-003;
2.404166666666667E+009;1.736544966697693E-001;4.665370285511017E-002;2.679017838090658E-003;3.017507726326585E-003;
2.404333333333334E+009;1.753612607717514E-001;4.486878216266632E-002;2.590994350612164E-003;2.875114325433970E-003;
2.404500000000000E+009;1.771619617938995E-001;4.319632425904274E-002;2.636602846905589E-003;2.671030350029469E-003;
2.404666666666667E+009;1.789897680282593E-001;4.202725365757942E-002;2.517610322684050E-003;2.629401627928019E-003;
2.404833333333334E+009;1.808510720729828E-001;4.081942141056061E-002;2.411443507298827E-003;2.370790112763643E-003;
2.405000000000000E+009;1.823893040418625E-001;3.983206674456596E-002;2.524275332689285E-003;2.252635546028614E-003;
2.405166666666667E+009;1.841109395027161E-001;3.917692974209786E-002;2.372337039560080E-003;2.246784744784236E-003;
2.405333333333334E+009;1.858221143484116E-001;3.863010928034782E-002;2.253397600725293E-003;2.155614783987403E-003;
2.405500000000000E+009;1.874896734952927E-001;3.805466741323471E-002;2.134645590558648E-003;2.246850868687034E-003;
2.405666666666667E+009;1.889393925666809E-001;3.760409355163574E-002;2.248765667900443E-003;2.056352561339736E-003;
2.405833333333334E+009;1.905543357133865E-001;3.741818293929100E-002;2.454587724059820E-003;2.145568374544382E-003;
2.406000000000000E+009;1.919122040271759E-001;3.720580413937569E-002;2.254837891086936E-003;2.141094999387860E-003;
2.406166666666667E+009;1.930729895830154E-001;3.730451315641403E-002;2.179725561290979E-003;2.083799103274941E-003;
2.406333333333334E+009;1.943961679935455E-001;3.730909898877144E-002;2.350889844819903E-003;1.967645483091474E-003;
2.406500000000000E+009;1.955023258924484E-001;3.745339065790176E-002;2.282279310747981E-003;1.980116358026862E-003;
2.406666666666667E+009;1.963688880205154E-001;3.764288127422333E-002;2.410115906968713E-003;1.977988285943866E-003;
2.406833333333334E+009;1.971808522939682E-001;3.777278959751129E-002;2.153162611648440E-003;2.066995482891798E-003;
2.407000000000000E+009;1.975783854722977E-001;3.812780231237412E-002;2.286278177052736E-003;1.989576267078519E-003;
2.407166666666667E+009;1.981570720672607E-001;3.822739422321320E-002;2.193007618188858E-003;2.012723591178656E-003;
2.407333333333334E+009;1.984249502420425E-001;3.850648179650307E-002;2.251252532005310E-003;2.109391847625375E-003;
2.407500000000000E+009;1.985240429639816E-001;3.886682912707329E-002;2.245137235149741E-003;2.116205636411905E-003;
2.407666666666667E+009;1.987579613924027E-001;3.909764066338539E-002;2.407985972240567E-003;2.159287920221686E-003;
2.407833333333334E+009;1.983370184898377E-001;3.915994986891747E-002;2.309789648279548E-003;2.318741055205464E-003;
2.408000000000000E+009;1.985170692205429E-001;3.934337571263313E-002;2.380266087129712E-003;2.335752127692103E-003;
2.408166666666667E+009;1.978105455636978E-001;3.933800756931305E-002;2.530545927584171E-003;2.357867080718279E-003;
2.408333333333334E+009;1.974773555994034E-001;3.920296952128410E-002;2.716212067753077E-003;2.441047225147486E-003;
2.408500000000000E+009;1.967478841543198E-001;3.898370638489723E-002;2.739320276305080E-003;2.676197793334723E-003;
2.408666666666667E+009;1.960842162370682E-001;3.889456391334534E-002;2.780155511572957E-003;2.410990418866277E-003;
2.408833333333334E+009;1.953325569629669E-001;3.840345144271851E-002;3.098285058513284E-003;2.602762309834361E-003;
2.409000000000000E+009;1.943714320659638E-001;3.777106478810310E-002;3.174121025949717E-003;2.551605924963951E-003;
2.409166666666667E+009;1.931458562612534E-001;3.727900236845017E-002;3.326181787997484E-003;2.568143187090755E-003;
2.409333333333334E+009;1.921614855527878E-001;3.642720729112625E-002;3.628548700362444E-003;2.625196240842342E-003;
2.409500000000000E+009;1.908626258373261E-001;3.554469347000122E-002;3.759712446480990E-003;2.600775565952063E-003;
2.409666666666667E+009;1.895731687545776E-001;3.432532772421837E-002;3.941684961318970E-003;2.323453081771731E-003;
2.409833333333334E+009;1.884210407733917E-001;3.312504664063454E-002;4.151822533458471E-003;2.304568421095610E-003;
2.410000000000000E+009;1.873027533292770E-001;3.171848505735397E-002;4.268549382686615E-003;1.958750421181321E-003;
2.410166666666667E+009;1.859956979751587E-001;3.022431768476963E-002;4.397197160869837E-003;1.942986156791449E-003;
2.410333333333334E+009;1.846742630004883E-001;2.863563038408756E-002;4.700060933828354E-003;1.701819943264127E-003;
2.410500000000000E+009;1.835383921861649E-001;2.682025358080864E-002;4.876457620412111E-003;1.502385945059359E-003;
2.410666666666667E+009;1.823577582836151E-001;2.470701001584530E-002;4.738635849207640E-003;1.525333733297885E-003;
2.410833333333334E+009;1.814101040363312E-001;2.257630415260792E-002;4.891127347946167E-003;1.311180065385997E-003;
2.411000000000000E+009;1.805569082498550E-001;2.062665857374668E-002;4.816127009689808E-003;1.097334665246308E-003;
2.411166666666667E+009;1.795952618122101E-001;1.831891760230064E-002;4.913126118481159E-003;8.652914548292756E-004;
2.411333333333334E+009;1.789868921041489E-001;1.599228009581566E-002;5.012133158743382E-003;7.562768878415227E-004;
2.411500000000000E+009;1.782486140727997E-001;1.339911017566919E-002;5.008490290492773E-003;5.318403127603233E-004;
2.411666666666667E+009;1.778974384069443E-001;1.101687457412481E-002;5.148930940777063E-003;4.826052754651755E-004;
2.411833333333334E+009;1.771492362022400E-001;8.689410053193569E-003;5.332715343683958E-003;3.276055795140564E-004;
2.412000000000000E+009;1.772801429033279E-001;5.992447491735220E-003;5.287292879074812E-003;1.069436402758583E-004;
2.412166666666667E+009;1.771215349435806E-001;3.238701028749347E-003;5.514505319297314E-003;-2.683401726244483E-005;
2.412333333333334E+009;1.771499961614609E-001;9.207135299220681E-004;5.498923826962709E-003;-1.717426639515907E-004;
2.412500000000000E+009;1.774530410766602E-001;-1.957592088729143E-003;5.438966210931540E-003;-2.710676053538919E-004;
2.412666666666667E+009;1.779508292675018E-001;-4.630199633538723E-003;5.689085461199284E-003;-6.419746205210686E-004;
2.412833333333334E+009;1.783514022827148E-001;-7.189070340245962E-003;5.684776697307825E-003;-5.330127314664424E-004;
2.413000000000000E+009;1.790390014648438E-001;-9.714541025459766E-003;5.878229625523090E-003;-8.677161531522870E-004;
2.413166666666667E+009;1.798161566257477E-001;-1.216795295476914E-002;5.923695862293243E-003;-1.297715120017529E-003;
2.413333333333334E+009;1.807938218116760E-001;-1.472077053040266E-002;6.068035960197449E-003;-1.575300004333258E-003;
2.413500000000000E+009;1.815923154354096E-001;-1.713613234460354E-002;6.030951160937548E-003;-1.768849091604352E-003;
2.413666666666667E+009;1.828943192958832E-001;-1.953225582838059E-002;6.168941967189312E-003;-2.156133065000176E-003;
2.413833333333334E+009;1.839978992938995E-001;-2.190343290567398E-002;5.894798319786787E-003;-2.558649051934481E-003;
2.414000000000000E+009;1.850993335247040E-001;-2.400986850261688E-002;6.073834374547005E-003;-2.978918375447393E-003;
2.414166666666667E+009;1.865226626396179E-001;-2.601801045238972E-002;5.878807976841927E-003;-3.513802075758576E-003;
2.414333333333334E+009;1.877211034297943E-001;-2.834256924688816E-002;5.694814492017031E-003;-3.878680290654302E-003;
2.414500000000000E+009;1.891902834177017E-001;-2.989375591278076E-002;5.534360185265541E-003;-4.223901312798262E-003;
2.414666666666667E+009;1.906581819057465E-001;-3.179671242833138E-002;5.261325277388096E-003;-4.484872799366713E-003;
2.414833333333334E+009;1.919679194688797E-001;-3.317695483565331E-002;5.028635729104281E-003;-5.062785465270281E-003;
2.415000000000000E+009;1.931675821542740E-001;-3.488385677337647E-002;4.717431496828795E-003;-5.205223802477121E-003;
2.415166666666667E+009;1.946566700935364E-001;-3.612619638442993E-002;4.423199221491814E-003;-5.594780668616295E-003;
2.415333333333334E+009;1.960924714803696E-001;-3.720233589410782E-002;3.896434558555484E-003;-5.891775246709585E-003;
2.415500000000000E+009;1.975632160902023E-001;-3.800322860479355E-002;3.620710456743836E-003;-6.009980570524931E-003;
2.415666666666667E+009;1.987543702125549E-001;-3.917889669537544E-002;3.229409689083695E-003;-6.054109428077936E-003;
2.415833333333334E+009;1.998483687639237E-001;-3.970022499561310E-002;2.626778325065970E-003;-6.245989352464676E-003;
2.416000000000000E+009;2.010239809751511E-001;-4.046734049916267E-002;2.527908189222217E-003;-6.209183018654585E-003;
2.416166666666667E+009;2.020394653081894E-001;-4.111723601818085E-002;2.026565140113235E-003;-6.213712040334940E-003;
2.416333333333334E+009;2.029442638158798E-001;-4.134137928485870E-002;1.594469184055924E-003;-6.205254700034857E-003;
2.416500000000000E+009;2.036693245172501E-001;-4.163467139005661E-002;1.417487510479987E-003;-6.363136693835259E-003;
2.416666666666667E+009;2.042806893587112E-001;-4.193923622369766E-002;1.001570839434862E-003;-6.263821385800839E-003;
2.416833333333334E+009;2.046905010938644E-001;-4.197833687067032E-002;6.541793700307608E-004;-6.127048749476671E-003;
2.417000000000000E+009;2.051653563976288E-001;-4.205842688679695E-002;2.967742329929024E-004;-6.084160413593054E-003;
2.417166666666667E+009;2.051768153905869E-001;-4.176952317357063E-002;1.473218871979043E-004;-5.845552776008844E-003;
2.417333333333334E+009;2.051148116588593E-001;-4.164825379848480E-002;-1.355825952487066E-004;-5.779824219644070E-003;
2.417500000000000E+009;2.051140516996384E-001;-4.143805429339409E-002;-3.589497355278581E-004;-5.620597861707211E-003;
2.417666666666667E+009;2.047889232635498E-001;-4.113492369651794E-002;-6.918890867382288E-004;-5.463071167469025E-003;
2.417833333333334E+009;2.045738250017166E-001;-4.068178683519363E-002;-8.205338963307440E-004;-5.394639912992716E-003;
2.418000000000000E+009;2.042308002710342E-001;-4.029799252748489E-002;-9.172440040856600E-004;-5.161602515727282E-003;
2.418166666666667E+009;2.034167051315308E-001;-4.003243520855904E-002;-1.041159383021295E-003;-5.202776286751032E-003;
2.418333333333334E+009;2.026264965534210E-001;-3.968426957726479E-002;-1.394023536704481E-003;-4.807977471500635E-003;
2.418500000000000E+009;2.018220126628876E-001;-3.947400674223900E-002;-1.526676467619836E-003;-4.870998673141003E-003;
2.418666666666667E+009;2.010361850261688E-001;-3.912600874900818E-002;-1.664058770984411E-003;-4.550629761070013E-003;
2.418833333333334E+009;1.998311728239059E-001;-3.906569257378578E-002;-1.809873734600842E-003;-4.387835506349802E-003;
2.419000000000000E+009;1.985814273357391E-001;-3.901949524879456E-002;-1.842919387854636E-003;-4.304371774196625E-003;
2.419166666666667E+009;1.972467303276062E-001;-3.909058496356010E-002;-2.161246724426746E-003;-4.074629861861467E-003;
2.419333333333334E+009;1.959327012300491E-001;-3.938475251197815E-002;-2.111044479534030E-003;-3.856219351291657E-003;
2.419500000000000E+009;1.943292915821075E-001;-3.957752138376236E-002;-2.126436913385987E-003;-3.762888722121716E-003;
2.419666666666667E+009;1.926128119230270E-001;-4.004444554448128E-002;-2.312207361683250E-003;-3.394940169528127E-003;
2.419833333333334E+009;1.910303235054016E-001;-4.057451337575913E-002;-2.066457411274314E-003;-3.219957230612636E-003;
2.420000000000000E+009;1.893276870250702E-001;-4.127962887287140E-002;-2.093176357448101E-003;-3.012222237884998E-003;
2.420166666666667E+009;1.875574737787247E-001;-4.205211251974106E-002;-2.152039669454098E-003;-2.868753625079989E-003;
2.420333333333334E+009;1.858818531036377E-001;-4.307156428694725E-002;-2.087059896439314E-003;-2.685560146346688E-003;
2.420500000000000E+009;1.839702874422073E-001;-4.416698589920998E-002;-2.100625773891807E-003;-2.613855060189962E-003;
2.420666666666667E+009;1.821622550487518E-001;-4.510072618722916E-002;-2.076651668176055E-003;-2.373510273173451E-003;
2.420833333333334E+009;1.803738474845886E-001;-4.656166955828667E-002;-1.757425605319440E-003;-2.239412395283580E-003;
2.421000000000000E+009;1.787259131669998E-001;-4.805610328912735E-002;-1.734304125420749E-003;-2.133651869371533E-003;
2.421166666666667E+009;1.770706474781036E-001;-4.961278662085533E-002;-1.594564062543213E-003;-2.127065323293209E-003;
2.421333333333334E+009;1.753794401884079E-001;-5.113712698221207E-002;-1.517933793365955E-003;-2.087105764076114E-003;
2.421500000000000E+009;1.737945377826691E-001;-5.325288325548172E-002;-1.219125580973923E-003;-1.961474074050784E-003;
2.421666666666667E+009;1.721971482038498E-001;-5.513539910316467E-002;-1.018769457004964E-003;-2.135293325409293E-003;
2.421833333333334E+009;1.709750145673752E-001;-5.712303146719933E-002;-8.944993023760617E-004;-2.180904848501086E-003;
2.422000000000000E+009;1.695447415113449E-001;-5.905244126915932E-002;-9.669308201409876E-004;-2.275085309520364E-003;
2.422166666666667E+009;1.686007827520371E-001;-6.131589040160179E-002;-9.088938822969794E-004;-2.487713471055031E-003;
2.422333333333334E+009;1.674089431762695E-001;-6.349729001522064E-002;-8.772389846853912E-004;-2.505954820662737E-003;
2.422500000000000E+009;1.663675159215927E-001;-6.547329574823380E-002;-8.101440616883338E-004;-2.583286724984646E-003;
2.422666666666667E+009;1.655648201704025E-001;-6.775961071252823E-002;-8.154458482749760E-004;-2.694834955036640E-003;
2.422833333333334E+009;1.649927943944931E-001;-7.011593878269196E-002;-8.995551615953445E-004;-2.848599804565311E-003;
2.423000000000000E+009;1.642719209194183E-001;-7.231657952070236E-002;-1.000788877718151E-003;-2.989543136209250E-003;
2.423166666666667E+009;1.638990789651871E-001;-7.448828220367432E-002;-1.003887853585184E-003;-3.024471458047628E-003;
2.423333333333334E+009;1.636611968278885E-001;-7.664766162633896E-002;-1.145599992014468E-003;-3.126829629763961E-003;
2.423500000000000E+009;1.632197201251984E-001;-7.880371809005737E-002;-1.181633095256984E-003;-3.241190453991294E-003;
2.423666666666667E+009;1.634689420461655E-001;-8.100908249616623E-002;-1.389411860145629E-003;-3.450823714956641E-003;
2.423833333333334E+009;1.631783097982407E-001;-8.295288681983948E-002;-1.523585058748722E-003;-3.510010195896030E-003;
2.424000000000000E+009;1.634375303983688E-001;-8.502678573131561E-002;-1.423607929609716E-003;-3.548691049218178E-003;
2.424166666666667E+009;1.634990870952606E-001;-8.682113885879517E-002;-1.731043215841055E-003;-3.477234859019518E-003;
2.424333333333334E+009;1.638337820768356E-001;-8.868373930454254E-002;-1.841173274442554E-003;-3.703779773786664E-003;
2.424500000000000E+009;1.642348617315292E-001;-9.062775969505310E-002;-2.024397021159530E-003;-3.782602259889245E-003;
2.424666666666667E+009;1.646013557910919E-001;-9.219568222761154E-002;-2.172455657273531E-003;-3.794093383476138E-003;
2.424833333333334E+009;1.652432680130005E-001;-9.375011920928955E-002;-2.533977152779698E-003;-3.791181370615959E-003;
2.425000000000000E+009;1.658236980438232E-001;-9.510493278503418E-002;-2.641546074301004E-003;-3.839726326987147E-003;
2.425166666666667E+009;1.662267297506332E-001;-9.650830924510956E-002;-2.829694189131260E-003;-3.814901923760772E-003;
2.425333333333334E+009;1.667610257863998E-001;-9.766625612974167E-002;-3.251690883189440E-003;-3.754798090085387E-003;
2.425500000000000E+009;1.673816442489624E-001;-9.886138141155243E-002;-3.643112489953637E-003;-3.765117144212127E-003;
2.425666666666667E+009;1.680583655834198E-001;-9.972018003463745E-002;-3.785469802096486E-003;-3.806852269917727E-003;
2.425833333333334E+009;1.685808151960373E-001;-1.006877273321152E-001;-4.140720237046480E-003;-3.491751849651337E-003;
2.426000000000000E+009;1.692962646484375E-001;-1.012068837881088E-001;-4.339944105595350E-003;-3.438415005803108E-003;
2.426166666666667E+009;1.697968691587448E-001;-1.018962860107422E-001;-4.585484042763710E-003;-3.165252739563584E-003;
2.426333333333334E+009;1.702536642551422E-001;-1.024805530905724E-001;-4.879220388829708E-003;-2.917770296335220E-003;
2.426500000000000E+009;1.709535270929337E-001;-1.028493866324425E-001;-4.916025325655937E-003;-2.684001112356782E-003;
2.426666666666667E+009;1.714035719633102E-001;-1.032021269202232E-001;-5.152423866093159E-003;-2.527592005208135E-003;
2.426833333333334E+009;1.718769073486328E-001;-1.036164462566376E-001;-5.294596776366234E-003;-2.321348292753100E-003;
2.427000000000000E+009;1.721257120370865E-001;-1.038289442658424E-001;-5.300435703247786E-003;-1.985067501664162E-003;
2.427166666666667E+009;1.724561303853989E-001;-1.038810089230537E-001;-5.393261089920998E-003;-1.826127059757710E-003;
2.427333333333334E+009;1.726214438676834E-001;-1.041057482361794E-001;-5.439274013042450E-003;-1.505174324847758E-003;
2.427500000000000E+009;1.725427806377411E-001;-1.041618511080742E-001;-5.691588856279850E-003;-1.398975495249033E-003;
2.427666666666667E+009;1.724666953086853E-001;-1.041958928108215E-001;-5.544508807361126E-003;-1.037003356032074E-003;
2.427833333333334E+009;1.721914559602737E-001;-1.041727811098099E-001;-5.793011747300625E-003;-1.000219723209739E-003;
