# Version 1.00
#
freq[Hz];re:Trc1_S11;im:Trc1_S11;re:Trc2_S21;im:Trc2_S21;
2.400000000000000E+009;1.559987515211105E-001;1.114918813109398E-001;-3.809439367614687E-004;5.632684566080570E-003;
2.400166666666667E+009;1.553156822919846E-001;1.092764437198639E-001;-3.348764730617404E-004;5.591228138655424E-003;
2.400333333333334E+009;1.551531255245209E-001;1.070058420300484E-001;-6.456727714976296E-005;5.389913916587830E-003;
2.400500000000000E+009;1.546498686075211E-001;1.042815968394280E-001;8.496500231558457E-005;5.385376047343016E-003;
2.400666666666667E+009;1.545993685722351E-001;1.017265468835831E-001;2.972123038489372E-004;5.050786770880222E-003;
2.400833333333334E+009;1.542527377605438E-001;9.898854792118073E-002;4.999082302674651E-004;4.851501900702715E-003;
2.401000000000000E+009;1.541146934032440E-001;9.613715112209320E-002;6.821997230872512E-004;4.737439099699259E-003;
2.401166666666667E+009;1.539755463600159E-001;9.327995032072067E-002;5.876328214071691E-004;4.750827327370644E-003;
2.401333333333334E+009;1.540806591510773E-001;9.038461744785309E-002;7.283756858669221E-004;4.549276083707809E-003;
2.401500000000000E+009;1.541628986597061E-001;8.746117353439331E-002;6.166083039715886E-004;4.452752415090799E-003;
2.401666666666667E+009;1.544744968414307E-001;8.434345573186874E-002;7.178417290560901E-004;4.333194810897112E-003;
2.401833333333334E+009;1.547072678804398E-001;8.145851641893387E-002;9.327747975476086E-004;4.430323839187622E-003;
2.402000000000000E+009;1.553235203027725E-001;7.849560678005219E-002;1.020486117340624E-003;4.299543332308531E-003;
2.402166666666667E+009;1.560888737440109E-001;7.581818848848343E-002;1.224674633704126E-003;4.485527053475380E-003;
2.402333333333334E+009;1.567824482917786E-001;7.287297397851944E-002;1.070245169103146E-003;4.333992488682270E-003;
2.402500000000000E+009;1.579356193542481E-001;7.008439302444458E-002;1.252651796676219E-003;4.345818888396025E-003;
2.402666666666667E+009;1.590215712785721E-001;6.754041463136673E-002;1.373391831293702E-003;4.218533169478178E-003;
2.402833333333334E+009;1.602573692798615E-001;6.471537053585053E-002;1.606357865966857E-003;4.351866897195578E-003;
2.403000000000000E+009;1.615810841321945E-001;6.222019717097282E-002;1.760782906785607E-003;4.181963857263327E-003;
2.403166666666667E+009;1.631710082292557E-001;5.961472913622856E-002;1.951037556864321E-003;4.177734255790710E-003;
2.403333333333334E+009;1.646069437265396E-001;5.724107101559639E-002;2.197109628468752E-003;3.995936829596758E-003;
2.403500000000000E+009;1.664327085018158E-001;5.487243086099625E-002;2.190871397033334E-003;3.949035424739122E-003;
2.403666666666667E+009;1.683593392372131E-001;5.277561768889427E-002;2.251883968710899E-003;3.709066892042756E-003;
2.403833333333334E+009;1.700429767370224E-001;5.055443570017815E-002;2.481221687048674E-003;3.457379993051291E-003;
2.404000000000000E+009;1.716937571763992E-001;4.853772744536400E-002;2.624298678711057E-003;3.277024254202843E-003;
2.404166666666667E+009;1.736886799335480E-001;4.685823246836662E-002;2.712493296712637E-003;2.979514421895146E-003;
2.404333333333334E+009;1.754308491945267E-001;4.519743844866753E-002;2.468490507453680E-003;2.871397184208036E-003;
2.404500000000000E+009;1.773191392421722E-001;4.357465729117394E-002;2.611777046695352E-003;2.803524490445852E-003;
2.404666666666667E+009;1.790673434734345E-001;4.228396713733673E-002;2.562606241554022E-003;2.525226213037968E-003;
2.404833333333334E+009;1.809283345937729E-001;4.102845862507820E-002;2.669104840606451E-003;2.504965523257852E-003;
2.405000000000000E+009;1.825010329484940E-001;4.017953202128410E-002;2.502429531887174E-003;2.511681290343404E-003;
2.405166666666667E+009;1.842796206474304E-001;3.948781266808510E-002;2.597661456093192E-003;2.352057490497828E-003;
2.405333333333334E+009;1.858391016721726E-001;3.885712102055550E-002;2.638335339725018E-003;2.155173802748323E-003;
2.405500000000000E+009;1.876758635044098E-001;3.835498914122582E-002;2.443247474730015E-003;2.204394433647394E-003;
2.405666666666667E+009;1.892078667879105E-001;3.794170916080475E-002;2.408705884590745E-003;2.127076964825392E-003;
2.405833333333334E+009;1.907452344894409E-001;3.778502345085144E-002;2.430291380733252E-003;2.051013056188822E-003;
2.406000000000000E+009;1.920085549354553E-001;3.749457374215126E-002;2.416594885289669E-003;2.147807739675045E-003;
2.406166666666667E+009;1.933659762144089E-001;3.736430406570435E-002;2.476467285305262E-003;2.167319646105170E-003;
2.406333333333334E+009;1.945967972278595E-001;3.747831284999847E-002;2.388614928349853E-003;2.192053711041808E-003;
2.406500000000000E+009;1.955943852663040E-001;3.765882179141045E-002;2.315862337127328E-003;2.067847177386284E-003;
2.406666666666667E+009;1.964502185583115E-001;3.778626769781113E-002;2.190407598391175E-003;1.986107788980007E-003;
2.406833333333334E+009;1.972987949848175E-001;3.793200477957726E-002;2.422158140689135E-003;2.158685121685267E-003;
2.407000000000000E+009;1.977513134479523E-001;3.824340179562569E-002;2.302775159478188E-003;2.110465895384550E-003;
2.407166666666667E+009;1.983689218759537E-001;3.833851963281632E-002;2.337692538276315E-003;1.920749666169286E-003;
2.407333333333334E+009;1.986342370510101E-001;3.867102414369583E-002;2.301462925970554E-003;2.161460695788264E-003;
2.407500000000000E+009;1.986505538225174E-001;3.909952193498612E-002;2.354017924517393E-003;1.982778776437044E-003;
2.407666666666667E+009;1.989220082759857E-001;3.919759765267372E-002;2.277320018038154E-003;2.091090893372893E-003;
2.407833333333334E+009;1.986029297113419E-001;3.935182467103005E-002;2.373963361606002E-003;2.136578084900975E-003;
2.408000000000000E+009;1.985779553651810E-001;3.950314968824387E-002;2.527215285226703E-003;2.195326611399651E-003;
2.408166666666667E+009;1.980584710836411E-001;3.938560932874680E-002;2.532786456868053E-003;2.251712372526527E-003;
2.408333333333334E+009;1.977560073137283E-001;3.928461670875549E-002;2.566816518083215E-003;2.248866250738502E-003;
2.408500000000000E+009;1.970474869012833E-001;3.922150656580925E-002;2.848857548087835E-003;2.433080459013581E-003;
2.408666666666667E+009;1.962319016456604E-001;3.905535861849785E-002;2.882580040022731E-003;2.447614679113030E-003;
2.408833333333334E+009;1.954693794250488E-001;3.865044936537743E-002;3.090640762820840E-003;2.458249917253852E-003;
2.409000000000000E+009;1.945206820964813E-001;3.794076666235924E-002;3.304714336991310E-003;2.488372148945928E-003;
2.409166666666667E+009;1.934656798839569E-001;3.737608343362808E-002;3.439614316448569E-003;2.459772862493992E-003;
2.409333333333334E+009;1.924240440130234E-001;3.673115745186806E-002;3.640162758529186E-003;2.339493017643690E-003;
2.409500000000000E+009;1.910405755043030E-001;3.565368056297302E-002;3.865238046273589E-003;2.432733075693250E-003;
2.409666666666667E+009;1.899434477090836E-001;3.462776169180870E-002;3.959374502301216E-003;2.293861703947187E-003;
2.409833333333334E+009;1.886965483427048E-001;3.328390419483185E-002;4.107215907424688E-003;2.050000708550215E-003;
2.410000000000000E+009;1.875765919685364E-001;3.181342408061028E-002;4.347509238868952E-003;1.886842423118651E-003;
2.410166666666667E+009;1.863072812557221E-001;3.034956008195877E-002;4.487768746912479E-003;1.852814806625247E-003;
2.410333333333334E+009;1.851392686367035E-001;2.871824428439140E-002;4.582523833960295E-003;1.720425090752542E-003;
2.410500000000000E+009;1.838675439357758E-001;2.689122967422009E-002;4.753051325678825E-003;1.514999312348664E-003;
2.410666666666667E+009;1.826167702674866E-001;2.495203539729118E-002;4.862071014940739E-003;1.272707013413310E-003;
2.410833333333334E+009;1.820273399353027E-001;2.285657078027725E-002;4.942422267049551E-003;1.068126293830574E-003;
2.411000000000000E+009;1.809513121843338E-001;2.073027007281780E-002;5.030425265431404E-003;9.868985507637262E-004;
2.411166666666667E+009;1.798974722623825E-001;1.861936226487160E-002;5.086982157081366E-003;7.164617418311536E-004;
2.411333333333334E+009;1.791635006666184E-001;1.593243703246117E-002;5.063541233539581E-003;5.621929885819554E-004;
2.411500000000000E+009;1.785115152597427E-001;1.357925590127707E-002;5.165329668670893E-003;5.353699671104550E-004;
2.411666666666667E+009;1.781193464994431E-001;1.112068537622690E-002;5.141074303537607E-003;3.366842865943909E-004;
2.411833333333334E+009;1.777382493019104E-001;8.915149606764317E-003;5.319763906300068E-003;7.626136357430369E-005;
2.412000000000000E+009;1.775945276021957E-001;6.161173339933157E-003;5.217279307544231E-003;6.641028448939323E-005;
2.412166666666667E+009;1.773329824209213E-001;3.518297104164958E-003;5.415907595306635E-003;-2.224019262939692E-004;
2.412333333333334E+009;1.774058341979981E-001;8.480969700030983E-004;5.414070095866919E-003;-2.474442298989743E-004;
2.412500000000000E+009;1.775946915149689E-001;-1.837285817600787E-003;5.532125942409039E-003;-4.717132833320648E-004;
2.412666666666667E+009;1.780403256416321E-001;-4.344987682998180E-003;5.653229076415300E-003;-5.818089703097940E-004;
2.412833333333334E+009;1.786094307899475E-001;-6.978142540901899E-003;5.571199115365744E-003;-9.851350914686918E-004;
2.413000000000000E+009;1.793150156736374E-001;-9.469328448176384E-003;5.720674525946379E-003;-1.068907557055354E-003;
2.413166666666667E+009;1.799549311399460E-001;-1.210095640271902E-002;5.956688430160284E-003;-1.324250479228795E-003;
2.413333333333334E+009;1.812078505754471E-001;-1.469329465180636E-002;5.883518140763044E-003;-1.619220129214227E-003;
2.413500000000000E+009;1.818579882383347E-001;-1.716707646846771E-002;6.136645097285509E-003;-2.123058540746570E-003;
2.413666666666667E+009;1.830686628818512E-001;-1.965409331023693E-002;6.078436970710754E-003;-2.257615793496370E-003;
2.413833333333334E+009;1.842620223760605E-001;-2.183065935969353E-002;5.989254452288151E-003;-2.732634311541915E-003;
2.414000000000000E+009;1.854244023561478E-001;-2.408221550285816E-002;6.098863668739796E-003;-3.219233592972159E-003;
2.414166666666667E+009;1.868988722562790E-001;-2.611043490469456E-002;5.812475923448801E-003;-3.449957119300962E-003;
2.414333333333334E+009;1.880002021789551E-001;-2.820126339793205E-002;5.804724525660276E-003;-3.796699689701200E-003;
2.414500000000000E+009;1.894198507070541E-001;-2.979802712798119E-002;5.601989571005106E-003;-4.414097871631384E-003;
2.414666666666667E+009;1.906893402338028E-001;-3.152097016572952E-002;5.131727550178766E-003;-4.765772726386786E-003;
2.414833333333334E+009;1.922329366207123E-001;-3.336557000875473E-002;5.129984114319086E-003;-4.858117084950209E-003;
2.415000000000000E+009;1.933659762144089E-001;-3.477232903242111E-002;4.723150748759508E-003;-5.362218245863915E-003;
2.415166666666667E+009;1.949297338724136E-001;-3.604082018136978E-002;4.357248079031706E-003;-5.541805643588305E-003;
2.415333333333334E+009;1.962722688913345E-001;-3.719955682754517E-002;3.883707104250789E-003;-5.906087346374989E-003;
2.415500000000000E+009;1.976860612630844E-001;-3.802753239870071E-002;3.482242580503225E-003;-6.208802107721567E-003;
2.415666666666667E+009;1.990166008472443E-001;-3.904540836811066E-002;3.251795424148440E-003;-6.078823935240507E-003;
2.415833333333334E+009;2.001591473817825E-001;-3.972892463207245E-002;2.667064545676112E-003;-6.370450370013714E-003;
2.416000000000000E+009;2.012348771095276E-001;-4.045147448778153E-002;2.248803619295359E-003;-6.411830894649029E-003;
2.416166666666667E+009;2.022875994443893E-001;-4.098991304636002E-002;1.955408137291670E-003;-6.399834062904120E-003;
2.416333333333334E+009;2.031139284372330E-001;-4.145729914307594E-002;1.536642434075475E-003;-6.275501567870379E-003;
2.416500000000000E+009;2.040649801492691E-001;-4.166562482714653E-002;1.286666723899543E-003;-6.341396365314722E-003;
2.416666666666667E+009;2.046279013156891E-001;-4.206485673785210E-002;8.892944315448403E-004;-6.158862262964249E-003;
2.416833333333334E+009;2.050541043281555E-001;-4.204493016004562E-002;5.406779819168150E-004;-6.094759330153465E-003;
2.417000000000000E+009;2.055122405290604E-001;-4.214864596724510E-002;2.798319037538022E-004;-6.016179453581572E-003;
2.417166666666667E+009;2.055393606424332E-001;-4.198030382394791E-002;2.239765308331698E-005;-5.852711852639914E-003;
2.417333333333334E+009;2.055657953023911E-001;-4.170726984739304E-002;-2.571617951616645E-004;-5.620247218757868E-003;
2.417500000000000E+009;2.054268717765808E-001;-4.166654869914055E-002;-5.361560033634305E-004;-5.545380990952253E-003;
2.417666666666667E+009;2.051746547222138E-001;-4.124885424971581E-002;-7.695888634771109E-004;-5.530258174985647E-003;
2.417833333333334E+009;2.048539817333221E-001;-4.093159362673760E-002;-9.396348614245653E-004;-5.279679317027330E-003;
2.418000000000000E+009;2.044201493263245E-001;-4.057621210813522E-002;-1.126558636315167E-003;-5.219337064772844E-003;
2.418166666666667E+009;2.038230448961258E-001;-4.021314159035683E-002;-1.180572784505785E-003;-5.074537359178066E-003;
2.418333333333334E+009;2.029847949743271E-001;-3.989484906196594E-002;-1.409191754646599E-003;-5.049956031143665E-003;
2.418500000000000E+009;2.022149264812470E-001;-3.976302221417427E-002;-1.535687362775207E-003;-4.658607300370932E-003;
2.418666666666667E+009;2.012845426797867E-001;-3.938680514693260E-002;-1.702803419902921E-003;-4.530722275376320E-003;
2.418833333333334E+009;2.001717239618301E-001;-3.941452130675316E-002;-1.831458532251418E-003;-4.270926117897034E-003;
2.419000000000000E+009;1.988345980644226E-001;-3.924165666103363E-002;-1.886558951810002E-003;-4.267557524144650E-003;
2.419166666666667E+009;1.974616646766663E-001;-3.954268991947174E-002;-2.092998242005706E-003;-3.957277629524469E-003;
2.419333333333334E+009;1.960568130016327E-001;-3.969690576195717E-002;-2.105961088091135E-003;-3.872314933687449E-003;
2.419500000000000E+009;1.945504546165466E-001;-3.989937528967857E-002;-2.213795669376850E-003;-3.472032723948360E-003;
2.419666666666667E+009;1.929819285869598E-001;-4.043862968683243E-002;-2.313069067895412E-003;-3.386295167729259E-003;
2.419833333333334E+009;1.912792623043060E-001;-4.076690971851349E-002;-2.203774638473988E-003;-3.234538482502103E-003;
2.420000000000000E+009;1.895244121551514E-001;-4.153910651803017E-002;-2.194844651967287E-003;-3.089449834078550E-003;
2.420166666666667E+009;1.877666264772415E-001;-4.238924011588097E-002;-2.235549269244075E-003;-2.919028745964170E-003;
2.420333333333334E+009;1.861010789871216E-001;-4.343903809785843E-002;-2.223927062004805E-003;-2.540145069360733E-003;
2.420500000000000E+009;1.842159926891327E-001;-4.457070305943489E-002;-2.099157078191638E-003;-2.437745686620474E-003;
2.420666666666667E+009;1.823112070560455E-001;-4.553034156560898E-002;-1.857043360359967E-003;-2.220714464783669E-003;
2.420833333333334E+009;1.806759089231491E-001;-4.694965109229088E-002;-1.963488291949034E-003;-2.219087677076459E-003;
2.421000000000000E+009;1.789615750312805E-001;-4.838122054934502E-002;-1.743020955473185E-003;-2.047369722276926E-003;
2.421166666666667E+009;1.773795932531357E-001;-5.024866387248039E-002;-1.692205201834440E-003;-2.106261439621449E-003;
2.421333333333334E+009;1.755113303661346E-001;-5.164101347327232E-002;-1.375264255329967E-003;-2.036557532846928E-003;
2.421500000000000E+009;1.740255653858185E-001;-5.345085263252258E-002;-1.369679812341929E-003;-1.911373343318701E-003;
2.421666666666667E+009;1.724801510572434E-001;-5.546822026371956E-002;-1.251634210348129E-003;-1.959459856152535E-003;
2.421833333333334E+009;1.710014194250107E-001;-5.737286806106567E-002;-1.020080992020667E-003;-2.046347595751286E-003;
2.422000000000000E+009;1.698196530342102E-001;-5.940700322389603E-002;-1.168800517916679E-003;-2.104043727740645E-003;
2.422166666666667E+009;1.687965989112854E-001;-6.168715283274651E-002;-1.008547609671950E-003;-2.237566281110048E-003;
2.422333333333334E+009;1.675772666931152E-001;-6.377175450325012E-002;-9.481823653914034E-004;-2.309964504092932E-003;
2.422500000000000E+009;1.666720658540726E-001;-6.593129783868790E-002;-9.400158887729049E-004;-2.430961001664400E-003;
2.422666666666667E+009;1.656936407089233E-001;-6.823521852493286E-002;-8.809826686047018E-004;-2.650270238518715E-003;
2.422833333333334E+009;1.651505380868912E-001;-7.048738747835159E-002;-9.620344499126077E-004;-2.834523096680641E-003;
2.423000000000000E+009;1.644401848316193E-001;-7.283227145671845E-002;-9.785607689991593E-004;-2.852561185136437E-003;
2.423166666666667E+009;1.639542877674103E-001;-7.485873997211456E-002;-1.062259078025818E-003;-2.952767303213477E-003;
2.423333333333334E+009;1.637778282165527E-001;-7.722210884094238E-002;-1.096851774491370E-003;-3.123131813481450E-003;
2.423500000000000E+009;1.633966714143753E-001;-7.926908135414124E-002;-1.174795208498836E-003;-3.153857309371233E-003;
2.423666666666667E+009;1.634281873703003E-001;-8.141437172889710E-002;-1.289168721996248E-003;-3.168834140524268E-003;
2.423833333333334E+009;1.632663756608963E-001;-8.342690020799637E-002;-1.486014691181481E-003;-3.251486457884312E-003;
2.424000000000000E+009;1.634407788515091E-001;-8.545781672000885E-002;-1.498026540502906E-003;-3.418990178033710E-003;
2.424166666666667E+009;1.635605245828629E-001;-8.737681061029434E-002;-1.628674799576402E-003;-3.510679118335247E-003;
2.424333333333334E+009;1.638930737972260E-001;-8.913555741310120E-002;-1.932485494762659E-003;-3.725075628608465E-003;
2.424500000000000E+009;1.642954200506210E-001;-9.110958874225617E-002;-2.033094409853220E-003;-3.737928112968803E-003;
2.424666666666667E+009;1.645830422639847E-001;-9.263139218091965E-002;-2.257508691400290E-003;-3.738140221685171E-003;
2.424833333333334E+009;1.652852892875671E-001;-9.416897594928742E-002;-2.358256839215756E-003;-3.771535819396377E-003;
2.425000000000000E+009;1.657996326684952E-001;-9.568792581558228E-002;-2.683733124285936E-003;-3.877289826050401E-003;
2.425166666666667E+009;1.661999076604843E-001;-9.694010764360428E-002;-2.843514783307910E-003;-3.911446314305067E-003;
2.425333333333334E+009;1.667492687702179E-001;-9.808909893035889E-002;-3.109660930931568E-003;-3.882397897541523E-003;
2.425500000000000E+009;1.673771589994431E-001;-9.917828440666199E-002;-3.478884464129806E-003;-3.832843387499452E-003;
2.425666666666667E+009;1.678843498229981E-001;-1.000202223658562E-001;-3.628542181104422E-003;-3.686651121824980E-003;
2.425833333333334E+009;1.685131192207336E-001;-1.010705605149269E-001;-3.844860708341003E-003;-3.457920858636499E-003;
2.426000000000000E+009;1.691744923591614E-001;-1.016459837555885E-001;-4.205469042062759E-003;-3.310176078230143E-003;
2.426166666666667E+009;1.697746962308884E-001;-1.022820472717285E-001;-4.523676354438067E-003;-3.224984509870410E-003;
2.426333333333334E+009;1.701010614633560E-001;-1.028880998492241E-001;-4.665798973292112E-003;-2.867783885449171E-003;
2.426500000000000E+009;1.708255857229233E-001;-1.031937822699547E-001;-4.920821171253920E-003;-2.783903619274497E-003;
2.426666666666667E+009;1.712089478969574E-001;-1.035994067788124E-001;-4.944242537021637E-003;-2.431439235806465E-003;
2.426833333333334E+009;1.717824339866638E-001;-1.039803996682167E-001;-5.132887046784163E-003;-2.330992836505175E-003;
2.427000000000000E+009;1.720841228961945E-001;-1.041682586073875E-001;-5.164986010640860E-003;-2.101144986227155E-003;
2.427166666666667E+009;1.722793132066727E-001;-1.042322218418121E-001;-5.331648979336023E-003;-1.592128421179950E-003;
2.427333333333334E+009;1.724150031805039E-001;-1.044437438249588E-001;-5.509383045136929E-003;-1.543680555187166E-003;
2.427500000000000E+009;1.723027527332306E-001;-1.046110615134239E-001;-5.611933302134275E-003;-1.395142637193203E-003;
2.427666666666667E+009;1.722800433635712E-001;-1.044787615537643E-001;-5.570997018367052E-003;-1.200048369355500E-003;
2.427833333333334E+009;1.721216142177582E-001;-1.046308651566505E-001;-5.724919028580189E-003;-1.001155003905296E-003;
