# Version 1.00
#
freq[Hz];re:Trc1_S11;im:Trc1_S11;re:Trc2_S21;im:Trc2_S21;
2.400000000000000E+009;1.564793884754181E-001;1.110486909747124E-001;-5.300456541590393E-004;5.539612378925085E-003;
2.400166666666667E+009;1.559727042913437E-001;1.089449971914291E-001;-2.475009823683649E-004;5.319848190993071E-003;
2.400333333333334E+009;1.557057499885559E-001;1.067323759198189E-001;-1.462525415263372E-005;5.259487312287092E-003;
2.400500000000000E+009;1.554687917232513E-001;1.040165945887566E-001;8.165910003299359E-006;5.031483713537455E-003;
2.400666666666667E+009;1.550782471895218E-001;1.015607565641403E-001;3.422438458073884E-004;4.935313947498798E-003;
2.400833333333334E+009;1.546878367662430E-001;9.859395772218704E-002;4.657784884329885E-004;4.672073759138584E-003;
2.401000000000000E+009;1.545905917882919E-001;9.585062414407730E-002;4.883816000074148E-004;4.645988345146179E-003;
2.401166666666667E+009;1.544361263513565E-001;9.297206252813339E-002;5.460715037770569E-004;4.287742543965578E-003;
2.401333333333334E+009;1.545739322900772E-001;9.007983654737473E-002;5.649233935400844E-004;4.367307759821415E-003;
2.401500000000000E+009;1.547125726938248E-001;8.695054054260254E-002;6.217086338438094E-004;4.315488040447235E-003;
2.401666666666667E+009;1.548674255609512E-001;8.395401388406754E-002;6.638369522988796E-004;4.054307006299496E-003;
2.401833333333334E+009;1.550728827714920E-001;8.106983453035355E-002;6.816409877501428E-004;4.125622566789389E-003;
2.402000000000000E+009;1.557045131921768E-001;7.827415317296982E-002;7.250923663377762E-004;4.126844462007284E-003;
2.402166666666667E+009;1.564098298549652E-001;7.541608065366745E-002;8.224358898587525E-004;4.270561039447784E-003;
2.402333333333334E+009;1.572227925062180E-001;7.237762957811356E-002;1.119087915867567E-003;4.076147451996803E-003;
2.402500000000000E+009;1.583186239004135E-001;6.970586627721787E-002;1.091088633984327E-003;4.154706373810768E-003;
2.402666666666667E+009;1.591912209987640E-001;6.701115518808365E-002;1.108981086872518E-003;4.144269041717053E-003;
2.402833333333334E+009;1.605390012264252E-001;6.431417912244797E-002;1.284390338696539E-003;4.196992143988609E-003;
2.403000000000000E+009;1.619565635919571E-001;6.162746995687485E-002;1.664295908994973E-003;4.083066713064909E-003;
2.403166666666667E+009;1.637371480464935E-001;5.909205973148346E-002;1.629325095564127E-003;4.131933208554983E-003;
2.403333333333334E+009;1.651552170515060E-001;5.665853992104530E-002;1.902489108033478E-003;3.941179718822241E-003;
2.403500000000000E+009;1.668955981731415E-001;5.446513369679451E-002;2.231484511867166E-003;3.735942067578435E-003;
2.403666666666667E+009;1.687644273042679E-001;5.233097821474075E-002;2.180980518460274E-003;3.470843890681863E-003;
2.403833333333334E+009;1.704334765672684E-001;5.013722926378250E-002;2.316197380423546E-003;3.435954451560974E-003;
2.404000000000000E+009;1.719967126846314E-001;4.803778603672981E-002;2.322704065591097E-003;3.229490946978331E-003;
2.404166666666667E+009;1.739387363195419E-001;4.634853824973106E-002;2.415734343230724E-003;2.978256205096841E-003;
2.404333333333334E+009;1.756423115730286E-001;4.465439915657044E-002;2.446455182507634E-003;2.694811904802918E-003;
2.404500000000000E+009;1.775459498167038E-001;4.298950731754303E-002;2.464775228872895E-003;2.657495206221938E-003;
2.404666666666667E+009;1.793714165687561E-001;4.163032397627831E-002;2.415642375126481E-003;2.448703395202756E-003;
2.404833333333334E+009;1.811835616827011E-001;4.041567817330360E-002;2.343901665881276E-003;2.487835707142949E-003;
2.405000000000000E+009;1.826641410589218E-001;3.968911990523338E-002;2.324473811313510E-003;2.493173349648714E-003;
2.405166666666667E+009;1.844933032989502E-001;3.883805871009827E-002;2.177863847464323E-003;2.270719967782497E-003;
2.405333333333334E+009;1.862010806798935E-001;3.821258246898651E-002;2.237306907773018E-003;2.238028217107058E-003;
2.405500000000000E+009;1.878059804439545E-001;3.760053962469101E-002;2.062247833237052E-003;2.176869427785277E-003;
2.405666666666667E+009;1.894572675228119E-001;3.737455606460571E-002;2.279833890497685E-003;2.172726439312100E-003;
2.405833333333334E+009;1.909228861331940E-001;3.700980916619301E-002;2.175120171159506E-003;2.265773247927427E-003;
2.406000000000000E+009;1.920536607503891E-001;3.696206212043762E-002;1.944663003087044E-003;2.175957197323442E-003;
2.406166666666667E+009;1.934647113084793E-001;3.671965003013611E-002;2.011950360611081E-003;2.218892099335790E-003;
2.406333333333334E+009;1.946056634187698E-001;3.683758899569511E-002;2.187257632613182E-003;2.252151956781745E-003;
2.406500000000000E+009;1.957407742738724E-001;3.696875274181366E-002;2.049237256869674E-003;2.089246641844511E-003;
2.406666666666667E+009;1.964899152517319E-001;3.716044127941132E-002;2.069370122626424E-003;2.084510633721948E-003;
2.406833333333334E+009;1.973072439432144E-001;3.732607886195183E-002;1.975551480427384E-003;2.048693597316742E-003;
2.407000000000000E+009;1.977818161249161E-001;3.764026239514351E-002;2.163597382605076E-003;2.167379949241877E-003;
2.407166666666667E+009;1.983690261840820E-001;3.759394213557243E-002;2.146857324987650E-003;2.039756625890732E-003;
2.407333333333334E+009;1.984829902648926E-001;3.798785060644150E-002;2.120664808899164E-003;2.194589702412486E-003;
2.407500000000000E+009;1.986247301101685E-001;3.841145336627960E-002;2.209595870226622E-003;2.270527649670839E-003;
2.407666666666667E+009;1.986202001571655E-001;3.851190209388733E-002;2.182783558964729E-003;2.239299006760120E-003;
2.407833333333334E+009;1.984854191541672E-001;3.881373628973961E-002;2.399680903181434E-003;2.439937554299831E-003;
2.408000000000000E+009;1.983977705240250E-001;3.879906237125397E-002;2.258085645735264E-003;2.416236093267798E-003;
2.408166666666667E+009;1.978302747011185E-001;3.881256654858589E-002;2.487533027306199E-003;2.458140021190047E-003;
2.408333333333334E+009;1.973630338907242E-001;3.866749256849289E-002;2.477516420185566E-003;2.457286696881056E-003;
2.408500000000000E+009;1.967950761318207E-001;3.872503712773323E-002;2.582163084298372E-003;2.611566334962845E-003;
2.408666666666667E+009;1.959977596998215E-001;3.843944519758225E-002;2.789439400658011E-003;2.647130517289043E-003;
2.408833333333334E+009;1.952989846467972E-001;3.801425173878670E-002;2.944028936326504E-003;2.658781362697482E-003;
2.409000000000000E+009;1.942260414361954E-001;3.745855763554573E-002;2.982355887070298E-003;2.685389947146177E-003;
2.409166666666667E+009;1.932335793972015E-001;3.677226975560188E-002;3.375771688297391E-003;2.597963670268655E-003;
2.409333333333334E+009;1.921352148056030E-001;3.622726723551750E-002;3.547416301444173E-003;2.655469113960862E-003;
2.409500000000000E+009;1.908013671636581E-001;3.519245982170105E-002;3.836038289591670E-003;2.719649346545339E-003;
2.409666666666667E+009;1.896342188119888E-001;3.391729667782784E-002;4.017708823084831E-003;2.630299422889948E-003;
2.409833333333334E+009;1.884109675884247E-001;3.290557861328125E-002;4.163738805800676E-003;2.473440486937761E-003;
2.410000000000000E+009;1.873067468404770E-001;3.126082569360733E-002;4.264955874532461E-003;2.322039799764752E-003;
2.410166666666667E+009;1.858996301889420E-001;2.976667322218418E-002;4.490970168262720E-003;2.078497083857656E-003;
2.410333333333334E+009;1.847805231809616E-001;2.829648926854134E-002;4.701995756477118E-003;2.067925175651908E-003;
2.410500000000000E+009;1.834828555583954E-001;2.656195685267448E-002;4.655600525438786E-003;1.753637217916548E-003;
2.410666666666667E+009;1.823143213987351E-001;2.441648952662945E-002;4.947902169078589E-003;1.644256873987615E-003;
2.410833333333334E+009;1.814515292644501E-001;2.233201451599598E-002;4.976994823664427E-003;1.332480227574706E-003;
2.411000000000000E+009;1.805537343025208E-001;2.022148109972477E-002;5.014053080230951E-003;1.344668911769986E-003;
2.411166666666667E+009;1.794328689575195E-001;1.809932477772236E-002;5.139068700373173E-003;9.879327844828367E-004;
2.411333333333334E+009;1.786182820796967E-001;1.554196700453758E-002;5.205150227993727E-003;8.339787600561976E-004;
2.411500000000000E+009;1.780623346567154E-001;1.325684040784836E-002;5.195813719183207E-003;8.222048054449260E-004;
2.411666666666667E+009;1.775275617837906E-001;1.103189121931791E-002;5.188231822103262E-003;5.889780004508793E-004;
2.411833333333334E+009;1.771148890256882E-001;8.354838006198406E-003;5.331416614353657E-003;4.344032495282590E-004;
2.412000000000000E+009;1.769560426473618E-001;5.587278399616480E-003;5.335429683327675E-003;3.416633408050984E-004;
2.412166666666667E+009;1.770199835300446E-001;3.162128152325749E-003;5.490323528647423E-003;1.146412178059109E-004;
2.412333333333334E+009;1.768625229597092E-001;4.498773487284780E-004;5.511694122105837E-003;8.048069139476866E-005;
2.412500000000000E+009;1.772953122854233E-001;-2.134812530130148E-003;5.619184579700232E-003;-1.422566274413839E-004;
2.412666666666667E+009;1.776162832975388E-001;-4.782034084200859E-003;5.755548831075430E-003;-3.692967002280057E-004;
2.412833333333334E+009;1.780625581741333E-001;-7.277685683220625E-003;6.130207329988480E-003;-6.254591280594468E-004;
2.413000000000000E+009;1.787471473217011E-001;-9.782870300114155E-003;5.873180925846100E-003;-8.950774790719152E-004;
2.413166666666667E+009;1.795139312744141E-001;-1.242132857441902E-002;6.094391457736492E-003;-1.220894046127796E-003;
2.413333333333334E+009;1.807142794132233E-001;-1.484845299273729E-002;6.078072823584080E-003;-1.482415711507201E-003;
2.413500000000000E+009;1.812231987714768E-001;-1.737879961729050E-002;6.206220481544733E-003;-1.826002495363355E-003;
2.413666666666667E+009;1.825484484434128E-001;-1.978072337806225E-002;6.114801391959190E-003;-2.125745173543692E-003;
2.413833333333334E+009;1.836180090904236E-001;-2.190123312175274E-002;6.201397161930800E-003;-2.408913569524884E-003;
2.414000000000000E+009;1.847834736108780E-001;-2.418107911944389E-002;6.184650585055351E-003;-2.999334130436182E-003;
2.414166666666667E+009;1.863333433866501E-001;-2.611524425446987E-002;5.895565729588270E-003;-3.336758818477392E-003;
2.414333333333334E+009;1.875139772891998E-001;-2.846877463161945E-002;6.011324003338814E-003;-3.789531765505672E-003;
2.414500000000000E+009;1.889559179544449E-001;-3.017382137477398E-002;5.700977519154549E-003;-4.274350591003895E-003;
2.414666666666667E+009;1.902726441621780E-001;-3.181657940149307E-002;5.457544233649969E-003;-4.510772880166769E-003;
2.414833333333334E+009;1.916570365428925E-001;-3.332946076989174E-002;5.120516754686832E-003;-5.135673563927412E-003;
2.415000000000000E+009;1.928200572729111E-001;-3.488835319876671E-002;4.833091050386429E-003;-5.373127758502960E-003;
2.415166666666667E+009;1.944002658128738E-001;-3.624017536640167E-002;4.433401394635439E-003;-5.491199903190136E-003;
2.415333333333334E+009;1.958341300487518E-001;-3.732113912701607E-002;4.027510993182659E-003;-5.784306675195694E-003;
2.415500000000000E+009;1.971492767333984E-001;-3.816716000437737E-002;3.672064282000065E-003;-5.988060962408781E-003;
2.415666666666667E+009;1.984769850969315E-001;-3.905152156949043E-002;3.269194858148694E-003;-6.117090117186308E-003;
2.415833333333334E+009;1.996360123157501E-001;-3.968177735805512E-002;2.818513894453645E-003;-6.244136020541191E-003;
2.416000000000000E+009;2.007276564836502E-001;-4.039758816361427E-002;2.548727905377746E-003;-6.423770915716887E-003;
2.416166666666667E+009;2.017987370491028E-001;-4.111471027135849E-002;2.214823383837938E-003;-6.404604297131300E-003;
2.416333333333334E+009;2.026760727167130E-001;-4.132606089115143E-002;1.837371382862330E-003;-6.370266433805227E-003;
2.416500000000000E+009;2.034446895122528E-001;-4.155081138014793E-002;1.398854888975620E-003;-6.312223616987467E-003;
2.416666666666667E+009;2.040841430425644E-001;-4.201447218656540E-002;1.195724937133491E-003;-6.254413630813360E-003;
2.416833333333334E+009;2.045000791549683E-001;-4.193098470568657E-002;8.646828355267644E-004;-6.128513719886541E-003;
2.417000000000000E+009;2.049698978662491E-001;-4.207717254757881E-002;4.611359036061913E-004;-5.984873976558447E-003;
2.417166666666667E+009;2.049405723810196E-001;-4.180527478456497E-002;1.463437220081687E-004;-6.117953918874264E-003;
2.417333333333334E+009;2.049566954374313E-001;-4.149229452013969E-002;-5.379209687816910E-005;-5.696536041796207E-003;
2.417500000000000E+009;2.049274593591690E-001;-4.140811040997505E-002;-1.968227734323591E-004;-5.717197898775339E-003;
2.417666666666667E+009;2.046762853860855E-001;-4.100776463747025E-002;-5.696405423805118E-004;-5.529033951461315E-003;
2.417833333333334E+009;2.043740153312683E-001;-4.072409495711327E-002;-7.929639541544020E-004;-5.339622031897306E-003;
2.418000000000000E+009;2.039756625890732E-001;-4.019194096326828E-002;-8.250473183579743E-004;-5.190503783524036E-003;
2.418166666666667E+009;2.032224237918854E-001;-3.998687490820885E-002;-1.117115374654532E-003;-5.096286535263062E-003;
2.418333333333334E+009;2.025351077318192E-001;-3.959312662482262E-002;-1.242160913534463E-003;-4.873752593994141E-003;
2.418500000000000E+009;2.016380131244659E-001;-3.938007354736328E-002;-1.428130199201405E-003;-4.840859677642584E-003;
2.418666666666667E+009;2.008682191371918E-001;-3.908701613545418E-002;-1.509037218056619E-003;-4.685670137405396E-003;
2.418833333333334E+009;1.997119486331940E-001;-3.901826217770577E-002;-1.574505353346467E-003;-4.484992474317551E-003;
2.419000000000000E+009;1.984619498252869E-001;-3.903567045927048E-002;-1.866548904217780E-003;-4.252611193805933E-003;
2.419166666666667E+009;1.971656978130341E-001;-3.902544081211090E-002;-1.803454244509339E-003;-4.083811771124601E-003;
2.419333333333334E+009;1.957246363162994E-001;-3.941700980067253E-002;-1.934347790665925E-003;-3.892659209668636E-003;
2.419500000000000E+009;1.943164020776749E-001;-3.946060687303543E-002;-2.000914188101888E-003;-3.695836523547769E-003;
2.419666666666667E+009;1.927220970392227E-001;-4.001021012663841E-002;-2.095017116516829E-003;-3.547056112438440E-003;
2.419833333333334E+009;1.908815801143646E-001;-4.049194231629372E-002;-2.001554006710649E-003;-3.329206490889192E-003;
2.420000000000000E+009;1.892711371183395E-001;-4.114461690187454E-002;-2.055733697488904E-003;-3.090439131483436E-003;
2.420166666666667E+009;1.875631362199783E-001;-4.186801984906197E-002;-2.118840347975493E-003;-2.848795847967267E-003;
2.420333333333334E+009;1.858202069997788E-001;-4.285142570734024E-002;-1.914096530526876E-003;-2.714092377573252E-003;
2.420500000000000E+009;1.840671598911285E-001;-4.417967423796654E-002;-1.853148220106959E-003;-2.575012622401118E-003;
2.420666666666667E+009;1.822523027658463E-001;-4.513391852378845E-002;-1.784730819053948E-003;-2.466449746862054E-003;
2.420833333333334E+009;1.804367601871491E-001;-4.654709249734879E-002;-1.732276519760490E-003;-2.407650463283062E-003;
2.421000000000000E+009;1.787240505218506E-001;-4.811150208115578E-002;-1.612199586816132E-003;-2.293113619089127E-003;
2.421166666666667E+009;1.770159453153610E-001;-4.991394281387329E-002;-1.505222753621638E-003;-2.204006304964423E-003;
2.421333333333334E+009;1.754397451877594E-001;-5.124070867896080E-002;-1.249796710908413E-003;-2.132272114977241E-003;
2.421500000000000E+009;1.738128364086151E-001;-5.332582071423531E-002;-1.273169298656285E-003;-2.336010336875916E-003;
2.421666666666667E+009;1.724873036146164E-001;-5.512931942939758E-002;-1.024212921038270E-003;-2.210625680163503E-003;
2.421833333333334E+009;1.710011363029480E-001;-5.712327361106873E-002;-1.076646614819765E-003;-2.440111245959997E-003;
2.422000000000000E+009;1.698651909828186E-001;-5.913512781262398E-002;-9.081747848540545E-004;-2.413796959444881E-003;
2.422166666666667E+009;1.686100214719772E-001;-6.114580482244492E-002;-8.929810719564557E-004;-2.638817066326737E-003;
2.422333333333334E+009;1.675027608871460E-001;-6.353205442428589E-002;-8.121261489577591E-004;-2.608984708786011E-003;
2.422500000000000E+009;1.665960252285004E-001;-6.564532965421677E-002;-8.450511377304792E-004;-2.735225716605783E-003;
2.422666666666667E+009;1.656342595815659E-001;-6.786126643419266E-002;-9.111615363508463E-004;-2.834453713148832E-003;
2.422833333333334E+009;1.651091426610947E-001;-7.028706371784210E-002;-9.889581706374884E-004;-3.019293071702123E-003;
2.423000000000000E+009;1.643922477960587E-001;-7.253418117761612E-002;-9.835133096203208E-004;-3.013751469552517E-003;
2.423166666666667E+009;1.639176160097122E-001;-7.465970516204834E-002;-1.135112135671079E-003;-3.255906049162149E-003;
2.423333333333334E+009;1.635281592607498E-001;-7.689390331506729E-002;-1.260966062545776E-003;-3.292274894192815E-003;
2.423500000000000E+009;1.632935255765915E-001;-7.892751693725586E-002;-1.296371920034289E-003;-3.496685298159719E-003;
2.423666666666667E+009;1.634472310543060E-001;-8.123116195201874E-002;-1.595492940396071E-003;-3.478261874988675E-003;
2.423833333333334E+009;1.632132232189179E-001;-8.315655589103699E-002;-1.521687838248909E-003;-3.590250853449106E-003;
2.424000000000000E+009;1.634536534547806E-001;-8.515075594186783E-002;-1.677044783718884E-003;-3.618214745074511E-003;
2.424166666666667E+009;1.635361015796661E-001;-8.712565898895264E-002;-1.931475009769201E-003;-3.748967312276363E-003;
2.424333333333334E+009;1.638233512639999E-001;-8.882857859134674E-002;-2.055319026112557E-003;-3.922070376574993E-003;
2.424500000000000E+009;1.641751229763031E-001;-9.066184610128403E-002;-2.139541320502758E-003;-3.891764674335718E-003;
2.424666666666667E+009;1.645714640617371E-001;-9.245357662439346E-002;-2.509742975234985E-003;-3.990918397903442E-003;
2.424833333333334E+009;1.651891320943832E-001;-9.397459030151367E-002;-2.602206543087959E-003;-4.060707520693541E-003;
2.425000000000000E+009;1.655967384576798E-001;-9.539315849542618E-002;-2.920000348240137E-003;-4.008900839835405E-003;
2.425166666666667E+009;1.660847663879395E-001;-9.675383567810059E-002;-3.216556273400784E-003;-4.101547412574291E-003;
2.425333333333334E+009;1.665922999382019E-001;-9.788488596677780E-002;-3.457671031355858E-003;-3.938971552997828E-003;
2.425500000000000E+009;1.672871708869934E-001;-9.908542782068253E-002;-3.662738250568509E-003;-3.890246851369739E-003;
2.425666666666667E+009;1.679653674364090E-001;-9.988425672054291E-002;-4.046364687383175E-003;-3.752209013327956E-003;
2.425833333333334E+009;1.685657948255539E-001;-1.008062437176704E-001;-4.444500431418419E-003;-3.793835872784257E-003;
2.426000000000000E+009;1.690975129604340E-001;-1.013701707124710E-001;-4.590012598782778E-003;-3.561150049790740E-003;
2.426166666666667E+009;1.697935611009598E-001;-1.020619645714760E-001;-4.669534508138895E-003;-3.233405295759440E-003;
2.426333333333334E+009;1.700684875249863E-001;-1.026543378829956E-001;-4.909627139568329E-003;-2.890335395932198E-003;
2.426500000000000E+009;1.706810742616653E-001;-1.030709072947502E-001;-4.964585416018963E-003;-2.707681152969599E-003;
2.426666666666667E+009;1.710685491561890E-001;-1.034195572137833E-001;-5.241408944129944E-003;-2.677541226148605E-003;
2.426833333333334E+009;1.717078685760498E-001;-1.037258207798004E-001;-5.521815735846758E-003;-2.242507878690958E-003;
2.427000000000000E+009;1.719288676977158E-001;-1.038868278264999E-001;-5.512789357453585E-003;-2.010605763643980E-003;
2.427166666666667E+009;1.721926033496857E-001;-1.038195863366127E-001;-5.589962936937809E-003;-1.827014144510031E-003;
2.427333333333334E+009;1.723409593105316E-001;-1.041048169136047E-001;-5.718884523957968E-003;-1.558578223921359E-003;
2.427500000000000E+009;1.722975224256516E-001;-1.042556315660477E-001;-5.804057233035564E-003;-1.307483296841383E-003;
2.427666666666667E+009;1.722400188446045E-001;-1.042221263051033E-001;-5.864799022674561E-003;-1.064410898834467E-003;
2.427833333333334E+009;1.721137166023254E-001;-1.042296513915062E-001;-5.881944671273232E-003;-9.396309033036232E-004;
