# Version 1.00
#
freq[Hz];re:Trc1_S11;im:Trc1_S11;re:Trc2_S21;im:Trc2_S21;
2.400000000000000E+009;1.559093445539475E-001;1.113346293568611E-001;-3.974671417381614E-004;5.572421941906214E-003;
2.400166666666667E+009;1.554462313652039E-001;1.090091541409493E-001;-1.382724440190941E-004;5.354954861104488E-003;
2.400333333333334E+009;1.550735086202622E-001;1.068376079201698E-001;-1.502925351815065E-005;5.166128277778626E-003;
2.400500000000000E+009;1.545553207397461E-001;1.041771620512009E-001;3.725244314409792E-004;5.029228981584311E-003;
2.400666666666667E+009;1.544611155986786E-001;1.015279442071915E-001;3.631969448179007E-004;4.980064462870359E-003;
2.400833333333334E+009;1.541994512081146E-001;9.876183420419693E-002;6.162290228530765E-004;4.817031789571047E-003;
2.401000000000000E+009;1.540403664112091E-001;9.584728628396988E-002;6.167459650896490E-004;4.449748899787664E-003;
2.401166666666667E+009;1.539126187562943E-001;9.314301609992981E-002;8.092063362710178E-004;4.474498797208071E-003;
2.401333333333334E+009;1.540652662515640E-001;9.020064026117325E-002;5.893355701118708E-004;4.313810728490353E-003;
2.401500000000000E+009;1.542405486106873E-001;8.715721219778061E-002;7.786558708176017E-004;4.311501514166594E-003;
2.401666666666667E+009;1.543792188167572E-001;8.417377620935440E-002;9.082230390049517E-004;4.185363184660673E-003;
2.401833333333334E+009;1.545088440179825E-001;8.121170848608017E-002;8.817189373075962E-004;4.081001039594412E-003;
2.402000000000000E+009;1.552871763706207E-001;7.830403745174408E-002;1.005772850476205E-003;4.270269535481930E-003;
2.402166666666667E+009;1.558805853128433E-001;7.562424242496491E-002;1.104236464016140E-003;4.281798377633095E-003;
2.402333333333334E+009;1.566795855760574E-001;7.273252308368683E-002;1.111314981244505E-003;4.213476087898016E-003;
2.402500000000000E+009;1.578325033187866E-001;6.977535039186478E-002;1.388578908517957E-003;4.052235279232264E-003;
2.402666666666667E+009;1.588398218154907E-001;6.730820983648300E-002;1.419006497599185E-003;4.136744420975447E-003;
2.402833333333334E+009;1.601336151361466E-001;6.443042308092117E-002;1.502456841990352E-003;4.107533488422632E-003;
2.403000000000000E+009;1.617308109998703E-001;6.198054552078247E-002;1.819068565964699E-003;4.025102593004704E-003;
2.403166666666667E+009;1.631495058536530E-001;5.957808345556259E-002;1.780006336048245E-003;3.802186809480190E-003;
2.403333333333334E+009;1.646044552326202E-001;5.697896331548691E-002;1.842099823988974E-003;3.744374029338360E-003;
2.403500000000000E+009;1.665582507848740E-001;5.459792539477348E-002;2.202936680987477E-003;3.606629557907581E-003;
2.403666666666667E+009;1.682548522949219E-001;5.258594080805779E-002;2.388658002018929E-003;3.567743813619018E-003;
2.403833333333334E+009;1.699187308549881E-001;5.024322867393494E-002;2.468042075634003E-003;3.442782443016768E-003;
2.404000000000000E+009;1.714716106653214E-001;4.847313463687897E-002;2.561442786827683E-003;3.103425959125161E-003;
2.404166666666667E+009;1.734786927700043E-001;4.648429527878761E-002;2.759881783276796E-003;2.897694939747453E-003;
2.404333333333334E+009;1.753628551959992E-001;4.473765566945076E-002;2.682785969227552E-003;2.655915915966034E-003;
2.404500000000000E+009;1.770092099905014E-001;4.309412464499474E-002;2.564718713983893E-003;2.636754652485251E-003;
2.404666666666667E+009;1.790425628423691E-001;4.192830249667168E-002;2.521334681659937E-003;2.490770770236850E-003;
2.404833333333334E+009;1.808253973722458E-001;4.081511124968529E-002;2.547128591686487E-003;2.421467099338770E-003;
2.405000000000000E+009;1.824039071798325E-001;3.992551192641258E-002;2.464905381202698E-003;2.141627250239253E-003;
2.405166666666667E+009;1.841675639152527E-001;3.913082554936409E-002;2.318156417459250E-003;2.138246782124043E-003;
2.405333333333334E+009;1.858905106782913E-001;3.858035802841187E-002;2.184198005124927E-003;2.052855445072055E-003;
2.405500000000000E+009;1.874018758535385E-001;3.804030641913414E-002;2.206172095611692E-003;2.082693390548229E-003;
2.405666666666667E+009;1.890049874782562E-001;3.763210400938988E-002;2.100253244861960E-003;2.106231171637774E-003;
2.405833333333334E+009;1.905642002820969E-001;3.746496140956879E-002;2.191948471590877E-003;2.119425917044282E-003;
2.406000000000000E+009;1.918056160211563E-001;3.738261759281158E-002;2.129286760464311E-003;2.072581322863698E-003;
2.406166666666667E+009;1.930916905403137E-001;3.728210553526878E-002;2.048708265647292E-003;2.046661451458931E-003;
2.406333333333334E+009;1.943901628255844E-001;3.730439022183418E-002;2.179658040404320E-003;1.998973079025745E-003;
2.406500000000000E+009;1.952670812606812E-001;3.762381523847580E-002;2.220809692516923E-003;2.054733922705054E-003;
2.406666666666667E+009;1.960709989070892E-001;3.770813345909119E-002;2.091321861371398E-003;1.964111346751452E-003;
2.406833333333334E+009;1.969737261533737E-001;3.791093081235886E-002;2.152569359168410E-003;1.996972598135471E-003;
2.407000000000000E+009;1.974540799856186E-001;3.834923356771469E-002;2.161271870136261E-003;2.064621541649103E-003;
2.407166666666667E+009;1.981474757194519E-001;3.838826343417168E-002;2.072247443720698E-003;1.886013778857887E-003;
2.407333333333334E+009;1.982346326112747E-001;3.866279497742653E-002;1.959970220923424E-003;2.111419802531600E-003;
2.407500000000000E+009;1.984122544527054E-001;3.907662257552147E-002;2.257307991385460E-003;2.110529923811555E-003;
2.407666666666667E+009;1.985595375299454E-001;3.913068026304245E-002;2.168201608583331E-003;2.097534714266658E-003;
2.407833333333334E+009;1.981828808784485E-001;3.944632783532143E-002;2.166645834222436E-003;2.283948240801692E-003;
2.408000000000000E+009;1.982589215040207E-001;3.941110894083977E-002;2.319367136806250E-003;2.261904999613762E-003;
2.408166666666667E+009;1.977386176586151E-001;3.946904838085175E-002;2.224478637799621E-003;2.293769968673587E-003;
2.408333333333334E+009;1.973484903573990E-001;3.938036039471626E-002;2.399611053988338E-003;2.371998038142920E-003;
2.408500000000000E+009;1.966500580310822E-001;3.936160728335381E-002;2.579489955678582E-003;2.333144890144467E-003;
2.408666666666667E+009;1.960996389389038E-001;3.903205320239067E-002;2.840389497578144E-003;2.498321235179901E-003;
2.408833333333334E+009;1.951191276311874E-001;3.859046474099159E-002;2.814596518874168E-003;2.599438885226846E-003;
2.409000000000000E+009;1.941767185926437E-001;3.801654651761055E-002;3.115067025646567E-003;2.518032211810350E-003;
2.409166666666667E+009;1.931014060974121E-001;3.742630034685135E-002;3.139882814139128E-003;2.395162591710687E-003;
2.409333333333334E+009;1.921102106571198E-001;3.676569461822510E-002;3.394633298739791E-003;2.371434587985277E-003;
2.409500000000000E+009;1.908542960882187E-001;3.576031327247620E-002;3.562691155821085E-003;2.430947264656425E-003;
2.409666666666667E+009;1.896313279867172E-001;3.469520807266235E-002;3.676998894661665E-003;2.314853249117732E-003;
2.409833333333334E+009;1.883054524660111E-001;3.340506553649902E-002;4.033140838146210E-003;2.224141033366323E-003;
2.410000000000000E+009;1.871530413627625E-001;3.199621289968491E-002;4.137992858886719E-003;2.021659165620804E-003;
2.410166666666667E+009;1.859785467386246E-001;3.040585108101368E-002;4.513749387115240E-003;1.925235264934599E-003;
2.410333333333334E+009;1.847391575574875E-001;2.874068543314934E-002;4.554111976176500E-003;1.857181545346975E-003;
2.410500000000000E+009;1.834853589534760E-001;2.711943909525871E-002;4.496125504374504E-003;1.707931049168110E-003;
2.410666666666667E+009;1.824584603309631E-001;2.486701682209969E-002;4.646508488804102E-003;1.415060833096504E-003;
2.410833333333334E+009;1.817162483930588E-001;2.282821573317051E-002;4.858940839767456E-003;1.510977977886796E-003;
2.411000000000000E+009;1.806164532899857E-001;2.073685452342033E-002;4.715095274150372E-003;1.032686443068087E-003;
2.411166666666667E+009;1.796564906835556E-001;1.833688840270042E-002;4.920724779367447E-003;1.024847850203514E-003;
2.411333333333334E+009;1.789760887622833E-001;1.600843667984009E-002;4.960049875080586E-003;9.263964602723718E-004;
2.411500000000000E+009;1.783451735973358E-001;1.353232469409704E-002;5.045648664236069E-003;7.516915793530643E-004;
2.411666666666667E+009;1.777287870645523E-001;1.123226154595614E-002;5.128398537635803E-003;5.089663318358362E-004;
2.411833333333334E+009;1.773047596216202E-001;8.818240836262703E-003;5.170634016394615E-003;2.841523964889348E-004;
2.412000000000000E+009;1.772555261850357E-001;6.036066450178623E-003;5.351514555513859E-003;1.510547008365393E-004;
2.412166666666667E+009;1.771697103977203E-001;3.578545292839408E-003;5.296661984175444E-003;8.518822141923010E-005;
2.412333333333334E+009;1.771383434534073E-001;9.278409415856004E-004;5.549502093344927E-003;-1.479144120821729E-004;
2.412500000000000E+009;1.775068342685700E-001;-1.883941935375333E-003;5.490405950695276E-003;-2.801085065584630E-004;
2.412666666666667E+009;1.777036339044571E-001;-4.348829854279757E-003;5.676840897649527E-003;-4.622829728759825E-004;
2.412833333333334E+009;1.782945990562439E-001;-7.024641614407301E-003;5.855299066752195E-003;-7.461414206773043E-004;
2.413000000000000E+009;1.789678633213043E-001;-9.479974396526814E-003;5.831292364746332E-003;-8.599832071922720E-004;
2.413166666666667E+009;1.797674596309662E-001;-1.201079878956080E-002;6.000520195811987E-003;-1.159515115432441E-003;
2.413333333333334E+009;1.808142364025116E-001;-1.452181581407785E-002;6.045258603990078E-003;-1.467944122850895E-003;
2.413500000000000E+009;1.816708296537399E-001;-1.700728386640549E-002;6.099579390138388E-003;-1.946485019288957E-003;
2.413666666666667E+009;1.829057782888413E-001;-1.956959813833237E-002;6.195237394422293E-003;-2.113200724124908E-003;
2.413833333333334E+009;1.840176135301590E-001;-2.167513780295849E-002;6.129467394202948E-003;-2.533421618863940E-003;
2.414000000000000E+009;1.850701123476028E-001;-2.401420474052429E-002;6.023963447660208E-003;-3.074503969401121E-003;
2.414166666666667E+009;1.866538375616074E-001;-2.599595114588738E-002;5.955311935395002E-003;-3.350343089550734E-003;
2.414333333333334E+009;1.877328008413315E-001;-2.833946980535984E-002;5.949933081865311E-003;-3.904280019924045E-003;
2.414500000000000E+009;1.893083900213242E-001;-2.987935580313206E-002;5.588012281805277E-003;-4.242555703967810E-003;
2.414666666666667E+009;1.906048357486725E-001;-3.150895982980728E-002;5.384951364248991E-003;-4.581847228109837E-003;
2.414833333333334E+009;1.918940544128418E-001;-3.314905613660812E-002;5.095144268125296E-003;-5.027011502534151E-003;
2.415000000000000E+009;1.932375133037567E-001;-3.480437397956848E-002;4.751127213239670E-003;-5.224484018981457E-003;
2.415166666666667E+009;1.946999430656433E-001;-3.604621067643166E-002;4.359516780823469E-003;-5.323280114680529E-003;
2.415333333333334E+009;1.960365623235703E-001;-3.710604831576347E-002;3.942086361348629E-003;-5.520491860806942E-003;
2.415500000000000E+009;1.974672824144363E-001;-3.795976564288139E-002;3.481619060039520E-003;-5.770108662545681E-003;
2.415666666666667E+009;1.987462043762207E-001;-3.895509615540505E-002;3.089723177254200E-003;-5.871742032468319E-003;
2.415833333333334E+009;1.998497992753983E-001;-3.967954590916634E-002;2.797908848151565E-003;-6.177156232297421E-003;
2.416000000000000E+009;2.010037004947662E-001;-4.043142497539520E-002;2.511553466320038E-003;-6.137745920568705E-003;
2.416166666666667E+009;2.019815295934677E-001;-4.110815748572350E-002;1.951748970896006E-003;-6.343442015349865E-003;
2.416333333333334E+009;2.030219286680222E-001;-4.133093357086182E-002;1.753455260768533E-003;-6.116860546171665E-003;
2.416500000000000E+009;2.036971151828766E-001;-4.161294549703598E-002;1.243756385520101E-003;-6.149691063910723E-003;
2.416666666666667E+009;2.043269872665405E-001;-4.195883125066757E-002;1.082189148291946E-003;-6.132399197667837E-003;
2.416833333333334E+009;2.048400789499283E-001;-4.197258129715920E-002;5.698197637684643E-004;-5.844180006533861E-003;
2.417000000000000E+009;2.051734775304794E-001;-4.204535856842995E-002;3.946323122363538E-004;-5.970715079456568E-003;
2.417166666666667E+009;2.051607519388199E-001;-4.183687269687653E-002;1.619436516193673E-004;-5.779391154646874E-003;
2.417333333333334E+009;2.052164971828461E-001;-4.160774126648903E-002;-1.314371620537713E-004;-5.708899814635515E-003;
2.417500000000000E+009;2.051113694906235E-001;-4.150004312396050E-002;-4.079069476574659E-004;-5.436193663626909E-003;
2.417666666666667E+009;2.047870010137558E-001;-4.105974733829498E-002;-5.900281830690801E-004;-5.323115270584822E-003;
2.417833333333334E+009;2.046414613723755E-001;-4.075315967202187E-002;-7.099556387402117E-004;-5.145960021764040E-003;
2.418000000000000E+009;2.041735351085663E-001;-4.030885174870491E-002;-1.039357739500701E-003;-5.032763816416264E-003;
2.418166666666667E+009;2.035697102546692E-001;-4.008155688643456E-002;-1.155403442680836E-003;-4.988444037735462E-003;
2.418333333333334E+009;2.027283012866974E-001;-3.965612128376961E-002;-1.325017074123025E-003;-4.824180621653795E-003;
2.418500000000000E+009;2.019000649452210E-001;-3.960984572768211E-002;-1.330578932538629E-003;-4.667731001973152E-003;
2.418666666666667E+009;2.010437995195389E-001;-3.904356807470322E-002;-1.528575434349477E-003;-4.539885558187962E-003;
2.418833333333334E+009;1.999200731515884E-001;-3.906631097197533E-002;-1.664824434556067E-003;-4.299531225115061E-003;
2.419000000000000E+009;1.987077593803406E-001;-3.909290209412575E-002;-1.722754794172943E-003;-4.206481855362654E-003;
2.419166666666667E+009;1.973252743482590E-001;-3.905118629336357E-002;-1.754606724716723E-003;-4.013831261545420E-003;
2.419333333333334E+009;1.958945989608765E-001;-3.934045881032944E-002;-1.833087531849742E-003;-3.749020397663117E-003;
2.419500000000000E+009;1.944976001977921E-001;-3.952519223093987E-002;-2.024438232183456E-003;-3.572632092982531E-003;
2.419666666666667E+009;1.927171051502228E-001;-4.018579423427582E-002;-2.103469334542751E-003;-3.397827735170722E-003;
2.419833333333334E+009;1.909992247819901E-001;-4.062195494771004E-002;-2.091076457872987E-003;-3.252747002989054E-003;
2.420000000000000E+009;1.895379126071930E-001;-4.138291627168655E-002;-1.979255583137274E-003;-2.922939136624336E-003;
2.420166666666667E+009;1.876094341278076E-001;-4.211676865816116E-002;-2.099796198308468E-003;-3.033026820048690E-003;
2.420333333333334E+009;1.859010756015778E-001;-4.317625612020493E-002;-1.871738117188215E-003;-2.673204289749265E-003;
2.420500000000000E+009;1.841136515140533E-001;-4.430750757455826E-002;-1.868135295808315E-003;-2.638874109834433E-003;
2.420666666666667E+009;1.822825819253922E-001;-4.533399268984795E-002;-1.811431022360921E-003;-2.362087368965149E-003;
2.420833333333334E+009;1.804905533790588E-001;-4.668496921658516E-002;-1.692092046141625E-003;-2.229017671197653E-003;
2.421000000000000E+009;1.788494735956192E-001;-4.825599864125252E-002;-1.556016504764557E-003;-2.237864071503282E-003;
2.421166666666667E+009;1.772717237472534E-001;-4.978540167212486E-002;-1.396040199324489E-003;-2.163315890356898E-003;
2.421333333333334E+009;1.753207147121429E-001;-5.142195895314217E-002;-1.319406554102898E-003;-2.058515790849924E-003;
2.421500000000000E+009;1.739008873701096E-001;-5.352822691202164E-002;-9.699509828351438E-004;-2.141223521903157E-003;
2.421666666666667E+009;1.725077778100967E-001;-5.523326247930527E-002;-9.763652342371643E-004;-2.164779230952263E-003;
2.421833333333334E+009;1.710451096296310E-001;-5.726755410432816E-002;-8.287160890176892E-004;-2.287751296535134E-003;
2.422000000000000E+009;1.697547286748886E-001;-5.924555286765099E-002;-7.631044718436897E-004;-2.403929131105542E-003;
2.422166666666667E+009;1.686155945062637E-001;-6.140674278140068E-002;-6.941875908523798E-004;-2.356111770495772E-003;
2.422333333333334E+009;1.674860864877701E-001;-6.352906674146652E-002;-8.062481065280736E-004;-2.544943010434508E-003;
2.422500000000000E+009;1.665040999650955E-001;-6.571546941995621E-002;-6.879644352011383E-004;-2.608356531709433E-003;
2.422666666666667E+009;1.657003909349442E-001;-6.795930862426758E-002;-7.248100009746850E-004;-2.653837203979492E-003;
2.422833333333334E+009;1.649447232484818E-001;-7.017821818590164E-002;-8.002663380466402E-004;-3.000211901962757E-003;
2.423000000000000E+009;1.643655747175217E-001;-7.259462773799896E-002;-8.589248172938824E-004;-3.199419006705284E-003;
2.423166666666667E+009;1.637353003025055E-001;-7.467695325613022E-002;-8.904344285838306E-004;-3.238494507968426E-003;
2.423333333333334E+009;1.634871065616608E-001;-7.699156552553177E-002;-1.143584260717034E-003;-3.197156591340900E-003;
2.423500000000000E+009;1.632732450962067E-001;-7.911117374897003E-002;-1.217936747707427E-003;-3.507093060761690E-003;
2.423666666666667E+009;1.631740927696228E-001;-8.115047216415405E-002;-1.444578520022333E-003;-3.471561940386891E-003;
2.423833333333334E+009;1.631857007741928E-001;-8.312678337097168E-002;-1.387750264257193E-003;-3.564169863238931E-003;
2.424000000000000E+009;1.632684767246246E-001;-8.525829762220383E-002;-1.574291498400271E-003;-3.696801839396358E-003;
2.424166666666667E+009;1.633296906948090E-001;-8.696514368057251E-002;-1.686407718807459E-003;-3.783539403229952E-003;
2.424333333333334E+009;1.637268364429474E-001;-8.881807327270508E-002;-1.961945556104183E-003;-3.939691465348005E-003;
2.424500000000000E+009;1.641248613595963E-001;-9.077744185924530E-002;-2.137060975655913E-003;-3.980623092502356E-003;
2.424666666666667E+009;1.644905358552933E-001;-9.243591874837875E-002;-2.316660247743130E-003;-3.960392437875271E-003;
2.424833333333334E+009;1.651714146137238E-001;-9.398134052753449E-002;-2.532916842028499E-003;-3.913498017936945E-003;
2.425000000000000E+009;1.655412614345551E-001;-9.542222321033478E-002;-2.869151299819350E-003;-3.968288190662861E-003;
2.425166666666667E+009;1.660593301057816E-001;-9.658042341470718E-002;-2.945478772744536E-003;-4.055032040923834E-003;
2.425333333333334E+009;1.665228456258774E-001;-9.773488342761993E-002;-3.337339730933309E-003;-3.919627051800489E-003;
2.425500000000000E+009;1.671354770660400E-001;-9.894553571939468E-002;-3.758623497560620E-003;-3.984107170253992E-003;
2.425666666666667E+009;1.678472161293030E-001;-9.987246245145798E-002;-4.037420731037855E-003;-3.793761832639575E-003;
2.425833333333334E+009;1.682976931333542E-001;-1.008068099617958E-001;-4.280566237866879E-003;-3.765865461900830E-003;
2.426000000000000E+009;1.690755039453507E-001;-1.013225317001343E-001;-4.684537183493376E-003;-3.466862486675382E-003;
2.426166666666667E+009;1.696843802928925E-001;-1.019617319107056E-001;-4.797304049134255E-003;-3.328132908791304E-003;
2.426333333333334E+009;1.699559837579727E-001;-1.026228293776512E-001;-4.861508496105671E-003;-3.145057009533048E-003;
2.426500000000000E+009;1.705621182918549E-001;-1.028833910822868E-001;-5.161049775779247E-003;-2.878050552681088E-003;
2.426666666666667E+009;1.712078899145126E-001;-1.032368242740631E-001;-5.285027436912060E-003;-2.488960511982441E-003;
2.426833333333334E+009;1.717378199100494E-001;-1.035219207406044E-001;-5.446691066026688E-003;-2.480748575180769E-003;
2.427000000000000E+009;1.718827933073044E-001;-1.037998124957085E-001;-5.456484388560057E-003;-2.075527794659138E-003;
2.427166666666667E+009;1.720918267965317E-001;-1.038768962025642E-001;-5.574923940002918E-003;-1.881467527709901E-003;
2.427333333333334E+009;1.723562330007553E-001;-1.040532663464546E-001;-5.732806399464607E-003;-1.652188366279006E-003;
2.427500000000000E+009;1.723014414310455E-001;-1.041877344250679E-001;-5.716914311051369E-003;-1.205829554237425E-003;
2.427666666666667E+009;1.721303611993790E-001;-1.041163951158524E-001;-5.706987809389830E-003;-1.126299961470068E-003;
2.427833333333334E+009;1.720659136772156E-001;-1.041210740804672E-001;-5.922071635723114E-003;-9.227394475601614E-004;
