# Version 1.00
#
freq[Hz];re:Trc1_S11;im:Trc1_S11;re:Trc2_S21;im:Trc2_S21;
2.400000000000000E+009;1.561498045921326E-001;1.114097684621811E-001;-4.744482866954058E-004;5.533270537853241E-003;
2.400166666666667E+009;1.555600017309189E-001;1.089970842003822E-001;-2.189532679039985E-004;5.440810229629278E-003;
2.400333333333334E+009;1.553049236536026E-001;1.067427024245262E-001;-1.314864202868193E-004;5.299919750541449E-003;
2.400500000000000E+009;1.549070626497269E-001;1.042171940207481E-001;1.475797471357510E-004;5.302874371409416E-003;
2.400666666666667E+009;1.548062562942505E-001;1.017194092273712E-001;2.089013723889366E-004;5.019265227019787E-003;
2.400833333333334E+009;1.543832719326019E-001;9.877861291170120E-002;3.540229226928204E-004;4.779182374477387E-003;
2.401000000000000E+009;1.541680991649628E-001;9.590479731559753E-002;5.520120612345636E-004;4.663962870836258E-003;
2.401166666666667E+009;1.539446860551834E-001;9.303385764360428E-002;4.692510119639337E-004;4.617548082023859E-003;
2.401333333333334E+009;1.542720794677734E-001;9.026152640581131E-002;5.865461425855756E-004;4.498669411987066E-003;
2.401500000000000E+009;1.544752269983292E-001;8.721911907196045E-002;6.712756003253162E-004;4.462245386093855E-003;
2.401666666666667E+009;1.546601504087448E-001;8.421283960342407E-002;6.820208509452641E-004;4.371927119791508E-003;
2.401833333333334E+009;1.550107002258301E-001;8.131712675094605E-002;7.696559187024832E-004;4.180481191724539E-003;
2.402000000000000E+009;1.556670516729355E-001;7.833366096019745E-002;8.162033045664430E-004;4.231497179716826E-003;
2.402166666666667E+009;1.562686413526535E-001;7.555375248193741E-002;1.033121952787042E-003;4.194665234535933E-003;
2.402333333333334E+009;1.572285592556000E-001;7.271154224872589E-002;1.099087065085769E-003;4.426626954227686E-003;
2.402500000000000E+009;1.580208390951157E-001;6.957722455263138E-002;1.214400748722255E-003;4.165608901530504E-003;
2.402666666666667E+009;1.591074466705322E-001;6.724109500646591E-002;1.325369114056230E-003;4.293660167604685E-003;
2.402833333333334E+009;1.603364646434784E-001;6.467036157846451E-002;1.563104451633990E-003;4.288193304091692E-003;
2.403000000000000E+009;1.618748009204865E-001;6.198186054825783E-002;1.669897465035319E-003;4.258231259882450E-003;
2.403166666666667E+009;1.636444181203842E-001;5.954037606716156E-002;1.652475330047309E-003;4.186816979199648E-003;
2.403333333333334E+009;1.649325639009476E-001;5.700839683413506E-002;2.064411994069815E-003;4.056449048221111E-003;
2.403500000000000E+009;1.665828824043274E-001;5.470613390207291E-002;2.250538673251867E-003;3.985297866165638E-003;
2.403666666666667E+009;1.684790551662445E-001;5.257593095302582E-002;2.325965324416757E-003;3.827828681096435E-003;
2.403833333333334E+009;1.702670603990555E-001;5.022745206952095E-002;2.464677905663848E-003;3.508951514959335E-003;
2.404000000000000E+009;1.717362105846405E-001;4.834359884262085E-002;2.673240611329675E-003;3.298716386780143E-003;
2.404166666666667E+009;1.738688051700592E-001;4.656906425952911E-002;2.593547338619828E-003;3.038086462765932E-003;
2.404333333333334E+009;1.755928248167038E-001;4.489525407552719E-002;2.501299371942878E-003;2.996810246258974E-003;
2.404500000000000E+009;1.774347573518753E-001;4.332184419035912E-002;2.640272956341505E-003;2.687908941879869E-003;
2.404666666666667E+009;1.792649477720261E-001;4.204175621271133E-002;2.574388636276126E-003;2.536939922720194E-003;
2.404833333333334E+009;1.809798479080200E-001;4.077072814106941E-002;2.412878209725022E-003;2.478013979271054E-003;
2.405000000000000E+009;1.826356351375580E-001;3.998377919197083E-002;2.525423886254430E-003;2.389778615906835E-003;
2.405166666666667E+009;1.842037290334702E-001;3.916278108954430E-002;2.323811408132315E-003;2.209417521953583E-003;
2.405333333333334E+009;1.860193759202957E-001;3.867598995566368E-002;2.262701047584415E-003;2.396938623860478E-003;
2.405500000000000E+009;1.876882463693619E-001;3.820461779832840E-002;2.241104608401656E-003;2.176759531721473E-003;
2.405666666666667E+009;1.891232579946518E-001;3.770262375473976E-002;2.213021274656057E-003;2.145657083019614E-003;
2.405833333333334E+009;1.907432526350021E-001;3.745590150356293E-002;2.259171102195978E-003;2.170938765630126E-003;
2.406000000000000E+009;1.920420229434967E-001;3.727398812770844E-002;2.400873927399516E-003;2.232419559732080E-003;
2.406166666666667E+009;1.934267580509186E-001;3.716605901718140E-002;2.475040499120951E-003;2.160381991416216E-003;
2.406333333333334E+009;1.944998800754547E-001;3.729380294680595E-002;2.300521126016974E-003;2.065347973257303E-003;
2.406500000000000E+009;1.955264359712601E-001;3.746507689356804E-002;2.291669603437185E-003;2.124421764165163E-003;
2.406666666666667E+009;1.965476870536804E-001;3.755518794059753E-002;2.326036337763071E-003;2.044860040768981E-003;
2.406833333333334E+009;1.972077786922455E-001;3.771160542964935E-002;2.287064911797643E-003;2.050178591161966E-003;
2.407000000000000E+009;1.978317499160767E-001;3.820313513278961E-002;2.244968200102449E-003;2.143477788195014E-003;
2.407166666666667E+009;1.984016001224518E-001;3.815221786499023E-002;2.234117826446891E-003;2.200354123488069E-003;
2.407333333333334E+009;1.985626667737961E-001;3.851412609219551E-002;2.185660414397717E-003;2.138100797310472E-003;
2.407500000000000E+009;1.986599117517471E-001;3.889127448201180E-002;2.336388919502497E-003;2.017692662775517E-003;
2.407666666666667E+009;1.988981217145920E-001;3.907766193151474E-002;2.339537255465984E-003;2.266060095280409E-003;
2.407833333333334E+009;1.985265612602234E-001;3.923727199435234E-002;2.381691010668874E-003;2.363904379308224E-003;
2.408000000000000E+009;1.985670477151871E-001;3.935397043824196E-002;2.453545341268182E-003;2.381759695708752E-003;
2.408166666666667E+009;1.979949623346329E-001;3.933957591652870E-002;2.565359463915229E-003;2.525456249713898E-003;
2.408333333333334E+009;1.975534558296204E-001;3.908044844865799E-002;2.520221984013915E-003;2.475491957738996E-003;
2.408500000000000E+009;1.968583017587662E-001;3.902069479227066E-002;2.681937534362078E-003;2.410580636933446E-003;
2.408666666666667E+009;1.961894631385803E-001;3.881800919771195E-002;2.916627796366811E-003;2.572909928858280E-003;
2.408833333333334E+009;1.954825967550278E-001;3.845277056097984E-002;3.031026804819703E-003;2.613671589642763E-003;
2.409000000000000E+009;1.944710761308670E-001;3.769117221236229E-002;3.149991389364004E-003;2.635572338476777E-003;
2.409166666666667E+009;1.933889240026474E-001;3.708289191126823E-002;3.477200167253614E-003;2.565412316471338E-003;
2.409333333333334E+009;1.922281086444855E-001;3.653358668088913E-002;3.682111855596304E-003;2.651468385010958E-003;
2.409500000000000E+009;1.910547316074371E-001;3.535658866167069E-002;3.706222865730524E-003;2.540831919759512E-003;
2.409666666666667E+009;1.897121518850327E-001;3.417268022894859E-002;4.008274525403976E-003;2.474224660545588E-003;
2.409833333333334E+009;1.885918825864792E-001;3.310449421405792E-002;4.119239281862974E-003;2.233665669336915E-003;
2.410000000000000E+009;1.873542070388794E-001;3.167223557829857E-002;4.349483642727137E-003;2.113295486196876E-003;
2.410166666666667E+009;1.860331296920776E-001;3.013356216251850E-002;4.601718857884407E-003;1.901085255667567E-003;
2.410333333333334E+009;1.848220378160477E-001;2.855879068374634E-002;4.706725478172302E-003;1.647840370424092E-003;
2.410500000000000E+009;1.837396472692490E-001;2.672501839697361E-002;4.916741512715817E-003;1.640853472054005E-003;
2.410666666666667E+009;1.825086474418640E-001;2.470774017274380E-002;4.864517599344254E-003;1.366510870866478E-003;
2.410833333333334E+009;1.817115843296051E-001;2.256725914776325E-002;4.964378196746111E-003;1.342346542514861E-003;
2.411000000000000E+009;1.805394738912582E-001;2.065884135663509E-002;5.081029143184423E-003;1.021155272610486E-003;
2.411166666666667E+009;1.797146201133728E-001;1.839330233633518E-002;5.052664782851934E-003;8.377945050597191E-004;
2.411333333333334E+009;1.788181364536285E-001;1.575554162263870E-002;5.136616993695498E-003;6.986643420532346E-004;
2.411500000000000E+009;1.781706213951111E-001;1.344466675072908E-002;5.139678716659546E-003;5.073254578746855E-004;
2.411666666666667E+009;1.778373718261719E-001;1.097732875496149E-002;5.146820098161697E-003;4.355861456133425E-004;
2.411833333333334E+009;1.772377192974091E-001;8.541519753634930E-003;5.384620279073715E-003;2.169386862078682E-004;
2.412000000000000E+009;1.772691160440445E-001;5.849857348948717E-003;5.402151029556990E-003;2.528670884203166E-004;
2.412166666666667E+009;1.769979596138001E-001;3.285628044977784E-003;5.311048123985529E-003;-9.380396659253165E-005;
2.412333333333334E+009;1.771535575389862E-001;7.800450548529625E-004;5.567157175391913E-003;-2.127593033947051E-004;
2.412500000000000E+009;1.775296628475189E-001;-1.931285951286554E-003;5.696782376617193E-003;-3.389197227079421E-004;
2.412666666666667E+009;1.777345538139343E-001;-4.610396455973387E-003;5.775397177785635E-003;-4.733791283797473E-004;
2.412833333333334E+009;1.784665584564209E-001;-7.091083563864231E-003;5.825453903526068E-003;-7.859643665142357E-004;
2.413000000000000E+009;1.788867563009262E-001;-9.828486479818821E-003;5.860442761331797E-003;-1.132311299443245E-003;
2.413166666666667E+009;1.798243671655655E-001;-1.219284627586603E-002;5.879913922399283E-003;-1.183879445306957E-003;
2.413333333333334E+009;1.808048784732819E-001;-1.472885999828577E-002;6.115932017564774E-003;-1.774000003933907E-003;
2.413500000000000E+009;1.815523505210877E-001;-1.720378734171391E-002;6.143861915916205E-003;-1.866105129010975E-003;
2.413666666666667E+009;1.828425824642181E-001;-1.942807063460350E-002;6.251623388379812E-003;-2.285283757373691E-003;
2.413833333333334E+009;1.839954704046249E-001;-2.185695804655552E-002;6.164555437862873E-003;-2.741066971793771E-003;
2.414000000000000E+009;1.851251572370529E-001;-2.422508969902992E-002;6.049118936061859E-003;-3.164643188938499E-003;
2.414166666666667E+009;1.866564005613327E-001;-2.616300806403160E-002;5.991018377244473E-003;-3.528502536937594E-003;
2.414333333333334E+009;1.878194361925125E-001;-2.822780609130859E-002;5.966697819530964E-003;-3.784642554819584E-003;
2.414500000000000E+009;1.892522722482681E-001;-2.998529374599457E-002;5.816163029521704E-003;-4.287557210773230E-003;
2.414666666666667E+009;1.904667764902115E-001;-3.171896934509277E-002;5.453318357467651E-003;-4.821732640266419E-003;
2.414833333333334E+009;1.919646263122559E-001;-3.330165147781372E-002;5.111197941005230E-003;-5.044904071837664E-003;
2.415000000000000E+009;1.932637095451355E-001;-3.481914475560188E-002;4.807251039892435E-003;-5.337416660040617E-003;
2.415166666666667E+009;1.947071105241776E-001;-3.594044968485832E-002;4.418412689119577E-003;-5.506137851625681E-003;
2.415333333333334E+009;1.960972100496292E-001;-3.720788285136223E-002;4.038836341351271E-003;-5.728008691221476E-003;
2.415500000000000E+009;1.975554376840591E-001;-3.806624934077263E-002;3.684471827000380E-003;-6.024803966283798E-003;
2.415666666666667E+009;1.987723559141159E-001;-3.900037705898285E-002;3.296528710052371E-003;-6.113452371209860E-003;
2.415833333333334E+009;1.998412311077118E-001;-3.974569588899612E-002;2.873366931453347E-003;-6.345426663756371E-003;
2.416000000000000E+009;2.009989917278290E-001;-4.046185687184334E-002;2.480064751580358E-003;-6.439414341002703E-003;
2.416166666666667E+009;2.020749002695084E-001;-4.109165072441101E-002;1.995579805225134E-003;-6.375949829816818E-003;
2.416333333333334E+009;2.029389441013336E-001;-4.134018719196320E-002;1.628073747269809E-003;-6.459907162934542E-003;
2.416500000000000E+009;2.037121951580048E-001;-4.158568009734154E-002;1.363730989396572E-003;-6.362819112837315E-003;
2.416666666666667E+009;2.044448405504227E-001;-4.191351681947708E-002;8.983803563751280E-004;-6.435223389416933E-003;
2.416833333333334E+009;2.048027515411377E-001;-4.183917865157127E-002;6.372199859470129E-004;-6.176345981657505E-003;
2.417000000000000E+009;2.052806615829468E-001;-4.197621718049049E-002;2.594719699118286E-004;-6.174934562295675E-003;
2.417166666666667E+009;2.051821053028107E-001;-4.180390015244484E-002;8.012635225895792E-005;-6.040047854185104E-003;
2.417333333333334E+009;2.052243202924728E-001;-4.145039618015289E-002;-7.595490751555190E-005;-5.866833962500095E-003;
2.417500000000000E+009;2.050977051258087E-001;-4.149308055639267E-002;-4.581605317071080E-004;-5.798760335892439E-003;
2.417666666666667E+009;2.050268501043320E-001;-4.106546938419342E-002;-6.412963266484439E-004;-5.599065218120813E-003;
2.417833333333334E+009;2.047863602638245E-001;-4.078289121389389E-002;-8.610741351731122E-004;-5.528260488063097E-003;
2.418000000000000E+009;2.042149603366852E-001;-4.021395742893219E-002;-1.045471057295799E-003;-5.304945632815361E-003;
2.418166666666667E+009;2.035771608352661E-001;-3.998813778162003E-002;-1.304805278778076E-003;-5.149703007191420E-003;
2.418333333333334E+009;2.028111368417740E-001;-3.978576138615608E-002;-1.405569608323276E-003;-5.039629526436329E-003;
2.418500000000000E+009;2.019778639078140E-001;-3.947575017809868E-002;-1.600030809640884E-003;-4.852113779634237E-003;
2.418666666666667E+009;2.012391537427902E-001;-3.918588533997536E-002;-1.806099782697856E-003;-4.777933470904827E-003;
2.418833333333334E+009;1.998569369316101E-001;-3.918542712926865E-002;-1.879915129393339E-003;-4.472729749977589E-003;
2.419000000000000E+009;1.988352686166763E-001;-3.910448402166367E-002;-2.004696521908045E-003;-4.224025178700686E-003;
2.419166666666667E+009;1.973903179168701E-001;-3.916127979755402E-002;-2.088231034576893E-003;-4.172811284661293E-003;
2.419333333333334E+009;1.960183978080750E-001;-3.941586986184120E-002;-2.116386312991381E-003;-3.992239944636822E-003;
2.419500000000000E+009;1.944921910762787E-001;-3.946263715624809E-002;-2.347436500713229E-003;-3.717496292665601E-003;
2.419666666666667E+009;1.928166300058365E-001;-4.024897888302803E-002;-2.281289780512452E-003;-3.486976725980640E-003;
2.419833333333334E+009;1.911655515432358E-001;-4.051719978451729E-002;-2.327651716768742E-003;-3.406521864235401E-003;
2.420000000000000E+009;1.895179301500320E-001;-4.129156097769737E-002;-2.265826333314180E-003;-3.146416042000055E-003;
2.420166666666667E+009;1.877907961606979E-001;-4.214712977409363E-002;-2.212797291576862E-003;-2.915673190727830E-003;
2.420333333333334E+009;1.859237849712372E-001;-4.311477765440941E-002;-2.245210809633136E-003;-2.625456545501947E-003;
2.420500000000000E+009;1.842533349990845E-001;-4.427249357104302E-002;-2.255455125123262E-003;-2.616096520796418E-003;
2.420666666666667E+009;1.824440509080887E-001;-4.536810517311096E-002;-1.976610627025366E-003;-2.387827727943659E-003;
2.420833333333334E+009;1.806196123361588E-001;-4.671580716967583E-002;-1.816143165342510E-003;-2.092531649395824E-003;
2.421000000000000E+009;1.788895279169083E-001;-4.826935753226280E-002;-1.880890806205571E-003;-2.079096855595708E-003;
2.421166666666667E+009;1.773386299610138E-001;-4.997165501117706E-002;-1.800525351427496E-003;-2.111627487465739E-003;
2.421333333333334E+009;1.754975616931915E-001;-5.130768194794655E-002;-1.387381693348289E-003;-2.106743864715099E-003;
2.421500000000000E+009;1.740216910839081E-001;-5.337953940033913E-002;-1.420965185388923E-003;-2.137599047273397E-003;
2.421666666666667E+009;1.724532246589661E-001;-5.534826219081879E-002;-1.288943574763835E-003;-2.213961444795132E-003;
2.421833333333334E+009;1.713024824857712E-001;-5.713667348027229E-002;-1.175090088509023E-003;-2.173524349927902E-003;
2.422000000000000E+009;1.698519140481949E-001;-5.930022522807121E-002;-9.818256366997957E-004;-2.156008966267109E-003;
2.422166666666667E+009;1.688655614852905E-001;-6.142324581742287E-002;-1.016716705635190E-003;-2.295636804774404E-003;
2.422333333333334E+009;1.676731705665588E-001;-6.361936777830124E-002;-1.002400531433523E-003;-2.398927230387926E-003;
2.422500000000000E+009;1.665398329496384E-001;-6.579620391130447E-002;-9.330259636044502E-004;-2.584198024123907E-003;
2.422666666666667E+009;1.657878011465073E-001;-6.785584241151810E-002;-9.168242104351521E-004;-2.627574605867267E-003;
2.422833333333334E+009;1.653255522251129E-001;-7.020249217748642E-002;-1.048968173563480E-003;-2.724714344367385E-003;
2.423000000000000E+009;1.645845323801041E-001;-7.241954654455185E-002;-1.040746690705419E-003;-2.845936687663198E-003;
2.423166666666667E+009;1.640161573886871E-001;-7.477620244026184E-002;-1.021574018523097E-003;-2.934707095846534E-003;
2.423333333333334E+009;1.637201905250549E-001;-7.699855417013168E-002;-1.195450546219945E-003;-3.017984097823501E-003;
2.423500000000000E+009;1.635244041681290E-001;-7.894895970821381E-002;-1.377115724608302E-003;-3.186600748449564E-003;
2.423666666666667E+009;1.634666770696640E-001;-8.123349398374558E-002;-1.303480356000364E-003;-3.267677733674645E-003;
2.423833333333334E+009;1.635555922985077E-001;-8.332272619009018E-002;-1.568399718962610E-003;-3.281355137005448E-003;
2.424000000000000E+009;1.636481285095215E-001;-8.528120070695877E-002;-1.645669690333307E-003;-3.571188542991877E-003;
2.424166666666667E+009;1.635978221893311E-001;-8.715415000915527E-002;-1.888470025733113E-003;-3.675647079944611E-003;
2.424333333333334E+009;1.639697104692459E-001;-8.903211355209351E-002;-1.888802857138217E-003;-3.525446634739637E-003;
2.424500000000000E+009;1.644896566867828E-001;-9.087996929883957E-002;-2.199903829023242E-003;-3.743102541193366E-003;
2.424666666666667E+009;1.646671146154404E-001;-9.258124232292175E-002;-2.265216549858451E-003;-3.872848348692060E-003;
2.424833333333334E+009;1.654113978147507E-001;-9.402569383382797E-002;-2.525561256334186E-003;-3.687918884679675E-003;
2.425000000000000E+009;1.658161431550980E-001;-9.565152227878571E-002;-2.739808987826109E-003;-3.948223311454058E-003;
2.425166666666667E+009;1.663674563169479E-001;-9.668998420238495E-002;-3.117149928584695E-003;-3.639486618340015E-003;
2.425333333333334E+009;1.667631715536118E-001;-9.807270765304565E-002;-3.352635307237506E-003;-3.792037256062031E-003;
2.425500000000000E+009;1.674427539110184E-001;-9.911815822124481E-002;-3.725643269717693E-003;-3.689549863338471E-003;
2.425666666666667E+009;1.680772751569748E-001;-9.999644756317139E-002;-3.817136399447918E-003;-3.585856407880783E-003;
2.425833333333334E+009;1.685970723628998E-001;-1.010463759303093E-001;-4.092131741344929E-003;-3.440457861870527E-003;
2.426000000000000E+009;1.693140119314194E-001;-1.016341447830200E-001;-4.418939817696810E-003;-3.201644169166684E-003;
2.426166666666667E+009;1.698310524225235E-001;-1.022262126207352E-001;-4.620278719812632E-003;-3.090552752837539E-003;
2.426333333333334E+009;1.702538430690765E-001;-1.028643772006035E-001;-4.828848876059055E-003;-3.128258511424065E-003;
2.426500000000000E+009;1.709039211273193E-001;-1.030543074011803E-001;-5.028386600315571E-003;-2.630702918395400E-003;
2.426666666666667E+009;1.712928116321564E-001;-1.035533770918846E-001;-5.081163719296455E-003;-2.454868750646710E-003;
2.426833333333334E+009;1.718680113554001E-001;-1.038798391819000E-001;-5.197606980800629E-003;-2.184893703088164E-003;
2.427000000000000E+009;1.720279008150101E-001;-1.040830463171005E-001;-5.278406199067831E-003;-1.972978468984366E-003;
2.427166666666667E+009;1.723683476448059E-001;-1.041503250598908E-001;-5.562534555792809E-003;-1.755249802954495E-003;
2.427333333333334E+009;1.723587512969971E-001;-1.043059080839157E-001;-5.582004319876432E-003;-1.618711161427200E-003;
2.427500000000000E+009;1.724919825792313E-001;-1.044619753956795E-001;-5.714240949600935E-003;-1.283766352571547E-003;
2.427666666666667E+009;1.723199933767319E-001;-1.044507697224617E-001;-5.716127343475819E-003;-1.096051419153810E-003;
2.427833333333334E+009;1.720815449953079E-001;-1.045080721378326E-001;-5.719231441617012E-003;-7.036470924504101E-004;
