# Version 1.00
#
freq[Hz];re:Trc1_S11;im:Trc1_S11;re:Trc2_S21;im:Trc2_S21;
2.400000000000000E+009;1.572639048099518E-001;1.124522760510445E-001;6.406867876648903E-003;1.504005747847259E-003;
2.400166666666667E+009;1.566046029329300E-001;1.103549450635910E-001;6.478802766650915E-003;1.165452064014971E-003;
2.400333333333334E+009;1.563767641782761E-001;1.081151440739632E-001;6.446209270507097E-003;7.394169224426150E-004;
2.400500000000000E+009;1.559487432241440E-001;1.056597307324410E-001;6.326642353087664E-003;4.698639677371830E-004;
2.400666666666667E+009;1.556899249553680E-001;1.031443253159523E-001;6.171694025397301E-003;1.882849937828723E-005;
2.400833333333334E+009;1.552895903587341E-001;1.004403531551361E-001;6.095039192587137E-003;-4.455621819943190E-004;
2.401000000000000E+009;1.551790386438370E-001;9.759339690208435E-002;5.833930335938931E-003;-6.951963878236711E-004;
2.401166666666667E+009;1.548957675695419E-001;9.479516744613648E-002;5.446548108011484E-003;-8.513135253451765E-004;
2.401333333333334E+009;1.550090909004211E-001;9.175775945186615E-002;5.361266899853945E-003;-1.264817081391811E-003;
2.401500000000000E+009;1.550638377666473E-001;8.886323124170303E-002;5.025392863899469E-003;-1.279284129850566E-003;
2.401666666666667E+009;1.552230566740036E-001;8.582186698913574E-002;4.841735586524010E-003;-1.390380668453872E-003;
2.401833333333334E+009;1.553118228912354E-001;8.278867602348328E-002;4.473789129406214E-003;-1.406040741130710E-003;
2.402000000000000E+009;1.558807939291000E-001;7.979300618171692E-002;4.242658149451017E-003;-1.309825107455254E-003;
2.402166666666667E+009;1.564497202634811E-001;7.701712846755981E-002;3.999088425189257E-003;-1.274015870876610E-003;
2.402333333333334E+009;1.570920795202255E-001;7.412768900394440E-002;4.014435689896345E-003;-1.410645898431540E-003;
2.402500000000000E+009;1.580800712108612E-001;7.144645601511002E-002;3.794691525399685E-003;-1.405542250722647E-003;
2.402666666666667E+009;1.588438600301743E-001;6.849535554647446E-002;3.705658949911594E-003;-1.218620222061873E-003;
2.402833333333334E+009;1.601627618074417E-001;6.582362204790115E-002;3.552612615749240E-003;-1.227693282999098E-003;
2.403000000000000E+009;1.615260839462280E-001;6.309811770915985E-002;3.614641493186355E-003;-1.117945997975767E-003;
2.403166666666667E+009;1.631897687911987E-001;6.052339822053909E-002;3.415901679545641E-003;-1.094106701202691E-003;
2.403333333333334E+009;1.644881516695023E-001;5.786707997322083E-002;3.346099052578211E-003;-1.059001893736422E-003;
2.403500000000000E+009;1.661818772554398E-001;5.549797043204308E-002;3.378672525286675E-003;-1.165891531854868E-003;
2.403666666666667E+009;1.679483801126480E-001;5.327340960502625E-002;3.431716235354543E-003;-1.104301773011684E-003;
2.403833333333334E+009;1.696646511554718E-001;5.100864544510841E-002;3.393970895558596E-003;-1.056423177942634E-003;
2.404000000000000E+009;1.711580753326416E-001;4.875151440501213E-002;3.600537544116378E-003;-1.092688762582839E-003;
2.404166666666667E+009;1.731191128492355E-001;4.674697667360306E-002;3.540413919836283E-003;-9.677420603111386E-004;
2.404333333333334E+009;1.748929172754288E-001;4.501251503825188E-002;3.430181881412864E-003;-9.614595328457654E-004;
2.404500000000000E+009;1.766062527894974E-001;4.313827678561211E-002;3.675569780170918E-003;-1.169746508821845E-003;
2.404666666666667E+009;1.786390542984009E-001;4.173541069030762E-002;3.629245096817613E-003;-1.378866028971970E-003;
2.404833333333334E+009;1.804954409599304E-001;4.048216715455055E-002;3.708389820531011E-003;-1.473035546950996E-003;
2.405000000000000E+009;1.819912791252136E-001;3.947651386260986E-002;3.539024386554956E-003;-1.470139017328620E-003;
2.405166666666667E+009;1.838267147541046E-001;3.838353604078293E-002;3.786267247051001E-003;-1.712615368887782E-003;
2.405333333333334E+009;1.854291707277298E-001;3.780731931328774E-002;3.813397604972124E-003;-1.866851816885173E-003;
2.405500000000000E+009;1.873419731855393E-001;3.715791180729866E-002;3.610367886722088E-003;-1.854327856563032E-003;
2.405666666666667E+009;1.887879669666290E-001;3.658278286457062E-002;3.706374438479543E-003;-1.923979143612087E-003;
2.405833333333334E+009;1.904443651437759E-001;3.637862578034401E-002;3.498198930174112E-003;-2.109999069944024E-003;
2.406000000000000E+009;1.917908191680908E-001;3.607877343893051E-002;3.531438764184713E-003;-2.178526017814875E-003;
2.406166666666667E+009;1.931600719690323E-001;3.591470792889595E-002;3.512767376378179E-003;-2.208561170846224E-003;
2.406333333333334E+009;1.945659071207047E-001;3.592885658144951E-002;3.511799965053797E-003;-2.242864808067679E-003;
2.406500000000000E+009;1.956510096788406E-001;3.598250076174736E-002;3.312029410153627E-003;-2.279598498716950E-003;
2.406666666666667E+009;1.966949403285980E-001;3.608618304133415E-002;3.246186533942819E-003;-2.342588966712356E-003;
2.406833333333334E+009;1.975156068801880E-001;3.617201372981072E-002;3.246299223974347E-003;-2.418549731373787E-003;
2.407000000000000E+009;1.981886327266693E-001;3.652733191847801E-002;3.428495489060879E-003;-2.378697507083416E-003;
2.407166666666667E+009;1.989080905914307E-001;3.658379614353180E-002;3.264727536588907E-003;-2.436009468510747E-003;
2.407333333333334E+009;1.991820335388184E-001;3.697413578629494E-002;3.363152733072639E-003;-2.548697171732783E-003;
2.407500000000000E+009;1.992948949337006E-001;3.742783889174461E-002;3.417740343138576E-003;-2.695824019610882E-003;
2.407666666666667E+009;1.997130066156387E-001;3.749962523579598E-002;3.400530433282256E-003;-2.786680124700069E-003;
2.407833333333334E+009;1.995752900838852E-001;3.773457184433937E-002;3.469307441264391E-003;-3.039821051061153E-003;
2.408000000000000E+009;1.996794790029526E-001;3.794586285948753E-002;3.467325353994966E-003;-3.205008571967483E-003;
2.408166666666667E+009;1.993149518966675E-001;3.820519894361496E-002;3.471661824733019E-003;-3.265802282840014E-003;
2.408333333333334E+009;1.990145891904831E-001;3.791809454560280E-002;3.408797783777118E-003;-3.429150208830833E-003;
2.408500000000000E+009;1.984623968601227E-001;3.800160810351372E-002;3.253902541473508E-003;-3.856394905596972E-003;
2.408666666666667E+009;1.980628371238709E-001;3.789672628045082E-002;3.156173741444945E-003;-3.847462590783835E-003;
2.408833333333334E+009;1.972755342721939E-001;3.745051845908165E-002;3.152313176542521E-003;-4.000966437160969E-003;
2.409000000000000E+009;1.965069919824600E-001;3.714425861835480E-002;2.961820922791958E-003;-4.179483745247126E-003;
2.409166666666667E+009;1.954815387725830E-001;3.669162467122078E-002;2.800258342176676E-003;-4.300741944462061E-003;
2.409333333333334E+009;1.946349740028381E-001;3.596112504601479E-002;2.735390793532133E-003;-4.477829206734896E-003;
2.409500000000000E+009;1.933783888816834E-001;3.501963615417481E-002;2.729319501668215E-003;-4.548483993858099E-003;
2.409666666666667E+009;1.923594474792481E-001;3.391770645976067E-002;2.291215350851417E-003;-4.755579866468906E-003;
2.409833333333334E+009;1.910458952188492E-001;3.280582278966904E-002;2.336747944355011E-003;-4.946943372488022E-003;
2.410000000000000E+009;1.899517923593521E-001;3.143567219376564E-002;2.208827296271920E-003;-5.038577131927013E-003;
2.410166666666667E+009;1.887240558862686E-001;2.996633946895599E-002;1.861557597294450E-003;-5.144008900970221E-003;
2.410333333333334E+009;1.875517964363098E-001;2.847675606608391E-002;1.721906941384077E-003;-5.353363230824471E-003;
2.410500000000000E+009;1.862688213586807E-001;2.661749906837940E-002;1.397575018927455E-003;-5.234520416706801E-003;
2.410666666666667E+009;1.851815879344940E-001;2.449396811425686E-002;1.276862225495279E-003;-5.415814463049173E-003;
2.410833333333334E+009;1.841988563537598E-001;2.262952923774719E-002;1.091463374905288E-003;-5.479071754962206E-003;
2.411000000000000E+009;1.831155866384506E-001;2.045014314353466E-002;8.505410514771938E-004;-5.528094712644815E-003;
2.411166666666667E+009;1.821170747280121E-001;1.831177435815334E-002;5.921193514950573E-004;-5.477796308696270E-003;
2.411333333333334E+009;1.811310946941376E-001;1.572481729090214E-002;3.896081470884383E-004;-5.474576726555824E-003;
2.411500000000000E+009;1.804560124874115E-001;1.339918933808804E-002;6.877593841636553E-005;-5.626569502055645E-003;
2.411666666666667E+009;1.797963529825211E-001;1.109229959547520E-002;-2.968235348816961E-004;-5.443580914288759E-003;
2.411833333333334E+009;1.792576760053635E-001;8.534611202776432E-003;-3.209046553820372E-004;-5.410970188677311E-003;
2.412000000000000E+009;1.789150238037109E-001;5.769367329776287E-003;-6.469605723395944E-004;-5.494014360010624E-003;
2.412166666666667E+009;1.789308190345764E-001;3.458045655861497E-003;-7.054209127090871E-004;-5.478556267917156E-003;
2.412333333333334E+009;1.784425079822540E-001;7.155398488976061E-004;-1.204081694595516E-003;-5.272001493722200E-003;
2.412500000000000E+009;1.788094639778137E-001;-1.821987563744187E-003;-1.202470506541431E-003;-5.120566114783287E-003;
2.412666666666667E+009;1.790022999048233E-001;-4.656598903238773E-003;-1.430535921826959E-003;-5.083668511360884E-003;
2.412833333333334E+009;1.794502288103104E-001;-7.502580527216196E-003;-1.645466778427362E-003;-5.031875800341368E-003;
2.413000000000000E+009;1.800151318311691E-001;-9.883612394332886E-003;-1.710229669697583E-003;-4.799528978765011E-003;
2.413166666666667E+009;1.805226951837540E-001;-1.262272335588932E-002;-1.947338227182627E-003;-4.793945699930191E-003;
2.413333333333334E+009;1.815019100904465E-001;-1.536196656525135E-002;-2.076294273138046E-003;-4.377898760139942E-003;
2.413500000000000E+009;1.820005625486374E-001;-1.782784424722195E-002;-2.333543729037046E-003;-4.390241112560034E-003;
2.413666666666667E+009;1.832434684038162E-001;-2.030392363667488E-002;-2.401192206889391E-003;-4.219514317810535E-003;
2.413833333333334E+009;1.843034923076630E-001;-2.254323288798332E-002;-2.450240310281515E-003;-3.797093871980906E-003;
2.414000000000000E+009;1.852834522724152E-001;-2.494053170084953E-002;-2.497810404747725E-003;-3.839787561446428E-003;
2.414166666666667E+009;1.866500973701477E-001;-2.724111266434193E-002;-2.700573997572064E-003;-3.502537496387959E-003;
2.414333333333334E+009;1.875347495079041E-001;-2.948765084147453E-002;-2.612507902085781E-003;-3.456196049228311E-003;
2.414500000000000E+009;1.889262646436691E-001;-3.108655661344528E-002;-2.741179661825299E-003;-3.304470097646117E-003;
2.414666666666667E+009;1.902367919683456E-001;-3.300255537033081E-002;-2.694423776119947E-003;-3.292270936071873E-003;
2.414833333333334E+009;1.915637552738190E-001;-3.471929207444191E-002;-2.710320753976703E-003;-3.057635389268398E-003;
2.415000000000000E+009;1.928068548440933E-001;-3.615806624293327E-002;-2.718155737966299E-003;-3.036515088751912E-003;
2.415166666666667E+009;1.941940188407898E-001;-3.757173940539360E-002;-2.854470163583756E-003;-2.856870181858540E-003;
2.415333333333334E+009;1.955047249794006E-001;-3.885415196418762E-002;-2.572228899225593E-003;-2.763945609331131E-003;
2.415500000000000E+009;1.969337761402130E-001;-3.974935039877892E-002;-2.738058334216476E-003;-2.907257294282317E-003;
2.415666666666667E+009;1.981195509433746E-001;-4.089160263538361E-002;-2.829472301527858E-003;-2.502770395949483E-003;
2.415833333333334E+009;1.992757767438889E-001;-4.174124822020531E-002;-2.736463444307447E-003;-2.399876713752747E-003;
2.416000000000000E+009;2.003738433122635E-001;-4.231617972254753E-002;-3.010363783687353E-003;-2.315981313586235E-003;
2.416166666666667E+009;2.013545781373978E-001;-4.306841641664505E-002;-2.856242470443249E-003;-2.278747269883752E-003;
2.416333333333334E+009;2.022944688796997E-001;-4.335605725646019E-002;-2.825971459969878E-003;-2.114349277690053E-003;
2.416500000000000E+009;2.031445950269699E-001;-4.372532665729523E-002;-2.818621229380369E-003;-1.923767616972327E-003;
2.416666666666667E+009;2.038561403751373E-001;-4.396229237318039E-002;-2.817533677443862E-003;-2.020500600337982E-003;
2.416833333333334E+009;2.042946368455887E-001;-4.399912804365158E-002;-2.539602341130376E-003;-1.876891590654850E-003;
2.417000000000000E+009;2.047801762819290E-001;-4.417448118329048E-002;-2.484970493242145E-003;-1.848258776590228E-003;
2.417166666666667E+009;2.048449367284775E-001;-4.395022615790367E-002;-2.447677776217461E-003;-1.913910731673241E-003;
2.417333333333334E+009;2.049238234758377E-001;-4.365497455000877E-002;-2.538263332098723E-003;-1.852035056799650E-003;
2.417500000000000E+009;2.049555331468582E-001;-4.360276088118553E-002;-2.362460130825639E-003;-1.979277934879065E-003;
2.417666666666667E+009;2.048115581274033E-001;-4.326931759715080E-002;-2.287834649905562E-003;-1.994593301787973E-003;
2.417833333333334E+009;2.046955376863480E-001;-4.280321672558785E-002;-2.418549731373787E-003;-2.108272630721331E-003;
2.418000000000000E+009;2.042051851749420E-001;-4.248129203915596E-002;-2.521018031984568E-003;-2.281033201143146E-003;
2.418166666666667E+009;2.038096934556961E-001;-4.214672371745110E-002;-2.497139386832714E-003;-2.299023792147636E-003;
2.418333333333334E+009;2.030141353607178E-001;-4.161908477544785E-002;-2.773468149825931E-003;-2.369435504078865E-003;
2.418500000000000E+009;2.021734118461609E-001;-4.150196537375450E-002;-2.796134212985635E-003;-2.326989779248834E-003;
2.418666666666667E+009;2.014485448598862E-001;-4.109983146190643E-002;-3.053884254768491E-003;-2.363754902034998E-003;
2.418833333333334E+009;2.003431618213654E-001;-4.102028533816338E-002;-3.401042195037007E-003;-2.359514590352774E-003;
2.419000000000000E+009;1.990934759378433E-001;-4.104624316096306E-002;-3.403988666832447E-003;-2.344264183193445E-003;
2.419166666666667E+009;1.978814452886581E-001;-4.090772196650505E-002;-3.536525648087263E-003;-2.052769996225834E-003;
2.419333333333334E+009;1.964166760444641E-001;-4.110140725970268E-002;-3.846857696771622E-003;-1.918758265674114E-003;
2.419500000000000E+009;1.950289458036423E-001;-4.122644290328026E-002;-3.834159113466740E-003;-1.769660389982164E-003;
2.419666666666667E+009;1.933396309614182E-001;-4.164198040962219E-002;-3.773947479203343E-003;-1.647149678319693E-003;
2.419833333333334E+009;1.915779709815979E-001;-4.199687018990517E-002;-3.925091121345758E-003;-1.454297336749733E-003;
2.420000000000000E+009;1.899687349796295E-001;-4.268530756235123E-002;-3.974975086748600E-003;-1.122574787586927E-003;
2.420166666666667E+009;1.881816387176514E-001;-4.322794824838638E-002;-3.901677671819925E-003;-1.074577565304935E-003;
2.420333333333334E+009;1.863401830196381E-001;-4.427977278828621E-002;-3.808283247053623E-003;-8.806128753349185E-004;
2.420500000000000E+009;1.845587641000748E-001;-4.527628794312477E-002;-3.801271086558700E-003;-8.394508040510118E-004;
2.420666666666667E+009;1.827528178691864E-001;-4.627038538455963E-002;-3.567957319319248E-003;-8.456027135252953E-004;
2.420833333333334E+009;1.808310747146606E-001;-4.758388921618462E-002;-3.703594440594316E-003;-5.755440797656775E-004;
2.421000000000000E+009;1.790447682142258E-001;-4.884494841098785E-002;-3.507434157654643E-003;-6.659759092144668E-004;
2.421166666666667E+009;1.773754060268402E-001;-5.052408948540688E-002;-3.597322385758162E-003;-6.003369344398379E-004;
2.421333333333334E+009;1.754493862390518E-001;-5.187672749161720E-002;-3.545225365087390E-003;-6.521368050016463E-004;
2.421500000000000E+009;1.737356185913086E-001;-5.396626144647598E-002;-3.433118108659983E-003;-6.641148938797414E-004;
2.421666666666667E+009;1.723590642213821E-001;-5.548919737339020E-002;-3.519953228533268E-003;-6.228882120922208E-004;
2.421833333333334E+009;1.708768755197525E-001;-5.747056379914284E-002;-3.590552136301994E-003;-5.460815737023950E-004;
2.422000000000000E+009;1.693617254495621E-001;-5.935114249587059E-002;-3.692817408591509E-003;-5.883483681827784E-004;
2.422166666666667E+009;1.681383550167084E-001;-6.154227256774902E-002;-3.687961027026177E-003;-5.868419539183378E-004;
2.422333333333334E+009;1.667574644088745E-001;-6.390383839607239E-002;-3.754321718588471E-003;-5.172924720682204E-004;
2.422500000000000E+009;1.658039987087250E-001;-6.571130454540253E-002;-3.800241975113750E-003;-4.026021633762866E-004;
2.422666666666667E+009;1.649056971073151E-001;-6.812087446451187E-002;-4.005114082247019E-003;-5.388092249631882E-004;
2.422833333333334E+009;1.641070246696472E-001;-7.032036036252976E-002;-4.036250058561564E-003;-6.136114243417978E-004;
2.423000000000000E+009;1.633081436157227E-001;-7.267725467681885E-002;-4.217307083308697E-003;-3.421370638534427E-004;
2.423166666666667E+009;1.628600507974625E-001;-7.470989227294922E-002;-4.290728829801083E-003;-3.775441145990044E-004;
2.423333333333334E+009;1.623176634311676E-001;-7.714049518108368E-002;-4.339701961725950E-003;-6.162346835481003E-005;
2.423500000000000E+009;1.619872301816940E-001;-7.912808656692505E-002;-4.425853956490755E-003;3.406605537747964E-005;
2.423666666666667E+009;1.619662940502167E-001;-8.147095888853073E-002;-4.549825564026833E-003;1.772701943991706E-004;
2.423833333333334E+009;1.617969125509262E-001;-8.349858969449997E-002;-4.573795478790999E-003;4.447812098078430E-004;
2.424000000000000E+009;1.617781072854996E-001;-8.545652776956558E-002;-4.743248224258423E-003;5.678228917531669E-004;
2.424166666666667E+009;1.619202643632889E-001;-8.736804872751236E-002;-4.798400215804577E-003;7.365474011749029E-004;
2.424333333333334E+009;1.620475649833679E-001;-8.935962617397308E-002;-4.931999836117029E-003;8.745586383156478E-004;
2.424500000000000E+009;1.625357121229172E-001;-9.132105857133865E-002;-4.952215589582920E-003;1.284710830077529E-003;
2.424666666666667E+009;1.627469062805176E-001;-9.296214580535889E-002;-4.790403414517641E-003;1.457565580494702E-003;
2.424833333333334E+009;1.634411215782166E-001;-9.465216845273972E-002;-4.887195304036140E-003;1.536964788101614E-003;
2.425000000000000E+009;1.638832837343216E-001;-9.612333774566650E-002;-4.780042450875044E-003;1.852055545896292E-003;
2.425166666666667E+009;1.642831414937973E-001;-9.749007970094681E-002;-4.630500450730324E-003;2.046354115009308E-003;
2.425333333333334E+009;1.647880375385284E-001;-9.871681779623032E-002;-4.570309538394213E-003;2.252899808809161E-003;
2.425500000000000E+009;1.654647588729858E-001;-1.000108197331429E-001;-4.467227496206760E-003;2.380313584581018E-003;
2.425666666666667E+009;1.661623269319534E-001;-1.009434461593628E-001;-4.443787969648838E-003;2.629789058119059E-003;
2.425833333333334E+009;1.666616499423981E-001;-1.019149720668793E-001;-4.331934731453657E-003;2.823554677888751E-003;
2.426000000000000E+009;1.673829555511475E-001;-1.026073470711708E-001;-4.319403786212206E-003;2.934052143245935E-003;
2.426166666666667E+009;1.680957823991776E-001;-1.032767370343208E-001;-4.172827582806349E-003;3.100592643022537E-003;
2.426333333333334E+009;1.684915572404862E-001;-1.039617434144020E-001;-4.142509307712317E-003;3.128441050648689E-003;
2.426500000000000E+009;1.691900044679642E-001;-1.043345183134079E-001;-3.914289176464081E-003;3.206078428775072E-003;
2.426666666666667E+009;1.698406934738159E-001;-1.048378050327301E-001;-3.854719921946526E-003;3.516255412250757E-003;
2.426833333333334E+009;1.704151183366776E-001;-1.051048412919045E-001;-3.631712403148413E-003;3.582875709980726E-003;
2.427000000000000E+009;1.706678271293640E-001;-1.054269894957542E-001;-3.626895369961858E-003;3.695527557283640E-003;
2.427166666666667E+009;1.710600554943085E-001;-1.054304912686348E-001;-3.578946925699711E-003;3.864104393869638E-003;
2.427333333333334E+009;1.712847650051117E-001;-1.058536693453789E-001;-3.326418576762080E-003;3.943268209695816E-003;
2.427500000000000E+009;1.713066399097443E-001;-1.058172732591629E-001;-3.298528958112001E-003;4.052743315696716E-003;
2.427666666666667E+009;1.714222878217697E-001;-1.057708412408829E-001;-3.225383348762989E-003;4.075554665178061E-003;
