# Version 1.00
#
freq[Hz];re:Trc1_S11;im:Trc1_S11;re:Trc2_S21;im:Trc2_S21;
2.400000000000000E+009;1.570928990840912E-001;1.124129369854927E-001;6.584824528545141E-003;1.500579179264605E-003;
2.400166666666667E+009;1.564533561468124E-001;1.102623417973518E-001;6.605158559978008E-003;1.220959471538663E-003;
2.400333333333334E+009;1.564551591873169E-001;1.082430556416512E-001;6.363180465996265E-003;7.492277072742581E-004;
2.400500000000000E+009;1.559109687805176E-001;1.057939231395721E-001;6.333842407912016E-003;3.283864934928715E-004;
2.400666666666667E+009;1.557912230491638E-001;1.032377630472183E-001;6.096020806580782E-003;-2.085190862999298E-005;
2.400833333333334E+009;1.553799957036972E-001;1.004391163587570E-001;5.984080489724875E-003;-5.333889275789261E-004;
2.401000000000000E+009;1.552844643592835E-001;9.770220518112183E-002;5.860168021172285E-003;-7.275801035575569E-004;
2.401166666666667E+009;1.548314094543457E-001;9.488496184349060E-002;5.461672320961952E-003;-8.732042042538524E-004;
2.401333333333334E+009;1.552027016878128E-001;9.192790836095810E-002;5.187156144529581E-003;-1.148087554611266E-003;
2.401500000000000E+009;1.551560461521149E-001;8.906611055135727E-002;5.038919858634472E-003;-1.265683793462813E-003;
2.401666666666667E+009;1.551651954650879E-001;8.604749292135239E-002;4.698627162724733E-003;-1.266701263375580E-003;
2.401833333333334E+009;1.554626971483231E-001;8.305273950099945E-002;4.362787120044231E-003;-1.390657969750464E-003;
2.402000000000000E+009;1.559623032808304E-001;7.998062670230866E-002;4.291740711778402E-003;-1.349255791865289E-003;
2.402166666666667E+009;1.566023975610733E-001;7.727503776550293E-002;4.112395923584700E-003;-1.424825401045382E-003;
2.402333333333334E+009;1.572809964418411E-001;7.417877018451691E-002;3.956805914640427E-003;-1.413698191754520E-003;
2.402500000000000E+009;1.582240164279938E-001;7.119533419609070E-002;3.688222961500287E-003;-1.275190152227879E-003;
2.402666666666667E+009;1.591321825981140E-001;6.862427294254303E-002;3.784023225307465E-003;-1.280157710425556E-003;
2.402833333333334E+009;1.602943688631058E-001;6.568400561809540E-002;3.566980129107833E-003;-1.334734144620597E-003;
2.403000000000000E+009;1.615332216024399E-001;6.310701370239258E-002;3.524758387356997E-003;-1.276539638638496E-003;
2.403166666666667E+009;1.631367504596710E-001;6.063064560294151E-002;3.541328012943268E-003;-1.180450897663832E-003;
2.403333333333334E+009;1.647122055292130E-001;5.801911279559135E-002;3.424304770305753E-003;-1.280327909626067E-003;
2.403500000000000E+009;1.663613766431809E-001;5.553913861513138E-002;3.408373799175024E-003;-1.137886429205537E-003;
2.403666666666667E+009;1.681035012006760E-001;5.311556160449982E-002;3.302426077425480E-003;-1.142902416177094E-003;
2.403833333333334E+009;1.697201132774353E-001;5.098874494433403E-002;3.196007106453180E-003;-1.072737737558782E-003;
2.404000000000000E+009;1.712932139635086E-001;4.861192777752876E-002;3.616467118263245E-003;-1.081434311345220E-003;
2.404166666666667E+009;1.732598245143890E-001;4.695823416113854E-002;3.393831430003047E-003;-9.868603665381670E-004;
2.404333333333334E+009;1.750541031360626E-001;4.508285224437714E-002;3.432055702432990E-003;-1.161607913672924E-003;
2.404500000000000E+009;1.769213378429413E-001;4.306203126907349E-002;3.505809698253870E-003;-1.058324007317424E-003;
2.404666666666667E+009;1.786365956068039E-001;4.180440306663513E-002;3.530184971168637E-003;-1.291121705435216E-003;
2.404833333333334E+009;1.806294769048691E-001;4.058165103197098E-002;3.717854386195540E-003;-1.530088367871940E-003;
2.405000000000000E+009;1.821237206459045E-001;3.947520256042481E-002;3.618475748226047E-003;-1.582179218530655E-003;
2.405166666666667E+009;1.839333623647690E-001;3.849115595221520E-002;3.785922192037106E-003;-1.693902886472642E-003;
2.405333333333334E+009;1.856142282485962E-001;3.778367117047310E-002;3.670938778668642E-003;-1.583521021530032E-003;
2.405500000000000E+009;1.874126493930817E-001;3.698628023266792E-002;3.731888253241777E-003;-1.748820068314672E-003;
2.405666666666667E+009;1.888042241334915E-001;3.667586669325829E-002;3.653011051937938E-003;-1.889855135232210E-003;
2.405833333333334E+009;1.906065344810486E-001;3.623858466744423E-002;3.566094208508730E-003;-2.033153316006064E-003;
2.406000000000000E+009;1.918426752090454E-001;3.605804964900017E-002;3.363517578691244E-003;-2.125536790117621E-003;
2.406166666666667E+009;1.932514458894730E-001;3.588853776454926E-002;3.328585764393210E-003;-2.125862054526806E-003;
2.406333333333334E+009;1.945573091506958E-001;3.595254197716713E-002;3.280638251453638E-003;-2.230948070064187E-003;
2.406500000000000E+009;1.956260204315186E-001;3.598484769463539E-002;3.317300695925951E-003;-2.217408036813140E-003;
2.406666666666667E+009;1.966708749532700E-001;3.606715798377991E-002;3.292551729828119E-003;-2.336838282644749E-003;
2.406833333333334E+009;1.976343691349030E-001;3.618051856756210E-002;3.251841291785240E-003;-2.266166033223271E-003;
2.407000000000000E+009;1.982497423887253E-001;3.658181801438332E-002;3.257778473198414E-003;-2.310548676177859E-003;
2.407166666666667E+009;1.990061253309250E-001;3.673934936523438E-002;3.333850298076868E-003;-2.490962157025933E-003;
2.407333333333334E+009;1.991924792528153E-001;3.701306134462357E-002;3.446399699896574E-003;-2.614142606034875E-003;
2.407500000000000E+009;1.994100064039230E-001;3.732895851135254E-002;3.371433587744832E-003;-2.562199952080846E-003;
2.407666666666667E+009;1.998290717601776E-001;3.759091347455978E-002;3.396602813154459E-003;-2.795417560264468E-003;
2.407833333333334E+009;1.995574831962585E-001;3.781808540225029E-002;3.561173565685749E-003;-2.906551817432046E-003;
2.408000000000000E+009;1.998572498559952E-001;3.804854303598404E-002;3.478635801002383E-003;-3.092454513534904E-003;
2.408166666666667E+009;1.994231343269348E-001;3.808533400297165E-002;3.398855915293098E-003;-3.359288908541203E-003;
2.408333333333334E+009;1.991037428379059E-001;3.803037852048874E-002;3.502006176859140E-003;-3.473350778222084E-003;
2.408500000000000E+009;1.985969543457031E-001;3.806455433368683E-002;3.365455893799663E-003;-3.661946160718799E-003;
2.408666666666667E+009;1.981801837682724E-001;3.791645914316177E-002;3.281304612755776E-003;-3.802153747528791E-003;
2.408833333333334E+009;1.974968463182449E-001;3.758490458130837E-002;3.252843394875526E-003;-4.002094268798828E-003;
2.409000000000000E+009;1.965197026729584E-001;3.709397464990616E-002;2.967219101265073E-003;-4.040237981826067E-003;
2.409166666666667E+009;1.956257671117783E-001;3.653505071997643E-002;2.945515327155590E-003;-4.328593146055937E-003;
2.409333333333334E+009;1.946574151515961E-001;3.588747978210449E-002;2.798221772536635E-003;-4.590824712067843E-003;
2.409500000000000E+009;1.933906674385071E-001;3.492533788084984E-002;2.771385014057159E-003;-4.605272784829140E-003;
2.409666666666667E+009;1.923396438360214E-001;3.387741371989250E-002;2.475984627380967E-003;-4.850113298743963E-003;
2.409833333333334E+009;1.912024915218353E-001;3.274178132414818E-002;2.420968608930707E-003;-4.945455119013786E-003;
2.410000000000000E+009;1.900629997253418E-001;3.124554269015789E-002;2.157423645257950E-003;-5.045544356107712E-003;
2.410166666666667E+009;1.887280046939850E-001;2.987658604979515E-002;2.069097012281418E-003;-5.063410382717848E-003;
2.410333333333334E+009;1.876267939805985E-001;2.823637612164021E-002;1.730283838696778E-003;-5.346160847693682E-003;
2.410500000000000E+009;1.864393651485443E-001;2.656975388526917E-002;1.547108637169004E-003;-5.405258852988482E-003;
2.410666666666667E+009;1.852511614561081E-001;2.458270452916622E-002;1.315331086516380E-003;-5.365421529859304E-003;
2.410833333333334E+009;1.842842847108841E-001;2.261021360754967E-002;9.615825838409364E-004;-5.445008166134358E-003;
2.411000000000000E+009;1.829743087291718E-001;2.037392184138298E-002;8.142199367284775E-004;-5.598327610641718E-003;
2.411166666666667E+009;1.820834577083588E-001;1.817696169018745E-002;6.230814033187926E-004;-5.624919664114714E-003;
2.411333333333334E+009;1.811698228120804E-001;1.561885606497526E-002;5.013897898606956E-004;-5.464713089168072E-003;
2.411500000000000E+009;1.804375648498535E-001;1.334467530250549E-002;1.096954147215001E-004;-5.383917130529881E-003;
2.411666666666667E+009;1.798683851957321E-001;1.092236302793026E-002;-1.252129732165486E-004;-5.561383906751871E-003;
2.411833333333334E+009;1.792687028646469E-001;8.458160795271397E-003;-2.314630401087925E-004;-5.510282702744007E-003;
2.412000000000000E+009;1.789789944887161E-001;5.639632232487202E-003;-5.765351234003902E-004;-5.348119884729385E-003;
2.412166666666667E+009;1.786318719387054E-001;3.426222829148173E-003;-7.836370496079326E-004;-5.274476017802954E-003;
2.412333333333334E+009;1.786625087261200E-001;5.181845626793802E-004;-1.014390145428479E-003;-5.250770132988691E-003;
2.412500000000000E+009;1.788685321807861E-001;-2.098009223118424E-003;-1.217132667079568E-003;-5.175548605620861E-003;
2.412666666666667E+009;1.790829747915268E-001;-4.808730911463499E-003;-1.323232194408774E-003;-5.112946033477783E-003;
2.412833333333334E+009;1.794765740633011E-001;-7.480302359908819E-003;-1.614956650882959E-003;-5.053255707025528E-003;
2.413000000000000E+009;1.800310313701630E-001;-1.000921241939068E-002;-1.854232279583812E-003;-4.816974047571421E-003;
2.413166666666667E+009;1.805851757526398E-001;-1.262751128524542E-002;-1.819884986616671E-003;-4.676530603319407E-003;
2.413333333333334E+009;1.814792305231094E-001;-1.535692811012268E-002;-2.045563189312816E-003;-4.606571514159441E-003;
2.413500000000000E+009;1.820914298295975E-001;-1.779904216527939E-002;-2.293705474585295E-003;-4.278755281120539E-003;
2.413666666666667E+009;1.833730489015579E-001;-2.034424431622028E-002;-2.352358773350716E-003;-4.196883644908667E-003;
2.413833333333334E+009;1.843998730182648E-001;-2.277659438550472E-002;-2.411198802292347E-003;-4.024493973702192E-003;
2.414000000000000E+009;1.853377372026444E-001;-2.505822479724884E-002;-2.513011684641242E-003;-3.818342695012689E-003;
2.414166666666667E+009;1.866002678871155E-001;-2.711190469563007E-002;-2.535046078264713E-003;-3.560052951797843E-003;
2.414333333333334E+009;1.877426207065582E-001;-2.940646559000015E-002;-2.559555694460869E-003;-3.534027840942144E-003;
2.414500000000000E+009;1.890217214822769E-001;-3.138436377048492E-002;-2.744022058323026E-003;-3.390390425920487E-003;
2.414666666666667E+009;1.902728527784348E-001;-3.316345810890198E-002;-2.772755455225706E-003;-3.356595523655415E-003;
2.414833333333334E+009;1.914739757776260E-001;-3.471447527408600E-002;-2.641510916873813E-003;-3.033822169527412E-003;
2.415000000000000E+009;1.928756386041641E-001;-3.652468323707581E-002;-2.768755424767733E-003;-2.893831813707948E-003;
2.415166666666667E+009;1.942691206932068E-001;-3.762350976467133E-002;-2.634692238643765E-003;-2.867234870791435E-003;
2.415333333333334E+009;1.956699788570404E-001;-3.888604044914246E-002;-2.692659385502338E-003;-2.646953333169222E-003;
2.415500000000000E+009;1.969242841005325E-001;-3.993956372141838E-002;-2.927962690591812E-003;-2.634994685649872E-003;
2.415666666666667E+009;1.981224268674851E-001;-4.098770767450333E-002;-2.811532234773040E-003;-2.544608199968934E-003;
2.415833333333334E+009;1.992869973182678E-001;-4.181562364101410E-002;-2.771591767668724E-003;-2.543615177273750E-003;
2.416000000000000E+009;2.003369033336639E-001;-4.246130958199501E-002;-2.999110845848918E-003;-2.459511160850525E-003;
2.416166666666667E+009;2.013977915048599E-001;-4.320950061082840E-002;-2.979607786983252E-003;-2.329927869141102E-003;
2.416333333333334E+009;2.022836357355118E-001;-4.345963150262833E-002;-2.976389834657311E-003;-2.133673289790750E-003;
2.416500000000000E+009;2.030999809503555E-001;-4.383401200175285E-002;-2.810633508488536E-003;-2.117938594892621E-003;
2.416666666666667E+009;2.038493156433106E-001;-4.415853321552277E-002;-2.691741567105055E-003;-1.818180549889803E-003;
2.416833333333334E+009;2.042243033647537E-001;-4.414422810077667E-002;-2.742429962381721E-003;-1.793360454030335E-003;
2.417000000000000E+009;2.048012614250183E-001;-4.430497437715530E-002;-2.566637005656958E-003;-1.821350888349116E-003;
2.417166666666667E+009;2.048799842596054E-001;-4.407570138573647E-002;-2.372289076447487E-003;-1.719292951747775E-003;
2.417333333333334E+009;2.049446403980255E-001;-4.374263808131218E-002;-2.434724941849709E-003;-1.884236116893590E-003;
2.417500000000000E+009;2.049709260463715E-001;-4.367911070585251E-002;-2.409364329650998E-003;-1.907243393361569E-003;
2.417666666666667E+009;2.046898305416107E-001;-4.332224279642105E-002;-2.383141079917550E-003;-1.982514979317784E-003;
2.417833333333334E+009;2.045452147722244E-001;-4.293881729245186E-002;-2.405806211754680E-003;-2.140755532309413E-003;
2.418000000000000E+009;2.042480409145355E-001;-4.251596704125404E-002;-2.470454666763544E-003;-2.223698887974024E-003;
2.418166666666667E+009;2.036889195442200E-001;-4.227118194103241E-002;-2.607883885502815E-003;-2.254858613014221E-003;
2.418333333333334E+009;2.029821425676346E-001;-4.181437939405441E-002;-2.674181014299393E-003;-2.226851880550385E-003;
2.418500000000000E+009;2.022216469049454E-001;-4.146055132150650E-002;-2.836942672729492E-003;-2.414660295471549E-003;
2.418666666666667E+009;2.015105932950974E-001;-4.117553308606148E-002;-3.057093359529972E-003;-2.292813034728169E-003;
2.418833333333334E+009;2.002450227737427E-001;-4.107328504323959E-002;-3.326721023768187E-003;-2.252079546451569E-003;
2.419000000000000E+009;1.989478915929794E-001;-4.097102209925652E-002;-3.379631787538528E-003;-2.130828797817230E-003;
2.419166666666667E+009;1.978114992380142E-001;-4.086470603942871E-002;-3.536194097250700E-003;-2.155309077352285E-003;
2.419333333333334E+009;1.964583545923233E-001;-4.116582125425339E-002;-3.829602384939790E-003;-1.855224370956421E-003;
2.419500000000000E+009;1.948639601469040E-001;-4.129977896809578E-002;-3.862497862428427E-003;-1.717776525765657E-003;
2.419666666666667E+009;1.932502686977387E-001;-4.179567471146584E-002;-3.842789679765701E-003;-1.590902451425791E-003;
2.419833333333334E+009;1.915429532527924E-001;-4.215868562459946E-002;-3.916489426046610E-003;-1.369051169604063E-003;
2.420000000000000E+009;1.898483633995056E-001;-4.261918365955353E-002;-3.879185998812318E-003;-1.246352912858129E-003;
2.420166666666667E+009;1.881372183561325E-001;-4.342774301767349E-002;-3.899612231180072E-003;-1.022726530209184E-003;
2.420333333333334E+009;1.863730102777481E-001;-4.431518539786339E-002;-3.934988286346197E-003;-8.429540903307498E-004;
2.420500000000000E+009;1.843608021736145E-001;-4.540146887302399E-002;-3.732314100489020E-003;-7.702692528255284E-004;
2.420666666666667E+009;1.825329065322876E-001;-4.615996778011322E-002;-3.631354076787829E-003;-7.847075466997922E-004;
2.420833333333334E+009;1.808229535818100E-001;-4.761044308543205E-002;-3.652155166491866E-003;-5.764508387073875E-004;
2.421000000000000E+009;1.791383922100067E-001;-4.896657168865204E-002;-3.687858814373612E-003;-6.697856588289142E-004;
2.421166666666667E+009;1.772631853818893E-001;-5.048786476254463E-002;-3.672753460705280E-003;-5.645212368108332E-004;
2.421333333333334E+009;1.753869205713272E-001;-5.205510556697846E-002;-3.436092520132661E-003;-6.478332215920091E-004;
2.421500000000000E+009;1.737419366836548E-001;-5.397712439298630E-002;-3.522986778989434E-003;-5.528049659915268E-004;
2.421666666666667E+009;1.721123903989792E-001;-5.569389089941979E-002;-3.500845050439239E-003;-5.788693088106811E-004;
2.421833333333334E+009;1.707929372787476E-001;-5.755178257822990E-002;-3.614588873460889E-003;-6.305708666332066E-004;
2.422000000000000E+009;1.691720932722092E-001;-5.935777723789215E-002;-3.606715938076377E-003;-6.321233231574297E-004;
2.422166666666667E+009;1.679529696702957E-001;-6.177615746855736E-002;-3.811662783846259E-003;-4.935013712383807E-004;
2.422333333333334E+009;1.668405383825302E-001;-6.384600698947907E-002;-3.741452237591147E-003;-5.375394830480218E-004;
2.422500000000000E+009;1.657523512840271E-001;-6.597278267145157E-002;-3.877336857840419E-003;-5.537027609534562E-004;
2.422666666666667E+009;1.647341996431351E-001;-6.812439858913422E-002;-3.971704747527838E-003;-4.012357094325125E-004;
2.422833333333334E+009;1.639644652605057E-001;-7.038920372724533E-002;-4.110571462661028E-003;-3.694081678986549E-004;
2.423000000000000E+009;1.633046567440033E-001;-7.264709472656250E-002;-4.097701981663704E-003;-3.476892597973347E-004;
2.423166666666667E+009;1.626125723123550E-001;-7.474128156900406E-002;-4.314487334340811E-003;-3.398119006305933E-004;
2.423333333333334E+009;1.622180938720703E-001;-7.707122713327408E-002;-4.335602279752493E-003;-1.668503682594746E-004;
2.423500000000000E+009;1.619031280279160E-001;-7.908323407173157E-002;-4.529234487563372E-003;2.702201709325891E-005;
2.423666666666667E+009;1.619310677051544E-001;-8.133316040039063E-002;-4.699829034507275E-003;4.810119207832031E-005;
2.423833333333334E+009;1.617596596479416E-001;-8.330686390399933E-002;-4.572799429297447E-003;3.399666165933013E-004;
2.424000000000000E+009;1.617123037576675E-001;-8.560515195131302E-002;-4.768801853060722E-003;4.271225188858807E-004;
2.424166666666667E+009;1.616995632648468E-001;-8.744508028030396E-002;-4.807760007679462E-003;6.824840093031526E-004;
2.424333333333334E+009;1.619620472192764E-001;-8.929882943630219E-002;-4.771056119352579E-003;1.097068190574646E-003;
2.424500000000000E+009;1.623402684926987E-001;-9.137862175703049E-002;-4.829312674701214E-003;1.145632122643292E-003;
2.424666666666667E+009;1.627313941717148E-001;-9.302020817995071E-002;-4.714953713119030E-003;1.499950536526740E-003;
2.424833333333334E+009;1.633390933275223E-001;-9.463099390268326E-002;-4.664930049329996E-003;1.559339696541429E-003;
2.425000000000000E+009;1.638568788766861E-001;-9.614656120538712E-002;-4.681789781898260E-003;1.776424353010953E-003;
2.425166666666667E+009;1.642703115940094E-001;-9.740963578224182E-002;-4.736343864351511E-003;1.954389270395041E-003;
2.425333333333334E+009;1.647091656923294E-001;-9.865958988666534E-002;-4.426926374435425E-003;2.159525407478213E-003;
2.425500000000000E+009;1.654365658760071E-001;-1.000447049736977E-001;-4.463463090360165E-003;2.252202248200774E-003;
2.425666666666667E+009;1.660503149032593E-001;-1.008318886160851E-001;-4.398750141263008E-003;2.420546021312475E-003;
2.425833333333334E+009;1.666201502084732E-001;-1.019204854965210E-001;-4.324924666434526E-003;2.623976441100240E-003;
2.426000000000000E+009;1.673378199338913E-001;-1.026047319173813E-001;-4.313444253057241E-003;2.728482941165566E-003;
2.426166666666667E+009;1.680331230163574E-001;-1.031939685344696E-001;-4.023552872240543E-003;2.925692824646831E-003;
2.426333333333334E+009;1.684739589691162E-001;-1.039106622338295E-001;-4.014253616333008E-003;3.049788996577263E-003;
2.426500000000000E+009;1.691077947616577E-001;-1.042926609516144E-001;-3.938768059015274E-003;3.209267975762487E-003;
2.426666666666667E+009;1.695915460586548E-001;-1.047626659274101E-001;-3.805179614573717E-003;3.123816568404436E-003;
2.426833333333334E+009;1.703900694847107E-001;-1.051139310002327E-001;-3.643210045993328E-003;3.400225192308426E-003;
2.427000000000000E+009;1.706285923719406E-001;-1.053557172417641E-001;-3.679685061797500E-003;3.517140634357929E-003;
2.427166666666667E+009;1.710103452205658E-001;-1.055007427930832E-001;-3.514688462018967E-003;3.769239410758019E-003;
2.427333333333334E+009;1.712544411420822E-001;-1.056915670633316E-001;-3.543247701600194E-003;3.868837375193834E-003;
2.427500000000000E+009;1.713544726371765E-001;-1.057405620813370E-001;-3.251795424148440E-003;3.936526365578175E-003;
2.427666666666667E+009;1.714140027761459E-001;-1.057368516921997E-001;-3.168807365000248E-003;4.133549518883228E-003;
