# Version 1.00
#
freq[Hz];re:Trc1_S11;im:Trc1_S11;re:Trc2_S21;im:Trc2_S21;
2.400000000000000E+009;1.571417003870010E-001;1.124001741409302E-001;6.133003626018763E-003;1.448536990210414E-003;
2.400166666666667E+009;1.566471308469772E-001;1.102553978562355E-001;6.419701036065817E-003;1.342551899142563E-003;
2.400333333333334E+009;1.564330607652664E-001;1.082587614655495E-001;6.398791912943125E-003;8.472560439258814E-004;
2.400500000000000E+009;1.559264212846756E-001;1.055941283702850E-001;6.198138929903507E-003;4.238492401782423E-004;
2.400666666666667E+009;1.557368636131287E-001;1.032552421092987E-001;6.151387467980385E-003;-4.072361844009720E-005;
2.400833333333334E+009;1.553162783384323E-001;1.004664227366447E-001;5.932395812124014E-003;-3.718942753039300E-004;
2.401000000000000E+009;1.551292538642883E-001;9.747342765331268E-002;5.753115285187960E-003;-4.881256027147174E-004;
2.401166666666667E+009;1.548832058906555E-001;9.477522969245911E-002;5.591230466961861E-003;-8.123657316900790E-004;
2.401333333333334E+009;1.549680680036545E-001;9.196545928716660E-002;5.242443177849054E-003;-1.106289913877845E-003;
2.401500000000000E+009;1.552310883998871E-001;8.891659975051880E-002;4.992650356143713E-003;-1.081524766050279E-003;
2.401666666666667E+009;1.550123095512390E-001;8.583696186542511E-002;4.767726175487042E-003;-1.236102776601911E-003;
2.401833333333334E+009;1.552472859621048E-001;8.297286182641983E-002;4.416032228618860E-003;-1.420763204805553E-003;
2.402000000000000E+009;1.557518094778061E-001;7.975119352340698E-002;4.207218065857887E-003;-1.377963344566524E-003;
2.402166666666667E+009;1.564330458641052E-001;7.719084620475769E-002;4.117074888199568E-003;-1.216630684211850E-003;
2.402333333333334E+009;1.570694893598557E-001;7.410622388124466E-002;3.954823128879070E-003;-1.301146578043699E-003;
2.402500000000000E+009;1.580459922552109E-001;7.124386727809906E-002;3.760731779038906E-003;-1.192407682538033E-003;
2.402666666666667E+009;1.590666472911835E-001;6.852606683969498E-002;3.640135983005166E-003;-1.072260085493326E-003;
2.402833333333334E+009;1.600730121135712E-001;6.576788425445557E-002;3.539701690897346E-003;-1.048588193953037E-003;
2.403000000000000E+009;1.615057438611984E-001;6.314016133546829E-002;3.536899574100971E-003;-1.069108140654862E-003;
2.403166666666667E+009;1.631591320037842E-001;6.042787060141563E-002;3.343368181958795E-003;-1.086548203602433E-003;
2.403333333333334E+009;1.645760089159012E-001;5.787652730941773E-002;3.591316519305110E-003;-8.422731189057231E-004;
2.403500000000000E+009;1.662604510784149E-001;5.538348108530045E-002;3.476253245025873E-003;-9.853848023340106E-004;
2.403666666666667E+009;1.678911298513413E-001;5.313759669661522E-002;3.371591446921229E-003;-9.395958622917533E-004;
2.403833333333334E+009;1.696763634681702E-001;5.074728652834892E-002;3.412595018744469E-003;-9.239129140041769E-004;
2.404000000000000E+009;1.711241751909256E-001;4.871025681495667E-002;3.478355472907424E-003;-8.900792454369366E-004;
2.404166666666667E+009;1.733078211545944E-001;4.657103866338730E-002;3.638904076069593E-003;-9.454112732782960E-004;
2.404333333333334E+009;1.750119328498840E-001;4.502848535776138E-002;3.628513542935252E-003;-1.052478095516563E-003;
2.404500000000000E+009;1.766899973154068E-001;4.308313503861427E-002;3.694197162985802E-003;-1.040580100379884E-003;
2.404666666666667E+009;1.784825176000595E-001;4.172025248408318E-002;3.708494361490011E-003;-1.171376439742744E-003;
2.404833333333334E+009;1.803177148103714E-001;4.037400707602501E-002;3.765065921470523E-003;-1.184557797387242E-003;
2.405000000000000E+009;1.821353584527969E-001;3.944867849349976E-002;3.602310782298446E-003;-1.219152472913265E-003;
2.405166666666667E+009;1.838690489530563E-001;3.832426667213440E-002;3.630054183304310E-003;-1.533937524072826E-003;
2.405333333333334E+009;1.856314092874527E-001;3.781419992446899E-002;3.769937437027693E-003;-1.612176652997732E-003;
2.405500000000000E+009;1.872629225254059E-001;3.712948411703110E-002;3.802098333835602E-003;-1.728154835291207E-003;
2.405666666666667E+009;1.888215392827988E-001;3.650871291756630E-002;3.587931627407670E-003;-1.687653246335685E-003;
2.405833333333334E+009;1.904557645320892E-001;3.615551069378853E-002;3.561841556802392E-003;-1.874730805866420E-003;
2.406000000000000E+009;1.918213963508606E-001;3.579441457986832E-002;3.660644171759486E-003;-1.971881836652756E-003;
2.406166666666667E+009;1.931550055742264E-001;3.566318377852440E-002;3.469806630164385E-003;-2.106846310198307E-003;
2.406333333333334E+009;1.945005357265472E-001;3.585270047187805E-002;3.450229763984680E-003;-2.052966039627791E-003;
2.406500000000000E+009;1.957031488418579E-001;3.585534170269966E-002;3.353628795593977E-003;-2.277553314343095E-003;
2.406666666666667E+009;1.964814662933350E-001;3.585202619433403E-002;3.388148965314031E-003;-2.306835493072867E-003;
2.406833333333334E+009;1.974769085645676E-001;3.608288615942001E-002;3.360488452017307E-003;-2.214669249951839E-003;
2.407000000000000E+009;1.980881094932556E-001;3.644786402583122E-002;3.323145210742950E-003;-2.324822591617703E-003;
2.407166666666667E+009;1.988059878349304E-001;3.652901574969292E-002;3.324721707031131E-003;-2.356723882257938E-003;
2.407333333333334E+009;1.990254074335098E-001;3.690240532159805E-002;3.456123871728778E-003;-2.484921831637621E-003;
2.407500000000000E+009;1.992730051279068E-001;3.740072250366211E-002;3.391469595953822E-003;-2.496524248272181E-003;
2.407666666666667E+009;1.995984315872192E-001;3.749189898371697E-002;3.333712462335825E-003;-2.748585538938642E-003;
2.407833333333334E+009;1.995629519224167E-001;3.777865320444107E-002;3.517776960507035E-003;-2.924197120591998E-003;
2.408000000000000E+009;1.995648890733719E-001;3.790695965290070E-002;3.560941666364670E-003;-3.051759442314506E-003;
2.408166666666667E+009;1.992036551237106E-001;3.812932968139648E-002;3.591152839362621E-003;-3.285826183855534E-003;
2.408333333333334E+009;1.989183723926544E-001;3.796813637018204E-002;3.556426614522934E-003;-3.342767246067524E-003;
2.408500000000000E+009;1.984596997499466E-001;3.814031183719635E-002;3.267840715125203E-003;-3.678930457681418E-003;
2.408666666666667E+009;1.979600191116333E-001;3.789870068430901E-002;3.393745748326182E-003;-3.788069589063525E-003;
2.408833333333334E+009;1.973930895328522E-001;3.771224617958069E-002;3.430814482271671E-003;-4.030881449580193E-003;
2.409000000000000E+009;1.965568512678146E-001;3.705927729606628E-002;3.171562217175961E-003;-4.223922267556191E-003;
2.409166666666667E+009;1.954241991043091E-001;3.660648316144943E-002;3.064393997192383E-003;-4.131785128265619E-003;
2.409333333333334E+009;1.945840269327164E-001;3.592743724584580E-002;2.980094635859132E-003;-4.404136445373297E-003;
2.409500000000000E+009;1.933389306068420E-001;3.513726964592934E-002;2.708514221012592E-003;-4.636221099644899E-003;
2.409666666666667E+009;1.922504007816315E-001;3.389460965991020E-002;2.804140094667673E-003;-4.624392371624708E-003;
2.409833333333334E+009;1.910969614982605E-001;3.290667384862900E-002;2.529387129470706E-003;-4.864065442234278E-003;
2.410000000000000E+009;1.899856328964233E-001;3.148966655135155E-002;2.200370654463768E-003;-5.005562212318182E-003;
2.410166666666667E+009;1.887562870979309E-001;2.992603741586208E-002;2.082437975332141E-003;-5.244372878223658E-003;
2.410333333333334E+009;1.875021308660507E-001;2.840488776564598E-002;1.788944005966187E-003;-5.310934968292713E-003;
2.410500000000000E+009;1.863682717084885E-001;2.680752053856850E-002;1.650538062676787E-003;-5.541484802961350E-003;
2.410666666666667E+009;1.851304024457932E-001;2.462844736874104E-002;1.524666557088494E-003;-5.434747785329819E-003;
2.410833333333334E+009;1.842029839754105E-001;2.265179343521595E-002;1.219754107296467E-003;-5.653452128171921E-003;
2.411000000000000E+009;1.832045465707779E-001;2.069129049777985E-002;9.393294458277524E-004;-5.632935091853142E-003;
2.411166666666667E+009;1.820994019508362E-001;1.837843470275402E-002;6.685204571112990E-004;-5.607907194644213E-003;
2.411333333333334E+009;1.812431365251541E-001;1.581600122153759E-002;5.167151684872806E-004;-5.672848783433437E-003;
2.411500000000000E+009;1.803817003965378E-001;1.335633918642998E-002;1.451331045245752E-004;-5.553347989916802E-003;
2.411666666666667E+009;1.799670755863190E-001;1.112053729593754E-002;-7.428235403494909E-005;-5.437164567410946E-003;
2.411833333333334E+009;1.793546527624130E-001;8.698660880327225E-003;-3.514151903800666E-004;-5.542266182601452E-003;
2.412000000000000E+009;1.789417862892151E-001;5.835905671119690E-003;-3.339347604196519E-004;-5.505745299160481E-003;
2.412166666666667E+009;1.788944005966187E-001;3.441758919507265E-003;-5.954287480562925E-004;-5.287254694849253E-003;
2.412333333333334E+009;1.786348670721054E-001;7.837394950911403E-004;-7.515824399888516E-004;-5.156888626515865E-003;
2.412500000000000E+009;1.787435710430145E-001;-1.959198387339711E-003;-1.190712675452232E-003;-5.238919518887997E-003;
2.412666666666667E+009;1.791059076786041E-001;-4.710905719548464E-003;-1.295019406825304E-003;-5.029872991144657E-003;
2.412833333333334E+009;1.795512884855270E-001;-7.322448771446943E-003;-1.536482595838606E-003;-5.054390989243984E-003;
2.413000000000000E+009;1.799644380807877E-001;-9.904465638101101E-003;-1.616729889065027E-003;-4.904141183942556E-003;
2.413166666666667E+009;1.805875450372696E-001;-1.238740701228380E-002;-1.795732066966593E-003;-4.781325813382864E-003;
2.413333333333334E+009;1.814424991607666E-001;-1.512113586068153E-002;-2.144035184755921E-003;-4.465650767087936E-003;
2.413500000000000E+009;1.821031272411346E-001;-1.763513125479221E-002;-2.250049030408263E-003;-4.350607749074698E-003;
2.413666666666667E+009;1.832609325647354E-001;-2.013804018497467E-002;-2.307758899405599E-003;-4.130938090384007E-003;
2.413833333333334E+009;1.842834800481796E-001;-2.251655422151089E-002;-2.539092907682061E-003;-4.091656766831875E-003;
2.414000000000000E+009;1.853521317243576E-001;-2.488393895328045E-002;-2.414630958810449E-003;-3.796180011704564E-003;
2.414166666666667E+009;1.864716708660126E-001;-2.699029259383678E-002;-2.557668369263411E-003;-3.813147312030196E-003;
2.414333333333334E+009;1.876935511827469E-001;-2.936703339219093E-002;-2.746111480519176E-003;-3.518268698826432E-003;
2.414500000000000E+009;1.891469955444336E-001;-3.116616792976856E-002;-2.686946187168360E-003;-3.392843995243311E-003;
2.414666666666667E+009;1.902680248022080E-001;-3.285493701696396E-002;-2.732582157477737E-003;-3.241826780140400E-003;
2.414833333333334E+009;1.914968788623810E-001;-3.473867848515511E-002;-2.670379821211100E-003;-3.192108590155840E-003;
2.415000000000000E+009;1.927972435951233E-001;-3.620019927620888E-002;-2.636132761836052E-003;-3.062816336750984E-003;
2.415166666666667E+009;1.942270547151566E-001;-3.763369098305702E-002;-2.702418947592378E-003;-2.877809572964907E-003;
2.415333333333334E+009;1.956059783697128E-001;-3.878672793507576E-002;-2.688806736841798E-003;-2.823251998052001E-003;
2.415500000000000E+009;1.969663351774216E-001;-3.966590389609337E-002;-2.662206999957562E-003;-2.700636629015207E-003;
2.415666666666667E+009;1.982053220272064E-001;-4.078130796551704E-002;-2.862688852474093E-003;-2.712027635425329E-003;
2.415833333333334E+009;1.993610858917236E-001;-4.158882051706314E-002;-2.758500399067998E-003;-2.593397162854672E-003;
2.416000000000000E+009;2.003354430198669E-001;-4.230351001024246E-002;-2.733382862061262E-003;-2.339574741199613E-003;
2.416166666666667E+009;2.013130038976669E-001;-4.293401911854744E-002;-2.667963504791260E-003;-2.217975445091724E-003;
2.416333333333334E+009;2.023028880357742E-001;-4.334297403693199E-002;-2.747569466009736E-003;-2.212769817560911E-003;
2.416500000000000E+009;2.032002806663513E-001;-4.371942579746246E-002;-2.709343796595931E-003;-1.984140370041132E-003;
2.416666666666667E+009;2.039204239845276E-001;-4.407633841037750E-002;-2.635499928146601E-003;-1.887929160147905E-003;
2.416833333333334E+009;2.042979449033737E-001;-4.412116110324860E-002;-2.579040592536330E-003;-1.934493775479496E-003;
2.417000000000000E+009;2.048749774694443E-001;-4.416641220450401E-002;-2.469996921718121E-003;-1.909218030050397E-003;
2.417166666666667E+009;2.049205452203751E-001;-4.393517225980759E-002;-2.346843946725130E-003;-1.826615422032774E-003;
2.417333333333334E+009;2.050200253725052E-001;-4.372873902320862E-002;-2.275119768455625E-003;-2.012351760640740E-003;
2.417500000000000E+009;2.050633579492569E-001;-4.349411651492119E-002;-2.250354038551450E-003;-2.009848365560174E-003;
2.417666666666667E+009;2.047566920518875E-001;-4.326064884662628E-002;-2.251649275422096E-003;-2.152551896870136E-003;
2.417833333333334E+009;2.048035562038422E-001;-4.287248849868774E-002;-2.266692463308573E-003;-2.207414945587516E-003;
2.418000000000000E+009;2.043961882591248E-001;-4.250912368297577E-002;-2.455027773976326E-003;-2.300795633345842E-003;
2.418166666666667E+009;2.037565708160400E-001;-4.221443086862564E-002;-2.472189953550696E-003;-2.335282042622566E-003;
2.418333333333334E+009;2.031676620244980E-001;-4.182532057166100E-002;-2.703702310100198E-003;-2.467185724526644E-003;
2.418500000000000E+009;2.022930979728699E-001;-4.150280356407166E-002;-2.812669612467289E-003;-2.402671147137880E-003;
2.418666666666667E+009;2.015547454357147E-001;-4.110001027584076E-002;-2.959672361612320E-003;-2.576954895630479E-003;
2.418833333333334E+009;2.004383653402329E-001;-4.115175455808640E-002;-3.209836781024933E-003;-2.400927245616913E-003;
2.419000000000000E+009;1.992331743240356E-001;-4.100924357771874E-002;-3.404180286452174E-003;-2.310667885467410E-003;
2.419166666666667E+009;1.979303359985352E-001;-4.093308001756668E-002;-3.500466234982014E-003;-2.263183938339353E-003;
2.419333333333334E+009;1.965054124593735E-001;-4.105222597718239E-002;-3.700232133269310E-003;-2.063035499304533E-003;
2.419500000000000E+009;1.950481832027435E-001;-4.125804454088211E-002;-3.712934441864491E-003;-1.985588809475303E-003;
2.419666666666667E+009;1.933200359344482E-001;-4.173977673053742E-002;-3.839797107502818E-003;-1.643067575059831E-003;
2.419833333333334E+009;1.916910558938980E-001;-4.219597205519676E-002;-3.999937791377306E-003;-1.527929678559303E-003;
2.420000000000000E+009;1.901327222585678E-001;-4.267026111483574E-002;-3.913047723472118E-003;-1.384978997521102E-003;
2.420166666666667E+009;1.882052272558212E-001;-4.333513230085373E-002;-3.832577262073755E-003;-1.199412858113647E-003;
2.420333333333334E+009;1.864746510982513E-001;-4.432090744376183E-002;-3.724361769855022E-003;-1.027333433739841E-003;
2.420500000000000E+009;1.845469325780869E-001;-4.534846916794777E-002;-3.789441660046578E-003;-1.038648886606097E-003;
2.420666666666667E+009;1.827064007520676E-001;-4.617214575409889E-002;-3.716863458976150E-003;-7.913554436527193E-004;
2.420833333333334E+009;1.808271110057831E-001;-4.759975522756577E-002;-3.580949502065778E-003;-7.469023112207651E-004;
2.421000000000000E+009;1.790827214717865E-001;-4.892604425549507E-002;-3.625649726018310E-003;-7.600162643939257E-004;
2.421166666666667E+009;1.774500906467438E-001;-5.042735487222672E-002;-3.614199114963412E-003;-7.846294320188463E-004;
2.421333333333334E+009;1.755547076463699E-001;-5.191700533032417E-002;-3.590842941775918E-003;-7.554224575869739E-004;
2.421500000000000E+009;1.739225983619690E-001;-5.376460403203964E-002;-3.531317459419370E-003;-8.261718321591616E-004;
2.421666666666667E+009;1.723854392766953E-001;-5.560591071844101E-002;-3.660243703052402E-003;-7.599407690577209E-004;
2.421833333333334E+009;1.707725822925568E-001;-5.761663615703583E-002;-3.604663768783212E-003;-6.973939016461372E-004;
2.422000000000000E+009;1.694146096706390E-001;-5.961678549647331E-002;-3.603323362767696E-003;-6.777733215130866E-004;
2.422166666666667E+009;1.682288944721222E-001;-6.168905273079872E-002;-3.633975051343441E-003;-7.862491183914244E-004;
2.422333333333334E+009;1.669413000345230E-001;-6.381966918706894E-002;-3.903945209458470E-003;-6.569286342710257E-004;
2.422500000000000E+009;1.659068167209625E-001;-6.601192802190781E-002;-3.855468705296516E-003;-6.806394667364657E-004;
2.422666666666667E+009;1.649113744497299E-001;-6.811133772134781E-002;-4.078406374901533E-003;-5.199235747568309E-004;
2.422833333333334E+009;1.641186475753784E-001;-7.035730779170990E-002;-4.114071838557720E-003;-5.438423831947148E-004;
2.423000000000000E+009;1.633816361427307E-001;-7.269163429737091E-002;-4.295361693948507E-003;-4.839540633838624E-004;
2.423166666666667E+009;1.628305912017822E-001;-7.489421963691711E-002;-4.370511043816805E-003;-4.625903675332665E-004;
2.423333333333334E+009;1.623190492391586E-001;-7.717566192150116E-002;-4.540678113698959E-003;-1.493130985181779E-004;
2.423500000000000E+009;1.621971130371094E-001;-7.929001003503799E-002;-4.679937846958637E-003;-1.132368997787125E-004;
2.423666666666667E+009;1.620539575815201E-001;-8.137882500886917E-002;-4.703920800238848E-003;9.364943980472162E-005;
2.423833333333334E+009;1.618022322654724E-001;-8.346282690763474E-002;-4.728497937321663E-003;2.969236811622977E-004;
2.424000000000000E+009;1.617659479379654E-001;-8.550075441598892E-002;-4.855898208916187E-003;5.891844048164785E-004;
2.424166666666667E+009;1.617463380098343E-001;-8.749441802501679E-002;-4.886801820248365E-003;6.229712744243443E-004;
2.424333333333334E+009;1.621000468730927E-001;-8.934493362903595E-002;-4.897421225905418E-003;9.376113885082305E-004;
2.424500000000000E+009;1.623066067695618E-001;-9.150394052267075E-002;-4.948064219206572E-003;1.211253576911986E-003;
2.424666666666667E+009;1.627528667449951E-001;-9.309339523315430E-002;-4.989428445696831E-003;1.466084271669388E-003;
2.424833333333334E+009;1.634359806776047E-001;-9.475757926702499E-002;-4.832413047552109E-003;1.511600683443248E-003;
2.425000000000000E+009;1.638091504573822E-001;-9.619540721178055E-002;-4.870830569416285E-003;1.829179003834724E-003;
2.425166666666667E+009;1.643568724393845E-001;-9.755405038595200E-002;-4.597318824380636E-003;2.000537468120456E-003;
2.425333333333334E+009;1.650481373071671E-001;-9.887236356735230E-002;-4.676620475947857E-003;2.296060556545854E-003;
2.425500000000000E+009;1.654498130083084E-001;-1.000550687313080E-001;-4.604483954608440E-003;2.358127851039171E-003;
2.425666666666667E+009;1.660842001438141E-001;-1.009181886911392E-001;-4.452548455446959E-003;2.529185963794589E-003;
2.425833333333334E+009;1.667450517416000E-001;-1.020435988903046E-001;-4.563876427710056E-003;2.723886631429195E-003;
2.426000000000000E+009;1.673574596643448E-001;-1.025884374976158E-001;-4.372347611933947E-003;2.888543764129281E-003;
2.426166666666667E+009;1.679891645908356E-001;-1.034318506717682E-001;-4.204798024147749E-003;2.951999660581350E-003;
2.426333333333334E+009;1.684034913778305E-001;-1.041057258844376E-001;-4.140269476920366E-003;3.070262726396322E-003;
2.426500000000000E+009;1.690931916236877E-001;-1.043844744563103E-001;-4.032817203551531E-003;3.200847422704101E-003;
2.426666666666667E+009;1.697067916393280E-001;-1.048831418156624E-001;-3.950281534343958E-003;3.513791132718325E-003;
2.426833333333334E+009;1.703253835439682E-001;-1.051405742764473E-001;-3.970554098486900E-003;3.656242974102497E-003;
2.427000000000000E+009;1.707283556461334E-001;-1.054325997829437E-001;-3.846596460789442E-003;3.697722684592009E-003;
2.427166666666667E+009;1.709770113229752E-001;-1.055267751216888E-001;-3.669872181490064E-003;3.789918730035424E-003;
2.427333333333334E+009;1.713046282529831E-001;-1.057152077555656E-001;-3.496364224702120E-003;3.943448420614004E-003;
2.427500000000000E+009;1.713409423828125E-001;-1.058783233165741E-001;-3.375624772161245E-003;4.068717826157808E-003;
2.427666666666667E+009;1.713687181472778E-001;-1.058252677321434E-001;-3.447587834671140E-003;4.195647314190865E-003;
