# Version 1.00
#
freq[Hz];re:Trc1_S11;im:Trc1_S11;re:Trc2_S21;im:Trc2_S21;
2.400000000000000E+009;1.571784466505051E-001;1.124274283647537E-001;6.274929735809565E-003;1.589564257301390E-003;
2.400166666666667E+009;1.565415561199188E-001;1.102330908179283E-001;6.375487893819809E-003;1.307059312239289E-003;
2.400333333333334E+009;1.564261317253113E-001;1.083123758435249E-001;6.257784087210894E-003;7.957679335959256E-004;
2.400500000000000E+009;1.558052748441696E-001;1.056632697582245E-001;6.371530238538981E-003;3.938419104088098E-004;
2.400666666666667E+009;1.555997580289841E-001;1.032819226384163E-001;6.153092253953219E-003;1.638389512663707E-004;
2.400833333333334E+009;1.553342640399933E-001;1.004306003451347E-001;5.970377475023270E-003;-2.759634226094931E-004;
2.401000000000000E+009;1.552547216415405E-001;9.765830636024475E-002;5.589548498392105E-003;-8.218850707635284E-004;
2.401166666666667E+009;1.549660712480545E-001;9.485516697168350E-002;5.402503069490194E-003;-7.296290714293718E-004;
2.401333333333334E+009;1.548739522695541E-001;9.181477129459381E-002;5.239449441432953E-003;-9.445855394005776E-004;
2.401500000000000E+009;1.550701111555100E-001;8.896461129188538E-002;4.846701864153147E-003;-1.064764684997499E-003;
2.401666666666667E+009;1.548925340175629E-001;8.581663668155670E-002;4.712523892521858E-003;-1.231361879035831E-003;
2.401833333333334E+009;1.553090959787369E-001;8.296248316764832E-002;4.361236002296209E-003;-1.211024005897343E-003;
2.402000000000000E+009;1.556860655546188E-001;7.973985373973846E-002;4.121398087590933E-003;-1.320939161814749E-003;
2.402166666666667E+009;1.564685255289078E-001;7.694686204195023E-002;4.156644456088543E-003;-1.189062604680657E-003;
2.402333333333334E+009;1.570461690425873E-001;7.400605082511902E-002;3.947514574974775E-003;-1.292500412091613E-003;
2.402500000000000E+009;1.579700112342835E-001;7.137001305818558E-002;3.825120395049453E-003;-1.310566440224648E-003;
2.402666666666667E+009;1.588667631149292E-001;6.851283460855484E-002;3.615902038291097E-003;-1.200347905978560E-003;
2.402833333333334E+009;1.601876020431519E-001;6.575582176446915E-002;3.570085391402245E-003;-1.115391612984240E-003;
2.403000000000000E+009;1.616248786449432E-001;6.306003779172897E-002;3.577012103050947E-003;-1.043088850565255E-003;
2.403166666666667E+009;1.630204916000366E-001;6.065713614225388E-002;3.403235226869583E-003;-9.015715331770480E-004;
2.403333333333334E+009;1.645507663488388E-001;5.786965042352676E-002;3.462263382971287E-003;-1.104097929783166E-003;
2.403500000000000E+009;1.661534756422043E-001;5.533644929528236E-002;3.352062543854117E-003;-9.224018431268632E-004;
2.403666666666667E+009;1.679843068122864E-001;5.325140058994293E-002;3.235939424484968E-003;-9.019376011565328E-004;
2.403833333333334E+009;1.697137355804443E-001;5.087487027049065E-002;3.421821165829897E-003;-9.342702105641365E-004;
2.404000000000000E+009;1.713174879550934E-001;4.869745671749115E-002;3.475706325843930E-003;-9.809824405238032E-004;
2.404166666666667E+009;1.731436997652054E-001;4.692400619387627E-002;3.410490928217769E-003;-9.465478360652924E-004;
2.404333333333334E+009;1.749696582555771E-001;4.502359032630920E-002;3.479293314740062E-003;-9.741302928887308E-004;
2.404500000000000E+009;1.767534017562866E-001;4.323108121752739E-002;3.541911719366908E-003;-1.097369939088821E-003;
2.404666666666667E+009;1.785077005624771E-001;4.174321144819260E-002;3.672006540000439E-003;-1.185568398796022E-003;
2.404833333333334E+009;1.804770082235336E-001;4.029615595936775E-002;3.670484758913517E-003;-1.341452589258552E-003;
2.405000000000000E+009;1.820330768823624E-001;3.935804590582848E-002;3.508921712636948E-003;-1.310191466473043E-003;
2.405166666666667E+009;1.838463693857193E-001;3.834333643317223E-002;3.684813855215907E-003;-1.322720781899989E-003;
2.405333333333334E+009;1.855210363864899E-001;3.778133541345596E-002;3.664939664304256E-003;-1.632374245673418E-003;
2.405500000000000E+009;1.873407661914825E-001;3.700723126530647E-002;3.628370352089405E-003;-1.789083005860448E-003;
2.405666666666667E+009;1.888204663991928E-001;3.664448857307434E-002;3.588105319067836E-003;-1.768098678439856E-003;
2.405833333333334E+009;1.905293166637421E-001;3.619584441184998E-002;3.616781439632177E-003;-1.895672758109868E-003;
2.406000000000000E+009;1.917816698551178E-001;3.594690933823586E-002;3.443133784458041E-003;-2.077736426144838E-003;
2.406166666666667E+009;1.931244134902954E-001;3.575214371085167E-002;3.502522362396121E-003;-2.071160590276122E-003;
2.406333333333334E+009;1.944256424903870E-001;3.574333339929581E-002;3.451085183769465E-003;-2.024077344685793E-003;
2.406500000000000E+009;1.956777274608612E-001;3.582467138767242E-002;3.462768625468016E-003;-2.107845619320869E-003;
2.406666666666667E+009;1.965569108724594E-001;3.600187972187996E-002;3.554136492311955E-003;-2.093972871080041E-003;
2.406833333333334E+009;1.974706202745438E-001;3.612418100237846E-002;3.437164938077331E-003;-2.317098900675774E-003;
2.407000000000000E+009;1.981113255023956E-001;3.646295890212059E-002;3.414451843127608E-003;-2.280938904732466E-003;
2.407166666666667E+009;1.987885832786560E-001;3.645881265401840E-002;3.374228952452540E-003;-2.563230460509658E-003;
2.407333333333334E+009;1.990069448947907E-001;3.697749227285385E-002;3.568868152797222E-003;-2.739215968176723E-003;
2.407500000000000E+009;1.993567794561386E-001;3.744144365191460E-002;3.601423231884837E-003;-2.658036071807146E-003;
2.407666666666667E+009;1.997057795524597E-001;3.759780526161194E-002;3.524113446474075E-003;-2.712619025260210E-003;
2.407833333333334E+009;1.994452774524689E-001;3.777785599231720E-002;3.525190986692905E-003;-2.867893548682332E-003;
2.408000000000000E+009;1.997452378273010E-001;3.803117945790291E-002;3.556340932846069E-003;-2.945826156064868E-003;
2.408166666666667E+009;1.992922723293304E-001;3.817244991660118E-002;3.643615404143930E-003;-3.210604656487703E-003;
2.408333333333334E+009;1.990528851747513E-001;3.810616210103035E-002;3.465846646577120E-003;-3.441017586737871E-003;
2.408500000000000E+009;1.985201686620712E-001;3.808852657675743E-002;3.326203208416700E-003;-3.615064546465874E-003;
2.408666666666667E+009;1.978717446327210E-001;3.797327354550362E-002;3.275931579992175E-003;-3.780577797442675E-003;
2.408833333333334E+009;1.973026096820831E-001;3.762847185134888E-002;3.341707168146968E-003;-3.887835890054703E-003;
2.409000000000000E+009;1.963689625263214E-001;3.708046674728394E-002;3.184298053383827E-003;-4.117250908166170E-003;
2.409166666666667E+009;1.954910904169083E-001;3.662870451807976E-002;3.012571716681123E-003;-4.321946762502194E-003;
2.409333333333334E+009;1.946097910404205E-001;3.600288927555084E-002;2.798310481011868E-003;-4.477883689105511E-003;
2.409500000000000E+009;1.933657974004746E-001;3.508752956986427E-002;2.623364794999361E-003;-4.619881976395845E-003;
2.409666666666667E+009;1.922214925289154E-001;3.400768339633942E-002;2.523701405152679E-003;-4.832624923437834E-003;
2.409833333333334E+009;1.911256015300751E-001;3.296345099806786E-002;2.464861609041691E-003;-4.924857523292303E-003;
2.410000000000000E+009;1.899685561656952E-001;3.163871541619301E-002;2.200718969106674E-003;-5.069998092949390E-003;
2.410166666666667E+009;1.887074708938599E-001;3.010538034141064E-002;1.983970636501908E-003;-5.140394903719425E-003;
2.410333333333334E+009;1.874840408563614E-001;2.833538502454758E-002;1.840667566284537E-003;-5.400571506470442E-003;
2.410500000000000E+009;1.862507760524750E-001;2.671501412987709E-002;1.547719584777951E-003;-5.390645470470190E-003;
2.410666666666667E+009;1.851989328861237E-001;2.468406967818737E-002;1.354470383375883E-003;-5.376128945499659E-003;
2.410833333333334E+009;1.840718090534210E-001;2.270212769508362E-002;1.119979657232761E-003;-5.418728571385145E-003;
2.411000000000000E+009;1.831149309873581E-001;2.060707099735737E-002;9.021421428769827E-004;-5.584579426795244E-003;
2.411166666666667E+009;1.820001602172852E-001;1.823281683027744E-002;6.302854744717479E-004;-5.557051859796047E-003;
2.411333333333334E+009;1.811472922563553E-001;1.591802760958672E-002;3.740637039300054E-004;-5.558500997722149E-003;
2.411500000000000E+009;1.805864274501801E-001;1.353685092180967E-002;2.676326839718968E-004;-5.492519121617079E-003;
2.411666666666667E+009;1.798705756664276E-001;1.091926544904709E-002;-1.221793791046366E-004;-5.560291465371847E-003;
2.411833333333334E+009;1.792929619550705E-001;8.403901010751724E-003;-4.143978585489094E-004;-5.423292983323336E-003;
2.412000000000000E+009;1.790186613798142E-001;5.819227546453476E-003;-5.688372766599059E-004;-5.286074709147215E-003;
2.412166666666667E+009;1.787824779748917E-001;3.532035043463111E-003;-8.109654881991446E-004;-5.323916207998991E-003;
2.412333333333334E+009;1.785033494234085E-001;6.215238827280700E-004;-9.939715964719653E-004;-5.408082157373428E-003;
2.412500000000000E+009;1.786581724882126E-001;-1.907649566419423E-003;-1.032334752380848E-003;-5.017830524593592E-003;
2.412666666666667E+009;1.789952218532562E-001;-4.619598854333162E-003;-1.260949997231364E-003;-4.980721045285463E-003;
2.412833333333334E+009;1.795496493577957E-001;-7.321102544665337E-003;-1.439949031919241E-003;-4.957143217325211E-003;
2.413000000000000E+009;1.799767315387726E-001;-1.000695303082466E-002;-1.723096938803792E-003;-4.750841762870550E-003;
2.413166666666667E+009;1.806583404541016E-001;-1.241191197186709E-002;-1.870935433544219E-003;-4.682383965700865E-003;
2.413333333333334E+009;1.813209056854248E-001;-1.500802300870419E-002;-1.987168565392494E-003;-4.515426233410835E-003;
2.413500000000000E+009;1.822566390037537E-001;-1.770500838756561E-002;-2.331088995561004E-003;-4.393100738525391E-003;
2.413666666666667E+009;1.832119524478912E-001;-2.019402757287026E-002;-2.283157082274556E-003;-4.201750271022320E-003;
2.413833333333334E+009;1.843520551919937E-001;-2.256057970225811E-002;-2.281410153955221E-003;-3.958332352340221E-003;
2.414000000000000E+009;1.852380633354187E-001;-2.486266382038593E-002;-2.464664867147803E-003;-3.797844285145402E-003;
2.414166666666667E+009;1.865538507699966E-001;-2.709193527698517E-002;-2.527066273614764E-003;-3.789456095546484E-003;
2.414333333333334E+009;1.876676827669144E-001;-2.952560968697071E-002;-2.677320502698422E-003;-3.463674802333117E-003;
2.414500000000000E+009;1.889988034963608E-001;-3.108893334865570E-002;-2.421162324026227E-003;-3.354134270921350E-003;
2.414666666666667E+009;1.902881115674973E-001;-3.294299170374870E-002;-2.489566337317228E-003;-3.358140354976058E-003;
2.414833333333334E+009;1.915987432003021E-001;-3.461353853344917E-002;-2.553616184741259E-003;-3.116420935839415E-003;
2.415000000000000E+009;1.927099227905273E-001;-3.634714707732201E-002;-2.599473576992750E-003;-2.964678453281522E-003;
2.415166666666667E+009;1.943387985229492E-001;-3.766268864274025E-002;-2.669906942173839E-003;-3.030854277312756E-003;
2.415333333333334E+009;1.956644505262375E-001;-3.871151059865952E-002;-2.700515557080507E-003;-2.782029798254371E-003;
2.415500000000000E+009;1.969940513372421E-001;-3.972880542278290E-002;-2.630237257108092E-003;-2.807175274938345E-003;
2.415666666666667E+009;1.983226388692856E-001;-4.085689410567284E-002;-2.869548043236136E-003;-2.621292136609554E-003;
2.415833333333334E+009;1.993934810161591E-001;-4.158262163400650E-002;-2.806056756526232E-003;-2.490751445293427E-003;
2.416000000000000E+009;2.004221826791763E-001;-4.239347577095032E-002;-2.806390635669231E-003;-2.511973492801189E-003;
2.416166666666667E+009;2.016309350728989E-001;-4.294606298208237E-002;-2.767482306808233E-003;-2.363228704780340E-003;
2.416333333333334E+009;2.024342715740204E-001;-4.337652772665024E-002;-2.835406223312020E-003;-2.202898729592562E-003;
2.416500000000000E+009;2.032257914543152E-001;-4.374445229768753E-002;-2.759211696684361E-003;-2.006502123549581E-003;
2.416666666666667E+009;2.037957608699799E-001;-4.414633661508560E-002;-2.719795797020197E-003;-1.805033884011209E-003;
2.416833333333334E+009;2.043205350637436E-001;-4.404401034116745E-002;-2.608332782983780E-003;-1.921044779010117E-003;
2.417000000000000E+009;2.048378735780716E-001;-4.412530735135078E-002;-2.507184166461229E-003;-1.914451480843127E-003;
2.417166666666667E+009;2.050388753414154E-001;-4.403689503669739E-002;-2.472936408594251E-003;-1.807392574846745E-003;
2.417333333333334E+009;2.050829678773880E-001;-4.370517283678055E-002;-2.421244513243437E-003;-1.967384712770581E-003;
2.417500000000000E+009;2.050485312938690E-001;-4.374293237924576E-002;-2.262538997456431E-003;-2.016733633354306E-003;
2.417666666666667E+009;2.049008309841156E-001;-4.331202805042267E-002;-2.352194860577583E-003;-2.235861029475927E-003;
2.417833333333334E+009;2.047338187694550E-001;-4.290812835097313E-002;-2.246218966320157E-003;-2.283073961734772E-003;
2.418000000000000E+009;2.042920291423798E-001;-4.244266450405121E-002;-2.396834082901478E-003;-2.344687236472964E-003;
2.418166666666667E+009;2.037837505340576E-001;-4.219499602913857E-002;-2.600743202492595E-003;-2.308968221768737E-003;
2.418333333333334E+009;2.031202167272568E-001;-4.185162112116814E-002;-2.601722255349159E-003;-2.438511466607451E-003;
2.418500000000000E+009;2.022002190351486E-001;-4.151040315628052E-002;-2.749217441305518E-003;-2.517595887184143E-003;
2.418666666666667E+009;2.015445828437805E-001;-4.117348790168762E-002;-3.005907405167818E-003;-2.406648593023419E-003;
2.418833333333334E+009;2.003897130489349E-001;-4.113515093922615E-002;-3.316385904327035E-003;-2.353707095608115E-003;
2.419000000000000E+009;1.991921961307526E-001;-4.098047688603401E-002;-3.507167333737016E-003;-2.394184935837984E-003;
2.419166666666667E+009;1.978347003459930E-001;-4.097928851842880E-002;-3.521315287798643E-003;-2.225810661911964E-003;
2.419333333333334E+009;1.966283768415451E-001;-4.115019366145134E-002;-3.726423485204577E-003;-2.085189800709486E-003;
2.419500000000000E+009;1.950171589851379E-001;-4.132555052638054E-002;-3.818846540525556E-003;-1.882349373772740E-003;
2.419666666666667E+009;1.933864355087280E-001;-4.182041808962822E-002;-3.850123146548867E-003;-1.647103694267571E-003;
2.419833333333334E+009;1.916377395391464E-001;-4.230869933962822E-002;-3.887427505105734E-003;-1.516095595434308E-003;
2.420000000000000E+009;1.900733411312103E-001;-4.268320277333260E-002;-3.886396065354347E-003;-1.366740674711764E-003;
2.420166666666667E+009;1.882825940847397E-001;-4.338128864765167E-002;-3.818931989371777E-003;-1.136189093813300E-003;
2.420333333333334E+009;1.863809823989868E-001;-4.420293867588043E-002;-3.675600746646524E-003;-1.048387610353530E-003;
2.420500000000000E+009;1.845735907554627E-001;-4.542863368988037E-002;-3.748850198462606E-003;-9.666002588346601E-004;
2.420666666666667E+009;1.826474815607071E-001;-4.616448655724526E-002;-3.644781420007348E-003;-8.135830285027623E-004;
2.420833333333334E+009;1.808674335479736E-001;-4.766239598393440E-002;-3.713727463036776E-003;-8.515426889061928E-004;
2.421000000000000E+009;1.791193783283234E-001;-4.905745014548302E-002;-3.552024951204658E-003;-7.618610979989171E-004;
2.421166666666667E+009;1.775223761796951E-001;-5.047823116183281E-002;-3.602749435231090E-003;-6.989100947976112E-004;
2.421333333333334E+009;1.755015105009079E-001;-5.191734060645104E-002;-3.504878608509898E-003;-7.650760817341507E-004;
2.421500000000000E+009;1.738345772027969E-001;-5.386943370103836E-002;-3.596806200221181E-003;-6.920709274709225E-004;
2.421666666666667E+009;1.723088622093201E-001;-5.574338883161545E-002;-3.593727480620146E-003;-7.429695106111467E-004;
2.421833333333334E+009;1.707970649003983E-001;-5.754250660538673E-002;-3.571302862837911E-003;-6.928891525603831E-004;
2.422000000000000E+009;1.694557666778565E-001;-5.963407456874847E-002;-3.764115972444415E-003;-8.290317491628230E-004;
2.422166666666667E+009;1.682553142309189E-001;-6.175472959876061E-002;-3.781279316172004E-003;-6.608747644349933E-004;
2.422333333333334E+009;1.668527126312256E-001;-6.396316736936569E-002;-3.880623960867524E-003;-7.099377107806504E-004;
2.422500000000000E+009;1.658225953578949E-001;-6.582004576921463E-002;-3.940388094633818E-003;-6.468915962614119E-004;
2.422666666666667E+009;1.647913902997971E-001;-6.795910745859146E-002;-3.959151916205883E-003;-6.660942453891039E-004;
2.422833333333334E+009;1.641677469015122E-001;-7.046580314636231E-002;-4.131683614104986E-003;-4.735502880066633E-004;
2.423000000000000E+009;1.633179783821106E-001;-7.269492745399475E-002;-4.139102064073086E-003;-4.172126355115324E-004;
2.423166666666667E+009;1.628108471632004E-001;-7.490140199661255E-002;-4.333388060331345E-003;-3.900053852703422E-004;
2.423333333333334E+009;1.621828228235245E-001;-7.717568427324295E-002;-4.529719706624746E-003;-1.908652484416962E-004;
2.423500000000000E+009;1.619889140129089E-001;-7.917187362909317E-002;-4.462904762476683E-003;-1.659280242165551E-004;
2.423666666666667E+009;1.619266569614410E-001;-8.142136037349701E-002;-4.512572195380926E-003;5.098453402752057E-005;
2.423833333333334E+009;1.617633104324341E-001;-8.342973887920380E-002;-4.777655936777592E-003;1.285553298657760E-004;
2.424000000000000E+009;1.618181020021439E-001;-8.569869399070740E-002;-4.802469629794359E-003;3.210202849004418E-004;
2.424166666666667E+009;1.617916822433472E-001;-8.751839399337769E-002;-4.871192388236523E-003;7.246996392495930E-004;
2.424333333333334E+009;1.622046232223511E-001;-8.928929269313812E-002;-5.025738850235939E-003;8.278646273538470E-004;
2.424500000000000E+009;1.623850464820862E-001;-9.129107743501663E-002;-5.011935718357563E-003;1.185337081551552E-003;
2.424666666666667E+009;1.627807766199112E-001;-9.302069991827011E-002;-5.009387154132128E-003;1.197966863401234E-003;
2.424833333333334E+009;1.633615344762802E-001;-9.472577273845673E-002;-4.799786023795605E-003;1.600989024154842E-003;
2.425000000000000E+009;1.638517379760742E-001;-9.619089215993881E-002;-4.705501254647970E-003;1.632343279197812E-003;
2.425166666666667E+009;1.642504036426544E-001;-9.760063886642456E-002;-4.771861713379622E-003;1.977266743779182E-003;
2.425333333333334E+009;1.648858487606049E-001;-9.891983866691589E-002;-4.675709176808596E-003;2.075714059174061E-003;
2.425500000000000E+009;1.653797328472138E-001;-1.000504121184349E-001;-4.669082351028919E-003;2.413033740594983E-003;
2.425666666666667E+009;1.660804301500320E-001;-1.009550094604492E-001;-4.547626245766878E-003;2.461660886183381E-003;
2.425833333333334E+009;1.666699200868607E-001;-1.020970866084099E-001;-4.422208759933710E-003;2.701428486034274E-003;
2.426000000000000E+009;1.674079895019531E-001;-1.026437580585480E-001;-4.263549577444792E-003;2.743616001680493E-003;
2.426166666666667E+009;1.679822653532028E-001;-1.032807976007462E-001;-4.189841914921999E-003;2.969980705529451E-003;
2.426333333333334E+009;1.683332175016403E-001;-1.040788367390633E-001;-4.204554017633200E-003;3.165633883327246E-003;
2.426500000000000E+009;1.691167503595352E-001;-1.043710783123970E-001;-3.985587973147631E-003;3.315354231745005E-003;
2.426666666666667E+009;1.696749478578568E-001;-1.048621013760567E-001;-4.010592587292194E-003;3.431231714785099E-003;
2.426833333333334E+009;1.702412068843842E-001;-1.051649227738380E-001;-3.798176534473896E-003;3.557383548468351E-003;
2.427000000000000E+009;1.706756800413132E-001;-1.054033190011978E-001;-3.835913725197315E-003;3.547550644725561E-003;
2.427166666666667E+009;1.710629612207413E-001;-1.054415404796600E-001;-3.571395063772798E-003;3.813664661720395E-003;
2.427333333333334E+009;1.712049543857575E-001;-1.057343408465385E-001;-3.519779071211815E-003;3.916647285223007E-003;
2.427500000000000E+009;1.712409257888794E-001;-1.058696582913399E-001;-3.476592712104321E-003;3.973018378019333E-003;
2.427666666666667E+009;1.713250130414963E-001;-1.057847887277603E-001;-3.362429095432162E-003;4.065662156790495E-003;
