# Version 1.00
#
freq[Hz];re:Trc1_S11;im:Trc1_S11;re:Trc2_S21;im:Trc2_S21;
2.400000000000000E+009;1.630872488021851E-001;5.163873732089996E-002;5.181347019970417E-003;4.301308188587427E-003;
2.400166666666667E+009;1.630363017320633E-001;5.010151863098145E-002;5.175405647605658E-003;4.209216684103012E-003;
2.400333333333334E+009;1.630919128656387E-001;4.816111922264099E-002;5.389934405684471E-003;4.077865276485682E-003;
2.400500000000000E+009;1.631476879119873E-001;4.652848467230797E-002;5.529246293008328E-003;3.929650876671076E-003;
2.400666666666667E+009;1.628523617982864E-001;4.441269114613533E-002;5.756950471550226E-003;3.988361917436123E-003;
2.400833333333334E+009;1.630025804042816E-001;4.273849353194237E-002;5.961060989648104E-003;3.879939671605825E-003;
2.401000000000000E+009;1.631347388029099E-001;4.063712805509567E-002;5.999076180160046E-003;3.620781702920795E-003;
2.401166666666667E+009;1.631075292825699E-001;3.869734331965447E-002;6.376252975314856E-003;3.433473641052842E-003;
2.401333333333334E+009;1.632081121206284E-001;3.668789193034172E-002;6.484845653176308E-003;3.208605339750648E-003;
2.401500000000000E+009;1.634075641632080E-001;3.494815528392792E-002;6.515504792332649E-003;3.007943509146571E-003;
2.401666666666667E+009;1.637436896562576E-001;3.287139534950256E-002;6.707557942718267E-003;2.769753336906433E-003;
2.401833333333334E+009;1.638743579387665E-001;3.089915588498116E-002;6.994588300585747E-003;2.812110818922520E-003;
2.402000000000000E+009;1.641094237565994E-001;2.901942469179630E-002;7.113167550414801E-003;2.621209947392345E-003;
2.402166666666667E+009;1.645592004060745E-001;2.704001776874065E-002;7.190987933427095E-003;2.173910615965724E-003;
2.402333333333334E+009;1.647718548774719E-001;2.529086358845234E-002;7.472262252122164E-003;1.933268038555980E-003;
2.402500000000000E+009;1.656067520380020E-001;2.365677058696747E-002;7.481419481337071E-003;1.590337837114930E-003;
2.402666666666667E+009;1.659563779830933E-001;2.196840569376946E-002;7.617771159857512E-003;1.477228011935949E-003;
2.402833333333334E+009;1.665399521589279E-001;2.001220546662808E-002;7.844503037631512E-003;9.079741430468857E-004;
2.403000000000000E+009;1.672024428844452E-001;1.859034225344658E-002;7.972173392772675E-003;5.214391276240349E-004;
2.403166666666667E+009;1.677991598844528E-001;1.709531061351299E-002;7.926229387521744E-003;3.567601670511067E-004;
2.403333333333334E+009;1.685190349817276E-001;1.566538400948048E-002;8.259407244622707E-003;-8.600504952482879E-005;
2.403500000000000E+009;1.691522449254990E-001;1.411153841763735E-002;8.151669055223465E-003;-4.118625947739929E-004;
2.403666666666667E+009;1.698691248893738E-001;1.277072820812464E-002;8.108394220471382E-003;-7.928335107862949E-004;
2.403833333333334E+009;1.707446724176407E-001;1.132700406014919E-002;8.016322739422321E-003;-1.104652765206993E-003;
2.404000000000000E+009;1.713525205850601E-001;1.030888874083757E-002;8.149672299623489E-003;-1.696631428785622E-003;
2.404166666666667E+009;1.721542328596115E-001;9.082527831196785E-003;8.044296875596046E-003;-2.077979966998100E-003;
2.404333333333334E+009;1.729062944650650E-001;8.100742474198341E-003;7.880542427301407E-003;-2.434310968965292E-003;
2.404500000000000E+009;1.735532134771347E-001;6.896257866173983E-003;7.776193786412478E-003;-2.767088357359171E-003;
2.404666666666667E+009;1.744647026062012E-001;6.137623451650143E-003;7.635548245161772E-003;-3.314299974590540E-003;
2.404833333333334E+009;1.750616431236267E-001;5.270284134894610E-003;7.425736635923386E-003;-3.473835298791528E-003;
2.405000000000000E+009;1.758359372615814E-001;4.350068978965282E-003;7.421593647450209E-003;-3.985196352005005E-003;
2.405166666666667E+009;1.765103936195374E-001;3.839894430711865E-003;6.988428533077240E-003;-4.234146326780319E-003;
2.405333333333334E+009;1.770811676979065E-001;3.114172490313649E-003;6.802812218666077E-003;-4.538974259048700E-003;
2.405500000000000E+009;1.777390688657761E-001;2.641115337610245E-003;6.288982462137938E-003;-4.807221237570047E-003;
2.405666666666667E+009;1.782908588647842E-001;2.209058962762356E-003;6.294969003647566E-003;-4.898763261735439E-003;
2.405833333333334E+009;1.785165965557098E-001;1.784347114153206E-003;5.979500710964203E-003;-5.119114648550749E-003;
2.406000000000000E+009;1.791248023509979E-001;1.220683916471899E-003;5.520842503756285E-003;-5.503557622432709E-003;
2.406166666666667E+009;1.793699711561203E-001;9.220397332683206E-004;5.352482199668884E-003;-5.566277541220188E-003;
2.406333333333334E+009;1.798752099275589E-001;4.603336274158210E-004;5.004729144275188E-003;-5.688030272722244E-003;
2.406500000000000E+009;1.799796819686890E-001;1.462272193748504E-004;4.809953738003969E-003;-5.867236759513617E-003;
2.406666666666667E+009;1.800512075424194E-001;-4.246036405675113E-005;4.527234006673098E-003;-5.999156273901463E-003;
2.406833333333334E+009;1.802159249782562E-001;-5.153245292603970E-004;4.226645920425654E-003;-5.950625520199537E-003;
2.407000000000000E+009;1.803148239850998E-001;-9.401044226251543E-004;3.920186776667833E-003;-6.156346760690212E-003;
2.407166666666667E+009;1.804576516151428E-001;-1.178702106699348E-003;3.536262782290578E-003;-6.196168716996908E-003;
2.407333333333334E+009;1.801840364933014E-001;-1.701057888567448E-003;3.424225142225623E-003;-6.256435997784138E-003;
2.407500000000000E+009;1.799048036336899E-001;-2.028726274147630E-003;3.169486066326499E-003;-6.357701960951090E-003;
2.407666666666667E+009;1.798251271247864E-001;-2.383558778092265E-003;2.984064863994718E-003;-6.513752043247223E-003;
2.407833333333334E+009;1.793888062238693E-001;-3.056301968172193E-003;2.623345237225294E-003;-6.306037772446871E-003;
2.408000000000000E+009;1.790972799062729E-001;-3.676858497783542E-003;2.424461999908090E-003;-6.438200827687979E-003;
2.408166666666667E+009;1.786184459924698E-001;-4.129196051508188E-003;2.006764523684979E-003;-6.434471346437931E-003;
2.408333333333334E+009;1.783288270235062E-001;-4.956361372023821E-003;1.812218455597758E-003;-6.434625945985317E-003;
2.408500000000000E+009;1.777352094650269E-001;-5.774514749646187E-003;1.659228815697134E-003;-6.562867201864719E-003;
2.408666666666667E+009;1.772250533103943E-001;-6.556488107889891E-003;1.285313395783305E-003;-6.459121592342854E-003;
2.408833333333334E+009;1.763086915016174E-001;-7.400559261441231E-003;1.109303906559944E-003;-6.359443534165621E-003;
2.409000000000000E+009;1.756041198968887E-001;-8.429672569036484E-003;8.765925886109471E-004;-6.298870313912630E-003;
2.409166666666667E+009;1.750784069299698E-001;-9.533547796308994E-003;6.085619097575545E-004;-6.344637833535671E-003;
2.409333333333334E+009;1.744250208139420E-001;-1.049435045570135E-002;4.077944904565811E-004;-6.292009726166725E-003;
2.409500000000000E+009;1.736040860414505E-001;-1.196522545069456E-002;6.979287718422711E-005;-6.231794599443674E-003;
2.409666666666667E+009;1.728732734918594E-001;-1.328525878489018E-002;-2.924894215539098E-005;-6.185704376548529E-003;
2.409833333333334E+009;1.721290498971939E-001;-1.433752197772265E-002;-2.696423325687647E-004;-5.927709396928549E-003;
2.410000000000000E+009;1.715296506881714E-001;-1.568983681499958E-002;-3.452953533269465E-004;-6.032390519976616E-003;
2.410166666666667E+009;1.708078384399414E-001;-1.731514558196068E-002;-4.722066223621368E-004;-5.838124547153711E-003;
2.410333333333334E+009;1.700815558433533E-001;-1.899300701916218E-002;-6.542740738950670E-004;-5.813243798911572E-003;
2.410500000000000E+009;1.695367097854614E-001;-2.055031061172485E-002;-5.724476068280637E-004;-5.762035027146339E-003;
2.410666666666667E+009;1.689162701368332E-001;-2.234880067408085E-002;-8.149892091751099E-004;-5.625277757644653E-003;
2.410833333333334E+009;1.685016006231308E-001;-2.396732568740845E-002;-1.068592653609812E-003;-5.619341041892767E-003;
2.411000000000000E+009;1.680497676134110E-001;-2.581612206995487E-002;-1.217756653204560E-003;-5.474843550473452E-003;
2.411166666666667E+009;1.675757169723511E-001;-2.773853391408920E-002;-1.353367697447538E-003;-5.418626125901938E-003;
2.411333333333334E+009;1.672523170709610E-001;-2.935886755585671E-002;-1.397183630615473E-003;-5.337298847734928E-003;
2.411500000000000E+009;1.668598055839539E-001;-3.144864737987518E-002;-1.359377871267498E-003;-5.368601996451616E-003;
2.411666666666667E+009;1.667997688055039E-001;-3.346065059304237E-002;-1.481014420278370E-003;-5.230501759797335E-003;
2.411833333333334E+009;1.665201634168625E-001;-3.510753437876701E-002;-1.721828477457166E-003;-5.240160506218672E-003;
2.412000000000000E+009;1.666005700826645E-001;-3.725912421941757E-002;-1.912594307214022E-003;-5.127067677676678E-003;
2.412166666666667E+009;1.663345545530319E-001;-3.932633250951767E-002;-1.986208837479353E-003;-5.231495015323162E-003;
2.412333333333334E+009;1.664175838232040E-001;-4.092275351285934E-002;-2.017425373196602E-003;-4.945298191159964E-003;
2.412500000000000E+009;1.665790230035782E-001;-4.282557591795921E-002;-2.416907809674740E-003;-4.958960227668285E-003;
2.412666666666667E+009;1.666607856750488E-001;-4.489813745021820E-002;-2.435077447444201E-003;-4.874564707279205E-003;
2.412833333333334E+009;1.669030934572220E-001;-4.663538932800293E-002;-2.464291173964739E-003;-4.845239687711000E-003;
2.413000000000000E+009;1.670386940240860E-001;-4.846686497330666E-002;-2.849268727004528E-003;-4.918242339044809E-003;
2.413166666666667E+009;1.673100292682648E-001;-4.997644945979118E-002;-2.886711154133081E-003;-4.824009258300066E-003;
2.413333333333334E+009;1.675489246845245E-001;-5.179887637495995E-002;-3.085757605731487E-003;-4.724413622170687E-003;
2.413500000000000E+009;1.680047214031220E-001;-5.363243445754051E-002;-3.306134836748242E-003;-4.568040836602449E-003;
2.413666666666667E+009;1.683928668498993E-001;-5.509918555617333E-002;-3.330435836687684E-003;-4.374173469841480E-003;
2.413833333333334E+009;1.686145961284638E-001;-5.654690414667130E-002;-3.438037121668458E-003;-4.350827075541019E-003;
2.414000000000000E+009;1.689564436674118E-001;-5.794353038072586E-002;-3.587964456528425E-003;-4.230417776852846E-003;
2.414166666666667E+009;1.696617156267166E-001;-5.920032411813736E-002;-3.724445821717382E-003;-4.084318876266480E-003;
2.414333333333334E+009;1.700513213872910E-001;-6.052516028285027E-002;-3.928894177079201E-003;-4.054485820233822E-003;
2.414500000000000E+009;1.705795526504517E-001;-6.165091320872307E-002;-4.194366745650768E-003;-3.821970196440816E-003;
2.414666666666667E+009;1.710209101438522E-001;-6.262765824794769E-002;-4.223695956170559E-003;-3.567349165678024E-003;
2.414833333333334E+009;1.713189333677292E-001;-6.376332044601440E-002;-4.232449457049370E-003;-3.482932690531015E-003;
2.415000000000000E+009;1.716010272502899E-001;-6.460890918970108E-002;-4.487114958465099E-003;-3.338159527629614E-003;
2.415166666666667E+009;1.721791177988052E-001;-6.537719070911408E-002;-4.605977796018124E-003;-3.136746585369110E-003;
2.415333333333334E+009;1.724054664373398E-001;-6.631964445114136E-002;-4.547500982880592E-003;-2.987643005326390E-003;
2.415500000000000E+009;1.726765781641007E-001;-6.681618094444275E-002;-4.851580597460270E-003;-2.801940543577075E-003;
2.415666666666667E+009;1.729774922132492E-001;-6.741492450237274E-002;-4.965634085237980E-003;-2.634069416671991E-003;
2.415833333333334E+009;1.731836497783661E-001;-6.799058616161346E-002;-5.083832889795303E-003;-2.482305746525526E-003;
2.416000000000000E+009;1.732580214738846E-001;-6.833644956350327E-002;-4.992994014173746E-003;-2.183656441047788E-003;
2.416166666666667E+009;1.734931617975235E-001;-6.875699758529663E-002;-5.006742198020220E-003;-2.050074515864253E-003;
2.416333333333334E+009;1.733547449111939E-001;-6.905889511108398E-002;-5.076575558632612E-003;-1.872670254670084E-003;
2.416500000000000E+009;1.732722222805023E-001;-6.949385255575180E-002;-5.241603124886751E-003;-1.626358949579299E-003;
2.416666666666667E+009;1.730859577655792E-001;-6.972488015890122E-002;-5.140888970345259E-003;-1.478445716202259E-003;
2.416833333333334E+009;1.729541718959808E-001;-7.017517834901810E-002;-5.071494262665510E-003;-1.102518988773227E-003;
2.417000000000000E+009;1.724467724561691E-001;-7.026812434196472E-002;-5.022418685257435E-003;-8.362301741726697E-004;
2.417166666666667E+009;1.720612943172455E-001;-7.047113031148911E-002;-5.123979877680540E-003;-8.073420613072813E-004;
2.417333333333334E+009;1.715840697288513E-001;-7.048864662647247E-002;-5.080620758235455E-003;-4.646797024179250E-004;
2.417500000000000E+009;1.708941310644150E-001;-7.099117338657379E-002;-5.032754968851805E-003;-5.065429722890258E-004;
2.417666666666667E+009;1.704225987195969E-001;-7.110697776079178E-002;-4.963124170899391E-003;-5.792047886643559E-005;
2.417833333333334E+009;1.696126461029053E-001;-7.132913172245026E-002;-5.022167693823576E-003;-1.478730409871787E-004;
2.418000000000000E+009;1.687607914209366E-001;-7.178969681262970E-002;-4.893973469734192E-003;6.617038161493838E-005;
2.418166666666667E+009;1.678406298160553E-001;-7.172527164220810E-002;-4.874898120760918E-003;2.624507760629058E-004;
2.418333333333334E+009;1.670727282762528E-001;-7.210930436849594E-002;-4.907386843115091E-003;5.053231143392623E-004;
2.418500000000000E+009;1.659304797649384E-001;-7.253881543874741E-002;-4.848105367273092E-003;7.621214026585221E-004;
2.418666666666667E+009;1.649689674377441E-001;-7.287173718214035E-002;-4.654983989894390E-003;6.432399968616664E-004;
2.418833333333334E+009;1.636233180761337E-001;-7.349765300750732E-002;-4.678894300013781E-003;8.634231635369360E-004;
2.419000000000000E+009;1.623887866735458E-001;-7.391620427370071E-002;-4.576479550451040E-003;9.641648503020406E-004;
2.419166666666667E+009;1.612457633018494E-001;-7.449115067720413E-002;-4.649827722460032E-003;1.170917879790068E-003;
2.419333333333334E+009;1.599470674991608E-001;-7.503716647624970E-002;-4.384359810501337E-003;1.382460119202733E-003;
2.419500000000000E+009;1.587559878826141E-001;-7.592034339904785E-002;-4.269544035196304E-003;1.373492763377726E-003;
2.419666666666667E+009;1.576156914234161E-001;-7.669533044099808E-002;-4.167937673628330E-003;1.574891502968967E-003;
2.419833333333334E+009;1.563908904790878E-001;-7.745356112718582E-002;-4.131268244236708E-003;1.810464658774436E-003;
2.420000000000000E+009;1.551868766546249E-001;-7.852721214294434E-002;-4.048035014420748E-003;1.870683045126498E-003;
2.420166666666667E+009;1.538190543651581E-001;-7.937695831060410E-002;-3.681999864056706E-003;1.932496903464198E-003;
2.420333333333334E+009;1.528856158256531E-001;-8.054067194461823E-002;-3.792479401454330E-003;2.021861262619495E-003;
2.420500000000000E+009;1.517583727836609E-001;-8.162577450275421E-002;-3.636486828327179E-003;2.048958092927933E-003;
2.420666666666667E+009;1.506226062774658E-001;-8.286116272211075E-002;-3.481147112324834E-003;2.188640646636486E-003;
2.420833333333334E+009;1.497359871864319E-001;-8.437037467956543E-002;-3.397810505703092E-003;2.162380842491984E-003;
2.421000000000000E+009;1.485923379659653E-001;-8.572854101657867E-002;-3.284357720986009E-003;2.278060419484973E-003;
2.421166666666667E+009;1.476372629404068E-001;-8.700688928365707E-002;-3.159036627039313E-003;2.480918774381280E-003;
2.421333333333334E+009;1.470745503902435E-001;-8.856537938117981E-002;-3.169666510075331E-003;2.454200992360711E-003;
2.421500000000000E+009;1.461341232061386E-001;-9.011295437812805E-002;-2.897393191233277E-003;2.460718387737870E-003;
2.421666666666667E+009;1.455329358577728E-001;-9.172178059816361E-002;-2.794777043163776E-003;2.590397372841835E-003;
2.421833333333334E+009;1.448147147893906E-001;-9.339212626218796E-002;-2.635107608512044E-003;2.662685699760914E-003;
2.422000000000000E+009;1.443090289831162E-001;-9.492487460374832E-002;-2.475701970979571E-003;2.532323822379112E-003;
2.422166666666667E+009;1.438361406326294E-001;-9.688869118690491E-002;-2.448132960125804E-003;2.614817814901471E-003;
2.422333333333334E+009;1.436121463775635E-001;-9.848852455615997E-002;-2.189167775213718E-003;2.596641890704632E-003;
2.422500000000000E+009;1.431680321693420E-001;-9.996748715639114E-002;-2.188153564929962E-003;2.631982788443565E-003;
2.422666666666667E+009;1.429034173488617E-001;-1.018120497465134E-001;-1.944376272149384E-003;2.672239905223250E-003;
2.422833333333334E+009;1.429864317178726E-001;-1.036347970366478E-001;-1.882981625385582E-003;2.531343605369330E-003;
2.423000000000000E+009;1.428727209568024E-001;-1.052187979221344E-001;-1.711997436359525E-003;2.630723873153329E-003;
2.423166666666667E+009;1.429643779993057E-001;-1.069607511162758E-001;-1.757762045599520E-003;2.575285965576768E-003;
2.423333333333334E+009;1.432521790266037E-001;-1.084112003445625E-001;-1.666986383497715E-003;2.581470180302858E-003;
2.423500000000000E+009;1.432253718376160E-001;-1.100954487919807E-001;-1.617643400095403E-003;2.477287314832211E-003;
2.423666666666667E+009;1.434441357851028E-001;-1.117173358798027E-001;-1.575600239448249E-003;2.463975921273232E-003;
2.423833333333334E+009;1.437270045280457E-001;-1.132382750511169E-001;-1.409952295944095E-003;2.422455232590437E-003;
2.424000000000000E+009;1.440088450908661E-001;-1.145547479391098E-001;-1.444166875444353E-003;2.446162514388561E-003;
2.424166666666667E+009;1.442487984895706E-001;-1.160159781575203E-001;-1.545892213471234E-003;2.367991954088211E-003;
2.424333333333334E+009;1.445984542369843E-001;-1.172688603401184E-001;-1.371785532683134E-003;2.463952871039510E-003;
2.424500000000000E+009;1.450854688882828E-001;-1.185238063335419E-001;-1.394593389704824E-003;2.351769478991628E-003;
2.424666666666667E+009;1.455572992563248E-001;-1.194677725434303E-001;-1.348549267277122E-003;2.345075365155935E-003;
2.424833333333334E+009;1.457236707210541E-001;-1.206945404410362E-001;-1.335473381914198E-003;2.401748672127724E-003;
2.425000000000000E+009;1.461990773677826E-001;-1.216398924589157E-001;-1.307860715314746E-003;2.430333755910397E-003;
2.425166666666667E+009;1.463748365640640E-001;-1.224105432629585E-001;-1.251248642802239E-003;2.573668723925948E-003;
2.425333333333334E+009;1.468285620212555E-001;-1.232690960168839E-001;-1.104171155020595E-003;2.430776599794626E-003;
2.425500000000000E+009;1.471603363752365E-001;-1.240519434213638E-001;-1.003041281364858E-003;2.540482906624675E-003;
2.425666666666667E+009;1.472633332014084E-001;-1.244421079754829E-001;-9.591631824150682E-004;2.419566735625267E-003;
2.425833333333334E+009;1.475410908460617E-001;-1.250207871198654E-001;-1.003376208245754E-003;2.523338422179222E-003;
2.426000000000000E+009;1.476888656616211E-001;-1.255367547273636E-001;-1.023431541398168E-003;2.421337645500898E-003;
2.426166666666667E+009;1.480748355388641E-001;-1.259829252958298E-001;-8.805691031739116E-004;2.383452141657472E-003;
2.426333333333334E+009;1.481138616800308E-001;-1.262419372797012E-001;-8.437985088676214E-004;2.514804014936090E-003;
2.426500000000000E+009;1.481467187404633E-001;-1.264303177595139E-001;-5.962045979686081E-004;2.302438020706177E-003;
2.426666666666667E+009;1.481391340494156E-001;-1.265162080526352E-001;-7.583548431284726E-004;2.383513608947396E-003;
2.426833333333334E+009;1.480117738246918E-001;-1.266700923442841E-001;-6.808725884184241E-004;2.502736402675510E-003;
2.427000000000000E+009;1.477028876543045E-001;-1.268232017755508E-001;-7.876075105741620E-004;2.501957584172487E-003;
2.427166666666667E+009;1.472945809364319E-001;-1.267748475074768E-001;-4.410532128531486E-004;2.360098296776414E-003;
2.427333333333334E+009;1.467641741037369E-001;-1.267362236976624E-001;-4.547426651697606E-004;2.337621757760644E-003;
2.427500000000000E+009;1.465232819318771E-001;-1.268413066864014E-001;-5.825028056278825E-004;2.236642641946673E-003;
2.427666666666667E+009;1.458109468221664E-001;-1.267792433500290E-001;-3.766771114896983E-004;2.408323343843222E-003;
