# Version 1.00
#
freq[Hz];re:Trc1_S11;im:Trc1_S11;re:Trc2_S21;im:Trc2_S21;
2.400000000000000E+009;1.686292588710785E-001;4.031480476260185E-002;-5.406352574937046E-004;-1.916863839142025E-003;
2.400166666666667E+009;1.692365854978561E-001;3.981171175837517E-002;-4.131670575588942E-004;-1.873577712103725E-003;
2.400333333333334E+009;1.697864681482315E-001;3.876902163028717E-002;-4.439236363396049E-004;-1.959717366844416E-003;
2.400500000000000E+009;1.702398210763931E-001;3.794692084193230E-002;-4.482131917029619E-004;-1.887901104055345E-003;
2.400666666666667E+009;1.708429157733917E-001;3.694375976920128E-002;-4.921113140881062E-004;-1.927376259118319E-003;
2.400833333333334E+009;1.711637526750565E-001;3.633682802319527E-002;-6.266344571486116E-004;-2.091060392558575E-003;
2.401000000000000E+009;1.713865250349045E-001;3.549890220165253E-002;-5.339051713235676E-004;-2.089862478896976E-003;
2.401166666666667E+009;1.716053783893585E-001;3.488232195377350E-002;-4.925432731397450E-004;-2.159177558496594E-003;
2.401333333333334E+009;1.718326359987259E-001;3.388322889804840E-002;-7.548560388386250E-004;-2.309648087248206E-003;
2.401500000000000E+009;1.720037311315537E-001;3.328246623277664E-002;-7.255834061652422E-004;-2.288066316395998E-003;
2.401666666666667E+009;1.719941049814224E-001;3.238184005022049E-002;-7.992098690010607E-004;-2.363556297495961E-003;
2.401833333333334E+009;1.720363199710846E-001;3.153260052204132E-002;-8.537090616300702E-004;-2.337132114917040E-003;
2.402000000000000E+009;1.720351874828339E-001;3.066116012632847E-002;-1.141733140684664E-003;-2.349532209336758E-003;
2.402166666666667E+009;1.720518171787262E-001;2.987541072070599E-002;-1.293451990932226E-003;-2.626298228278756E-003;
2.402333333333334E+009;1.720895171165466E-001;2.898840978741646E-002;-1.195444026961923E-003;-2.412210917100310E-003;
2.402500000000000E+009;1.721110343933106E-001;2.787993848323822E-002;-1.529942499473691E-003;-2.450833795592189E-003;
2.402666666666667E+009;1.720248162746429E-001;2.717536874115467E-002;-1.716538798063994E-003;-2.412399044260383E-003;
2.402833333333334E+009;1.718728393316269E-001;2.637675963342190E-002;-1.774103729985654E-003;-2.426137216389179E-003;
2.403000000000000E+009;1.716735959053040E-001;2.511030435562134E-002;-1.930056256242096E-003;-2.269155113026500E-003;
2.403166666666667E+009;1.715511083602905E-001;2.411549724638462E-002;-2.007496077567339E-003;-2.317901700735092E-003;
2.403333333333334E+009;1.713930964469910E-001;2.308417111635208E-002;-2.020066138356924E-003;-2.077921060845256E-003;
2.403500000000000E+009;1.710773706436157E-001;2.199286594986916E-002;-2.128606662154198E-003;-1.928375684656203E-003;
2.403666666666667E+009;1.707949787378311E-001;2.049112692475319E-002;-2.254027873277664E-003;-1.954975770786405E-003;
2.403833333333334E+009;1.707306951284409E-001;1.935201697051525E-002;-2.445790683850646E-003;-1.790307345800102E-003;
2.404000000000000E+009;1.706570684909821E-001;1.809309422969818E-002;-2.348124980926514E-003;-1.656572334468365E-003;
2.404166666666667E+009;1.704264730215073E-001;1.680345460772514E-002;-2.403836231678724E-003;-1.660714391618967E-003;
2.404333333333334E+009;1.702774167060852E-001;1.548083312809467E-002;-2.434963127598167E-003;-1.470961142331362E-003;
2.404500000000000E+009;1.699885278940201E-001;1.414862647652626E-002;-2.443644450977445E-003;-1.584703102707863E-003;
2.404666666666667E+009;1.699917018413544E-001;1.280686818063259E-002;-2.571511315181851E-003;-1.319704228080809E-003;
2.404833333333334E+009;1.698471158742905E-001;1.123927999287844E-002;-2.560622058808804E-003;-1.225524814799428E-003;
2.405000000000000E+009;1.697019785642624E-001;9.865463711321354E-003;-2.817247761413455E-003;-1.237422926351428E-003;
2.405166666666667E+009;1.695820391178131E-001;8.267702534794807E-003;-2.800528425723314E-003;-1.111267250962555E-003;
2.405333333333334E+009;1.696397215127945E-001;6.434961222112179E-003;-2.802472794428468E-003;-1.012701191939414E-003;
2.405500000000000E+009;1.695961207151413E-001;5.026622209697962E-003;-2.967104315757752E-003;-9.053751127794385E-004;
2.405666666666667E+009;1.694318205118179E-001;3.278157208114862E-003;-2.888103714212775E-003;-7.185739814303815E-004;
2.405833333333334E+009;1.693036109209061E-001;1.650160644203425E-003;-2.875289646908641E-003;-5.058580427430570E-004;
2.406000000000000E+009;1.691637784242630E-001;-2.078545076074079E-004;-3.015897236764431E-003;-6.767005543224514E-004;
2.406166666666667E+009;1.690455675125122E-001;-1.649084850214422E-003;-2.945768879726529E-003;-4.817999433726072E-004;
2.406333333333334E+009;1.691299974918366E-001;-3.393448190763593E-003;-2.788421930745244E-003;-3.727294388227165E-004;
2.406500000000000E+009;1.689036041498184E-001;-4.997757729142904E-003;-2.849337179213762E-003;-2.958636032417417E-004;
2.406666666666667E+009;1.687074154615402E-001;-6.633730605244637E-003;-2.919052494689822E-003;-2.047353045782074E-004;
2.406833333333334E+009;1.687128394842148E-001;-8.296124637126923E-003;-2.841461217030883E-003;-9.798731480259448E-005;
2.407000000000000E+009;1.686151176691055E-001;-9.806311689317226E-003;-2.907038200646639E-003;-8.547559264115989E-005;
2.407166666666667E+009;1.685204058885574E-001;-1.114289183169603E-002;-2.743765013292432E-003;-4.998965596314520E-005;
2.407333333333334E+009;1.682763248682022E-001;-1.267979107797146E-002;-2.886647358536720E-003;-8.552631334168837E-005;
2.407500000000000E+009;1.681876182556152E-001;-1.402876339852810E-002;-2.890597097575665E-003;-2.628755828482099E-005;
2.407666666666667E+009;1.681019961833954E-001;-1.525580883026123E-002;-3.064532298594713E-003;1.319311413681135E-004;
2.407833333333334E+009;1.678845882415772E-001;-1.656642369925976E-002;-3.245465690270066E-003;6.595148443011567E-005;
2.408000000000000E+009;1.678796261548996E-001;-1.770596578717232E-002;-3.010620363056660E-003;3.162909415550530E-004;
2.408166666666667E+009;1.679634898900986E-001;-1.867644488811493E-002;-3.294544992968440E-003;4.575344210024923E-004;
2.408333333333334E+009;1.680498719215393E-001;-1.956312730908394E-002;-3.237226977944374E-003;6.390287890098989E-004;
2.408500000000000E+009;1.680855005979538E-001;-2.066101692616940E-002;-3.312460146844387E-003;7.808960508555174E-004;
2.408666666666667E+009;1.682571619749069E-001;-2.153820171952248E-002;-3.317828522995114E-003;8.037285297177732E-004;
2.408833333333334E+009;1.682694256305695E-001;-2.247348427772522E-002;-3.180341795086861E-003;1.181712257675827E-003;
2.409000000000000E+009;1.685776263475418E-001;-2.339700981974602E-002;-2.863547997549176E-003;1.359857851639390E-003;
2.409166666666667E+009;1.688841879367828E-001;-2.416928112506867E-002;-3.069478087127209E-003;1.558844116516411E-003;
2.409333333333334E+009;1.691260635852814E-001;-2.505723200738430E-002;-3.053151071071625E-003;1.593884313479066E-003;
2.409500000000000E+009;1.692235320806503E-001;-2.611265890300274E-002;-2.699919976294041E-003;1.830788445658982E-003;
2.409666666666667E+009;1.692573577165604E-001;-2.691669203341007E-002;-2.853009849786758E-003;1.775264390744269E-003;
2.409833333333334E+009;1.693901270627976E-001;-2.761415019631386E-002;-2.696520648896694E-003;1.822273363359273E-003;
2.410000000000000E+009;1.696704328060150E-001;-2.849615365266800E-002;-2.390202833339572E-003;2.060467842966318E-003;
2.410166666666667E+009;1.697469055652618E-001;-2.935568988323212E-002;-2.416735514998436E-003;2.013483317568898E-003;
2.410333333333334E+009;1.699182391166687E-001;-3.022978454828262E-002;-2.321846783161163E-003;2.228536410257220E-003;
2.410500000000000E+009;1.699290424585342E-001;-3.113661147654057E-002;-2.284365240484476E-003;2.254080493003130E-003;
2.410666666666667E+009;1.697478443384171E-001;-3.208887949585915E-002;-2.259867032989860E-003;2.319146879017353E-003;
2.410833333333334E+009;1.698114871978760E-001;-3.265370428562164E-002;-2.061703475192189E-003;2.265040297061205E-003;
2.411000000000000E+009;1.696683764457703E-001;-3.354201465845108E-002;-2.063717460259795E-003;2.242324175313115E-003;
2.411166666666667E+009;1.696418374776840E-001;-3.437028080224991E-002;-2.005137968808413E-003;2.342060441151261E-003;
2.411333333333334E+009;1.694176346063614E-001;-3.513855487108231E-002;-1.732024014927447E-003;2.533769700676203E-003;
2.411500000000000E+009;1.691274046897888E-001;-3.589308634400368E-002;-1.734277466312051E-003;2.586023183539510E-003;
2.411666666666667E+009;1.690169572830200E-001;-3.672197088599205E-002;-1.602310338057578E-003;2.544341608881950E-003;
2.411833333333334E+009;1.688777655363083E-001;-3.748754039406776E-002;-1.528846565634012E-003;2.718531293794513E-003;
2.412000000000000E+009;1.685574948787689E-001;-3.824314102530479E-002;-1.300704781897366E-003;2.644776599481702E-003;
2.412166666666667E+009;1.681030094623566E-001;-3.915541619062424E-002;-1.213946030475199E-003;2.706358209252358E-003;
2.412333333333334E+009;1.681676954030991E-001;-4.020813107490540E-002;-8.355497848242521E-004;2.663226565346122E-003;
2.412500000000000E+009;1.676461398601532E-001;-4.086105525493622E-002;-1.032481202855706E-003;2.708023646846414E-003;
2.412666666666667E+009;1.671307384967804E-001;-4.191805422306061E-002;-8.402434759773314E-004;2.725520636886358E-003;
2.412833333333334E+009;1.669040471315384E-001;-4.285268113017082E-002;-7.680846611037850E-004;2.512265928089619E-003;
2.413000000000000E+009;1.663154214620590E-001;-4.378192499279976E-002;-5.769349518232048E-004;2.592857461422682E-003;
2.413166666666667E+009;1.656552851200104E-001;-4.462734237313271E-002;-6.151932757347822E-004;2.506264951080084E-003;
2.413333333333334E+009;1.651887446641922E-001;-4.569340124726296E-002;-6.327102310024202E-004;2.609199844300747E-003;
2.413500000000000E+009;1.646109074354172E-001;-4.679588973522186E-002;-4.329751245677471E-004;2.460674848407507E-003;
2.413666666666667E+009;1.643504798412323E-001;-4.783191904425621E-002;-5.947724566794932E-004;2.569660311564803E-003;
2.413833333333334E+009;1.637566387653351E-001;-4.877205565571785E-002;-2.822497917804867E-004;2.397429430857301E-003;
2.414000000000000E+009;1.630700081586838E-001;-4.969336092472076E-002;-4.150548775214702E-004;2.505454700440168E-003;
2.414166666666667E+009;1.626125425100327E-001;-5.073758959770203E-002;-5.224623600952327E-004;2.375186420977116E-003;
2.414333333333334E+009;1.621360331773758E-001;-5.165516957640648E-002;-2.381348022026941E-004;2.482460346072912E-003;
2.414500000000000E+009;1.620481312274933E-001;-5.271011963486671E-002;-4.155079950578511E-004;2.593961544334889E-003;
2.414666666666667E+009;1.613610684871674E-001;-5.374276265501976E-002;-1.723180612316355E-004;2.613324904814363E-003;
2.414833333333334E+009;1.610717177391052E-001;-5.471155419945717E-002;-2.486223820596933E-004;2.737599890679121E-003;
2.415000000000000E+009;1.607841104269028E-001;-5.589287355542183E-002;-2.253443963127211E-004;2.744560828432441E-003;
2.415166666666667E+009;1.605809628963471E-001;-5.676522478461266E-002;4.639486360247247E-005;2.586693735793233E-003;
2.415333333333334E+009;1.602934896945953E-001;-5.814397335052490E-002;1.136352075263858E-004;2.730154199525714E-003;
2.415500000000000E+009;1.601956784725189E-001;-5.933806300163269E-002;9.754172788234428E-005;2.810842124745250E-003;
2.415666666666667E+009;1.598532348871231E-001;-6.054843217134476E-002;2.324094093637541E-004;2.610599156469107E-003;
2.415833333333334E+009;1.596947610378265E-001;-6.181684508919716E-002;3.625811368692666E-004;2.778060268610716E-003;
2.416000000000000E+009;1.593978554010391E-001;-6.314906477928162E-002;4.938913043588400E-004;2.631764626130462E-003;
2.416166666666667E+009;1.593046337366104E-001;-6.437747925519943E-002;5.388648714870215E-004;2.702557714655995E-003;
2.416333333333334E+009;1.590379178524017E-001;-6.560212373733521E-002;6.906909402459860E-004;2.726996783167124E-003;
2.416500000000000E+009;1.586543917655945E-001;-6.702469289302826E-002;8.365991525352001E-004;2.530112862586975E-003;
2.416666666666667E+009;1.583482921123505E-001;-6.829047203063965E-002;8.688559755682945E-004;2.802847884595394E-003;
2.416833333333334E+009;1.582149714231491E-001;-6.956498324871063E-002;9.842703584581614E-004;2.518366789445281E-003;
2.417000000000000E+009;1.576667129993439E-001;-7.077530771493912E-002;1.172488555312157E-003;2.437359420582652E-003;
2.417166666666667E+009;1.573880016803742E-001;-7.188741862773895E-002;1.214573625475168E-003;2.417879877611995E-003;
2.417333333333334E+009;1.570715755224228E-001;-7.295553386211395E-002;1.303969533182681E-003;2.230906626209617E-003;
2.417500000000000E+009;1.567716747522354E-001;-7.415893673896790E-002;1.205760403536260E-003;2.218645531684160E-003;
2.417666666666667E+009;1.564681380987167E-001;-7.504448294639587E-002;1.373777864500880E-003;1.935818349011242E-003;
2.417833333333334E+009;1.563244014978409E-001;-7.598459720611572E-002;1.453710603527725E-003;1.867646817117930E-003;
2.418000000000000E+009;1.560825705528259E-001;-7.704193890094757E-002;1.370268757455051E-003;1.919831265695393E-003;
2.418166666666667E+009;1.557817608118057E-001;-7.779145985841751E-002;1.142823835834861E-003;1.617521978914738E-003;
2.418333333333334E+009;1.557555049657822E-001;-7.867817580699921E-002;1.207617926411331E-003;1.611446728929877E-003;
2.418500000000000E+009;1.553897708654404E-001;-7.954591512680054E-002;1.005274476483464E-003;1.555604627355933E-003;
2.418666666666667E+009;1.553302854299545E-001;-8.030398935079575E-002;9.154929430224001E-004;1.616638503037393E-003;
2.418833333333334E+009;1.548289954662323E-001;-8.114966750144959E-002;8.716301526874304E-004;1.739550149068236E-003;
2.419000000000000E+009;1.545961648225784E-001;-8.196268230676651E-002;8.347740513272584E-004;1.855416223406792E-003;
2.419166666666667E+009;1.544633656740189E-001;-8.264561742544174E-002;8.810350554995239E-004;2.011271193623543E-003;
2.419333333333334E+009;1.539864242076874E-001;-8.299447596073151E-002;9.633929585106671E-004;2.113451715558767E-003;
2.419500000000000E+009;1.536919325590134E-001;-8.393444120883942E-002;9.353915811516345E-004;2.166532678529620E-003;
2.419666666666667E+009;1.535170674324036E-001;-8.465562760829926E-002;1.117458334192634E-003;2.191301202401519E-003;
2.419833333333334E+009;1.531959921121597E-001;-8.493790775537491E-002;1.206521526910365E-003;2.352081006392837E-003;
2.420000000000000E+009;1.529124379158020E-001;-8.567889034748077E-002;1.371323247440159E-003;2.452428219839931E-003;
2.420166666666667E+009;1.526500135660172E-001;-8.605210483074188E-002;1.547585241496563E-003;2.434416674077511E-003;
2.420333333333334E+009;1.524152904748917E-001;-8.671066164970398E-002;1.783386687748134E-003;2.404602710157633E-003;
2.420500000000000E+009;1.521347165107727E-001;-8.703150600194931E-002;1.921185292303562E-003;2.417183248326182E-003;
2.420666666666667E+009;1.517141759395599E-001;-8.747712522745132E-002;2.063421532511711E-003;2.404220169410110E-003;
2.420833333333334E+009;1.514572501182556E-001;-8.811561763286591E-002;2.475066576153040E-003;2.127768239006400E-003;
2.421000000000000E+009;1.509218215942383E-001;-8.878028392791748E-002;2.408709609881043E-003;2.102331956848502E-003;
2.421166666666667E+009;1.506648063659668E-001;-8.946847915649414E-002;2.514657797291875E-003;1.903836964629591E-003;
2.421333333333334E+009;1.502248644828796E-001;-8.994933217763901E-002;2.787286881357431E-003;1.693395432084799E-003;
2.421500000000000E+009;1.497144252061844E-001;-9.044858813285828E-002;2.766727702692151E-003;1.504934858530760E-003;
2.421666666666667E+009;1.492077410221100E-001;-9.106978774070740E-002;2.916327910497785E-003;1.346171717159450E-003;
2.421833333333334E+009;1.488258093595505E-001;-9.166367352008820E-002;2.851008204743266E-003;1.229988527484238E-003;
2.422000000000000E+009;1.479204744100571E-001;-9.236782789230347E-002;2.806077478453517E-003;1.049679005518556E-003;
2.422166666666667E+009;1.473879516124725E-001;-9.316557645797730E-002;2.828290453180671E-003;9.121486800722778E-004;
2.422333333333334E+009;1.467353254556656E-001;-9.370148181915283E-002;2.760169329121709E-003;8.487122249789536E-004;
2.422500000000000E+009;1.461956053972244E-001;-9.421881288290024E-002;2.737818984314799E-003;6.672074086964130E-004;
2.422666666666667E+009;1.454289853572846E-001;-9.521348029375076E-002;2.696176990866661E-003;7.009653490968049E-004;
2.422833333333334E+009;1.449783891439438E-001;-9.582982957363129E-002;2.582422457635403E-003;5.007796571590006E-004;
2.423000000000000E+009;1.440664529800415E-001;-9.659516811370850E-002;2.691863337531686E-003;4.368410736788064E-004;
2.423166666666667E+009;1.435078829526901E-001;-9.757570922374725E-002;2.629550173878670E-003;4.830102552659810E-004;
2.423333333333334E+009;1.429566442966461E-001;-9.817670285701752E-002;2.550052246078849E-003;4.733144596684724E-004;
2.423500000000000E+009;1.422911286354065E-001;-9.910973161458969E-002;2.734536537900567E-003;5.357564659789205E-004;
2.423666666666667E+009;1.412420272827148E-001;-9.997719526290894E-002;2.574990969151259E-003;4.535018233582377E-004;
2.423833333333334E+009;1.408347040414810E-001;-1.010476648807526E-001;2.626661211252213E-003;2.933408832177520E-004;
2.424000000000000E+009;1.398793458938599E-001;-1.017861366271973E-001;2.712048590183258E-003;3.349375037942082E-004;
2.424166666666667E+009;1.391265392303467E-001;-1.027607172727585E-001;2.711646026000381E-003;1.051583894877695E-004;
2.424333333333334E+009;1.384446024894714E-001;-1.036227717995644E-001;2.807769225910306E-003;1.712899102130905E-004;
2.424500000000000E+009;1.377383470535278E-001;-1.045390143990517E-001;2.868141047656536E-003;-1.370384893562004E-006;
2.424666666666667E+009;1.370326280593872E-001;-1.053492948412895E-001;2.854254562407732E-003;-1.640703849261627E-004;
2.424833333333334E+009;1.364070028066635E-001;-1.063964515924454E-001;2.906077774241567E-003;-2.641726168803871E-004;
2.425000000000000E+009;1.358420550823212E-001;-1.075708493590355E-001;3.072311636060476E-003;-3.832128131762147E-004;
2.425166666666667E+009;1.349484622478485E-001;-1.084488779306412E-001;2.965297782793641E-003;-5.893410998396576E-004;
2.425333333333334E+009;1.345365494489670E-001;-1.094795465469360E-001;2.902339911088347E-003;-5.707175005227327E-004;
2.425500000000000E+009;1.339685022830963E-001;-1.106574907898903E-001;2.913606818765402E-003;-7.506329566240311E-004;
2.425666666666667E+009;1.332969665527344E-001;-1.114894226193428E-001;2.711719600483775E-003;-8.732969872653484E-004;
2.425833333333334E+009;1.327151805162430E-001;-1.125192865729332E-001;2.654245821759105E-003;-1.147599425166845E-003;
2.426000000000000E+009;1.322283744812012E-001;-1.136457100510597E-001;2.703191246837378E-003;-1.147825270891190E-003;
2.426166666666667E+009;1.319162547588348E-001;-1.146423965692520E-001;2.674085553735495E-003;-1.285435166209936E-003;
2.426333333333334E+009;1.313094645738602E-001;-1.156581193208695E-001;2.600788837298751E-003;-1.366631593555212E-003;
2.426500000000000E+009;1.310211420059204E-001;-1.165691018104553E-001;2.318399725481868E-003;-1.290788757614791E-003;
2.426666666666667E+009;1.306708604097366E-001;-1.174191161990166E-001;2.353980205953121E-003;-1.364822266623378E-003;
2.426833333333334E+009;1.301660686731339E-001;-1.183313578367233E-001;2.406445331871510E-003;-1.370780752040446E-003;
2.427000000000000E+009;1.297915726900101E-001;-1.193436682224274E-001;2.158995717763901E-003;-1.492029288783670E-003;
2.427166666666667E+009;1.294023543596268E-001;-1.200798749923706E-001;2.047633519396186E-003;-1.500043086707592E-003;
2.427333333333334E+009;1.290113031864166E-001;-1.209108084440231E-001;2.082356018945575E-003;-1.470684073865414E-003;
2.427500000000000E+009;1.288657039403915E-001;-1.216973885893822E-001;2.078364370390773E-003;-1.649955403991044E-003;
2.427666666666667E+009;1.284910440444946E-001;-1.225439310073853E-001;2.026650356128812E-003;-1.584188779816032E-003;
