# Version 1.00
#
freq[Hz];re:Trc1_S11;im:Trc1_S11;re:Trc2_S21;im:Trc2_S21;
2.400000000000000E+009;1.554670631885529E-001;1.113874241709709E-001;-3.260708879679442E-003;3.955548629164696E-003;
2.400166666666667E+009;1.549564749002457E-001;1.090851053595543E-001;-3.191573079675436E-003;4.188511986285448E-003;
2.400333333333334E+009;1.547851264476776E-001;1.068794801831245E-001;-3.146733855828643E-003;4.485672805458307E-003;
2.400500000000000E+009;1.544345617294312E-001;1.041949465870857E-001;-3.077512839809060E-003;4.765081685036421E-003;
2.400666666666667E+009;1.543565988540649E-001;1.017330959439278E-001;-2.865801798179746E-003;4.875348415225744E-003;
2.400833333333334E+009;1.540196388959885E-001;9.874939918518066E-002;-2.647803165018559E-003;5.184548441320658E-003;
2.401000000000000E+009;1.539583057165146E-001;9.579037874937058E-002;-2.634166739881039E-003;5.451140925288200E-003;
2.401166666666667E+009;1.537200659513474E-001;9.306698292493820E-002;-2.214350039139390E-003;5.469127092510462E-003;
2.401333333333334E+009;1.537837386131287E-001;9.011395275592804E-002;-2.034861594438553E-003;5.638806149363518E-003;
2.401500000000000E+009;1.540266275405884E-001;8.704631775617600E-002;-1.744112116284668E-003;5.843743216246367E-003;
2.401666666666667E+009;1.540597826242447E-001;8.405283838510513E-002;-1.305482233874500E-003;5.914129782468081E-003;
2.401833333333334E+009;1.543655693531036E-001;8.108201622962952E-002;-1.186148147098720E-003;5.938544869422913E-003;
2.402000000000000E+009;1.549646854400635E-001;7.800308614969254E-002;-9.289032896049321E-004;6.106727756559849E-003;
2.402166666666667E+009;1.556636542081833E-001;7.541720569133759E-002;-7.221422274596989E-004;6.007328629493713E-003;
2.402333333333334E+009;1.563295722007752E-001;7.253629714250565E-002;-3.488826041575521E-004;6.108785513788462E-003;
2.402500000000000E+009;1.574033945798874E-001;6.969968229532242E-002;-7.044966332614422E-005;6.178142968565226E-003;
2.402666666666667E+009;1.584965437650681E-001;6.726158410310745E-002;1.857979805208743E-004;6.172573659569025E-003;
2.402833333333334E+009;1.595934629440308E-001;6.449735909700394E-002;3.838816774077714E-004;6.130783353000879E-003;
2.403000000000000E+009;1.610136181116104E-001;6.189896911382675E-002;6.994327413849533E-004;5.941563285887241E-003;
2.403166666666667E+009;1.625798642635346E-001;5.935645475983620E-002;1.023076940327883E-003;5.920897703617811E-003;
2.403333333333334E+009;1.640752553939819E-001;5.700935050845146E-002;1.212300499901176E-003;5.741384346038103E-003;
2.403500000000000E+009;1.658852398395538E-001;5.480648949742317E-002;1.506520784460008E-003;5.689294543117285E-003;
2.403666666666667E+009;1.675715893507004E-001;5.274651944637299E-002;1.618494512513280E-003;5.764727015048266E-003;
2.403833333333334E+009;1.693965345621109E-001;5.057141929864883E-002;1.838877680711448E-003;5.510887596756220E-003;
2.404000000000000E+009;1.709616929292679E-001;4.869086295366287E-002;2.007341245189309E-003;5.233789794147015E-003;
2.404166666666667E+009;1.729128360748291E-001;4.693754389882088E-002;2.274916972965002E-003;5.288013257086277E-003;
2.404333333333334E+009;1.746534854173660E-001;4.519079253077507E-002;2.259552013128996E-003;5.150409881025553E-003;
2.404500000000000E+009;1.764278411865234E-001;4.360733553767204E-002;2.325469395145774E-003;4.950022324919701E-003;
2.404666666666667E+009;1.783817112445831E-001;4.236558079719544E-002;2.576495055109263E-003;4.935982637107372E-003;
2.404833333333334E+009;1.803929209709168E-001;4.115363955497742E-002;2.747699618339539E-003;4.903748631477356E-003;
2.405000000000000E+009;1.820494532585144E-001;4.048988968133926E-002;2.936901757493615E-003;4.797062370926142E-003;
2.405166666666667E+009;1.837240010499954E-001;3.960539400577545E-002;3.005104837939143E-003;4.559830762445927E-003;
2.405333333333334E+009;1.854119151830673E-001;3.899658471345902E-002;3.024429315701127E-003;4.436295013874769E-003;
2.405500000000000E+009;1.871144920587540E-001;3.861356899142265E-002;3.392240731045604E-003;4.389265552163124E-003;
2.405666666666667E+009;1.885533481836319E-001;3.811349719762802E-002;3.503780113533139E-003;4.300519358366728E-003;
2.405833333333334E+009;1.900883764028549E-001;3.811476379632950E-002;3.673965111374855E-003;4.127732943743467E-003;
2.406000000000000E+009;1.914097368717194E-001;3.794996440410614E-002;3.857979783788323E-003;4.038046114146709E-003;
2.406166666666667E+009;1.926707029342651E-001;3.778155148029327E-002;3.863340709358454E-003;3.860882250592113E-003;
2.406333333333334E+009;1.938358396291733E-001;3.787968307733536E-002;4.154095891863108E-003;3.633501939475536E-003;
2.406500000000000E+009;1.948817372322083E-001;3.808006644248962E-002;4.260820802301168E-003;3.459887113422155E-003;
2.406666666666667E+009;1.958201080560684E-001;3.830944001674652E-002;4.242325667291880E-003;3.147444920614362E-003;
2.406833333333334E+009;1.965426206588745E-001;3.852416947484016E-002;4.386513028293848E-003;2.988630440086126E-003;
2.407000000000000E+009;1.972112506628037E-001;3.901152685284615E-002;4.405973479151726E-003;2.788285026326776E-003;
2.407166666666667E+009;1.978358179330826E-001;3.900978341698647E-002;4.315816331654787E-003;2.474226756021380E-003;
2.407333333333334E+009;1.980798393487930E-001;3.949771821498871E-002;4.384487867355347E-003;2.378014847636223E-003;
2.407500000000000E+009;1.982393264770508E-001;3.991236537694931E-002;4.441093653440476E-003;2.202714327722788E-003;
2.407666666666667E+009;1.984602212905884E-001;4.006661102175713E-002;4.514186177402735E-003;2.021349733695388E-003;
2.407833333333334E+009;1.981643438339233E-001;4.028283804655075E-002;4.334426019340754E-003;1.930155907757580E-003;
2.408000000000000E+009;1.981671601533890E-001;4.052792116999626E-002;4.363023210316896E-003;1.718653715215623E-003;
2.408166666666667E+009;1.977143138647080E-001;4.048810526728630E-002;4.288861528038979E-003;1.523565151728690E-003;
2.408333333333334E+009;1.974205076694489E-001;4.022370651364327E-002;4.243590869009495E-003;1.493473304435611E-003;
2.408500000000000E+009;1.966782659292221E-001;4.031256586313248E-002;4.248532932251692E-003;1.411672215908766E-003;
2.408666666666667E+009;1.962158381938934E-001;4.007046669721603E-002;4.241885151714087E-003;1.203015795908868E-003;
2.408833333333334E+009;1.955233812332153E-001;3.953270614147186E-002;4.211798310279846E-003;1.082216505892575E-003;
2.409000000000000E+009;1.944536566734314E-001;3.897453099489212E-002;4.354105331003666E-003;1.005303929559887E-003;
2.409166666666667E+009;1.935424506664276E-001;3.829835355281830E-002;4.075704608112574E-003;9.136371081694961E-004;
2.409333333333334E+009;1.925977319478989E-001;3.762018308043480E-002;4.111101385205984E-003;6.625608075410128E-004;
2.409500000000000E+009;1.912826597690582E-001;3.664933890104294E-002;4.102130886167288E-003;8.751407731324434E-004;
2.409666666666667E+009;1.902074664831162E-001;3.542158380150795E-002;3.864190075546503E-003;8.593323291279376E-004;
2.409833333333334E+009;1.889973580837250E-001;3.416973724961281E-002;3.921366762369871E-003;7.501284708268940E-004;
2.410000000000000E+009;1.879052668809891E-001;3.273826837539673E-002;3.997510764747858E-003;5.797568010166287E-004;
2.410166666666667E+009;1.868029981851578E-001;3.101454488933086E-002;3.794864285737276E-003;6.485202466137707E-004;
2.410333333333334E+009;1.854881793260574E-001;2.942739427089691E-002;3.984863404184580E-003;7.254424272105098E-004;
2.410500000000000E+009;1.842746734619141E-001;2.752199396491051E-002;4.089416470378637E-003;6.181786884553731E-004;
2.410666666666667E+009;1.832029223442078E-001;2.529031224548817E-002;4.064897075295448E-003;5.660072201862931E-004;
2.410833333333334E+009;1.822792589664459E-001;2.322894521057606E-002;4.267325624823570E-003;4.633075441233814E-004;
2.411000000000000E+009;1.814469248056412E-001;2.098716981709003E-002;4.199222195893526E-003;5.174364778213203E-004;
2.411166666666667E+009;1.803588271141052E-001;1.886738464236260E-002;4.201390780508518E-003;5.481842672452331E-004;
2.411333333333334E+009;1.797906905412674E-001;1.620338670909405E-002;4.519846290349960E-003;3.580210905056447E-004;
2.411500000000000E+009;1.789785176515579E-001;1.392444036900997E-002;4.524359479546547E-003;2.265528601128608E-004;
2.411666666666667E+009;1.786818504333496E-001;1.156422588974237E-002;4.388609901070595E-003;1.824326172936708E-004;
2.411833333333334E+009;1.779883503913879E-001;8.905244059860706E-003;4.510054830461741E-003;-4.593813355313614E-005;
2.412000000000000E+009;1.777970939874649E-001;6.242222152650356E-003;4.581264220178127E-003;-2.619746737764217E-005;
2.412166666666667E+009;1.778025180101395E-001;3.713818499818444E-003;4.488020204007626E-003;-2.038501406786963E-004;
2.412333333333334E+009;1.778443306684494E-001;8.628382347524166E-004;4.663234110921621E-003;-4.508896963670850E-004;
2.412500000000000E+009;1.782647520303726E-001;-1.640785485506058E-003;4.685237538069487E-003;-5.201886524446309E-004;
2.412666666666667E+009;1.786823421716690E-001;-4.219483118504286E-003;4.791455809026957E-003;-5.509556503966451E-004;
2.412833333333334E+009;1.792110800743103E-001;-6.898262538015842E-003;4.765062592923641E-003;-8.605000330135226E-004;
2.413000000000000E+009;1.798147261142731E-001;-9.459907189011574E-003;4.828620236366987E-003;-8.609152864664793E-004;
2.413166666666667E+009;1.806412488222122E-001;-1.209182851016522E-002;4.855982493609190E-003;-1.196046359837055E-003;
2.413333333333334E+009;1.814940869808197E-001;-1.474205497652292E-002;4.920313600450754E-003;-1.421686494722962E-003;
2.413500000000000E+009;1.824372410774231E-001;-1.715172082185745E-002;4.932741168886423E-003;-1.551114139147103E-003;
2.413666666666667E+009;1.837129145860672E-001;-1.950153894722462E-002;4.860809072852135E-003;-1.783869927749038E-003;
2.413833333333334E+009;1.847666203975678E-001;-2.185933850705624E-002;4.910212475806475E-003;-2.154147718101740E-003;
2.414000000000000E+009;1.859138458967209E-001;-2.412254363298416E-002;4.898873157799244E-003;-2.370911417528987E-003;
2.414166666666667E+009;1.872768998146057E-001;-2.615620940923691E-002;4.617830272763968E-003;-2.554151928052306E-003;
2.414333333333334E+009;1.884889453649521E-001;-2.852266468107700E-002;4.512075800448656E-003;-2.797476015985012E-003;
2.414500000000000E+009;1.897759586572647E-001;-3.018219955265522E-002;4.359738435596228E-003;-3.015083726495504E-003;
2.414666666666667E+009;1.911474466323853E-001;-3.189526125788689E-002;4.178682342171669E-003;-3.104611998423934E-003;
2.414833333333334E+009;1.924714297056198E-001;-3.353806957602501E-002;3.929430153220892E-003;-3.293907968327403E-003;
2.415000000000000E+009;1.937263756990433E-001;-3.507675230503082E-002;3.836364485323429E-003;-3.486910136416555E-003;
2.415166666666667E+009;1.953321546316147E-001;-3.625697270035744E-002;3.845702856779099E-003;-3.540274221450090E-003;
2.415333333333334E+009;1.967188715934753E-001;-3.734166175127029E-002;3.554197493940592E-003;-3.606805810704827E-003;
2.415500000000000E+009;1.979863494634628E-001;-3.830834478139877E-002;3.447479335591197E-003;-3.778109094128013E-003;
2.415666666666667E+009;1.993501931428909E-001;-3.937547281384468E-002;3.368214704096317E-003;-3.873632755130529E-003;
2.415833333333334E+009;2.004558891057968E-001;-3.991577401757240E-002;3.201560582965612E-003;-3.923470154404640E-003;
2.416000000000000E+009;2.015282511711121E-001;-4.063433408737183E-002;3.135029459372163E-003;-4.101948812603951E-003;
2.416166666666667E+009;2.025402784347534E-001;-4.125562310218811E-002;3.066849894821644E-003;-4.264946561306715E-003;
2.416333333333334E+009;2.035581767559052E-001;-4.148832336068153E-002;2.882887842133641E-003;-4.412928130477667E-003;
2.416500000000000E+009;2.042619436979294E-001;-4.185521230101585E-002;2.654700074344873E-003;-4.649398382753134E-003;
2.416666666666667E+009;2.049563378095627E-001;-4.214772209525108E-002;2.401219680905342E-003;-4.777944181114435E-003;
2.416833333333334E+009;2.052434980869293E-001;-4.224129021167755E-002;2.172935521230102E-003;-4.735287278890610E-003;
2.417000000000000E+009;2.056949138641357E-001;-4.229598119854927E-002;1.956504071131349E-003;-4.921170882880688E-003;
2.417166666666667E+009;2.057457119226456E-001;-4.210364073514938E-002;1.690933131612837E-003;-4.971548449248076E-003;
2.417333333333334E+009;2.057346701622009E-001;-4.184802249073982E-002;1.345864962786436E-003;-4.842058755457401E-003;
2.417500000000000E+009;2.057707607746124E-001;-4.179050028324127E-002;1.242274185642600E-003;-4.847733303904533E-003;
2.417666666666667E+009;2.054820358753204E-001;-4.157135635614395E-002;9.466247865930200E-004;-4.697984550148249E-003;
2.417833333333334E+009;2.051775455474854E-001;-4.115768149495125E-002;8.467806037515402E-004;-4.889902658760548E-003;
2.418000000000000E+009;2.046863883733749E-001;-4.069007933139801E-002;5.130947683937848E-004;-4.619861487299204E-003;
2.418166666666667E+009;2.040322721004486E-001;-4.048665612936020E-002;5.343016237020493E-004;-4.601139109581709E-003;
2.418333333333334E+009;2.032037377357483E-001;-4.001043364405632E-002;4.971234593540430E-004;-4.521074704825878E-003;
2.418500000000000E+009;2.023540735244751E-001;-4.000248387455940E-002;2.295481826877222E-004;-4.516347311437130E-003;
2.418666666666667E+009;2.014934718608856E-001;-3.959472849965096E-002;2.024646528298035E-004;-4.433340858668089E-003;
2.418833333333334E+009;2.002884447574616E-001;-3.963363170623779E-002;1.882858778117225E-004;-4.551507532596588E-003;
2.419000000000000E+009;1.991290897130966E-001;-3.955353796482086E-002;9.647980186855421E-005;-4.414577968418598E-003;
2.419166666666667E+009;1.978167146444321E-001;-3.982572257518768E-002;-5.589893407886848E-005;-4.539650399237871E-003;
2.419333333333334E+009;1.961976885795593E-001;-4.000021889805794E-002;-1.929426507558674E-004;-4.322833847254515E-003;
2.419500000000000E+009;1.946548372507095E-001;-4.026876762509346E-002;-3.741143736988306E-004;-4.462503828108311E-003;
2.419666666666667E+009;1.931379437446594E-001;-4.075760766863823E-002;-3.993386053480208E-004;-4.382174927741289E-003;
2.419833333333334E+009;1.912711709737778E-001;-4.123194888234139E-002;-5.088326288387179E-004;-4.302855115383863E-003;
2.420000000000000E+009;1.897914558649063E-001;-4.196332395076752E-002;-6.524159107357264E-004;-4.225244745612145E-003;
2.420166666666667E+009;1.879338771104813E-001;-4.270771518349648E-002;-7.186332368291915E-004;-4.187761340290308E-003;
2.420333333333334E+009;1.860970556735992E-001;-4.368628561496735E-002;-8.807722479104996E-004;-4.320078995078802E-003;
2.420500000000000E+009;1.843539774417877E-001;-4.489506781101227E-002;-9.154953877441585E-004;-4.275305196642876E-003;
2.420666666666667E+009;1.825205385684967E-001;-4.585347324609757E-002;-1.160031417384744E-003;-4.330697935074568E-003;
2.420833333333334E+009;1.806404590606690E-001;-4.735107347369194E-002;-1.229585381224752E-003;-4.258942324668169E-003;
2.421000000000000E+009;1.790354847908020E-001;-4.883670434355736E-002;-1.227303873747587E-003;-4.105718806385994E-003;
2.421166666666667E+009;1.773118674755096E-001;-5.036418512463570E-002;-1.326181693002582E-003;-4.092855378985405E-003;
2.421333333333334E+009;1.754363924264908E-001;-5.193828046321869E-002;-1.557450392283499E-003;-4.118749406188726E-003;
2.421500000000000E+009;1.739950776100159E-001;-5.384279042482376E-002;-1.580759766511619E-003;-3.871947526931763E-003;
2.421666666666667E+009;1.725157052278519E-001;-5.574675649404526E-002;-1.626991666853428E-003;-3.969170153141022E-003;
2.421833333333334E+009;1.710813641548157E-001;-5.766044557094574E-002;-1.938336412422359E-003;-3.779140999540687E-003;
2.422000000000000E+009;1.696761101484299E-001;-5.966045334935188E-002;-1.849682885222137E-003;-3.702818648889661E-003;
2.422166666666667E+009;1.688398867845535E-001;-6.185139343142510E-002;-1.995410537347198E-003;-3.879596479237080E-003;
2.422333333333334E+009;1.676451712846756E-001;-6.406765431165695E-002;-2.091668779030442E-003;-3.678112756460905E-003;
2.422500000000000E+009;1.666844785213471E-001;-6.602481752634049E-002;-2.160822274163365E-003;-3.624875331297517E-003;
2.422666666666667E+009;1.657524853944778E-001;-6.830622255802155E-002;-2.402416896075010E-003;-3.546567168086767E-003;
2.422833333333334E+009;1.651813238859177E-001;-7.062435895204544E-002;-2.471038140356541E-003;-3.401650115847588E-003;
2.423000000000000E+009;1.646184474229813E-001;-7.292517274618149E-002;-2.606952330097556E-003;-3.371732775121927E-003;
2.423166666666667E+009;1.641093194484711E-001;-7.512816786766052E-002;-2.698696684092283E-003;-3.381378715857863E-003;
2.423333333333334E+009;1.638444811105728E-001;-7.744229584932327E-002;-2.900837222114205E-003;-3.329243045300245E-003;
2.423500000000000E+009;1.637417376041412E-001;-7.954469323158264E-002;-2.847166033461690E-003;-3.119282657280564E-003;
2.423666666666667E+009;1.636359989643097E-001;-8.169458806514740E-002;-2.876460086554289E-003;-3.128728596493602E-003;
2.423833333333334E+009;1.636453568935394E-001;-8.367877453565598E-002;-3.139659762382507E-003;-2.970434725284576E-003;
2.424000000000000E+009;1.637363284826279E-001;-8.588369935750961E-002;-3.136849030852318E-003;-3.004137892276049E-003;
2.424166666666667E+009;1.638288497924805E-001;-8.773235231637955E-002;-3.235012060031295E-003;-2.753383014351130E-003;
2.424333333333334E+009;1.640087962150574E-001;-8.952020108699799E-002;-3.307830542325974E-003;-2.657423727214336E-003;
2.424500000000000E+009;1.644165366888046E-001;-9.155819565057755E-002;-3.255976829677820E-003;-2.435415983200073E-003;
2.424666666666667E+009;1.647546440362930E-001;-9.320407360792160E-002;-3.437946317717433E-003;-2.351203933358192E-003;
2.424833333333334E+009;1.653683036565781E-001;-9.465988725423813E-002;-3.609254956245422E-003;-2.239262685179710E-003;
2.425000000000000E+009;1.658577769994736E-001;-9.619719535112381E-002;-3.512797877192497E-003;-2.279241103678942E-003;
2.425166666666667E+009;1.662164777517319E-001;-9.745547920465469E-002;-3.594320500269532E-003;-2.092217560857534E-003;
2.425333333333334E+009;1.668258458375931E-001;-9.868866205215454E-002;-3.766346490010619E-003;-2.068478381261230E-003;
2.425500000000000E+009;1.674407869577408E-001;-9.983365982770920E-002;-3.781664883717895E-003;-1.755595440044999E-003;
2.425666666666667E+009;1.680489033460617E-001;-1.006885394454002E-001;-3.906824626028538E-003;-1.691808458417654E-003;
2.425833333333334E+009;1.685289442539215E-001;-1.018372923135757E-001;-4.016836639493704E-003;-1.466263202019036E-003;
2.426000000000000E+009;1.691634953022003E-001;-1.022803559899330E-001;-3.991017118096352E-003;-1.301861251704395E-003;
2.426166666666667E+009;1.697322130203247E-001;-1.029179543256760E-001;-4.040879663079977E-003;-1.194456010125577E-003;
2.426333333333334E+009;1.700575500726700E-001;-1.036034673452377E-001;-3.947861492633820E-003;-9.188515250571072E-004;
2.426500000000000E+009;1.705968976020813E-001;-1.038456857204437E-001;-3.949950449168682E-003;-7.935815374366939E-004;
2.426666666666667E+009;1.710617691278458E-001;-1.042348444461823E-001;-4.036338534206152E-003;-6.407242617569864E-004;
2.426833333333334E+009;1.715609580278397E-001;-1.045367121696472E-001;-4.033279139548540E-003;-4.466140817385167E-004;
2.427000000000000E+009;1.718077510595322E-001;-1.047724634408951E-001;-3.912241198122501E-003;-4.143776313867420E-004;
2.427166666666667E+009;1.719897389411926E-001;-1.049018651247025E-001;-4.152087029069662E-003;-2.018170926021412E-004;
2.427333333333334E+009;1.721028387546539E-001;-1.050436124205589E-001;-3.937604837119579E-003;-1.669651974225417E-004;
2.427500000000000E+009;1.721050292253494E-001;-1.051054969429970E-001;-3.916665446013212E-003;-1.368985340377549E-005;
2.427666666666667E+009;1.720243841409683E-001;-1.051498278975487E-001;-3.810304217040539E-003;1.690131030045450E-004;
2.427833333333334E+009;1.718893051147461E-001;-1.050628125667572E-001;-3.716101637110114E-003;3.692199243232608E-004;
