# Version 1.00
#
freq[Hz];re:Trc1_S11;im:Trc1_S11;re:Trc2_S21;im:Trc2_S21;
2.400000000000000E+009;1.553801447153091E-001;1.115192696452141E-001;-3.162486245855689E-003;3.982579335570335E-003;
2.400166666666667E+009;1.548077911138535E-001;1.090555936098099E-001;-3.170118667185307E-003;4.280863795429468E-003;
2.400333333333334E+009;1.546607613563538E-001;1.069527715444565E-001;-3.126313909888268E-003;4.511601757258177E-003;
2.400500000000000E+009;1.543787270784378E-001;1.042085438966751E-001;-2.911376999691129E-003;4.815757740288973E-003;
2.400666666666667E+009;1.541461944580078E-001;1.017021089792252E-001;-2.795657841488719E-003;4.968489520251751E-003;
2.400833333333334E+009;1.539555341005325E-001;9.867591410875320E-002;-2.749615116044879E-003;5.227658431977034E-003;
2.401000000000000E+009;1.539500355720520E-001;9.604293107986450E-002;-2.456458285450935E-003;5.452701821923256E-003;
2.401166666666667E+009;1.536598205566406E-001;9.306712448596954E-002;-2.343229018151760E-003;5.436685401946306E-003;
2.401333333333334E+009;1.538158208131790E-001;9.010745584964752E-002;-2.024131594225764E-003;5.741653032600880E-003;
2.401500000000000E+009;1.540584862232208E-001;8.699188381433487E-002;-1.723121618852019E-003;5.839573219418526E-003;
2.401666666666667E+009;1.540480703115463E-001;8.408874273300171E-002;-1.531678717583418E-003;5.887135863304138E-003;
2.401833333333334E+009;1.542153656482697E-001;8.125562220811844E-002;-1.112195313908160E-003;6.025984417647123E-003;
2.402000000000000E+009;1.549290418624878E-001;7.817108184099197E-002;-9.521620231680572E-004;6.005825009196997E-003;
2.402166666666667E+009;1.556268930435181E-001;7.560165226459503E-002;-7.273454102687538E-004;6.106218323111534E-003;
2.402333333333334E+009;1.564672440290451E-001;7.251726090908051E-002;-4.408188688103110E-004;6.069301627576351E-003;
2.402500000000000E+009;1.572601497173309E-001;6.982221454381943E-002;-1.553088368382305E-004;6.068469956517220E-003;
2.402666666666667E+009;1.583502441644669E-001;6.724729388952255E-002;-3.756084333872423E-005;6.105591543018818E-003;
2.402833333333334E+009;1.596686393022537E-001;6.442545354366303E-002;4.023160727228969E-004;6.153764203190804E-003;
2.403000000000000E+009;1.609360426664352E-001;6.188182532787323E-002;6.882433663122356E-004;6.059477571398020E-003;
2.403166666666667E+009;1.626020669937134E-001;5.970031768083572E-002;8.608580101281405E-004;6.005679722875357E-003;
2.403333333333334E+009;1.640226244926453E-001;5.709410458803177E-002;1.235472969710827E-003;5.799255333840847E-003;
2.403500000000000E+009;1.656871736049652E-001;5.490923672914505E-002;1.388456323184073E-003;5.664322990924120E-003;
2.403666666666667E+009;1.675528734922409E-001;5.270239338278770E-002;1.695359474979341E-003;5.684822332113981E-003;
2.403833333333334E+009;1.693548113107681E-001;5.058524385094643E-002;1.632351893931627E-003;5.427410826086998E-003;
2.404000000000000E+009;1.710790544748306E-001;4.875509813427925E-002;2.031501382589340E-003;5.479279439896345E-003;
2.404166666666667E+009;1.728814095258713E-001;4.698126763105393E-002;2.194523578509688E-003;5.136025138199329E-003;
2.404333333333334E+009;1.747801303863525E-001;4.532329365611076E-002;2.220364520326257E-003;5.093865096569061E-003;
2.404500000000000E+009;1.765426397323608E-001;4.364077374339104E-002;2.535167150199413E-003;5.067725200206041E-003;
2.404666666666667E+009;1.784115284681320E-001;4.246864467859268E-002;2.650969894602895E-003;4.863438196480274E-003;
2.404833333333334E+009;1.804838031530380E-001;4.128814488649368E-002;2.765649463981390E-003;4.804375581443310E-003;
2.405000000000000E+009;1.818481087684631E-001;4.048946499824524E-002;2.803162904456258E-003;4.581024404615164E-003;
2.405166666666667E+009;1.838463097810745E-001;3.969065845012665E-002;2.889040857553482E-003;4.511565901339054E-003;
2.405333333333334E+009;1.854989677667618E-001;3.908420726656914E-002;3.187302965670824E-003;4.426236730068922E-003;
2.405500000000000E+009;1.871770620346069E-001;3.857677802443504E-002;3.355941269546747E-003;4.473143257200718E-003;
2.405666666666667E+009;1.885644942522049E-001;3.816119581460953E-002;3.456266596913338E-003;4.202455747872591E-003;
2.405833333333334E+009;1.902083605527878E-001;3.787698224186897E-002;3.577179741114378E-003;4.010050557553768E-003;
2.406000000000000E+009;1.914213597774506E-001;3.764043375849724E-002;3.711067605763674E-003;3.895428730174899E-003;
2.406166666666667E+009;1.927838176488876E-001;3.774230927228928E-002;4.026249516755343E-003;3.639961592853069E-003;
2.406333333333334E+009;1.939823627471924E-001;3.786425292491913E-002;4.057745914906263E-003;3.528357716277242E-003;
2.406500000000000E+009;1.950263828039169E-001;3.797882795333862E-002;4.228020086884499E-003;3.323053009808064E-003;
2.406666666666667E+009;1.958671659231186E-001;3.816445916891098E-002;4.320632200688124E-003;3.029796062037349E-003;
2.406833333333334E+009;1.967016309499741E-001;3.849092125892639E-002;4.444455262273550E-003;2.796049462631345E-003;
2.407000000000000E+009;1.972293406724930E-001;3.899595141410828E-002;4.404270555824041E-003;2.715020207688212E-003;
2.407166666666667E+009;1.979142278432846E-001;3.895009309053421E-002;4.312529694288969E-003;2.420119009912014E-003;
2.407333333333334E+009;1.981345862150192E-001;3.941809758543968E-002;4.339171573519707E-003;2.212518593296409E-003;
2.407500000000000E+009;1.981628090143204E-001;3.977201879024506E-002;4.412856418639422E-003;2.117634052410722E-003;
2.407666666666667E+009;1.984468847513199E-001;4.009892046451569E-002;4.364575259387493E-003;2.180458744987845E-003;
2.407833333333334E+009;1.981141567230225E-001;4.032475501298904E-002;4.317787010222673E-003;1.918177236802876E-003;
2.408000000000000E+009;1.982091367244721E-001;4.051076620817184E-002;4.309379495680332E-003;1.728712464682758E-003;
2.408166666666667E+009;1.976728886365891E-001;4.035321250557900E-002;4.215674009174109E-003;1.541793346405029E-003;
2.408333333333334E+009;1.973514854907990E-001;4.034203663468361E-002;4.370708949863911E-003;1.529917237348855E-003;
2.408500000000000E+009;1.968876570463181E-001;4.035844281315804E-002;4.209569655358791E-003;1.320701790973544E-003;
2.408666666666667E+009;1.961966007947922E-001;4.013291373848915E-002;4.220605362206698E-003;1.222782651893795E-003;
2.408833333333334E+009;1.954875439405441E-001;3.967641294002533E-002;4.196384921669960E-003;1.146896509453654E-003;
2.409000000000000E+009;1.946978867053986E-001;3.913010656833649E-002;4.178159404546022E-003;1.077535096555948E-003;
2.409166666666667E+009;1.935006529092789E-001;3.850765898823738E-002;4.224827047437429E-003;7.728086784482002E-004;
2.409333333333334E+009;1.926903575658798E-001;3.778649866580963E-002;4.055132623761892E-003;7.571230526082218E-004;
2.409500000000000E+009;1.913370788097382E-001;3.673401102423668E-002;4.150209482759237E-003;7.397567969746888E-004;
2.409666666666667E+009;1.904423385858536E-001;3.549114614725113E-002;4.028961993753910E-003;7.618590025231242E-004;
2.409833333333334E+009;1.891165524721146E-001;3.434608131647110E-002;4.064328502863646E-003;7.346499478444457E-004;
2.410000000000000E+009;1.881337165832520E-001;3.287633508443832E-002;3.883064026013017E-003;7.098693167790771E-004;
2.410166666666667E+009;1.867658197879791E-001;3.113237209618092E-002;3.905232530087233E-003;7.037107134237886E-004;
2.410333333333334E+009;1.858154535293579E-001;2.960139885544777E-002;4.005160648375750E-003;7.261094287969172E-004;
2.410500000000000E+009;1.843450218439102E-001;2.746680565178394E-002;4.032819531857967E-003;6.995160947553814E-004;
2.410666666666667E+009;1.833243519067764E-001;2.540592476725578E-002;4.092191345989704E-003;5.352998850867152E-004;
2.410833333333334E+009;1.823964565992355E-001;2.319850958883762E-002;4.069103393703699E-003;6.637033657170832E-004;
2.411000000000000E+009;1.813275963068008E-001;2.107902243733406E-002;4.237404558807612E-003;4.015060549136251E-004;
2.411166666666667E+009;1.805264055728912E-001;1.886706799268723E-002;4.246812779456377E-003;3.119613102171570E-004;
2.411333333333334E+009;1.796540766954422E-001;1.616353914141655E-002;4.299700260162354E-003;3.453333629295230E-004;
2.411500000000000E+009;1.790457516908646E-001;1.400905661284924E-002;4.257392603904009E-003;-1.014495683193672E-005;
2.411666666666667E+009;1.786915063858032E-001;1.139972358942032E-002;4.508949816226959E-003;1.163808119599707E-004;
2.411833333333334E+009;1.780622005462647E-001;9.051842615008354E-003;4.594813566654921E-003;3.249283690820448E-005;
2.412000000000000E+009;1.780048906803131E-001;6.344257388263941E-003;4.561767913401127E-003;-1.698569540167227E-004;
2.412166666666667E+009;1.777909696102142E-001;3.863815683871508E-003;4.471575375646353E-003;-4.097475321032107E-004;
2.412333333333334E+009;1.780466735363007E-001;1.008784398436546E-003;4.692473448812962E-003;-3.505231288727373E-004;
2.412500000000000E+009;1.782762110233307E-001;-1.515180454589427E-003;4.533788189291954E-003;-6.254533072933555E-004;
2.412666666666667E+009;1.786352396011353E-001;-4.187442362308502E-003;4.807201214134693E-003;-6.337287486530840E-004;
2.412833333333334E+009;1.791273951530457E-001;-7.060064002871513E-003;4.695624578744173E-003;-7.603782578371465E-004;
2.413000000000000E+009;1.796797364950180E-001;-9.514122270047665E-003;4.743663128465414E-003;-1.002689823508263E-003;
2.413166666666667E+009;1.806043386459351E-001;-1.205071341246367E-002;4.885299131274223E-003;-1.104809925891459E-003;
2.413333333333334E+009;1.815405786037445E-001;-1.465657353401184E-002;4.810629412531853E-003;-1.445827656425536E-003;
2.413500000000000E+009;1.825535893440247E-001;-1.708598621189594E-002;4.909927491098642E-003;-1.543754246085882E-003;
2.413666666666667E+009;1.835785806179047E-001;-1.976284012198448E-002;4.876708611845970E-003;-1.696772989816964E-003;
2.413833333333334E+009;1.847907900810242E-001;-2.187972515821457E-002;4.741199780255556E-003;-2.059151884168387E-003;
2.414000000000000E+009;1.858805567026138E-001;-2.409472875297070E-002;4.743413068354130E-003;-2.280090702697635E-003;
2.414166666666667E+009;1.873293668031693E-001;-2.624553255736828E-002;4.682655446231365E-003;-2.654711250215769E-003;
2.414333333333334E+009;1.882593631744385E-001;-2.845109626650810E-002;4.445097874850035E-003;-2.764961682260037E-003;
2.414500000000000E+009;1.897431612014771E-001;-3.025741130113602E-002;4.260522313416004E-003;-2.888766815885902E-003;
2.414666666666667E+009;1.912531554698944E-001;-3.181614354252815E-002;4.157018847763538E-003;-3.221718361601234E-003;
2.414833333333334E+009;1.925044953823090E-001;-3.345091268420219E-002;4.153623711317778E-003;-3.217126475647092E-003;
2.415000000000000E+009;1.936910897493362E-001;-3.482982888817787E-002;3.848371328786016E-003;-3.395087085664272E-003;
2.415166666666667E+009;1.952490210533142E-001;-3.628440946340561E-002;3.727842355147004E-003;-3.517951583489776E-003;
2.415333333333334E+009;1.965923011302948E-001;-3.741483017802239E-002;3.484325017780066E-003;-3.662908682599664E-003;
2.415500000000000E+009;1.979873329401016E-001;-3.833873942494392E-002;3.539765253663063E-003;-3.773797070607543E-003;
2.415666666666667E+009;1.993262171745300E-001;-3.922226652503014E-002;3.259311430156231E-003;-3.869260661303997E-003;
2.415833333333334E+009;2.004275918006897E-001;-3.993510082364082E-002;3.347456455230713E-003;-3.960769623517990E-003;
2.416000000000000E+009;2.015736699104309E-001;-4.073762521147728E-002;3.108898876234889E-003;-4.240374080836773E-003;
2.416166666666667E+009;2.025564759969711E-001;-4.132095351815224E-002;2.929549198597670E-003;-4.417298361659050E-003;
2.416333333333334E+009;2.035454213619232E-001;-4.169823974370956E-002;2.739015035331249E-003;-4.582209512591362E-003;
2.416500000000000E+009;2.042382508516312E-001;-4.198452830314636E-002;2.458296017721295E-003;-4.487606696784496E-003;
2.416666666666667E+009;2.048569470643997E-001;-4.220595955848694E-002;2.288062358275056E-003;-4.780098795890808E-003;
2.416833333333334E+009;2.053381353616715E-001;-4.217176139354706E-002;2.031978452578187E-003;-4.869026597589254E-003;
2.417000000000000E+009;2.056514918804169E-001;-4.236434400081635E-002;1.856264076195657E-003;-4.773020278662443E-003;
2.417166666666667E+009;2.057567536830902E-001;-4.218696802854538E-002;1.655050320550799E-003;-4.825687501579523E-003;
2.417333333333334E+009;2.056638002395630E-001;-4.198991507291794E-002;1.367849181406200E-003;-4.904404748231173E-003;
2.417500000000000E+009;2.057670950889587E-001;-4.192922264337540E-002;1.165446825325489E-003;-4.943917505443096E-003;
2.417666666666667E+009;2.054411619901657E-001;-4.157772287726402E-002;1.100637135095894E-003;-4.744169767946005E-003;
2.417833333333334E+009;2.050902992486954E-001;-4.114384949207306E-002;8.219891460612416E-004;-4.855832085013390E-003;
2.418000000000000E+009;2.046187222003937E-001;-4.082219302654266E-002;6.831231294199824E-004;-4.634030163288117E-003;
2.418166666666667E+009;2.040520459413528E-001;-4.043265432119370E-002;5.987437325529754E-004;-4.675261210650206E-003;
2.418333333333334E+009;2.032816857099533E-001;-4.020240157842636E-002;4.497409972827882E-004;-4.535322077572346E-003;
2.418500000000000E+009;2.023636400699616E-001;-4.002902656793594E-002;2.086199383484200E-004;-4.515697713941336E-003;
2.418666666666667E+009;2.014578580856323E-001;-3.972761332988739E-002;2.594479010440409E-004;-4.503734409809113E-003;
2.418833333333334E+009;2.001840472221375E-001;-3.967237472534180E-002;1.395441940985620E-004;-4.424601793289185E-003;
2.419000000000000E+009;1.989509910345078E-001;-3.952965885400772E-002;-2.065567423414905E-005;-4.497803281992674E-003;
2.419166666666667E+009;1.976282745599747E-001;-3.962275385856628E-002;-3.063146141357720E-005;-4.507662262767553E-003;
2.419333333333334E+009;1.962785869836807E-001;-4.000319540500641E-002;-2.249386598123238E-004;-4.347108770161867E-003;
2.419500000000000E+009;1.946458220481873E-001;-4.017733037471771E-002;-2.247782540507615E-004;-4.372447263449431E-003;
2.419666666666667E+009;1.930491775274277E-001;-4.072679206728935E-002;-3.535632858984172E-004;-4.353936295956373E-003;
2.419833333333334E+009;1.913040578365326E-001;-4.122371226549149E-002;-4.860394983552396E-004;-4.298769403249025E-003;
2.420000000000000E+009;1.897077858448029E-001;-4.187875241041184E-002;-6.690470036119223E-004;-4.297235514968634E-003;
2.420166666666667E+009;1.879670172929764E-001;-4.279417917132378E-002;-8.256552973762155E-004;-4.266833886504173E-003;
2.420333333333334E+009;1.860923916101456E-001;-4.361046850681305E-002;-7.681766292080283E-004;-4.293472506105900E-003;
2.420500000000000E+009;1.842501908540726E-001;-4.489102587103844E-002;-9.330417378805578E-004;-4.336117301136255E-003;
2.420666666666667E+009;1.824876517057419E-001;-4.585295543074608E-002;-1.097913365811110E-003;-4.334967117756605E-003;
2.420833333333334E+009;1.805834174156189E-001;-4.733670875430107E-002;-1.257773372344673E-003;-4.112566355615854E-003;
2.421000000000000E+009;1.791222989559174E-001;-4.874796420335770E-002;-1.285206642933190E-003;-4.108543042093515E-003;
2.421166666666667E+009;1.772319078445435E-001;-5.050448328256607E-002;-1.438320148736239E-003;-3.982529044151306E-003;
2.421333333333334E+009;1.755383014678955E-001;-5.184217914938927E-002;-1.566669088788331E-003;-3.911701031029224E-003;
2.421500000000000E+009;1.740264594554901E-001;-5.380898714065552E-002;-1.641717273741961E-003;-3.892095992341638E-003;
2.421666666666667E+009;1.724901199340820E-001;-5.571399629116058E-002;-1.707100658677518E-003;-3.749431110918522E-003;
2.421833333333334E+009;1.711572706699371E-001;-5.771287158131599E-002;-1.741153886541724E-003;-3.694348502904177E-003;
2.422000000000000E+009;1.697966307401657E-001;-5.970697477459908E-002;-1.936335116624832E-003;-3.818959463387728E-003;
2.422166666666667E+009;1.688214093446732E-001;-6.188717111945152E-002;-1.994827762246132E-003;-3.797577926889062E-003;
2.422333333333334E+009;1.675163805484772E-001;-6.401087343692780E-002;-2.161878859624267E-003;-3.671614686027169E-003;
2.422500000000000E+009;1.667447537183762E-001;-6.604135781526566E-002;-2.333458978682756E-003;-3.629377577453852E-003;
2.422666666666667E+009;1.658526062965393E-001;-6.847608834505081E-002;-2.427548868581653E-003;-3.676485270261765E-003;
2.422833333333334E+009;1.652732789516449E-001;-7.066766172647476E-002;-2.405339153483510E-003;-3.426889423280954E-003;
2.423000000000000E+009;1.645919680595398E-001;-7.296574115753174E-002;-2.420707140117884E-003;-3.377917455509305E-003;
2.423166666666667E+009;1.642152220010757E-001;-7.515939325094223E-002;-2.726842649281025E-003;-3.240234684199095E-003;
2.423333333333334E+009;1.638969480991364E-001;-7.739859819412231E-002;-2.777304733172059E-003;-3.216375596821308E-003;
2.423500000000000E+009;1.635937094688416E-001;-7.936899363994598E-002;-2.949895570054650E-003;-3.114139894023538E-003;
2.423666666666667E+009;1.636539101600647E-001;-8.164832741022110E-002;-3.044382901862264E-003;-3.046759404242039E-003;
2.423833333333334E+009;1.634147763252258E-001;-8.370626717805862E-002;-3.058256115764380E-003;-2.903444226831198E-003;
2.424000000000000E+009;1.637310385704041E-001;-8.587545156478882E-002;-3.113554557785392E-003;-2.669802634045482E-003;
2.424166666666667E+009;1.636284142732620E-001;-8.775542676448822E-002;-3.083977848291397E-003;-2.805723110213876E-003;
2.424333333333334E+009;1.640618145465851E-001;-8.960872888565064E-002;-3.231017151847482E-003;-2.606156980618835E-003;
2.424500000000000E+009;1.645011454820633E-001;-9.161163866519928E-002;-3.493189113214612E-003;-2.398524200543761E-003;
2.424666666666667E+009;1.647944152355194E-001;-9.318730235099793E-002;-3.460846142843366E-003;-2.505716867744923E-003;
2.424833333333334E+009;1.654910743236542E-001;-9.482800215482712E-002;-3.481298219412565E-003;-2.397113479673863E-003;
2.425000000000000E+009;1.658629775047302E-001;-9.618713706731796E-002;-3.718175692483783E-003;-2.197720110416412E-003;
2.425166666666667E+009;1.664058268070221E-001;-9.755208343267441E-002;-3.546502441167831E-003;-2.215021289885044E-003;
2.425333333333334E+009;1.668142378330231E-001;-9.863137453794479E-002;-3.788943169638515E-003;-1.909341081045568E-003;
2.425500000000000E+009;1.674448847770691E-001;-9.978675097227097E-002;-3.811870701611042E-003;-1.581736491061747E-003;
2.425666666666667E+009;1.679007560014725E-001;-1.006812602281570E-001;-4.040217027068138E-003;-1.629854785278440E-003;
2.425833333333334E+009;1.684407591819763E-001;-1.016936227679253E-001;-3.910305909812450E-003;-1.433855853974819E-003;
2.426000000000000E+009;1.690435856580734E-001;-1.022159829735756E-001;-3.958976827561855E-003;-1.247331732884049E-003;
2.426166666666667E+009;1.697041094303131E-001;-1.029496937990189E-001;-4.034110810607672E-003;-1.087102806195617E-003;
2.426333333333334E+009;1.700145155191422E-001;-1.035653129220009E-001;-3.910394851118326E-003;-8.638156577944756E-004;
2.426500000000000E+009;1.706729531288147E-001;-1.038365662097931E-001;-4.071403760462999E-003;-7.078154594637454E-004;
2.426666666666667E+009;1.711947619915009E-001;-1.042343676090241E-001;-4.086352884769440E-003;-5.699820467270911E-004;
2.426833333333334E+009;1.715235710144043E-001;-1.045225784182549E-001;-4.006074741482735E-003;-5.684870411641896E-004;
2.427000000000000E+009;1.718011498451233E-001;-1.047844216227531E-001;-3.970533143728972E-003;-4.479221533983946E-004;
2.427166666666667E+009;1.720642745494843E-001;-1.048097312450409E-001;-3.879776457324624E-003;-2.984773309435695E-004;
2.427333333333334E+009;1.721220314502716E-001;-1.049665138125420E-001;-3.793975571170449E-003;-1.803675695555285E-004;
2.427500000000000E+009;1.720664650201798E-001;-1.051002815365791E-001;-3.818940138444305E-003;3.033556095033418E-005;
2.427666666666667E+009;1.720631718635559E-001;-1.050358712673187E-001;-3.814181545749307E-003;6.143214704934508E-005;
2.427833333333334E+009;1.718347519636154E-001;-1.050086617469788E-001;-3.755893325433135E-003;2.995462273247540E-004;
