# Version 1.00
#
freq[Hz];re:Trc1_S11;im:Trc1_S11;re:Trc2_S21;im:Trc2_S21;
2.400000000000000E+009;1.554237604141235E-001;1.062503457069397E-001;1.688696327619255E-003;-8.165294304490089E-003;
2.400166666666667E+009;1.551656872034073E-001;1.038705036044121E-001;1.434795907698572E-003;-8.008535020053387E-003;
2.400333333333334E+009;1.552054733037949E-001;1.016217768192291E-001;1.100903842598200E-003;-7.833412848412991E-003;
2.400500000000000E+009;1.550632715225220E-001;9.895759075880051E-002;8.394955075345933E-004;-7.410097401589155E-003;
2.400666666666667E+009;1.550952792167664E-001;9.637027978897095E-002;6.518038571812213E-004;-7.305830717086792E-003;
2.400833333333334E+009;1.550560593605042E-001;9.352618455886841E-002;5.696556763723493E-004;-7.045387756079435E-003;
2.401000000000000E+009;1.552019119262695E-001;9.055667370557785E-002;4.095875774510205E-004;-6.772056221961975E-003;
2.401166666666667E+009;1.553593277931213E-001;8.798084408044815E-002;4.734946414828301E-004;-6.557980552315712E-003;
2.401333333333334E+009;1.557611227035523E-001;8.516804128885269E-002;4.018041363451630E-004;-6.586008239537478E-003;
2.401500000000000E+009;1.561173349618912E-001;8.196681737899780E-002;6.254112231545150E-004;-6.452604662626982E-003;
2.401666666666667E+009;1.566019356250763E-001;7.921788096427918E-002;5.274721188470721E-004;-6.339356768876314E-003;
2.401833333333334E+009;1.569166928529739E-001;7.656693458557129E-002;5.555690731853247E-004;-6.290782708674669E-003;
2.402000000000000E+009;1.579118967056274E-001;7.376124709844589E-002;6.025142502039671E-004;-6.529954262077808E-003;
2.402166666666667E+009;1.586303710937500E-001;7.111030817031860E-002;6.930612144060433E-004;-6.424895022064447E-003;
2.402333333333334E+009;1.598292887210846E-001;6.831678748130798E-002;3.987400850746781E-004;-6.500308401882649E-003;
2.402500000000000E+009;1.609399616718292E-001;6.576932221651077E-002;4.634736687876284E-004;-6.660173181444407E-003;
2.402666666666667E+009;1.619511395692825E-001;6.338001787662506E-002;3.386450116522610E-004;-6.707517895847559E-003;
2.402833333333334E+009;1.631462424993515E-001;6.100948527455330E-002;1.315840199822560E-004;-6.922584027051926E-003;
2.403000000000000E+009;1.647281199693680E-001;5.844208970665932E-002;1.005239537335001E-004;-7.009890396147966E-003;
2.403166666666667E+009;1.663576364517212E-001;5.617904290556908E-002;-2.846256247721613E-004;-7.088910322636366E-003;
2.403333333333334E+009;1.679186969995499E-001;5.415697395801544E-002;-4.448928812053055E-004;-7.215600926429033E-003;
2.403500000000000E+009;1.696389317512512E-001;5.208321660757065E-002;-6.216114270500839E-004;-7.159197703003883E-003;
2.403666666666667E+009;1.712543815374374E-001;5.013843625783920E-002;-9.109770180657506E-004;-7.183264940977097E-003;
2.403833333333334E+009;1.727618575096130E-001;4.830404371023178E-002;-1.212978502735496E-003;-7.234947755932808E-003;
2.404000000000000E+009;1.742870211601257E-001;4.641774669289589E-002;-1.359851099550724E-003;-7.148456759750843E-003;
2.404166666666667E+009;1.759905368089676E-001;4.498241469264031E-002;-1.571842236444354E-003;-7.017022930085659E-003;
2.404333333333334E+009;1.776588112115860E-001;4.352876543998718E-002;-1.799908233806491E-003;-7.065463811159134E-003;
2.404500000000000E+009;1.792648881673813E-001;4.198787361383438E-002;-1.921608229167759E-003;-6.822030525654554E-003;
2.404666666666667E+009;1.809207946062088E-001;4.089700058102608E-002;-2.211282029747963E-003;-6.934321951121092E-003;
2.404833333333334E+009;1.825242191553116E-001;3.995649144053459E-002;-2.505338983610272E-003;-6.770252250134945E-003;
2.405000000000000E+009;1.838828921318054E-001;3.927180916070938E-002;-2.408844418823719E-003;-6.823441479355097E-003;
2.405166666666667E+009;1.853600442409515E-001;3.858063742518425E-002;-2.640576101839542E-003;-6.706997286528349E-003;
2.405333333333334E+009;1.868017017841339E-001;3.803182020783424E-002;-2.920337021350861E-003;-6.649489048868418E-003;
2.405500000000000E+009;1.881927400827408E-001;3.749190643429756E-002;-3.170378040522337E-003;-6.442023441195488E-003;
2.405666666666667E+009;1.893619149923325E-001;3.706011176109314E-002;-3.275223309174180E-003;-6.469037849456072E-003;
2.405833333333334E+009;1.905678957700729E-001;3.682908788323402E-002;-3.532713511958718E-003;-6.417124997824431E-003;
2.406000000000000E+009;1.916374564170837E-001;3.679843991994858E-002;-3.614640329033136E-003;-6.273401901125908E-003;
2.406166666666667E+009;1.925004422664642E-001;3.666845709085465E-002;-3.908445127308369E-003;-6.271979771554470E-003;
2.406333333333334E+009;1.935246437788010E-001;3.659372776746750E-002;-4.033493809401989E-003;-6.058347877115011E-003;
2.406500000000000E+009;1.942232996225357E-001;3.670818731188774E-002;-4.177086055278778E-003;-5.797469522804022E-003;
2.406666666666667E+009;1.947799772024155E-001;3.671901673078537E-002;-4.400187637656927E-003;-5.763409193605185E-003;
2.406833333333334E+009;1.952715814113617E-001;3.676452115178108E-002;-4.528399091213942E-003;-5.757955834269524E-003;
2.407000000000000E+009;1.955169290304184E-001;3.700882941484451E-002;-4.643667023628950E-003;-5.618595518171787E-003;
2.407166666666667E+009;1.958903223276138E-001;3.677476197481155E-002;-4.830768331885338E-003;-5.381084512919188E-003;
2.407333333333334E+009;1.957292556762695E-001;3.690981492400169E-002;-4.916375037282705E-003;-5.332690197974443E-003;
2.407500000000000E+009;1.957965642213821E-001;3.710958361625671E-002;-5.083316471427679E-003;-5.383804440498352E-003;
2.407666666666667E+009;1.957180351018906E-001;3.700624406337738E-002;-5.251158494502306E-003;-5.055962596088648E-003;
2.407833333333334E+009;1.950961649417877E-001;3.687928989529610E-002;-5.202335305511951E-003;-5.012887064367533E-003;
2.408000000000000E+009;1.950131952762604E-001;3.686371073126793E-002;-5.413312464952469E-003;-4.743283148854971E-003;
2.408166666666667E+009;1.943788081407547E-001;3.667153790593147E-002;-5.489198025316000E-003;-4.630743060261011E-003;
2.408333333333334E+009;1.939193606376648E-001;3.608407825231552E-002;-5.647151265293360E-003;-4.490464460104704E-003;
2.408500000000000E+009;1.931138932704926E-001;3.591905906796455E-002;-5.763039458543062E-003;-4.435092210769653E-003;
2.408666666666667E+009;1.925382614135742E-001;3.548715636134148E-002;-5.843071267008781E-003;-4.242290742695332E-003;
2.408833333333334E+009;1.918331831693649E-001;3.473070636391640E-002;-5.938775371760130E-003;-4.232972394675016E-003;
2.409000000000000E+009;1.908569037914276E-001;3.381578624248505E-002;-5.908465012907982E-003;-4.162956029176712E-003;
2.409166666666667E+009;1.897981464862824E-001;3.290408104658127E-002;-6.296511739492416E-003;-3.938338719308376E-003;
2.409333333333334E+009;1.888607293367386E-001;3.202335536479950E-002;-6.525139790028334E-003;-3.738881321623921E-003;
2.409500000000000E+009;1.876849383115768E-001;3.051469847559929E-002;-6.381609011441469E-003;-3.716994775459170E-003;
2.409666666666667E+009;1.866484433412552E-001;2.939318679273129E-002;-6.640619598329067E-003;-3.476702375337482E-003;
2.409833333333334E+009;1.856785565614700E-001;2.794521301984787E-002;-6.769662722945213E-003;-3.299070056527853E-003;
2.410000000000000E+009;1.846105605363846E-001;2.631453238427639E-002;-7.056119386106730E-003;-3.252653637900949E-003;
2.410166666666667E+009;1.835933476686478E-001;2.457840181887150E-002;-7.102330215275288E-003;-2.964701037853956E-003;
2.410333333333334E+009;1.826043277978897E-001;2.271602675318718E-002;-7.195360027253628E-003;-2.769806189462543E-003;
2.410500000000000E+009;1.814441084861755E-001;2.091900259256363E-002;-7.251545321196318E-003;-2.497535198926926E-003;
2.410666666666667E+009;1.807461678981781E-001;1.860984787344933E-002;-7.342088501900435E-003;-2.256366889923811E-003;
2.410833333333334E+009;1.801045536994934E-001;1.640193536877632E-002;-7.243805564939976E-003;-2.092667622491717E-003;
2.411000000000000E+009;1.792365461587906E-001;1.434954348951578E-002;-7.449186407029629E-003;-1.661207643337548E-003;
2.411166666666667E+009;1.785258352756500E-001;1.208134740591049E-002;-7.411071099340916E-003;-1.508695771917701E-003;
2.411333333333334E+009;1.780637800693512E-001;9.538771584630013E-003;-7.451819721609354E-003;-1.353347557596862E-003;
2.411500000000000E+009;1.776311546564102E-001;7.126226555556059E-003;-7.583956234157085E-003;-1.103091170080006E-003;
2.411666666666667E+009;1.775076687335968E-001;4.959464073181152E-003;-7.533010095357895E-003;-9.940160671249032E-004;
2.411833333333334E+009;1.771859526634216E-001;2.463933778926730E-003;-7.353686727583408E-003;-7.338574505411089E-004;
2.412000000000000E+009;1.773468255996704E-001;1.202412204293069E-005;-7.516220677644014E-003;-8.006219286471605E-004;
2.412166666666667E+009;1.774238944053650E-001;-2.305552363395691E-003;-7.655213586986065E-003;-4.762363387271762E-004;
2.412333333333334E+009;1.775859892368317E-001;-4.757505375891924E-003;-7.727939169853926E-003;-3.051929525099695E-004;
2.412500000000000E+009;1.781065016984940E-001;-7.285861298441887E-003;-7.779226172715426E-003;-2.315753226866946E-004;
2.412666666666667E+009;1.786825209856033E-001;-9.658901952207089E-003;-7.777873892337084E-003;-6.841986760264263E-005;
2.412833333333334E+009;1.793521642684937E-001;-1.211530808359385E-002;-7.914038375020027E-003;2.923439315054566E-004;
2.413000000000000E+009;1.801750510931015E-001;-1.434884127229452E-002;-7.989035919308662E-003;4.380929749459028E-004;
2.413166666666667E+009;1.810177862644196E-001;-1.658727228641510E-002;-8.034681901335716E-003;8.500454132445157E-004;
2.413333333333334E+009;1.821013391017914E-001;-1.886080205440521E-002;-8.047762326896191E-003;1.093793427571654E-003;
2.413500000000000E+009;1.828879863023758E-001;-2.099039405584335E-002;-8.099629543721676E-003;1.272016903385520E-003;
2.413666666666667E+009;1.842408329248428E-001;-2.344351634383202E-002;-8.321707136929035E-003;1.634871005080640E-003;
2.413833333333334E+009;1.853772252798080E-001;-2.535763755440712E-002;-8.233102038502693E-003;2.098237629979849E-003;
2.414000000000000E+009;1.865059733390808E-001;-2.728161029517651E-002;-8.056318387389183E-003;2.371935639530420E-003;
2.414166666666667E+009;1.878948658704758E-001;-2.901075221598148E-002;-8.118988014757633E-003;2.689940854907036E-003;
2.414333333333334E+009;1.889677196741104E-001;-3.094965778291225E-002;-7.817623205482960E-003;3.200199687853456E-003;
2.414500000000000E+009;1.901987195014954E-001;-3.240444511175156E-002;-7.726301439106464E-003;3.746323985978961E-003;
2.414666666666667E+009;1.915552765130997E-001;-3.394161537289619E-002;-7.637830916792154E-003;4.071239847689867E-003;
2.414833333333334E+009;1.927263736724854E-001;-3.524715453386307E-002;-7.287331856787205E-003;4.462260752916336E-003;
2.415000000000000E+009;1.938461661338806E-001;-3.660213947296143E-002;-6.978516466915608E-003;4.668026231229305E-003;
2.415166666666667E+009;1.952387988567352E-001;-3.766053542494774E-002;-6.794767454266548E-003;4.947305191308260E-003;
2.415333333333334E+009;1.961746513843536E-001;-3.867756202816963E-002;-6.348168943077326E-003;5.193969234824181E-003;
2.415500000000000E+009;1.974712312221527E-001;-3.933918476104736E-002;-6.051372736692429E-003;5.465846043080092E-003;
2.415666666666667E+009;1.986396759748459E-001;-4.029077291488648E-002;-5.763771478086710E-003;5.703268107026815E-003;
2.415833333333334E+009;1.994488388299942E-001;-4.079122841358185E-002;-5.404084455221891E-003;5.853934213519096E-003;
2.416000000000000E+009;2.001318484544754E-001;-4.141005501151085E-002;-5.152959376573563E-003;5.861367098987103E-003;
2.416166666666667E+009;2.009358704090118E-001;-4.201810434460640E-002;-4.728802945464850E-003;5.968407727777958E-003;
2.416333333333334E+009;2.016209065914154E-001;-4.222303628921509E-002;-4.590088501572609E-003;6.147957406938076E-003;
2.416500000000000E+009;2.020604610443115E-001;-4.244204983115196E-002;-4.108362831175327E-003;6.273194216191769E-003;
2.416666666666667E+009;2.023539841175079E-001;-4.272017627954483E-002;-3.864405909553170E-003;6.021132692694664E-003;
2.416833333333334E+009;2.024605572223663E-001;-4.266844317317009E-002;-3.579655196517706E-003;6.114566698670387E-003;
2.417000000000000E+009;2.025751471519470E-001;-4.280183091759682E-002;-3.476790618151426E-003;6.143338978290558E-003;
2.417166666666667E+009;2.023515999317169E-001;-4.274449124932289E-002;-3.198226913809776E-003;6.025142967700958E-003;
2.417333333333334E+009;2.021013647317886E-001;-4.241940006613731E-002;-2.972613088786602E-003;6.047016475349665E-003;
2.417500000000000E+009;2.018158137798309E-001;-4.250465333461762E-002;-2.801929134875536E-003;6.023889407515526E-003;
2.417666666666667E+009;2.013120949268341E-001;-4.223288968205452E-002;-2.634577220305800E-003;5.998941138386726E-003;
2.417833333333334E+009;2.008555680513382E-001;-4.184819385409355E-002;-2.377982251346111E-003;6.076619494706392E-003;
2.418000000000000E+009;2.002093940973282E-001;-4.178552329540253E-002;-2.372619463130832E-003;6.094148848205805E-003;
2.418166666666667E+009;1.994529664516449E-001;-4.168761149048805E-002;-1.975346123799682E-003;5.977600812911987E-003;
2.418333333333334E+009;1.985955089330673E-001;-4.148496314883232E-002;-1.885478501208127E-003;5.923053715378046E-003;
2.418500000000000E+009;1.974890083074570E-001;-4.147410392761231E-002;-1.686978619545698E-003;5.988968536257744E-003;
2.418666666666667E+009;1.965425312519074E-001;-4.134070873260498E-002;-1.392621663399041E-003;5.833548493683338E-003;
2.418833333333334E+009;1.953973472118378E-001;-4.159433767199516E-002;-1.226327731274068E-003;5.785326007753611E-003;
2.419000000000000E+009;1.941381245851517E-001;-4.164960980415344E-002;-1.026384532451630E-003;5.592631176114082E-003;
2.419166666666667E+009;1.928548812866211E-001;-4.203974455595017E-002;-9.594026487320662E-004;5.510873161256313E-003;
2.419333333333334E+009;1.914165616035461E-001;-4.250811040401459E-002;-7.258069235831499E-004;5.475509911775589E-003;
2.419500000000000E+009;1.899080872535706E-001;-4.295040667057037E-002;-6.495550042018294E-004;5.177478305995464E-003;
2.419666666666667E+009;1.882280558347702E-001;-4.383811727166176E-002;-6.246668635867536E-004;5.103774834424257E-003;
2.419833333333334E+009;1.866613030433655E-001;-4.444267600774765E-002;-5.144277820363641E-004;4.941829945892096E-003;
2.420000000000000E+009;1.852439492940903E-001;-4.525436833500862E-002;-6.262643728405237E-004;4.725660197436810E-003;
2.420166666666667E+009;1.835102587938309E-001;-4.634389281272888E-002;-6.062771426513791E-004;4.537221509963274E-003;
2.420333333333334E+009;1.817633062601090E-001;-4.750954732298851E-002;-7.578678196296096E-004;4.510053433477879E-003;
2.420500000000000E+009;1.802179962396622E-001;-4.879213124513626E-002;-6.477261194959283E-004;4.282070323824883E-003;
2.420666666666667E+009;1.785661578178406E-001;-4.996613785624504E-002;-9.537497535347939E-004;4.413866903632879E-003;
2.420833333333334E+009;1.769331097602844E-001;-5.149134248495102E-002;-1.026175566948950E-003;4.249185789376497E-003;
2.421000000000000E+009;1.755137294530869E-001;-5.305829271674156E-002;-1.149019459262490E-003;4.358638543635607E-003;
2.421166666666667E+009;1.739758849143982E-001;-5.472425371408463E-002;-1.269520726054907E-003;4.227214492857456E-003;
2.421333333333334E+009;1.725475043058395E-001;-5.638758465647697E-002;-1.362667651847005E-003;4.490627907216549E-003;
2.421500000000000E+009;1.710980683565140E-001;-5.824647843837738E-002;-1.378526212647557E-003;4.645378794521093E-003;
2.421666666666667E+009;1.699459552764893E-001;-6.017748266458511E-002;-1.597829279489815E-003;4.850972443819046E-003;
2.421833333333334E+009;1.688034832477570E-001;-6.199691072106361E-002;-1.472234376706183E-003;4.966586362570524E-003;
2.422000000000000E+009;1.677227318286896E-001;-6.379785388708115E-002;-1.544153667055070E-003;5.202803760766983E-003;
2.422166666666667E+009;1.669018864631653E-001;-6.611870974302292E-002;-1.495904987677932E-003;5.491095595061779E-003;
2.422333333333334E+009;1.659071743488312E-001;-6.806485354900360E-002;-1.229889341630042E-003;5.626458674669266E-003;
2.422500000000000E+009;1.651406735181809E-001;-6.993734091520309E-002;-1.118226209655404E-003;5.839332472532988E-003;
2.422666666666667E+009;1.645825952291489E-001;-7.208849489688873E-002;-9.880589786916971E-004;6.118328776210547E-003;
2.422833333333334E+009;1.640844792127609E-001;-7.420852780342102E-002;-9.438685374334455E-004;6.434906739741564E-003;
2.423000000000000E+009;1.634498387575150E-001;-7.628553360700607E-002;-7.125583360902965E-004;6.379323545843363E-003;
2.423166666666667E+009;1.631640642881393E-001;-7.838261872529984E-002;-4.133410984650254E-004;6.545181851834059E-003;
2.423333333333334E+009;1.629163324832916E-001;-8.052902668714523E-002;-1.260764656763058E-005;6.770325824618340E-003;
2.423500000000000E+009;1.630286425352097E-001;-8.232516050338745E-002;1.216717791976407E-004;6.951827555894852E-003;
2.423666666666667E+009;1.629361659288406E-001;-8.411337435245514E-002;3.387343022041023E-004;6.857877597212791E-003;
2.423833333333334E+009;1.627941578626633E-001;-8.595459163188934E-002;6.387931061908603E-004;7.053261622786522E-003;
2.424000000000000E+009;1.630870401859283E-001;-8.788507431745529E-002;8.363637025468051E-004;7.108556572347879E-003;
2.424166666666667E+009;1.631923466920853E-001;-8.953501284122467E-002;1.032807165756822E-003;7.179509382694960E-003;
2.424333333333334E+009;1.633393317461014E-001;-9.101790934801102E-002;1.505343243479729E-003;7.060465402901173E-003;
2.424500000000000E+009;1.637206077575684E-001;-9.289594739675522E-002;1.707642339169979E-003;7.309795822948217E-003;
2.424666666666667E+009;1.640714704990387E-001;-9.411468356847763E-002;1.964415423572063E-003;7.315753959119320E-003;
2.424833333333334E+009;1.646019071340561E-001;-9.550829231739044E-002;2.395874354988337E-003;7.328189909458160E-003;
2.425000000000000E+009;1.649978756904602E-001;-9.668114036321640E-002;2.654527081176639E-003;7.366870529949665E-003;
2.425166666666667E+009;1.652925759553909E-001;-9.775619953870773E-002;3.076096531003714E-003;7.191850803792477E-003;
2.425333333333334E+009;1.657346040010452E-001;-9.870440512895584E-002;3.539081430062652E-003;7.211031392216682E-003;
2.425500000000000E+009;1.661200076341629E-001;-9.975906461477280E-002;3.800554899498820E-003;7.099884096533060E-003;
2.425666666666667E+009;1.665306985378265E-001;-1.003218740224838E-001;4.295391030609608E-003;6.923309061676264E-003;
2.425833333333334E+009;1.668350845575333E-001;-1.012216880917549E-001;4.511056933552027E-003;6.520166061818600E-003;
2.426000000000000E+009;1.673088520765305E-001;-1.016759201884270E-001;4.944217856973410E-003;6.438913289457560E-003;
2.426166666666667E+009;1.676225364208221E-001;-1.022241562604904E-001;5.247838329523802E-003;6.301503162831068E-003;
2.426333333333334E+009;1.678141504526138E-001;-1.027657836675644E-001;5.634931381791830E-003;5.949371028691530E-003;
2.426500000000000E+009;1.681057065725327E-001;-1.030043140053749E-001;5.895027425140142E-003;5.561215337365866E-003;
2.426666666666667E+009;1.682791858911514E-001;-1.032536923885346E-001;6.086174398660660E-003;5.313836503773928E-003;
2.426833333333334E+009;1.685688942670822E-001;-1.034826710820198E-001;6.210268940776587E-003;5.083133466541767E-003;
2.427000000000000E+009;1.686373800039291E-001;-1.036753952503204E-001;6.409420631825924E-003;4.741062875837088E-003;
2.427166666666667E+009;1.686041802167893E-001;-1.037100255489349E-001;6.458776537328959E-003;4.525131080299616E-003;
2.427333333333334E+009;1.683523654937744E-001;-1.040168032050133E-001;6.559107452630997E-003;4.259655717760325E-003;
2.427500000000000E+009;1.681025177240372E-001;-1.041808202862740E-001;6.768812425434589E-003;3.888963023200631E-003;
2.427666666666667E+009;1.678168177604675E-001;-1.041172817349434E-001;6.750046741217375E-003;3.634217428043485E-003;
