# Version 1.00
#
freq[Hz];re:Trc1_S11;im:Trc1_S11;re:Trc2_S21;im:Trc2_S21;
2.400000000000000E+009;1.553659290075302E-001;1.065248176455498E-001;1.727198483422399E-003;-7.993687875568867E-003;
2.400166666666667E+009;1.550788581371307E-001;1.042287349700928E-001;1.484016189351678E-003;-7.738817948848009E-003;
2.400333333333334E+009;1.550299525260925E-001;1.019141599535942E-001;1.060216221958399E-003;-7.760706357657909E-003;
2.400500000000000E+009;1.551779955625534E-001;9.912053495645523E-002;8.672803523950279E-004;-7.317638024687767E-003;
2.400666666666667E+009;1.550386250019074E-001;9.671135246753693E-002;6.622618529945612E-004;-7.119594141840935E-003;
2.400833333333334E+009;1.551055908203125E-001;9.370086342096329E-002;5.781250074505806E-004;-6.831713486462832E-003;
2.401000000000000E+009;1.552484780550003E-001;9.092390537261963E-002;5.672065308317542E-004;-6.629588082432747E-003;
2.401166666666667E+009;1.553935110569000E-001;8.815272897481918E-002;6.134586292319000E-004;-6.561118643730879E-003;
2.401333333333334E+009;1.557456403970718E-001;8.523672819137573E-002;5.287600215524435E-004;-6.268987897783518E-003;
2.401500000000000E+009;1.561229676008225E-001;8.232543617486954E-002;4.780911549460143E-004;-6.274753715842962E-003;
2.401666666666667E+009;1.564298272132874E-001;7.954133301973343E-002;5.970399361103773E-004;-6.209845189005137E-003;
2.401833333333334E+009;1.570909619331360E-001;7.675391435623169E-002;6.712678004987538E-004;-6.286482326686382E-003;
2.402000000000000E+009;1.578452289104462E-001;7.380475103855133E-002;5.672679399140179E-004;-6.272653117775917E-003;
2.402166666666667E+009;1.587282866239548E-001;7.136748731136322E-002;5.378903006203473E-004;-6.360976956784725E-003;
2.402333333333334E+009;1.595398038625717E-001;6.873064488172531E-002;5.435466882772744E-004;-6.513284519314766E-003;
2.402500000000000E+009;1.606383323669434E-001;6.605120003223419E-002;4.692589573096484E-004;-6.625975016504526E-003;
2.402666666666667E+009;1.618715822696686E-001;6.366768479347229E-002;4.924050299450755E-004;-6.756054703146219E-003;
2.402833333333334E+009;1.630546003580093E-001;6.118347868323326E-002;1.462371874367818E-004;-6.889144424349070E-003;
2.403000000000000E+009;1.646049767732620E-001;5.880802869796753E-002;1.364636700600386E-004;-7.033655885607004E-003;
2.403166666666667E+009;1.660614609718323E-001;5.660877376794815E-002;-2.237150620203465E-004;-6.961304228752852E-003;
2.403333333333334E+009;1.676549464464188E-001;5.450948327779770E-002;-3.751865588128567E-004;-7.008330430835486E-003;
2.403500000000000E+009;1.693641990423203E-001;5.247758701443672E-002;-4.683521692641079E-004;-7.024733349680901E-003;
2.403666666666667E+009;1.711352765560150E-001;5.048442631959915E-002;-9.526879293844104E-004;-7.089243270456791E-003;
2.403833333333334E+009;1.728681027889252E-001;4.866710677742958E-002;-1.106799347326160E-003;-7.118748035281897E-003;
2.404000000000000E+009;1.742451190948486E-001;4.688697680830956E-002;-1.293983892537653E-003;-7.029897999018431E-003;
2.404166666666667E+009;1.761451214551926E-001;4.517016559839249E-002;-1.440087915398181E-003;-6.809615995734930E-003;
2.404333333333334E+009;1.776436418294907E-001;4.384500533342362E-002;-1.710598124191165E-003;-6.873803678900003E-003;
2.404500000000000E+009;1.792860180139542E-001;4.239853844046593E-002;-1.809056499041617E-003;-6.872420664876699E-003;
2.404666666666667E+009;1.808618307113648E-001;4.127242416143417E-002;-2.114936709403992E-003;-6.584030576050282E-003;
2.404833333333334E+009;1.826190799474716E-001;4.030595719814301E-002;-2.250102581456304E-003;-6.643468514084816E-003;
2.405000000000000E+009;1.839947253465653E-001;3.961523622274399E-002;-2.392660826444626E-003;-6.691926158964634E-003;
2.405166666666667E+009;1.855125129222870E-001;3.891956061124802E-002;-2.653790637850761E-003;-6.594661623239517E-003;
2.405333333333334E+009;1.870321929454804E-001;3.836229071021080E-002;-2.902899403125048E-003;-6.511159241199493E-003;
2.405500000000000E+009;1.883927583694458E-001;3.792660683393478E-002;-3.095716238021851E-003;-6.316192448139191E-003;
2.405666666666667E+009;1.895513534545898E-001;3.743771836161614E-002;-3.204553155228496E-003;-6.519532762467861E-003;
2.405833333333334E+009;1.908002346754074E-001;3.721410036087036E-002;-3.284877631813288E-003;-6.371153984218836E-003;
2.406000000000000E+009;1.917963922023773E-001;3.707038983702660E-002;-3.497913712635636E-003;-6.318795494735241E-003;
2.406166666666667E+009;1.928294003009796E-001;3.685997426509857E-002;-3.659331006929278E-003;-6.208139937371016E-003;
2.406333333333334E+009;1.937317103147507E-001;3.702030703425407E-002;-3.863915801048279E-003;-6.119702011346817E-003;
2.406500000000000E+009;1.944502890110016E-001;3.690977394580841E-002;-3.984819632023573E-003;-6.026452872902155E-003;
2.406666666666667E+009;1.950563490390778E-001;3.691194951534271E-002;-4.318231251090765E-003;-5.802249535918236E-003;
2.406833333333334E+009;1.955512166023254E-001;3.694112971425057E-002;-4.459422547370195E-003;-5.711717065423727E-003;
2.407000000000000E+009;1.958246380090714E-001;3.718660026788712E-002;-4.249599296599627E-003;-5.665685515850782E-003;
2.407166666666667E+009;1.961921155452728E-001;3.700895607471466E-002;-4.651853814721108E-003;-5.563869606703520E-003;
2.407333333333334E+009;1.960131973028183E-001;3.722508996725082E-002;-4.830561112612486E-003;-5.395491607487202E-003;
2.407500000000000E+009;1.959711760282517E-001;3.734634071588516E-002;-4.889175295829773E-003;-5.151877645403147E-003;
2.407666666666667E+009;1.959786415100098E-001;3.722141683101654E-002;-5.216326564550400E-003;-5.210760049521923E-003;
2.407833333333334E+009;1.953861117362976E-001;3.711612522602081E-002;-5.316585768014193E-003;-4.974659532308579E-003;
2.408000000000000E+009;1.953474432229996E-001;3.710696846246719E-002;-5.423309281468391E-003;-4.874324891716242E-003;
2.408166666666667E+009;1.945867091417313E-001;3.681933879852295E-002;-5.346878431737423E-003;-4.772947635501623E-003;
2.408333333333334E+009;1.942773610353470E-001;3.637402877211571E-002;-5.546554457396269E-003;-4.576662089675665E-003;
2.408500000000000E+009;1.934401541948319E-001;3.612589463591576E-002;-5.697335116565228E-003;-4.440594930201769E-003;
2.408666666666667E+009;1.930039525032044E-001;3.563272207975388E-002;-5.709630902856588E-003;-4.288788419216871E-003;
2.408833333333334E+009;1.921356171369553E-001;3.489920124411583E-002;-5.925284232944250E-003;-4.266480449587107E-003;
2.409000000000000E+009;1.912167072296143E-001;3.414639458060265E-002;-5.926452111452818E-003;-4.026395734399557E-003;
2.409166666666667E+009;1.901534348726273E-001;3.313947468996048E-002;-6.143405102193356E-003;-3.895698813721538E-003;
2.409333333333334E+009;1.892212629318237E-001;3.215460851788521E-002;-6.137955468147993E-003;-3.789330366998911E-003;
2.409500000000000E+009;1.882188916206360E-001;3.087066672742367E-002;-6.468473933637142E-003;-3.637736430391669E-003;
2.409666666666667E+009;1.870629936456680E-001;2.940559387207031E-002;-6.647787056863308E-003;-3.587622893974185E-003;
2.409833333333334E+009;1.859092116355896E-001;2.805525809526444E-002;-6.632197182625532E-003;-3.092925297096372E-003;
2.410000000000000E+009;1.850391626358032E-001;2.654100395739079E-002;-6.709866225719452E-003;-3.122261259704828E-003;
2.410166666666667E+009;1.838854402303696E-001;2.459412813186646E-002;-6.918606813997030E-003;-2.827964955940843E-003;
2.410333333333334E+009;1.828358471393585E-001;2.292547747492790E-002;-7.032816298305988E-003;-2.689893357455730E-003;
2.410500000000000E+009;1.819327473640442E-001;2.096137590706348E-002;-7.222700864076614E-003;-2.475441433489323E-003;
2.410666666666667E+009;1.811460256576538E-001;1.870666071772575E-002;-7.222719956189394E-003;-2.188751008361578E-003;
2.410833333333334E+009;1.803934574127197E-001;1.653598248958588E-002;-6.976807024329901E-003;-1.981064444407821E-003;
2.411000000000000E+009;1.796773821115494E-001;1.447244919836521E-002;-7.261500693857670E-003;-1.753621734678745E-003;
2.411166666666667E+009;1.789982020854950E-001;1.245711743831635E-002;-7.092020474374294E-003;-1.653543557040393E-003;
2.411333333333334E+009;1.783831417560577E-001;9.787960909307003E-003;-7.332641631364822E-003;-1.386001124046743E-003;
2.411500000000000E+009;1.780784577131271E-001;7.322758901864290E-003;-7.278944831341505E-003;-1.159962732344866E-003;
2.411666666666667E+009;1.778955310583115E-001;4.849501419812441E-003;-7.313213311135769E-003;-1.133055193349719E-003;
2.411833333333334E+009;1.777077466249466E-001;2.631523413583636E-003;-7.331749889999628E-003;-8.621016750112176E-004;
2.412000000000000E+009;1.777077913284302E-001;-3.253125032642856E-005;-7.394794840365648E-003;-7.119089132174850E-004;
2.412166666666667E+009;1.777290999889374E-001;-2.317643258720636E-003;-7.410426624119282E-003;-5.678612506017089E-004;
2.412333333333334E+009;1.779738366603851E-001;-4.837892949581146E-003;-7.467822171747685E-003;-5.641854950226843E-004;
2.412500000000000E+009;1.784892380237579E-001;-7.352164480835199E-003;-7.493941113352776E-003;-2.941885904874653E-004;
2.412666666666667E+009;1.790321171283722E-001;-9.579629637300968E-003;-7.574499119073153E-003;-2.027562586590648E-004;
2.412833333333334E+009;1.796447932720184E-001;-1.204810291528702E-002;-7.789983879774809E-003;1.502532104495913E-004;
2.413000000000000E+009;1.804485619068146E-001;-1.437322981655598E-002;-7.932769134640694E-003;2.588579664006829E-004;
2.413166666666667E+009;1.812477558851242E-001;-1.665008068084717E-002;-7.919700816273689E-003;5.695127765648067E-004;
2.413333333333334E+009;1.824374943971634E-001;-1.897926442325115E-002;-8.073338307440281E-003;9.067339706234634E-004;
2.413500000000000E+009;1.833379566669464E-001;-2.111318707466126E-002;-8.017253130674362E-003;1.217312179505825E-003;
2.413666666666667E+009;1.846011430025101E-001;-2.328078448772430E-002;-8.055643178522587E-003;1.498929923400283E-003;
2.413833333333334E+009;1.856838613748550E-001;-2.533145062625408E-002;-8.208225481212139E-003;2.017751568928361E-003;
2.414000000000000E+009;1.868752241134644E-001;-2.738993987441063E-002;-8.046472445130348E-003;2.393877599388361E-003;
2.414166666666667E+009;1.880865544080734E-001;-2.907457388937473E-002;-8.020912297070026E-003;2.726609818637371E-003;
2.414333333333334E+009;1.893127113580704E-001;-3.111853078007698E-002;-7.881272584199905E-003;3.150704316794872E-003;
2.414500000000000E+009;1.905813366174698E-001;-3.257539868354797E-002;-7.657817099243403E-003;3.680003806948662E-003;
2.414666666666667E+009;1.918844431638718E-001;-3.410391882061958E-002;-7.490579970180988E-003;3.853540867567062E-003;
2.414833333333334E+009;1.930194497108460E-001;-3.558693453669548E-002;-7.203126326203346E-003;4.403552040457726E-003;
2.415000000000000E+009;1.940108537673950E-001;-3.678210452198982E-002;-6.840961985290051E-003;4.543624352663755E-003;
2.415166666666667E+009;1.953486651182175E-001;-3.796940296888351E-002;-6.712537724524736E-003;4.858577158302069E-003;
2.415333333333334E+009;1.965393573045731E-001;-3.895539790391922E-002;-6.626221351325512E-003;5.114596337080002E-003;
2.415500000000000E+009;1.977429986000061E-001;-3.959279134869576E-002;-6.120839621871710E-003;5.342116579413414E-003;
2.415666666666667E+009;1.986779272556305E-001;-4.040239378809929E-002;-5.906344857066870E-003;5.623658187687397E-003;
2.415833333333334E+009;1.995722651481628E-001;-4.101351276040077E-002;-5.380503833293915E-003;5.717840045690537E-003;
2.416000000000000E+009;2.003548741340637E-001;-4.155363142490387E-002;-5.119693465530872E-003;5.816116463392973E-003;
2.416166666666667E+009;2.011297494173050E-001;-4.210446774959564E-002;-4.918166436254978E-003;5.911706015467644E-003;
2.416333333333334E+009;2.017867714166641E-001;-4.227799177169800E-002;-4.554637707769871E-003;5.941695068031550E-003;
2.416500000000000E+009;2.020725905895233E-001;-4.264040663838387E-002;-4.072982352226973E-003;5.925644189119339E-003;
2.416666666666667E+009;2.024743705987930E-001;-4.292229935526848E-002;-4.019567742943764E-003;6.115866824984551E-003;
2.416833333333334E+009;2.027166038751602E-001;-4.289408400654793E-002;-3.759672865271568E-003;5.929365754127502E-003;
2.417000000000000E+009;2.027500420808792E-001;-4.300216212868691E-002;-3.568777814507484E-003;6.041565444320440E-003;
2.417166666666667E+009;2.025032043457031E-001;-4.293641820549965E-002;-3.347784979268909E-003;5.979266017675400E-003;
2.417333333333334E+009;2.022023946046829E-001;-4.275169596076012E-002;-3.051441162824631E-003;5.909026134759188E-003;
2.417500000000000E+009;2.019686251878738E-001;-4.272201657295227E-002;-2.865460002794862E-003;5.907882936298847E-003;
2.417666666666667E+009;2.015024274587631E-001;-4.245648905634880E-002;-2.723081968724728E-003;5.854281131178141E-003;
2.417833333333334E+009;2.010170817375183E-001;-4.229662567377091E-002;-2.417021431028843E-003;5.860627163201571E-003;
2.418000000000000E+009;2.003975212574005E-001;-4.199933260679245E-002;-2.329475246369839E-003;5.867954343557358E-003;
2.418166666666667E+009;1.995640546083450E-001;-4.197137057781220E-002;-2.115685027092695E-003;5.877194460481405E-003;
2.418333333333334E+009;1.985635757446289E-001;-4.177267849445343E-002;-1.863823505118489E-003;5.924056749790907E-003;
2.418500000000000E+009;1.976970434188843E-001;-4.180157184600830E-002;-1.767415204085410E-003;5.771005526185036E-003;
2.418666666666667E+009;1.967489570379257E-001;-4.164478555321693E-002;-1.522641046904028E-003;5.803829990327358E-003;
2.418833333333334E+009;1.954351663589478E-001;-4.184249415993691E-002;-1.436421065591276E-003;5.771427415311337E-003;
2.419000000000000E+009;1.942028105258942E-001;-4.192455112934113E-002;-1.116181025281549E-003;5.609851330518723E-003;
2.419166666666667E+009;1.928903311491013E-001;-4.235719516873360E-002;-8.894632919691503E-004;5.471480544656515E-003;
2.419333333333334E+009;1.914995014667511E-001;-4.284711182117462E-002;-7.950175786390901E-004;5.280292592942715E-003;
2.419500000000000E+009;1.898952275514603E-001;-4.330198466777802E-002;-6.565253133885562E-004;5.086861550807953E-003;
2.419666666666667E+009;1.883120685815811E-001;-4.400696605443955E-002;-5.544615560211241E-004;4.920121748000383E-003;
2.419833333333334E+009;1.868491023778915E-001;-4.475462436676025E-002;-7.779800798743963E-004;4.804459866136313E-003;
2.420000000000000E+009;1.851654201745987E-001;-4.556029289960861E-002;-5.588306812569499E-004;4.677485208958387E-003;
2.420166666666667E+009;1.836287081241608E-001;-4.665103554725647E-002;-6.186960381455720E-004;4.594306927174330E-003;
2.420333333333334E+009;1.818125993013382E-001;-4.757405444979668E-002;-8.862700196914375E-004;4.342209082096815E-003;
2.420500000000000E+009;1.802627891302109E-001;-4.911581054329872E-002;-7.178247906267643E-004;4.368869122117758E-003;
2.420666666666667E+009;1.786300390958786E-001;-5.024227872490883E-002;-9.590006666257978E-004;4.371474497020245E-003;
2.420833333333334E+009;1.769017428159714E-001;-5.178745836019516E-002;-1.196536002680659E-003;4.328693263232708E-003;
2.421000000000000E+009;1.753889471292496E-001;-5.315126851201057E-002;-1.239236909896135E-003;4.179717972874641E-003;
2.421166666666667E+009;1.740440279245377E-001;-5.493959039449692E-002;-1.327573554590344E-003;4.323436878621578E-003;
2.421333333333334E+009;1.724272966384888E-001;-5.645773559808731E-002;-1.507850247435272E-003;4.364399239420891E-003;
2.421500000000000E+009;1.711107343435288E-001;-5.840493366122246E-002;-1.562450081110001E-003;4.580728244036436E-003;
2.421666666666667E+009;1.698653250932694E-001;-6.023764610290527E-002;-1.569337444379926E-003;4.819889087229967E-003;
2.421833333333334E+009;1.687157303094864E-001;-6.215675175189972E-002;-1.750053255818784E-003;4.978401120752096E-003;
2.422000000000000E+009;1.675964593887329E-001;-6.410174816846848E-002;-1.576414098963141E-003;5.231676623225212E-003;
2.422166666666667E+009;1.669875979423523E-001;-6.622633337974548E-002;-1.527435844764113E-003;5.447474773973227E-003;
2.422333333333334E+009;1.657996326684952E-001;-6.832296401262283E-002;-1.392684411257505E-003;5.695338360965252E-003;
2.422500000000000E+009;1.650616675615311E-001;-7.023049890995026E-002;-1.293975859880447E-003;5.829562898725271E-003;
2.422666666666667E+009;1.645769923925400E-001;-7.241150736808777E-002;-1.230230554938316E-003;6.138242781162262E-003;
2.422833333333334E+009;1.641377210617065E-001;-7.448396831750870E-002;-8.265500073321164E-004;6.264939904212952E-003;
2.423000000000000E+009;1.635888218879700E-001;-7.641210407018662E-002;-7.037193281576037E-004;6.579298060387373E-003;
2.423166666666667E+009;1.632293611764908E-001;-7.839822769165039E-002;-4.082582890987396E-004;6.560974288731813E-003;
2.423333333333334E+009;1.630927026271820E-001;-8.049389719963074E-002;-1.280689175473526E-004;6.804562173783779E-003;
2.423500000000000E+009;1.629512161016464E-001;-8.227211982011795E-002;-1.011071872198954E-004;6.941313855350018E-003;
2.423666666666667E+009;1.629629433155060E-001;-8.420312404632568E-002;1.756019191816449E-004;7.004528306424618E-003;
2.423833333333334E+009;1.629931330680847E-001;-8.621913939714432E-002;5.433310871012509E-004;7.151580415666103E-003;
2.424000000000000E+009;1.630612313747406E-001;-8.794900029897690E-002;8.928368333727121E-004;6.982055492699146E-003;
2.424166666666667E+009;1.632247567176819E-001;-8.961661905050278E-002;1.189246773719788E-003;7.208174560219050E-003;
2.424333333333334E+009;1.635219305753708E-001;-9.118616580963135E-002;1.319963252171874E-003;7.241258863359690E-003;
2.424500000000000E+009;1.638500988483429E-001;-9.282471984624863E-002;1.835808856412768E-003;7.398635149002075E-003;
2.424666666666667E+009;1.641517877578735E-001;-9.439373016357422E-002;1.877849106676877E-003;7.333030458539724E-003;
2.424833333333334E+009;1.646917313337326E-001;-9.579697251319885E-002;2.335187513381243E-003;7.310112472623587E-003;
2.425000000000000E+009;1.650832444429398E-001;-9.681612253189087E-002;2.571071730926633E-003;7.381159812211990E-003;
2.425166666666667E+009;1.652450114488602E-001;-9.803604334592819E-002;2.913903445005417E-003;7.240713108330965E-003;
2.425333333333334E+009;1.656255125999451E-001;-9.896877408027649E-002;3.366667777299881E-003;7.197080180048943E-003;
2.425500000000000E+009;1.663220524787903E-001;-9.996416419744492E-002;3.791677532717586E-003;7.255991920828819E-003;
2.425666666666667E+009;1.665567010641098E-001;-1.006518006324768E-001;4.098239354789257E-003;7.026875857263804E-003;
2.425833333333334E+009;1.668711155653000E-001;-1.014420464634895E-001;4.499892704188824E-003;6.884322501718998E-003;
2.426000000000000E+009;1.674126833677292E-001;-1.019556000828743E-001;4.770515486598015E-003;6.602967623621225E-003;
2.426166666666667E+009;1.677088886499405E-001;-1.023737043142319E-001;4.948389716446400E-003;6.271930411458015E-003;
2.426333333333334E+009;1.678260415792465E-001;-1.029641255736351E-001;5.369438789784908E-003;6.256998516619206E-003;
2.426500000000000E+009;1.681838929653168E-001;-1.031940951943398E-001;5.738914944231510E-003;5.915602203458548E-003;
2.426666666666667E+009;1.683510839939117E-001;-1.035219356417656E-001;5.814646370708942E-003;5.600238684564829E-003;
2.426833333333334E+009;1.686476767063141E-001;-1.038453131914139E-001;6.163788493722677E-003;5.246432032436132E-003;
2.427000000000000E+009;1.686513572931290E-001;-1.039294674992561E-001;6.313590798527002E-003;4.866654518991709E-003;
2.427166666666667E+009;1.685716658830643E-001;-1.039772257208824E-001;6.257456261664629E-003;4.581912886351347E-003;
2.427333333333334E+009;1.684230417013168E-001;-1.042478010058403E-001;6.485987920314074E-003;4.325327929109335E-003;
2.427500000000000E+009;1.681151390075684E-001;-1.043980643153191E-001;6.627412047237158E-003;4.034066107124090E-003;
2.427666666666667E+009;1.678683310747147E-001;-1.044233143329620E-001;6.732932291924954E-003;3.808173350989819E-003;
