# Version 1.00
#
freq[Hz];re:Trc1_S11;im:Trc1_S11;re:Trc2_S21;im:Trc2_S21;
2.400000000000000E+009;1.575032174587250E-001;1.124445125460625E-001;-5.715790903195739E-004;-2.452301327139139E-003;
2.400166666666667E+009;1.568706482648850E-001;1.103039383888245E-001;-5.683038616552949E-004;-2.258822554722428E-003;
2.400333333333334E+009;1.565923392772675E-001;1.083224192261696E-001;-4.618154780473560E-004;-2.190165920183063E-003;
2.400500000000000E+009;1.560552567243576E-001;1.056634932756424E-001;-5.403808900155127E-004;-2.215662505477667E-003;
2.400666666666667E+009;1.558700948953629E-001;1.032790318131447E-001;-4.717097908724099E-004;-2.302985871210694E-003;
2.400833333333334E+009;1.557008624076843E-001;1.005110517144203E-001;-4.949889262206852E-004;-2.537739928811789E-003;
2.401000000000000E+009;1.554184406995773E-001;9.758412092924118E-002;-4.223176219966263E-004;-2.460301155224443E-003;
2.401166666666667E+009;1.551674157381058E-001;9.497797489166260E-002;-4.966790438629687E-004;-2.537586493417621E-003;
2.401333333333334E+009;1.552656292915344E-001;9.203073382377625E-002;-6.899615400470793E-004;-2.570292446762323E-003;
2.401500000000000E+009;1.553876996040344E-001;8.896210044622421E-002;-6.563045899383724E-004;-2.582812914624810E-003;
2.401666666666667E+009;1.554522216320038E-001;8.592437952756882E-002;-7.638615206815302E-004;-2.692344598472118E-003;
2.401833333333334E+009;1.554781645536423E-001;8.302915841341019E-002;-9.029849315993488E-004;-2.778854221105576E-003;
2.402000000000000E+009;1.560105085372925E-001;7.989470660686493E-002;-1.009568804875016E-003;-2.776259323582053E-003;
2.402166666666667E+009;1.565790325403214E-001;7.726720720529556E-002;-1.060330308973789E-003;-2.778826048597693E-003;
2.402333333333334E+009;1.574136763811112E-001;7.422382384538651E-002;-1.082332921214402E-003;-2.639887621626258E-003;
2.402500000000000E+009;1.582298725843430E-001;7.135858386754990E-002;-1.125666894949973E-003;-2.794718602672219E-003;
2.402666666666667E+009;1.592160314321518E-001;6.876502186059952E-002;-1.324934768490493E-003;-2.729053609073162E-003;
2.402833333333334E+009;1.603989303112030E-001;6.585993617773056E-002;-1.472793053835630E-003;-2.859875559806824E-003;
2.403000000000000E+009;1.617411375045776E-001;6.316945701837540E-002;-1.628088532015681E-003;-2.707181498408318E-003;
2.403166666666667E+009;1.634114980697632E-001;6.066958978772163E-002;-1.839534030295909E-003;-2.617716323584318E-003;
2.403333333333334E+009;1.645224988460541E-001;5.804961174726486E-002;-1.820603618398309E-003;-2.546929754316807E-003;
2.403500000000000E+009;1.663967669010162E-001;5.559870600700378E-002;-1.929976278916001E-003;-2.429245039820671E-003;
2.403666666666667E+009;1.682814210653305E-001;5.321028828620911E-002;-1.965073170140386E-003;-2.564033260568976E-003;
2.403833333333334E+009;1.699391752481461E-001;5.103774741292000E-002;-2.152093453332782E-003;-2.250989200547338E-003;
2.404000000000000E+009;1.714741289615631E-001;4.900197684764862E-002;-2.226606244221330E-003;-2.408930566161871E-003;
2.404166666666667E+009;1.734708547592163E-001;4.704299196600914E-002;-2.381662139669061E-003;-2.275785896927118E-003;
2.404333333333334E+009;1.753426194190979E-001;4.510754346847534E-002;-2.378514967858791E-003;-2.189951715990901E-003;
2.404500000000000E+009;1.770769953727722E-001;4.331139475107193E-002;-2.461472060531378E-003;-2.169266808778048E-003;
2.404666666666667E+009;1.790892779827118E-001;4.196653515100479E-002;-2.500618807971478E-003;-2.035497454926372E-003;
2.404833333333334E+009;1.808091402053833E-001;4.049407318234444E-002;-2.562362002208829E-003;-2.117649884894490E-003;
2.405000000000000E+009;1.823631823062897E-001;3.957549110054970E-002;-2.442704746499658E-003;-1.914502587169409E-003;
2.405166666666667E+009;1.840628534555435E-001;3.857152163982391E-002;-2.577251754701138E-003;-1.651939353905618E-003;
2.405333333333334E+009;1.858672648668289E-001;3.780351951718330E-002;-2.779834670946002E-003;-1.904129749163985E-003;
2.405500000000000E+009;1.876139342784882E-001;3.700448945164681E-002;-2.836063271388412E-003;-1.795629039406776E-003;
2.405666666666667E+009;1.890357434749603E-001;3.655296191573143E-002;-2.797791035845876E-003;-1.978499582037330E-003;
2.405833333333334E+009;1.907128393650055E-001;3.624371811747551E-002;-2.885231282562017E-003;-1.774127478711307E-003;
2.406000000000000E+009;1.920875608921051E-001;3.603252768516541E-002;-3.062258707359433E-003;-1.801697420887649E-003;
2.406166666666667E+009;1.934177875518799E-001;3.559904173016548E-002;-3.171161748468876E-003;-1.741457497701049E-003;
2.406333333333334E+009;1.947295367717743E-001;3.579215705394745E-002;-3.301129676401615E-003;-1.687112729996443E-003;
2.406500000000000E+009;1.958713829517365E-001;3.583944216370583E-002;-3.243592102080584E-003;-1.619452261365950E-003;
2.406666666666667E+009;1.968625187873840E-001;3.588085621595383E-002;-3.428764641284943E-003;-1.482756924815476E-003;
2.406833333333334E+009;1.977441161870956E-001;3.609457612037659E-002;-3.391956677660346E-003;-1.576582784764469E-003;
2.407000000000000E+009;1.984415799379349E-001;3.640918806195259E-002;-3.578417235985398E-003;-1.316915149800479E-003;
2.407166666666667E+009;1.989983916282654E-001;3.626377508044243E-002;-3.648122539743781E-003;-1.260028919205070E-003;
2.407333333333334E+009;1.993458271026611E-001;3.680108115077019E-002;-3.581871977075934E-003;-1.108875614590943E-003;
2.407500000000000E+009;1.997557580471039E-001;3.711773827672005E-002;-3.820214187726378E-003;-1.034453278407455E-003;
2.407666666666667E+009;1.999290138483048E-001;3.725335747003555E-002;-3.927215933799744E-003;-8.407231071032584E-004;
2.407833333333334E+009;1.996882557868958E-001;3.759801387786865E-002;-3.916192799806595E-003;-7.045157253742218E-004;
2.408000000000000E+009;1.999085843563080E-001;3.764594346284866E-002;-4.089318215847015E-003;-5.785907269455493E-004;
2.408166666666667E+009;1.994682848453522E-001;3.771695122122765E-002;-4.293431993573904E-003;-2.931460912805051E-004;
2.408333333333334E+009;1.991765797138214E-001;3.753962367773056E-002;-4.357522353529930E-003;-3.135873703286052E-004;
2.408500000000000E+009;1.986681967973709E-001;3.770836442708969E-002;-4.268748220056295E-003;-2.303367800777778E-004;
2.408666666666667E+009;1.979498416185379E-001;3.753956407308579E-002;-4.399990197271109E-003;-1.699055283097550E-004;
2.408833333333334E+009;1.975019425153732E-001;3.720391541719437E-002;-4.571147263050079E-003;7.437454769387841E-005;
2.409000000000000E+009;1.964264363050461E-001;3.667617216706276E-002;-4.553708247840405E-003;2.887896262109280E-004;
2.409166666666667E+009;1.956278681755066E-001;3.601666167378426E-002;-4.689685069024563E-003;3.801680286414921E-004;
2.409333333333334E+009;1.945397108793259E-001;3.556792438030243E-002;-4.522811155766249E-003;6.516702123917639E-004;
2.409500000000000E+009;1.934226602315903E-001;3.464252129197121E-002;-4.689853172749281E-003;8.447883883491159E-004;
2.409666666666667E+009;1.922305822372437E-001;3.357705101370812E-002;-4.677945282310247E-003;1.228854991495609E-003;
2.409833333333334E+009;1.910266578197479E-001;3.239777311682701E-002;-4.729509353637695E-003;1.398356049321592E-003;
2.410000000000000E+009;1.897308826446533E-001;3.109382092952728E-002;-4.630180541425943E-003;1.636467408388853E-003;
2.410166666666667E+009;1.885850727558136E-001;2.954355068504810E-002;-4.534764681011438E-003;1.764820888638496E-003;
2.410333333333334E+009;1.874097883701325E-001;2.810892648994923E-002;-4.460880998522043E-003;2.099167089909315E-003;
2.410500000000000E+009;1.862791925668716E-001;2.629528753459454E-002;-4.327894188463688E-003;2.340625971555710E-003;
2.410666666666667E+009;1.850625425577164E-001;2.434913627803326E-002;-4.262089263647795E-003;2.474182285368443E-003;
2.410833333333334E+009;1.841519027948380E-001;2.225968055427074E-002;-4.249776713550091E-003;2.780148060992360E-003;
2.411000000000000E+009;1.829441934823990E-001;2.014281973242760E-002;-4.091059789061546E-003;2.837501466274262E-003;
2.411166666666667E+009;1.820038110017777E-001;1.798242703080177E-002;-3.705309471115470E-003;3.078656969591975E-003;
2.411333333333334E+009;1.812059283256531E-001;1.561593916267157E-002;-3.720107255503535E-003;3.089152043685317E-003;
2.411500000000000E+009;1.803486049175263E-001;1.318191085010767E-002;-3.536086296662688E-003;3.362922230735421E-003;
2.411666666666667E+009;1.797588020563126E-001;1.081399619579315E-002;-3.480391576886177E-003;3.370261983945966E-003;
2.411833333333334E+009;1.789963543415070E-001;8.442346006631851E-003;-3.286919789388776E-003;3.574439557269216E-003;
2.412000000000000E+009;1.789869666099548E-001;5.620799958705902E-003;-2.957375952973962E-003;3.711818950250745E-003;
2.412166666666667E+009;1.785387098789215E-001;3.143515670672059E-003;-2.874576253816485E-003;3.741914872080088E-003;
2.412333333333334E+009;1.784135997295380E-001;4.181358963251114E-004;-2.808406017720699E-003;3.790162969380617E-003;
2.412500000000000E+009;1.787276566028595E-001;-2.157732145860791E-003;-2.612897660583258E-003;3.805182175710797E-003;
2.412666666666667E+009;1.788403540849686E-001;-4.779655486345291E-003;-2.522066002711654E-003;3.904524957761169E-003;
2.412833333333334E+009;1.793878972530365E-001;-7.615306414663792E-003;-2.197932219132781E-003;3.843324258923531E-003;
2.413000000000000E+009;1.796307414770126E-001;-1.002412289381027E-002;-2.246320014819503E-003;4.082663916051388E-003;
2.413166666666667E+009;1.803007125854492E-001;-1.254262402653694E-002;-2.159495139494538E-003;4.093700088560581E-003;
2.413333333333334E+009;1.811460554599762E-001;-1.527578197419643E-002;-1.875965390354395E-003;4.045818932354450E-003;
2.413500000000000E+009;1.818965673446655E-001;-1.785477623343468E-002;-1.760651939548552E-003;4.029028117656708E-003;
2.413666666666667E+009;1.828966587781906E-001;-2.030930668115616E-002;-1.688260585069656E-003;4.166097380220890E-003;
2.413833333333334E+009;1.840096116065979E-001;-2.265326865017414E-002;-1.555021037347615E-003;4.313422366976738E-003;
2.414000000000000E+009;1.849920749664307E-001;-2.493206784129143E-002;-1.449123490601778E-003;4.242000635713339E-003;
2.414166666666667E+009;1.862927824258804E-001;-2.690731175243855E-002;-1.249284483492374E-003;4.323841538280249E-003;
2.414333333333334E+009;1.874276697635651E-001;-2.928823418915272E-002;-1.232304726727307E-003;4.326566588133574E-003;
2.414500000000000E+009;1.887143850326538E-001;-3.106316179037094E-002;-1.047245925292373E-003;4.414812196046114E-003;
2.414666666666667E+009;1.901027411222458E-001;-3.286089003086090E-002;-8.434152696281672E-004;4.492955282330513E-003;
2.414833333333334E+009;1.912661492824554E-001;-3.465308621525765E-002;-8.748092805035412E-004;4.528754390776157E-003;
2.415000000000000E+009;1.926078498363495E-001;-3.617886453866959E-002;-6.364908185787499E-004;4.565701819956303E-003;
2.415166666666667E+009;1.941412240266800E-001;-3.761285543441773E-002;-3.966196672990918E-004;4.449083469808102E-003;
2.415333333333334E+009;1.952062398195267E-001;-3.873770311474800E-002;-1.391735131619498E-004;4.541431553661823E-003;
2.415500000000000E+009;1.967099308967590E-001;-3.966514766216278E-002;1.774366978679609E-006;4.627860151231289E-003;
2.415666666666667E+009;1.979619115591049E-001;-4.085672646760941E-002;1.806263171602041E-004;4.389052279293537E-003;
2.415833333333334E+009;1.990871876478195E-001;-4.163502156734467E-002;3.058541624341160E-004;4.566531628370285E-003;
2.416000000000000E+009;2.001471519470215E-001;-4.249190911650658E-002;4.311168158892542E-004;4.334251862019301E-003;
2.416166666666667E+009;2.011878192424774E-001;-4.306254535913467E-002;5.052888300269842E-004;4.550779238343239E-003;
2.416333333333334E+009;2.021465897560120E-001;-4.348492622375488E-002;7.894501322880387E-004;4.348038695752621E-003;
2.416500000000000E+009;2.030114382505417E-001;-4.375369474291802E-002;9.633953450247645E-004;4.438575357198715E-003;
2.416666666666667E+009;2.035944014787674E-001;-4.423514381051064E-002;1.008498482406139E-003;4.430388100445271E-003;
2.416833333333334E+009;2.040524631738663E-001;-4.415816068649292E-002;1.145705347880721E-003;4.417277872562408E-003;
2.417000000000000E+009;2.043967545032501E-001;-4.424308612942696E-002;1.335207838565111E-003;4.402210935950279E-003;
2.417166666666667E+009;2.044606059789658E-001;-4.414812475442886E-002;1.357206376269460E-003;4.185619298368692E-003;
2.417333333333334E+009;2.044904679059982E-001;-4.385920986533165E-002;1.644236617721617E-003;4.238874185830355E-003;
2.417500000000000E+009;2.045364230871201E-001;-4.376204311847687E-002;1.804056693799794E-003;4.192594904452562E-003;
2.417666666666667E+009;2.043724507093430E-001;-4.335137829184532E-002;2.082595368847251E-003;4.215714987367392E-003;
2.417833333333334E+009;2.042006850242615E-001;-4.302745684981346E-002;2.259868662804365E-003;3.833377966657281E-003;
2.418000000000000E+009;2.037043571472168E-001;-4.244931787252426E-002;2.407170366495848E-003;3.902208060026169E-003;
2.418166666666667E+009;2.032592743635178E-001;-4.214168339967728E-002;2.586936112493277E-003;3.730008145794272E-003;
2.418333333333334E+009;2.025143951177597E-001;-4.180631786584854E-002;2.707049949094653E-003;3.627693979069591E-003;
2.418500000000000E+009;2.017105072736740E-001;-4.154434800148010E-002;2.697123913094401E-003;3.396336687728763E-003;
2.418666666666667E+009;2.009778618812561E-001;-4.120522364974022E-002;2.948806155472994E-003;3.429533215239644E-003;
2.418833333333334E+009;1.997809708118439E-001;-4.104469716548920E-002;2.959291217848659E-003;3.034174675121903E-003;
2.419000000000000E+009;1.985095888376236E-001;-4.080926254391670E-002;3.062503645196557E-003;3.046353347599506E-003;
2.419166666666667E+009;1.973765939474106E-001;-4.061627015471458E-002;3.085818141698837E-003;2.793685998767614E-003;
2.419333333333334E+009;1.960743963718414E-001;-4.091730341315270E-002;3.172466298565269E-003;2.702705562114716E-003;
2.419500000000000E+009;1.945364624261856E-001;-4.093766212463379E-002;3.135467646643519E-003;2.528200857341290E-003;
2.419666666666667E+009;1.927608698606491E-001;-4.155988991260529E-002;3.069876227527857E-003;2.467232756316662E-003;
2.419833333333334E+009;1.912312656641007E-001;-4.171381890773773E-002;2.902793465182185E-003;2.233745064586401E-003;
2.420000000000000E+009;1.895807087421417E-001;-4.249480739235878E-002;3.118358785286546E-003;2.395750256255269E-003;
2.420166666666667E+009;1.877493411302567E-001;-4.307761415839195E-002;3.053680993616581E-003;2.263224218040705E-003;
2.420333333333334E+009;1.861402988433838E-001;-4.389315098524094E-002;3.180090337991715E-003;2.165585756301880E-003;
2.420500000000000E+009;1.841224879026413E-001;-4.496094956994057E-002;3.312758170068264E-003;2.238876186311245E-003;
2.420666666666667E+009;1.824070811271668E-001;-4.585669934749603E-002;3.203631145879626E-003;2.030930714681745E-003;
2.420833333333334E+009;1.806377619504929E-001;-4.719147086143494E-002;3.300131997093558E-003;2.163724042475224E-003;
2.421000000000000E+009;1.788480728864670E-001;-4.867643117904663E-002;3.466428024694324E-003;2.021067310124636E-003;
2.421166666666667E+009;1.771046519279480E-001;-5.007318034768105E-002;3.429900156334043E-003;2.058848738670349E-003;
2.421333333333334E+009;1.751668900251389E-001;-5.158086866140366E-002;3.631521714851260E-003;1.818348886445165E-003;
2.421500000000000E+009;1.736075431108475E-001;-5.349538102746010E-002;3.802752820774913E-003;1.685914117842913E-003;
2.421666666666667E+009;1.719631254673004E-001;-5.516080558300018E-002;3.780212253332138E-003;1.607598154805601E-003;
2.421833333333334E+009;1.705889850854874E-001;-5.712534114718437E-002;3.857676405459642E-003;1.406556693837047E-003;
2.422000000000000E+009;1.691595911979675E-001;-5.894313752651215E-002;4.002224653959274E-003;1.260252087377012E-003;
2.422166666666667E+009;1.680265069007874E-001;-6.124866753816605E-002;3.875150345265865E-003;1.325274002738297E-003;
2.422333333333334E+009;1.666713953018189E-001;-6.329909712076187E-002;3.935987129807472E-003;9.839963167905808E-004;
2.422500000000000E+009;1.656880080699921E-001;-6.523451209068298E-002;4.161937162280083E-003;9.947536746039987E-004;
2.422666666666667E+009;1.646450459957123E-001;-6.744725257158279E-002;3.808545414358378E-003;8.228161605075002E-004;
2.422833333333334E+009;1.640768051147461E-001;-6.980540603399277E-002;3.799274796620011E-003;6.023266469128430E-004;
2.423000000000000E+009;1.632238924503326E-001;-7.205702364444733E-002;3.956290893256664E-003;5.561011494137347E-004;
2.423166666666667E+009;1.626640409231186E-001;-7.425975799560547E-002;3.938026260584593E-003;4.511546867433935E-004;
2.423333333333334E+009;1.624837219715118E-001;-7.656138390302658E-002;3.849820466712117E-003;3.597865579649806E-004;
2.423500000000000E+009;1.619593352079392E-001;-7.858709245920181E-002;3.772930009290576E-003;1.809387176763266E-004;
2.423666666666667E+009;1.621409505605698E-001;-8.081681281328201E-002;3.818606492131949E-003;2.352411538595334E-004;
2.423833333333334E+009;1.617249697446823E-001;-8.287794142961502E-002;3.719042986631393E-003;2.922877683886327E-005;
2.424000000000000E+009;1.619564741849899E-001;-8.498508483171463E-002;3.691393183544278E-003;-9.867222979664803E-005;
2.424166666666667E+009;1.618884652853012E-001;-8.688584715127945E-002;3.639999311417341E-003;-2.073444338748232E-004;
2.424333333333334E+009;1.620812714099884E-001;-8.868189901113510E-002;3.776132594794035E-003;-2.356827171752229E-004;
2.424500000000000E+009;1.625662446022034E-001;-9.086908400058746E-002;3.757865400984883E-003;-2.620314189698547E-004;
2.424666666666667E+009;1.629371643066406E-001;-9.243446588516235E-002;3.733660560101271E-003;-4.259639827068895E-004;
2.424833333333334E+009;1.635111719369888E-001;-9.400755912065506E-002;3.739783307537437E-003;-3.744515997823328E-004;
2.425000000000000E+009;1.640146821737289E-001;-9.558564424514771E-002;3.681767964735627E-003;-5.408977158367634E-004;
2.425166666666667E+009;1.644807010889053E-001;-9.699970483779907E-002;3.772407304495573E-003;-5.662274197675288E-004;
2.425333333333334E+009;1.648359298706055E-001;-9.827061742544174E-002;3.706338116899133E-003;-7.964467513374984E-004;
2.425500000000000E+009;1.656378209590912E-001;-9.942666441202164E-002;3.719357773661614E-003;-8.635407430119813E-004;
2.425666666666667E+009;1.662843972444534E-001;-1.003162264823914E-001;3.696541069075465E-003;-9.298807708546519E-004;
2.425833333333334E+009;1.667324453592300E-001;-1.014185547828674E-001;3.696280997246504E-003;-1.150118419900537E-003;
2.426000000000000E+009;1.675367057323456E-001;-1.020873337984085E-001;3.619192168116570E-003;-1.332115032710135E-003;
2.426166666666667E+009;1.682578772306442E-001;-1.027946770191193E-001;3.468672977760434E-003;-1.346428529359400E-003;
2.426333333333334E+009;1.686490923166275E-001;-1.033756732940674E-001;3.661717288196087E-003;-1.549981185235083E-003;
2.426500000000000E+009;1.694439053535461E-001;-1.038646176457405E-001;3.580413758754730E-003;-1.725201494991779E-003;
2.426666666666667E+009;1.699746996164322E-001;-1.044069901108742E-001;3.443943569436669E-003;-1.636800938285887E-003;
2.426833333333334E+009;1.706894785165787E-001;-1.046504154801369E-001;3.515556687489152E-003;-1.919678412377834E-003;
2.427000000000000E+009;1.709244102239609E-001;-1.047865748405457E-001;3.362911986187100E-003;-2.030789153650403E-003;
2.427166666666667E+009;1.712702512741089E-001;-1.049327552318573E-001;3.353782230988145E-003;-2.040732419118285E-003;
2.427333333333334E+009;1.716475486755371E-001;-1.052296087145805E-001;3.249239176511765E-003;-2.251951722428203E-003;
2.427500000000000E+009;1.717154234647751E-001;-1.054160967469215E-001;3.192691132426262E-003;-2.253880025818944E-003;
2.427666666666667E+009;1.717218160629273E-001;-1.053941920399666E-001;3.090247744694352E-003;-2.452671295031905E-003;
2.427833333333334E+009;1.717143505811691E-001;-1.054003536701202E-001;3.029718529433012E-003;-2.594047924503684E-003;
