# Version 1.00
#
freq[Hz];re:Trc1_S11;im:Trc1_S11;re:Trc2_S21;im:Trc2_S21;
2.400000000000000E+009;1.575876772403717E-001;1.125288382172585E-001;-6.028738571330905E-004;-2.334146527573466E-003;
2.400166666666667E+009;1.569595187902451E-001;1.103381216526032E-001;-4.333916876930744E-004;-2.348611829802394E-003;
2.400333333333334E+009;1.566586047410965E-001;1.082657724618912E-001;-5.763352965004742E-004;-2.316466299816966E-003;
2.400500000000000E+009;1.561820954084396E-001;1.057831719517708E-001;-4.419008910190314E-004;-2.340954961255193E-003;
2.400666666666667E+009;1.560555845499039E-001;1.032420471310616E-001;-3.626330872066319E-004;-2.283359877765179E-003;
2.400833333333334E+009;1.555897891521454E-001;1.004927977919579E-001;-4.120365483686328E-004;-2.463884651660919E-003;
2.401000000000000E+009;1.554648578166962E-001;9.759666025638580E-002;-3.028942155651748E-004;-2.565538510680199E-003;
2.401166666666667E+009;1.552173793315888E-001;9.488981962203980E-002;-5.253550480119884E-004;-2.576160477474332E-003;
2.401333333333334E+009;1.552415788173676E-001;9.192468225955963E-002;-3.989002434536815E-004;-2.679253695532680E-003;
2.401500000000000E+009;1.552318632602692E-001;8.890963345766068E-002;-5.421793321147561E-004;-2.784224459901452E-003;
2.401666666666667E+009;1.553539782762528E-001;8.604443073272705E-002;-7.417761953547597E-004;-2.663085935637355E-003;
2.401833333333334E+009;1.556055396795273E-001;8.300567418336868E-002;-9.531935793347657E-004;-2.629554131999612E-003;
2.402000000000000E+009;1.560128927230835E-001;8.004068583250046E-002;-9.948532097041607E-004;-2.791830105707049E-003;
2.402166666666667E+009;1.566113978624344E-001;7.731874287128449E-002;-8.599704597145319E-004;-2.725701546296477E-003;
2.402333333333334E+009;1.574252545833588E-001;7.412820309400559E-002;-1.215183176100254E-003;-2.688704757019877E-003;
2.402500000000000E+009;1.584293097257614E-001;7.128069549798966E-002;-1.199006685055792E-003;-2.817929023876786E-003;
2.402666666666667E+009;1.592485755681992E-001;6.869485229253769E-002;-1.452586031518877E-003;-2.656441181898117E-003;
2.402833333333334E+009;1.605726778507233E-001;6.591068953275681E-002;-1.499608624726534E-003;-2.739778719842434E-003;
2.403000000000000E+009;1.617046147584915E-001;6.311915069818497E-002;-1.609528902918100E-003;-2.724701073020697E-003;
2.403166666666667E+009;1.635063886642456E-001;6.066472828388214E-002;-1.845695893280208E-003;-2.608153736218810E-003;
2.403333333333334E+009;1.645917594432831E-001;5.804756656289101E-002;-1.905926270410419E-003;-2.591477474197745E-003;
2.403500000000000E+009;1.664080023765564E-001;5.562178045511246E-002;-1.950998324900866E-003;-2.623069332912564E-003;
2.403666666666667E+009;1.682072132825851E-001;5.332655832171440E-002;-2.024597488343716E-003;-2.516074106097221E-003;
2.403833333333334E+009;1.699647903442383E-001;5.098355188965797E-002;-2.101886551827192E-003;-2.263600938022137E-003;
2.404000000000000E+009;1.714525371789932E-001;4.878043755888939E-002;-2.145589329302311E-003;-2.307794988155365E-003;
2.404166666666667E+009;1.733335703611374E-001;4.711171239614487E-002;-2.168603241443634E-003;-2.351277507841587E-003;
2.404333333333334E+009;1.751226335763931E-001;4.511711746454239E-002;-2.234210027381778E-003;-2.235400024801493E-003;
2.404500000000000E+009;1.768789738416672E-001;4.341492056846619E-002;-2.458192873746157E-003;-2.050870796665549E-003;
2.404666666666667E+009;1.787534654140472E-001;4.187095165252686E-002;-2.450143918395042E-003;-1.945029944181442E-003;
2.404833333333334E+009;1.805668622255325E-001;4.048310965299606E-002;-2.382016042247415E-003;-2.008196199312806E-003;
2.405000000000000E+009;1.822547167539597E-001;3.951408341526985E-002;-2.516442909836769E-003;-1.986564137041569E-003;
2.405166666666667E+009;1.840873211622238E-001;3.857474029064179E-002;-2.601389074698091E-003;-1.877632341347635E-003;
2.405333333333334E+009;1.857225447893143E-001;3.800485655665398E-002;-2.552433870732784E-003;-1.838907366618514E-003;
2.405500000000000E+009;1.874625533819199E-001;3.724704310297966E-002;-2.677888143807650E-003;-1.902838121168315E-003;
2.405666666666667E+009;1.890643686056137E-001;3.667299821972847E-002;-2.837585518136621E-003;-1.907106023281813E-003;
2.405833333333334E+009;1.907364279031754E-001;3.633036091923714E-002;-2.841184381395578E-003;-1.791925285942853E-003;
2.406000000000000E+009;1.920921653509140E-001;3.609405085444450E-002;-2.891261363402009E-003;-1.780123217031360E-003;
2.406166666666667E+009;1.933479607105255E-001;3.586934879422188E-002;-3.042388474568725E-003;-1.669271849095821E-003;
2.406333333333334E+009;1.946419924497604E-001;3.586654737591744E-002;-3.161736065521836E-003;-1.726052490994334E-003;
2.406500000000000E+009;1.957449913024902E-001;3.595302999019623E-002;-3.247502027079463E-003;-1.470372430048883E-003;
2.406666666666667E+009;1.968971192836762E-001;3.612982481718063E-002;-3.351054619997740E-003;-1.653705723583698E-003;
2.406833333333334E+009;1.977984309196472E-001;3.606794402003288E-002;-3.379491856321693E-003;-1.459149527363479E-003;
2.407000000000000E+009;1.983381211757660E-001;3.649123013019562E-002;-3.579703159630299E-003;-1.473764190450311E-003;
2.407166666666667E+009;1.991498172283173E-001;3.643603995442390E-002;-3.678654087707400E-003;-1.113017206080258E-003;
2.407333333333334E+009;1.994327306747437E-001;3.679213300347328E-002;-3.746327012777329E-003;-1.233231625519693E-003;
2.407500000000000E+009;1.997081637382507E-001;3.716778382658958E-002;-3.918080125004053E-003;-1.105154631659389E-003;
2.407666666666667E+009;1.999613046646118E-001;3.738848492503166E-002;-4.019851796329022E-003;-9.597148746252060E-004;
2.407833333333334E+009;1.997242420911789E-001;3.756584227085114E-002;-3.986686933785677E-003;-8.879992528818548E-004;
2.408000000000000E+009;1.998699754476547E-001;3.777062147855759E-002;-4.119582474231720E-003;-7.026041275821626E-004;
2.408166666666667E+009;1.995162814855576E-001;3.776654973626137E-002;-4.096418153494597E-003;-7.135248742997646E-004;
2.408333333333334E+009;1.991805285215378E-001;3.762544691562653E-002;-4.217298701405525E-003;-4.254343803040683E-004;
2.408500000000000E+009;1.987763196229935E-001;3.768292814493179E-002;-4.423588048666716E-003;-2.367531706113368E-004;
2.408666666666667E+009;1.980863064527512E-001;3.756877779960632E-002;-4.390288144350052E-003;-1.234592491528019E-004;
2.408833333333334E+009;1.974820643663406E-001;3.711455687880516E-002;-4.388541914522648E-003;1.327145728282630E-004;
2.409000000000000E+009;1.965027749538422E-001;3.657115250825882E-002;-4.573950543999672E-003;1.577966177137569E-004;
2.409166666666667E+009;1.955841034650803E-001;3.597917035222054E-002;-4.542907699942589E-003;3.569413674995303E-004;
2.409333333333334E+009;1.946919262409210E-001;3.536577522754669E-002;-4.718049429357052E-003;7.560543599538505E-004;
2.409500000000000E+009;1.934526413679123E-001;3.457670286297798E-002;-4.704396706074476E-003;9.405215969309211E-004;
2.409666666666667E+009;1.923188567161560E-001;3.347167000174522E-002;-4.660971928387880E-003;1.098655047826469E-003;
2.409833333333334E+009;1.910510063171387E-001;3.239276260137558E-002;-4.740871954709292E-003;1.179379993118346E-003;
2.410000000000000E+009;1.899597644805908E-001;3.101072087883949E-002;-4.605567548424006E-003;1.645113457925618E-003;
2.410166666666667E+009;1.887557506561279E-001;2.962322160601616E-002;-4.691586829721928E-003;1.786437700502574E-003;
2.410333333333334E+009;1.874847412109375E-001;2.808899618685246E-002;-4.590256605297327E-003;2.081471495330334E-003;
2.410500000000000E+009;1.862537562847138E-001;2.642684243619442E-002;-4.333810880780220E-003;2.362901810556650E-003;
2.410666666666667E+009;1.851087957620621E-001;2.421775646507740E-002;-4.330608993768692E-003;2.491396153345704E-003;
2.410833333333334E+009;1.841835528612137E-001;2.228981256484985E-002;-4.182354547083378E-003;2.671606605872512E-003;
2.411000000000000E+009;1.830035448074341E-001;2.014285884797573E-002;-3.926689736545086E-003;2.705993363633752E-003;
2.411166666666667E+009;1.820196211338043E-001;1.815876364707947E-002;-3.871773602440953E-003;2.969196531921625E-003;
2.411333333333334E+009;1.811348050832748E-001;1.549428235739470E-002;-3.753465600311756E-003;3.091993741691113E-003;
2.411500000000000E+009;1.803268790245056E-001;1.322896871715784E-002;-3.563249716535211E-003;3.096939064562321E-003;
2.411666666666667E+009;1.797727644443512E-001;1.081043481826782E-002;-3.535159863531590E-003;3.335353219881654E-003;
2.411833333333334E+009;1.791839301586151E-001;8.238036185503006E-003;-3.311417298391461E-003;3.427573479712009E-003;
2.412000000000000E+009;1.790331304073334E-001;5.626945756375790E-003;-3.055670531466603E-003;3.545654239133000E-003;
2.412166666666667E+009;1.786684542894363E-001;2.942763036116958E-003;-2.883258741348982E-003;3.759758081287146E-003;
2.412333333333334E+009;1.785544157028198E-001;4.325149056967348E-004;-2.852318808436394E-003;3.673260333016515E-003;
2.412500000000000E+009;1.787304133176804E-001;-2.129097003489733E-003;-2.694363472983241E-003;3.837741911411285E-003;
2.412666666666667E+009;1.790252774953842E-001;-4.865411669015884E-003;-2.416816540062428E-003;3.865444567054510E-003;
2.412833333333334E+009;1.792545467615128E-001;-7.618673145771027E-003;-2.286626258864999E-003;3.897526999935508E-003;
2.413000000000000E+009;1.798755675554276E-001;-1.016656309366226E-002;-2.141937380656600E-003;3.915831446647644E-003;
2.413166666666667E+009;1.803350448608398E-001;-1.246746163815260E-002;-2.094611059874296E-003;4.012227058410645E-003;
2.413333333333334E+009;1.812322586774826E-001;-1.523363403975964E-002;-1.894275541417301E-003;4.030793905258179E-003;
2.413500000000000E+009;1.820270270109177E-001;-1.782982610166073E-002;-1.837754040025175E-003;4.055199213325977E-003;
2.413666666666667E+009;1.830272525548935E-001;-2.030451968312264E-002;-1.838435418903828E-003;4.112580791115761E-003;
2.413833333333334E+009;1.840594261884689E-001;-2.270508557558060E-002;-1.567652216181159E-003;4.087789915502071E-003;
2.414000000000000E+009;1.851539164781570E-001;-2.507444284856319E-002;-1.509063411504030E-003;4.194279201328754E-003;
2.414166666666667E+009;1.864379495382309E-001;-2.711583673954010E-002;-1.491436501964927E-003;4.280410706996918E-003;
2.414333333333334E+009;1.876024752855301E-001;-2.943732962012291E-002;-1.256662420928478E-003;4.302921239286661E-003;
2.414500000000000E+009;1.888718605041504E-001;-3.109558857977390E-002;-1.089288736693561E-003;4.338728729635477E-003;
2.414666666666667E+009;1.901786625385284E-001;-3.299344703555107E-002;-9.860299760475755E-004;4.520171321928501E-003;
2.414833333333334E+009;1.914796084165573E-001;-3.452865034341812E-002;-6.727043655700982E-004;4.573773592710495E-003;
2.415000000000000E+009;1.926645934581757E-001;-3.632482513785362E-002;-5.577984265983105E-004;4.603952169418335E-003;
2.415166666666667E+009;1.941715031862259E-001;-3.763647377490997E-002;-4.604046407621354E-004;4.542685113847256E-003;
2.415333333333334E+009;1.954924911260605E-001;-3.876514732837677E-002;-1.863452635006979E-004;4.556947387754917E-003;
2.415500000000000E+009;1.968416273593903E-001;-3.982499986886978E-002;-9.852241055341438E-005;4.660017322748900E-003;
2.415666666666667E+009;1.980195343494415E-001;-4.086417704820633E-002;1.194043619534568E-007;4.446637816727161E-003;
2.415833333333334E+009;1.991941779851914E-001;-4.160510376095772E-002;2.224811614723876E-004;4.566291812807322E-003;
2.416000000000000E+009;2.001894116401672E-001;-4.235121607780457E-002;2.950025373138487E-004;4.550632555037737E-003;
2.416166666666667E+009;2.012281268835068E-001;-4.306690394878388E-002;5.100052803754807E-004;4.449560772627592E-003;
2.416333333333334E+009;2.020752280950546E-001;-4.348538815975189E-002;7.198819075711072E-004;4.501668270677328E-003;
2.416500000000000E+009;2.029386311769486E-001;-4.383374378085136E-002;9.204664966091514E-004;4.398805089294910E-003;
2.416666666666667E+009;2.035063952207565E-001;-4.421753063797951E-002;1.031202380545437E-003;4.452342633157969E-003;
2.416833333333334E+009;2.040625810623169E-001;-4.425118118524551E-002;1.046944991685450E-003;4.506967496126890E-003;
2.417000000000000E+009;2.044766843318939E-001;-4.434351995587349E-002;1.236948417499661E-003;4.377896897494793E-003;
2.417166666666667E+009;2.045217752456665E-001;-4.422708600759506E-002;1.512497896328569E-003;4.385505802929401E-003;
2.417333333333334E+009;2.045959234237671E-001;-4.394434392452240E-002;1.570547348819673E-003;4.316608421504498E-003;
2.417500000000000E+009;2.046314775943756E-001;-4.369194805622101E-002;1.724575879052281E-003;4.209771286696196E-003;
2.417666666666667E+009;2.044614851474762E-001;-4.334706068038940E-002;2.081323647871614E-003;4.198732785880566E-003;
2.417833333333334E+009;2.042380124330521E-001;-4.301082715392113E-002;2.113404683768749E-003;3.967178985476494E-003;
2.418000000000000E+009;2.037751227617264E-001;-4.257153347134590E-002;2.465649740770459E-003;4.032675176858902E-003;
2.418166666666667E+009;2.032121866941452E-001;-4.224041849374771E-002;2.488885074853897E-003;3.835012204945087E-003;
2.418333333333334E+009;2.024428695440292E-001;-4.180325940251350E-002;2.760198432952166E-003;3.815837204456329E-003;
2.418500000000000E+009;2.016349881887436E-001;-4.149041324853897E-002;2.738056238740683E-003;3.483678214251995E-003;
2.418666666666667E+009;2.009185999631882E-001;-4.119791090488434E-002;2.962783211842179E-003;3.390534548088908E-003;
2.418833333333334E+009;1.999212205410004E-001;-4.110144078731537E-002;3.169930307194591E-003;3.215563017874956E-003;
2.419000000000000E+009;1.984796673059464E-001;-4.081914201378822E-002;3.072357038035989E-003;3.069940721616149E-003;
2.419166666666667E+009;1.973335593938828E-001;-4.088675603270531E-002;3.078396897763014E-003;3.091987222433090E-003;
2.419333333333334E+009;1.960470676422119E-001;-4.096077755093575E-002;3.100367262959480E-003;2.699601231142879E-003;
2.419500000000000E+009;1.945440322160721E-001;-4.097273200750351E-002;3.155400743708015E-003;2.593782730400562E-003;
2.419666666666667E+009;1.929360032081604E-001;-4.163175076246262E-002;3.022668883204460E-003;2.506193704903126E-003;
2.419833333333334E+009;1.911055296659470E-001;-4.176418855786324E-002;3.116265870630741E-003;2.327950904145837E-003;
2.420000000000000E+009;1.895050257444382E-001;-4.236509650945664E-002;3.136538667604327E-003;2.304960740730166E-003;
2.420166666666667E+009;1.877338886260986E-001;-4.317421093583107E-002;2.967471722513437E-003;2.324416767805815E-003;
2.420333333333334E+009;1.859732270240784E-001;-4.397884383797646E-002;3.184165572747588E-003;2.347327303141356E-003;
2.420500000000000E+009;1.841907203197479E-001;-4.508671164512634E-002;3.052236512303352E-003;2.257636748254299E-003;
2.420666666666667E+009;1.823076158761978E-001;-4.588829725980759E-002;3.299686126410961E-003;2.315389225259423E-003;
2.420833333333334E+009;1.804525852203369E-001;-4.728589579463005E-002;3.384465817362070E-003;2.165454905480146E-003;
2.421000000000000E+009;1.787203401327133E-001;-4.854993149638176E-002;3.487120382487774E-003;2.130979206413031E-003;
2.421166666666667E+009;1.770696938037872E-001;-5.035556107759476E-002;3.507660934701562E-003;2.073089592158794E-003;
2.421333333333334E+009;1.750626116991043E-001;-5.152058228850365E-002;3.690485609695315E-003;1.882129930891097E-003;
2.421500000000000E+009;1.735326796770096E-001;-5.348325148224831E-002;3.721645101904869E-003;1.709296251647174E-003;
2.421666666666667E+009;1.720030456781387E-001;-5.526376143097878E-002;3.632959909737110E-003;1.609206548891962E-003;
2.421833333333334E+009;1.704633831977844E-001;-5.715790018439293E-002;3.770477836951613E-003;1.590439933352172E-003;
2.422000000000000E+009;1.690908819437027E-001;-5.909568443894386E-002;3.896360052749515E-003;1.341430353932083E-003;
2.422166666666667E+009;1.679272204637528E-001;-6.105571240186691E-002;3.953346516937017E-003;1.272682216949761E-003;
2.422333333333334E+009;1.666989326477051E-001;-6.329464167356491E-002;3.833527211099863E-003;1.085878000594676E-003;
2.422500000000000E+009;1.656654626131058E-001;-6.539545208215714E-002;3.998186439275742E-003;8.731724228709936E-004;
2.422666666666667E+009;1.645844280719757E-001;-6.751811504364014E-002;3.887903643772006E-003;7.609574240632355E-004;
2.422833333333334E+009;1.640044748783112E-001;-6.976540386676788E-002;3.784487955272198E-003;7.405224023386836E-004;
2.423000000000000E+009;1.632030457258225E-001;-7.207068055868149E-002;3.959459252655506E-003;6.022623274475336E-004;
2.423166666666667E+009;1.626147031784058E-001;-7.433671504259110E-002;3.973428625613451E-003;4.087715642526746E-004;
2.423333333333334E+009;1.622410118579865E-001;-7.652088999748230E-002;3.870272776111960E-003;2.756546600721777E-004;
2.423500000000000E+009;1.620108336210251E-001;-7.853816449642181E-002;3.832447575405240E-003;2.673634735401720E-004;
2.423666666666667E+009;1.619838476181030E-001;-8.085485547780991E-002;3.768995637074113E-003;2.184707409469411E-004;
2.423833333333334E+009;1.617154031991959E-001;-8.287991583347321E-002;3.878146642819047E-003;4.394464485812932E-005;
2.424000000000000E+009;1.618994474411011E-001;-8.503551781177521E-002;3.817615564912558E-003;-9.200556814903393E-005;
2.424166666666667E+009;1.619434505701065E-001;-8.673617988824844E-002;3.767146728932858E-003;-9.896085975924507E-005;
2.424333333333334E+009;1.621632426977158E-001;-8.867519348859787E-002;3.762251231819391E-003;-2.892383490689099E-004;
2.424500000000000E+009;1.625014543533325E-001;-9.083496779203415E-002;3.903985256329179E-003;-3.651492588687688E-004;
2.424666666666667E+009;1.629467159509659E-001;-9.242418408393860E-002;3.832099260762334E-003;-2.554289530962706E-004;
2.424833333333334E+009;1.634768694639206E-001;-9.411910176277161E-002;3.733450314030051E-003;-4.444907535798848E-004;
2.425000000000000E+009;1.639102399349213E-001;-9.545328468084335E-002;3.843273967504501E-003;-4.386842192616314E-004;
2.425166666666667E+009;1.643982976675034E-001;-9.691014885902405E-002;3.859492018818855E-003;-8.106071036309004E-004;
2.425333333333334E+009;1.648932546377182E-001;-9.821096062660217E-002;3.765876637771726E-003;-7.038562325760722E-004;
2.425500000000000E+009;1.656237691640854E-001;-9.944164752960205E-002;3.821281483396888E-003;-7.759152213111520E-004;
2.425666666666667E+009;1.662450283765793E-001;-1.003652662038803E-001;3.756579477339983E-003;-9.839819977059960E-004;
2.425833333333334E+009;1.668151915073395E-001;-1.013513356447220E-001;3.705775598064065E-003;-1.087497104890645E-003;
2.426000000000000E+009;1.675517708063126E-001;-1.020584180951119E-001;3.654244821518660E-003;-1.249445485882461E-003;
2.426166666666667E+009;1.682504564523697E-001;-1.026495769619942E-001;3.715455299243331E-003;-1.411838107742369E-003;
2.426333333333334E+009;1.687430590391159E-001;-1.034571751952171E-001;3.629334503784776E-003;-1.459697145037353E-003;
2.426500000000000E+009;1.694377958774567E-001;-1.038340702652931E-001;3.546145511791110E-003;-1.565429032780230E-003;
2.426666666666667E+009;1.698870956897736E-001;-1.042750030755997E-001;3.564913291484118E-003;-1.770904869772494E-003;
2.426833333333334E+009;1.704517155885696E-001;-1.047333776950836E-001;3.454453544691205E-003;-1.975433900952339E-003;
2.427000000000000E+009;1.708630621433258E-001;-1.048395410180092E-001;3.357264446094632E-003;-1.923804637044668E-003;
2.427166666666667E+009;1.712559759616852E-001;-1.049882173538208E-001;3.249589819461107E-003;-1.893626758828759E-003;
2.427333333333334E+009;1.715217381715775E-001;-1.052120253443718E-001;3.402472473680973E-003;-2.182826632633805E-003;
2.427500000000000E+009;1.717153936624527E-001;-1.052851080894470E-001;3.325973637402058E-003;-2.257668646052480E-003;
2.427666666666667E+009;1.717363148927689E-001;-1.053548306226730E-001;3.062062663957477E-003;-2.547877607867122E-003;
2.427833333333334E+009;1.716444790363312E-001;-1.053754314780235E-001;3.073697444051504E-003;-2.614562166854739E-003;
