# Version 1.00
#
freq[Hz];re:Trc1_S11;im:Trc1_S11;re:Trc2_S21;im:Trc2_S21;
2.400000000000000E+009;1.693231463432312E-001;4.599029570817947E-002;-4.918241756968200E-004;-2.243411261588335E-003;
2.400166666666667E+009;1.703646630048752E-001;4.493018612265587E-002;-5.167176714166999E-004;-2.152281347662211E-003;
2.400333333333334E+009;1.712966859340668E-001;4.367854818701744E-002;-4.702302103396505E-004;-1.955811632797122E-003;
2.400500000000000E+009;1.723159104585648E-001;4.285572469234467E-002;-2.680590259842575E-004;-1.775123877450824E-003;
2.400666666666667E+009;1.732943505048752E-001;4.179428517818451E-002;-5.529967020265758E-004;-1.680413843132556E-003;
2.400833333333334E+009;1.740767359733582E-001;4.130211472511292E-002;-4.538734501693398E-004;-1.645712298341095E-003;
2.401000000000000E+009;1.748702824115753E-001;4.034208506345749E-002;-3.520547179505229E-004;-1.524093910120428E-003;
2.401166666666667E+009;1.757885664701462E-001;3.963062912225723E-002;-2.646980865392834E-004;-1.403648988343775E-003;
2.401333333333334E+009;1.765263229608536E-001;3.899351507425308E-002;-1.137748913606629E-004;-1.236756681464613E-003;
2.401500000000000E+009;1.771482378244400E-001;3.857004642486572E-002;-8.475016511511058E-005;-1.243936829268932E-003;
2.401666666666667E+009;1.776039600372315E-001;3.802778199315071E-002;6.277345528360456E-005;-1.009880215860903E-003;
2.401833333333334E+009;1.782869398593903E-001;3.728698566555977E-002;1.819498866098002E-004;-1.124033820815384E-003;
2.402000000000000E+009;1.788231879472733E-001;3.685190901160240E-002;1.703036396065727E-004;-1.051750616170466E-003;
2.402166666666667E+009;1.790045499801636E-001;3.607519343495369E-002;4.548667347989976E-004;-1.060319365933538E-003;
2.402333333333334E+009;1.794651299715042E-001;3.556580096483231E-002;5.682385526597500E-004;-1.105806208215654E-003;
2.402500000000000E+009;1.797907948493958E-001;3.509930893778801E-002;6.306941504590213E-004;-1.053811633028090E-003;
2.402666666666667E+009;1.799032241106033E-001;3.436580300331116E-002;8.798549533821642E-004;-1.167065114714205E-003;
2.402833333333334E+009;1.802066415548325E-001;3.392434865236282E-002;1.105015748180449E-003;-1.187613583169878E-003;
2.403000000000000E+009;1.801874190568924E-001;3.291864693164825E-002;1.214101561345160E-003;-1.275949995033443E-003;
2.403166666666667E+009;1.802476644515991E-001;3.230743855237961E-002;1.358976587653160E-003;-1.599885057657957E-003;
2.403333333333334E+009;1.800222396850586E-001;3.154843300580978E-002;1.384341274388135E-003;-1.837492221966386E-003;
2.403500000000000E+009;1.795999556779862E-001;3.067518584430218E-002;1.531698042526841E-003;-1.836747047491372E-003;
2.403666666666667E+009;1.795194745063782E-001;2.957537956535816E-002;1.739477389492095E-003;-1.850293483585119E-003;
2.403833333333334E+009;1.792641729116440E-001;2.844556793570519E-002;1.805430627427995E-003;-2.329734619706869E-003;
2.404000000000000E+009;1.787875294685364E-001;2.754054591059685E-002;1.857102266512811E-003;-2.489732345566154E-003;
2.404166666666667E+009;1.782390028238297E-001;2.638697251677513E-002;1.757090911269188E-003;-2.783754142001271E-003;
2.404333333333334E+009;1.778570562601090E-001;2.510372735559940E-002;1.645613228902221E-003;-3.017725422978401E-003;
2.404500000000000E+009;1.772062480449677E-001;2.379696071147919E-002;1.627452322281897E-003;-3.378916298970580E-003;
2.404666666666667E+009;1.767289340496063E-001;2.249525673687458E-002;1.658146851696074E-003;-3.644538344815373E-003;
2.404833333333334E+009;1.764438152313232E-001;2.102359011769295E-002;1.407376374118030E-003;-4.032338503748179E-003;
2.405000000000000E+009;1.757495403289795E-001;1.963068172335625E-002;1.214503892697394E-003;-4.179539624601603E-003;
2.405166666666667E+009;1.752694249153137E-001;1.778031699359417E-002;8.287627715617418E-004;-4.486472345888615E-003;
2.405333333333334E+009;1.748830080032349E-001;1.611886173486710E-002;5.094108055345714E-004;-4.860770422965288E-003;
2.405500000000000E+009;1.744089275598526E-001;1.449590269476175E-002;4.779637965839356E-004;-4.987691994756460E-003;
2.405666666666667E+009;1.739263236522675E-001;1.276040729135275E-002;-8.493677887599915E-005;-5.143098998814821E-003;
2.405833333333334E+009;1.733991652727127E-001;1.108461897820234E-002;-4.238613182678819E-004;-5.267251282930374E-003;
2.406000000000000E+009;1.733285933732987E-001;8.932317607104778E-003;-7.601849501952529E-004;-5.407260265201330E-003;
2.406166666666667E+009;1.729632765054703E-001;7.143700495362282E-003;-1.024713041260839E-003;-5.372630897909403E-003;
2.406333333333334E+009;1.727974116802216E-001;5.030121188610792E-003;-1.298845745623112E-003;-5.267871543765068E-003;
2.406500000000000E+009;1.725334525108337E-001;2.990018576383591E-003;-1.650532591156662E-003;-5.415829364210367E-003;
2.406666666666667E+009;1.724388003349304E-001;1.002757111564279E-003;-2.145070349797607E-003;-5.380314309149981E-003;
2.406833333333334E+009;1.724454164505005E-001;-1.232934184372425E-003;-2.670314861461520E-003;-5.259710829705000E-003;
2.407000000000000E+009;1.724659651517868E-001;-3.197220154106617E-003;-2.992339897900820E-003;-5.182370077818632E-003;
2.407166666666667E+009;1.726734787225723E-001;-5.398807581514120E-003;-3.343892283737660E-003;-4.921923857182264E-003;
2.407333333333334E+009;1.726805865764618E-001;-7.614588830620050E-003;-3.586414037272334E-003;-4.832681734114885E-003;
2.407500000000000E+009;1.728986501693726E-001;-9.749813936650753E-003;-4.115418531000614E-003;-4.573775921016932E-003;
2.407666666666667E+009;1.732666939496994E-001;-1.175964996218681E-002;-4.417043179273605E-003;-4.209389910101891E-003;
2.407833333333334E+009;1.733938306570053E-001;-1.396047230809927E-002;-4.692112095654011E-003;-4.109898582100868E-003;
2.408000000000000E+009;1.739655137062073E-001;-1.606503687798977E-002;-4.838509950786829E-003;-3.669796744361520E-003;
2.408166666666667E+009;1.742559522390366E-001;-1.807603240013123E-002;-4.986386746168137E-003;-3.273147856816649E-003;
2.408333333333334E+009;1.748522818088532E-001;-2.004884555935860E-002;-5.250606220215559E-003;-2.973644062876701E-003;
2.408500000000000E+009;1.751821488142014E-001;-2.206308208405972E-002;-5.301794968545437E-003;-2.490014070644975E-003;
2.408666666666667E+009;1.756467968225479E-001;-2.380833402276039E-002;-5.356327630579472E-003;-2.187427831813693E-003;
2.408833333333334E+009;1.760470569133759E-001;-2.560693770647049E-002;-5.471207667142153E-003;-1.796574098989368E-003;
2.409000000000000E+009;1.764855384826660E-001;-2.724635042250156E-002;-5.569756031036377E-003;-1.377992681227624E-003;
2.409166666666667E+009;1.769003719091415E-001;-2.876176498830319E-002;-5.299331620335579E-003;-1.048792619258165E-003;
2.409333333333334E+009;1.774512380361557E-001;-3.043169155716896E-002;-5.319585092365742E-003;-7.802706677466631E-004;
2.409500000000000E+009;1.778211742639542E-001;-3.176445886492729E-002;-5.186041351407766E-003;-5.786634865216911E-004;
2.409666666666667E+009;1.783210337162018E-001;-3.284196183085442E-002;-4.939389415085316E-003;-2.636197023093700E-004;
2.409833333333334E+009;1.787838190793991E-001;-3.400147333741188E-002;-4.969302564859390E-003;3.615097739384510E-005;
2.410000000000000E+009;1.793559342622757E-001;-3.488089889287949E-002;-4.866292700171471E-003;1.039662893163040E-004;
2.410166666666667E+009;1.798169761896133E-001;-3.576492518186569E-002;-4.592971876263619E-003;4.228191392030567E-004;
2.410333333333334E+009;1.802813559770584E-001;-3.667278587818146E-002;-4.712427034974098E-003;4.338982398621738E-004;
2.410500000000000E+009;1.807151436805725E-001;-3.739283233880997E-002;-4.471212625503540E-003;6.093711708672345E-004;
2.410666666666667E+009;1.810925304889679E-001;-3.822787106037140E-002;-4.324822686612606E-003;9.328793385066092E-004;
2.410833333333334E+009;1.816933751106262E-001;-3.860725462436676E-002;-4.206671845167875E-003;9.522464824840426E-004;
2.411000000000000E+009;1.817788481712341E-001;-3.923600912094116E-002;-4.109865985810757E-003;8.846403216011822E-004;
2.411166666666667E+009;1.821219325065613E-001;-3.972131386399269E-002;-4.112235270440579E-003;1.199171761982143E-003;
2.411333333333334E+009;1.820896565914154E-001;-4.013259336352348E-002;-4.007719457149506E-003;1.135738333687186E-003;
2.411500000000000E+009;1.820584833621979E-001;-4.074315354228020E-002;-3.882267512381077E-003;1.310538267716765E-003;
2.411666666666667E+009;1.823669224977493E-001;-4.097273200750351E-002;-3.687401534989476E-003;1.489430782385171E-003;
2.411833333333334E+009;1.821579635143280E-001;-4.114932194352150E-002;-3.741554217413068E-003;1.506361528299749E-003;
2.412000000000000E+009;1.821633726358414E-001;-4.171721264719963E-002;-3.649666439741850E-003;1.415950246155262E-003;
2.412166666666667E+009;1.816195100545883E-001;-4.190491139888763E-002;-3.488803515210748E-003;1.648443052545190E-003;
2.412333333333334E+009;1.815701574087143E-001;-4.213434457778931E-002;-3.390456549823284E-003;1.652781269513071E-003;
2.412500000000000E+009;1.809822618961334E-001;-4.238831624388695E-002;-3.461680375039578E-003;1.697310246527195E-003;
2.412666666666667E+009;1.804091781377792E-001;-4.289973899722099E-002;-3.340203315019608E-003;1.876626047305763E-003;
2.412833333333334E+009;1.795965433120728E-001;-4.322794824838638E-002;-3.260838799178600E-003;1.730710733681917E-003;
2.413000000000000E+009;1.789193600416184E-001;-4.349533468484879E-002;-3.168560797348619E-003;1.870424603112042E-003;
2.413166666666667E+009;1.781767457723618E-001;-4.375362023711205E-002;-3.219136502593756E-003;1.898746821098030E-003;
2.413333333333334E+009;1.771810352802277E-001;-4.443554580211639E-002;-3.332407213747501E-003;1.757377525791526E-003;
2.413500000000000E+009;1.762152761220932E-001;-4.476533830165863E-002;-3.298810683190823E-003;1.964019145816565E-003;
2.413666666666667E+009;1.751500368118286E-001;-4.540473595261574E-002;-2.993437461555004E-003;2.090260619297624E-003;
2.413833333333334E+009;1.739675551652908E-001;-4.589685797691345E-002;-3.033689223229885E-003;2.036481862887740E-003;
2.414000000000000E+009;1.726393997669220E-001;-4.661798849701881E-002;-2.959786681458354E-003;2.211694372817874E-003;
2.414166666666667E+009;1.716631054878235E-001;-4.711979255080223E-002;-3.025267506018281E-003;2.173258457332850E-003;
2.414333333333334E+009;1.703792512416840E-001;-4.791487008333206E-002;-2.899589482694864E-003;2.271739067509770E-003;
2.414500000000000E+009;1.692314594984055E-001;-4.886023700237274E-002;-3.011671127751470E-003;2.409842563793063E-003;
2.414666666666667E+009;1.679954975843430E-001;-4.965298250317574E-002;-2.858297666534782E-003;2.588698640465736E-003;
2.414833333333334E+009;1.666879057884216E-001;-5.089455470442772E-002;-2.801246242597699E-003;2.603853819891810E-003;
2.415000000000000E+009;1.653635948896408E-001;-5.189269036054611E-002;-2.884232671931386E-003;2.807267941534519E-003;
2.415166666666667E+009;1.643027514219284E-001;-5.322340503334999E-002;-2.668516244739294E-003;2.821116708219051E-003;
2.415333333333334E+009;1.629754602909088E-001;-5.465023964643478E-002;-2.744766185060144E-003;2.771986182779074E-003;
2.415500000000000E+009;1.617731750011444E-001;-5.579599738121033E-002;-2.729375613853335E-003;2.919948194175959E-003;
2.415666666666667E+009;1.606764644384384E-001;-5.736919492483139E-002;-2.660815138369799E-003;3.058983478695154E-003;
2.415833333333334E+009;1.596539020538330E-001;-5.905139446258545E-002;-2.520204521715641E-003;3.198099322617054E-003;
2.416000000000000E+009;1.584618091583252E-001;-6.078381836414337E-002;-2.511595143005252E-003;3.161869710311294E-003;
2.416166666666667E+009;1.576671004295349E-001;-6.246937438845635E-002;-2.428241539746523E-003;3.333450062200427E-003;
2.416333333333334E+009;1.566176265478134E-001;-6.422448158264160E-002;-2.322608372196555E-003;3.451573662459850E-003;
2.416500000000000E+009;1.556834429502487E-001;-6.612413376569748E-002;-2.348849084228277E-003;3.541702870279551E-003;
2.416666666666667E+009;1.547287702560425E-001;-6.801840662956238E-002;-2.211059443652630E-003;3.726905910298228E-003;
2.416833333333334E+009;1.540557891130447E-001;-7.005473971366882E-002;-2.201493363827467E-003;3.770515788346529E-003;
2.417000000000000E+009;1.531387269496918E-001;-7.205937802791596E-002;-2.057480392977595E-003;3.878602059558034E-003;
2.417166666666667E+009;1.525364965200424E-001;-7.388766855001450E-002;-1.975060440599918E-003;3.885183716192842E-003;
2.417333333333334E+009;1.519397348165512E-001;-7.582766562700272E-002;-1.752251992002130E-003;4.129482898861170E-003;
2.417500000000000E+009;1.513953208923340E-001;-7.787707448005676E-002;-1.582981785759330E-003;4.150746855884790E-003;
2.417666666666667E+009;1.510446369647980E-001;-7.973411679267883E-002;-1.556638861075044E-003;4.410085268318653E-003;
2.417833333333334E+009;1.506442278623581E-001;-8.163394778966904E-002;-1.440505380742252E-003;4.286915529519320E-003;
2.418000000000000E+009;1.501642018556595E-001;-8.353707939386368E-002;-1.179364975541830E-003;4.439723677933216E-003;
2.418166666666667E+009;1.499714553356171E-001;-8.527553081512451E-002;-1.167898764833808E-003;4.686597734689713E-003;
2.418333333333334E+009;1.500418186187744E-001;-8.709558099508286E-002;-1.081827795132995E-003;4.742341581732035E-003;
2.418500000000000E+009;1.497142463922501E-001;-8.876009285449982E-002;-7.010218105278909E-004;4.816305357962847E-003;
2.418666666666667E+009;1.497261524200440E-001;-9.036055207252502E-002;-6.001982255838811E-004;4.996865522116423E-003;
2.418833333333334E+009;1.495660096406937E-001;-9.168348461389542E-002;-2.265900693600997E-004;5.119007546454668E-003;
2.419000000000000E+009;1.495250165462494E-001;-9.304883331060410E-002;-1.093633109121583E-004;5.149060394614935E-003;
2.419166666666667E+009;1.497025042772293E-001;-9.422579407691956E-002;1.323710312135518E-004;5.133700091391802E-003;
2.419333333333334E+009;1.496739983558655E-001;-9.528415650129318E-002;3.211854782421142E-004;5.198881495743990E-003;
2.419500000000000E+009;1.499640643596649E-001;-9.661786258220673E-002;8.094647782854736E-004;5.218022502958775E-003;
2.419666666666667E+009;1.502429842948914E-001;-9.755028039216995E-002;1.019168645143509E-003;5.229593254625797E-003;
2.419833333333334E+009;1.503203660249710E-001;-9.827266633510590E-002;1.275232876650989E-003;5.182350985705853E-003;
2.420000000000000E+009;1.508645415306091E-001;-9.893572330474854E-002;1.570909633301199E-003;5.068721249699593E-003;
2.420166666666667E+009;1.510654240846634E-001;-9.941841661930084E-002;1.798923010937870E-003;4.970830865204334E-003;
2.420333333333334E+009;1.512530595064163E-001;-9.986337274312973E-002;2.056299010291696E-003;4.828631412237883E-003;
2.420500000000000E+009;1.515913754701614E-001;-1.001871898770332E-001;2.482168143615127E-003;4.694798961281776E-003;
2.420666666666667E+009;1.518166810274124E-001;-1.001724004745483E-001;2.556448103860021E-003;4.757768940180540E-003;
2.420833333333334E+009;1.521558016538620E-001;-1.005232036113739E-001;2.837127074599266E-003;4.373033065348864E-003;
2.421000000000000E+009;1.524409204721451E-001;-1.006433665752411E-001;2.957144984975457E-003;4.264892078936100E-003;
2.421166666666667E+009;1.527237296104431E-001;-1.005843728780747E-001;3.361204639077187E-003;4.219700582325459E-003;
2.421333333333334E+009;1.529187262058258E-001;-1.005067452788353E-001;3.274357644841075E-003;3.903533564880490E-003;
2.421500000000000E+009;1.528892517089844E-001;-1.003963947296143E-001;3.498376812785864E-003;3.761758329346776E-003;
2.421666666666667E+009;1.528924256563187E-001;-1.000145375728607E-001;3.717084648087621E-003;3.501391038298607E-003;
2.421833333333334E+009;1.527658998966217E-001;-9.983596205711365E-002;3.870753105729818E-003;3.384937532246113E-003;
2.422000000000000E+009;1.527069956064224E-001;-9.962038695812225E-002;3.907665144652128E-003;3.333996981382370E-003;
2.422166666666667E+009;1.523176878690720E-001;-9.952802211046219E-002;3.952862694859505E-003;3.025514073669910E-003;
2.422333333333334E+009;1.520296335220337E-001;-9.890472143888474E-002;4.201333504170179E-003;2.812568331137300E-003;
2.422500000000000E+009;1.514873355627060E-001;-9.840067476034164E-002;4.282892681658268E-003;2.748761791735888E-003;
2.422666666666667E+009;1.509597897529602E-001;-9.826613962650299E-002;4.431316163390875E-003;2.493927488103509E-003;
2.422833333333334E+009;1.504004001617432E-001;-9.791306406259537E-002;4.408483859151602E-003;2.207956276834011E-003;
2.423000000000000E+009;1.494755744934082E-001;-9.744291007518768E-002;4.371142946183682E-003;2.062964020296931E-003;
2.423166666666667E+009;1.486812084913254E-001;-9.716767072677612E-002;4.405116662383080E-003;1.792792230844498E-003;
2.423333333333334E+009;1.477547138929367E-001;-9.659577161073685E-002;4.590068012475967E-003;1.706473878584802E-003;
2.423500000000000E+009;1.466855853796005E-001;-9.636662900447846E-002;4.630689043551683E-003;1.505218911916018E-003;
2.423666666666667E+009;1.453082114458084E-001;-9.616313874721527E-002;4.666982684284449E-003;1.222367514856160E-003;
2.423833333333334E+009;1.442922800779343E-001;-9.585521370172501E-002;4.762114491313696E-003;9.729492594487965E-004;
2.424000000000000E+009;1.427702009677887E-001;-9.558116644620895E-002;4.741607233881950E-003;7.789243827573955E-004;
2.424166666666667E+009;1.413708031177521E-001;-9.532276540994644E-002;4.662732128053904E-003;5.710877012461424E-004;
2.424333333333334E+009;1.401784718036652E-001;-9.525045007467270E-002;4.673080984503031E-003;2.021822438109666E-004;
2.424500000000000E+009;1.386585533618927E-001;-9.528793394565582E-002;4.698652308434248E-003;5.903642886551097E-005;
2.424666666666667E+009;1.373656839132309E-001;-9.520953148603439E-002;4.589543677866459E-003;-3.029401123058051E-004;
2.424833333333334E+009;1.355491280555725E-001;-9.540251642465591E-002;4.547581542283297E-003;-4.148635198362172E-004;
2.425000000000000E+009;1.341752111911774E-001;-9.585594385862351E-002;4.504952114075422E-003;-4.796504799742252E-004;
2.425166666666667E+009;1.325708031654358E-001;-9.630157053470612E-002;4.309407435357571E-003;-7.988895522430539E-004;
2.425333333333334E+009;1.310962289571762E-001;-9.679234772920609E-002;4.040922969579697E-003;-9.083386394195259E-004;
2.425500000000000E+009;1.296544075012207E-001;-9.754230827093124E-002;4.096326418220997E-003;-1.021941774524748E-003;
2.425666666666667E+009;1.280252337455750E-001;-9.823217242956162E-002;3.798248944804072E-003;-1.152358134277165E-003;
2.425833333333334E+009;1.267735362052918E-001;-9.922763705253601E-002;3.761151572689414E-003;-1.412656391039491E-003;
2.426000000000000E+009;1.252956241369247E-001;-1.001764312386513E-001;3.539027646183968E-003;-1.534700975753367E-003;
2.426166666666667E+009;1.240483075380325E-001;-1.015633791685104E-001;3.329080762341619E-003;-1.402116031385958E-003;
2.426333333333334E+009;1.226960867643356E-001;-1.026500463485718E-001;3.307626582682133E-003;-1.700792810879648E-003;
2.426500000000000E+009;1.214164122939110E-001;-1.039315685629845E-001;3.109361976385117E-003;-1.555595663376153E-003;
2.426666666666667E+009;1.203072220087051E-001;-1.053682342171669E-001;3.045324236154556E-003;-1.816308125853539E-003;
2.426833333333334E+009;1.191035956144333E-001;-1.068110615015030E-001;2.940669655799866E-003;-1.979322405532002E-003;
2.427000000000000E+009;1.179772764444351E-001;-1.084440946578980E-001;2.458121860399842E-003;-1.707760617136955E-003;
2.427166666666667E+009;1.169506683945656E-001;-1.100714132189751E-001;2.585206413641572E-003;-1.818616641685367E-003;
2.427333333333334E+009;1.161358058452606E-001;-1.117415204644203E-001;2.544802846387029E-003;-1.864721765741706E-003;
2.427500000000000E+009;1.154477968811989E-001;-1.135086119174957E-001;2.409215550869703E-003;-1.892559695988894E-003;
2.427666666666667E+009;1.145949810743332E-001;-1.152899786829948E-001;2.223277464509010E-003;-1.889092498458922E-003;
