# Version 1.00
#
freq[Hz];re:Trc1_S11;im:Trc1_S11;re:Trc2_S21;im:Trc2_S21;
2.400000000000000E+009;1.580299884080887E-001;6.263104826211929E-002;-3.509910777211189E-003;-9.841457940638065E-004;
2.400166666666667E+009;1.578802913427353E-001;6.116642802953720E-002;-3.257934004068375E-003;-6.362565909512341E-004;
2.400333333333334E+009;1.578483581542969E-001;5.896862596273422E-002;-3.523970954120159E-003;-7.663875585421920E-004;
2.400500000000000E+009;1.576985716819763E-001;5.713398382067680E-002;-3.504377324134111E-003;-4.096316697541624E-004;
2.400666666666667E+009;1.577160805463791E-001;5.509818345308304E-002;-3.673261962831020E-003;-4.945243126712740E-004;
2.400833333333334E+009;1.576098799705505E-001;5.327720195055008E-002;-3.327864222228527E-003;-4.110648005735129E-004;
2.401000000000000E+009;1.578456908464432E-001;5.112883448600769E-002;-3.582114120945334E-003;-2.333208249183372E-004;
2.401166666666667E+009;1.581347286701202E-001;4.908329620957375E-002;-3.582185134291649E-003;-2.547235635574907E-004;
2.401333333333334E+009;1.580649465322495E-001;4.685746878385544E-002;-3.510187147185206E-003;-1.276657567359507E-004;
2.401500000000000E+009;1.586503982543945E-001;4.499147087335587E-002;-3.672385355457664E-003;-4.480336792767048E-005;
2.401666666666667E+009;1.588715761899948E-001;4.300106316804886E-002;-3.585266182199121E-003;-3.148321775370278E-005;
2.401833333333334E+009;1.592354029417038E-001;4.094211757183075E-002;-3.470600815489888E-003;6.898979336256161E-005;
2.402000000000000E+009;1.594375222921372E-001;3.893976286053658E-002;-3.549721790477634E-003;3.303306293673813E-004;
2.402166666666667E+009;1.601750105619431E-001;3.693627193570137E-002;-3.704534610733390E-003;3.624830860644579E-004;
2.402333333333334E+009;1.607427448034287E-001;3.498001024127007E-002;-3.609433071687818E-003;3.999429463874549E-004;
2.402500000000000E+009;1.615079641342163E-001;3.313418477773666E-002;-3.634223947301507E-003;6.128666573204100E-004;
2.402666666666667E+009;1.621983051300049E-001;3.157519549131393E-002;-3.751544049009681E-003;6.761254626326263E-004;
2.402833333333334E+009;1.629232615232468E-001;2.988316491246223E-002;-3.783762687817216E-003;8.123385487124324E-004;
2.403000000000000E+009;1.636024564504623E-001;2.822434902191162E-002;-3.819153876975179E-003;9.259921498596668E-004;
2.403166666666667E+009;1.646422743797302E-001;2.646345458924770E-002;-3.693243023008108E-003;1.167465583421290E-003;
2.403333333333334E+009;1.654495596885681E-001;2.507464401423931E-002;-3.749691182747483E-003;1.240612939000130E-003;
2.403500000000000E+009;1.663388162851334E-001;2.363752573728561E-002;-3.688355442136526E-003;1.258460571989417E-003;
2.403666666666667E+009;1.673072278499603E-001;2.225078642368317E-002;-3.612803295254707E-003;1.466349000111222E-003;
2.403833333333334E+009;1.682564020156860E-001;2.077713608741760E-002;-3.632675157859922E-003;1.568637089803815E-003;
2.404000000000000E+009;1.693144738674164E-001;1.985917426645756E-002;-3.612185828387737E-003;1.688145566731691E-003;
2.404166666666667E+009;1.702861189842224E-001;1.860580220818520E-002;-3.632394829764962E-003;1.929398044012487E-003;
2.404333333333334E+009;1.712519824504852E-001;1.758341677486897E-002;-3.520532976835966E-003;2.159027149900794E-003;
2.404500000000000E+009;1.721130013465881E-001;1.659990847110748E-002;-3.763474524021149E-003;2.301854314282537E-003;
2.404666666666667E+009;1.730736047029495E-001;1.579737849533558E-002;-3.394149476662278E-003;2.417302457615733E-003;
2.404833333333334E+009;1.740431934595108E-001;1.494014728814364E-002;-3.398025641217828E-003;2.417781855911017E-003;
2.405000000000000E+009;1.748782694339752E-001;1.408360898494721E-002;-3.289629938080907E-003;2.752397442236543E-003;
2.405166666666667E+009;1.758823394775391E-001;1.358004752546549E-002;-3.239421872422099E-003;2.739548217505217E-003;
2.405333333333334E+009;1.765857487916946E-001;1.284615788608789E-002;-3.072075545787811E-003;2.992633963003755E-003;
2.405500000000000E+009;1.773878782987595E-001;1.243229862302542E-002;-2.878529485315085E-003;3.173102857545018E-003;
2.405666666666667E+009;1.780175864696503E-001;1.203078962862492E-002;-2.860334003344178E-003;3.352080006152391E-003;
2.405833333333334E+009;1.785471439361572E-001;1.167334802448750E-002;-2.624399960041046E-003;3.473969642072916E-003;
2.406000000000000E+009;1.791971325874329E-001;1.116545684635639E-002;-2.373460447415710E-003;3.671711543574929E-003;
2.406166666666667E+009;1.795467436313629E-001;1.101227477192879E-002;-2.231578575447202E-003;3.906982950866222E-003;
2.406333333333334E+009;1.800135523080826E-001;1.057050470262766E-002;-2.118078758940101E-003;3.898939816281200E-003;
2.406500000000000E+009;1.804287582635880E-001;1.023013796657324E-002;-1.792171737179160E-003;4.124814178794622E-003;
2.406666666666667E+009;1.805752962827683E-001;1.006309036165476E-002;-1.521563506685197E-003;4.036332946270704E-003;
2.406833333333334E+009;1.807266771793366E-001;9.632721543312073E-003;-1.426320639438927E-003;4.179165698587894E-003;
2.407000000000000E+009;1.808722615242004E-001;9.350994601845741E-003;-1.313462504185736E-003;4.164276178926230E-003;
2.407166666666667E+009;1.809706687927246E-001;9.145416319370270E-003;-1.076953485608101E-003;4.076826851814985E-003;
2.407333333333334E+009;1.807695329189301E-001;8.599121123552322E-003;-9.913810063153505E-004;4.250966012477875E-003;
2.407500000000000E+009;1.805147826671600E-001;8.219294250011444E-003;-7.178286323323846E-004;4.238860215991736E-003;
2.407666666666667E+009;1.804293692111969E-001;7.828030735254288E-003;-4.883177462033927E-004;4.214114043861628E-003;
2.407833333333334E+009;1.799895912408829E-001;7.168638054281473E-003;-3.116670122835785E-004;4.241849761456251E-003;
2.408000000000000E+009;1.797572374343872E-001;6.533126812428236E-003;1.116155181080103E-005;4.189413972198963E-003;
2.408166666666667E+009;1.791439801454544E-001;6.022469606250525E-003;5.641391908284277E-006;4.181800410151482E-003;
2.408333333333334E+009;1.789442449808121E-001;5.275471601635218E-003;3.065727360080928E-004;4.120736382901669E-003;
2.408500000000000E+009;1.782742589712143E-001;4.431835375726223E-003;4.070327267982066E-004;4.113029688596726E-003;
2.408666666666667E+009;1.776576340198517E-001;3.545976011082530E-003;6.256941123865545E-004;4.109216388314962E-003;
2.408833333333334E+009;1.770077943801880E-001;2.644242020323873E-003;6.639503990300000E-004;3.993462305516005E-003;
2.409000000000000E+009;1.763649731874466E-001;1.601516501978040E-003;9.399665286764503E-004;3.796080825850368E-003;
2.409166666666667E+009;1.758667677640915E-001;5.752044962719083E-004;6.956348661333323E-004;3.784010186791420E-003;
2.409333333333334E+009;1.750553250312805E-001;-8.398463833145797E-004;1.078067347407341E-003;3.625507932156324E-003;
2.409500000000000E+009;1.743137687444687E-001;-2.283689333125949E-003;1.246915082447231E-003;3.558549098670483E-003;
2.409666666666667E+009;1.735311895608902E-001;-3.509790869429708E-003;1.199544058181346E-003;3.513173200190067E-003;
2.409833333333334E+009;1.728806644678116E-001;-4.882934968918562E-003;1.312030828557909E-003;3.480778308585286E-003;
2.410000000000000E+009;1.722973734140396E-001;-6.520263850688934E-003;1.482424209825695E-003;3.347866469994187E-003;
2.410166666666667E+009;1.717054843902588E-001;-8.004888892173767E-003;1.607766724191606E-003;3.206086112186313E-003;
2.410333333333334E+009;1.708878725767136E-001;-9.754521772265434E-003;1.747213769704104E-003;3.213646123185754E-003;
2.410500000000000E+009;1.705583333969116E-001;-1.146043092012405E-002;1.878297771327198E-003;3.302173689007759E-003;
2.410666666666667E+009;1.699537485837936E-001;-1.332855969667435E-002;1.872950582765043E-003;3.214885480701923E-003;
2.410833333333334E+009;1.696234792470932E-001;-1.496008597314358E-002;2.136480761691928E-003;2.906833542510867E-003;
2.411000000000000E+009;1.691167056560516E-001;-1.681274920701981E-002;2.083233324810863E-003;2.925361739471555E-003;
2.411166666666667E+009;1.687299311161041E-001;-1.875675469636917E-002;2.340103266760707E-003;2.658449811860919E-003;
2.411333333333334E+009;1.684568673372269E-001;-2.073168568313122E-002;2.369369147345424E-003;2.827547024935484E-003;
2.411500000000000E+009;1.683741211891174E-001;-2.266909182071686E-002;2.357934601604939E-003;2.545180963352323E-003;
2.411666666666667E+009;1.682581007480621E-001;-2.466775104403496E-002;2.494065323844552E-003;2.458283212035894E-003;
2.411833333333334E+009;1.680863052606583E-001;-2.662165462970734E-002;2.627779729664326E-003;2.282773843035102E-003;
2.412000000000000E+009;1.681794375181198E-001;-2.836827561259270E-002;2.670848974958062E-003;2.055876422673464E-003;
2.412166666666667E+009;1.680258214473724E-001;-3.056899644434452E-002;2.587701426818967E-003;2.096386626362801E-003;
2.412333333333334E+009;1.685060113668442E-001;-3.251522779464722E-002;2.766052493825555E-003;1.861042226664722E-003;
2.412500000000000E+009;1.685189157724381E-001;-3.457361832261086E-002;2.789363963529468E-003;1.835064962506294E-003;
2.412666666666667E+009;1.688117086887360E-001;-3.643061593174934E-002;2.778782974928618E-003;1.760608982294798E-003;
2.412833333333334E+009;1.692706495523453E-001;-3.822761401534081E-002;2.938492922112346E-003;1.626735669560731E-003;
2.413000000000000E+009;1.696303486824036E-001;-3.993260115385056E-002;2.907042391598225E-003;1.536227297037840E-003;
2.413166666666667E+009;1.698462516069412E-001;-4.184398427605629E-002;3.024413483217359E-003;1.287554390728474E-003;
2.413333333333334E+009;1.702359169721603E-001;-4.344915971159935E-002;3.047540085390210E-003;1.250859466381371E-003;
2.413500000000000E+009;1.708858758211136E-001;-4.512365534901619E-002;2.967993495985866E-003;1.017181901261210E-003;
2.413666666666667E+009;1.714198589324951E-001;-4.657356813549995E-002;2.927508205175400E-003;9.795820806175470E-004;
2.413833333333334E+009;1.717152148485184E-001;-4.811648651957512E-002;3.002077108249068E-003;8.011672762222588E-004;
2.414000000000000E+009;1.723289489746094E-001;-4.960682615637779E-002;2.933843294158578E-003;5.741679342463613E-004;
2.414166666666667E+009;1.729924827814102E-001;-5.077634751796722E-002;3.032236825674772E-003;5.137493717484176E-004;
2.414333333333334E+009;1.735300570726395E-001;-5.216551199555397E-002;2.815078711137176E-003;4.622296546585858E-004;
2.414500000000000E+009;1.741905659437180E-001;-5.312980711460114E-002;2.965200459584594E-003;3.887930361088365E-004;
2.414666666666667E+009;1.747092157602310E-001;-5.413605272769928E-002;3.010183805599809E-003;2.204157208325341E-004;
2.414833333333334E+009;1.751418262720108E-001;-5.525391176342964E-002;2.908602356910706E-003;1.949511351995170E-004;
2.415000000000000E+009;1.756533086299896E-001;-5.588673427700996E-002;2.842246089130640E-003;7.676116524635290E-007;
2.415166666666667E+009;1.759803891181946E-001;-5.670799687504768E-002;2.797252964228392E-003;-1.749723887769505E-004;
2.415333333333334E+009;1.766025125980377E-001;-5.752018094062805E-002;2.706539351493120E-003;-1.757349673425779E-004;
2.415500000000000E+009;1.768871694803238E-001;-5.799687653779984E-002;2.765123499557376E-003;-3.509653324726969E-004;
2.415666666666667E+009;1.771582812070847E-001;-5.855903029441834E-002;2.592273289337754E-003;-4.418850585352629E-004;
2.415833333333334E+009;1.774395108222961E-001;-5.906066298484802E-002;2.439981792122126E-003;-3.956976870540530E-004;
2.416000000000000E+009;1.773857772350311E-001;-5.950409173965454E-002;2.643420128151774E-003;-5.212326650507748E-004;
2.416166666666667E+009;1.776932775974274E-001;-5.984295159578323E-002;2.597484970465303E-003;-7.073215674608946E-004;
2.416333333333334E+009;1.776146590709686E-001;-6.008261069655418E-002;2.428575651720166E-003;-7.381886243820190E-004;
2.416500000000000E+009;1.776019185781479E-001;-6.055274605751038E-002;2.264985814690590E-003;-8.085312438197434E-004;
2.416666666666667E+009;1.774483770132065E-001;-6.067622080445290E-002;2.206596080213785E-003;-8.606536430306733E-004;
2.416833333333334E+009;1.772764772176743E-001;-6.095867604017258E-002;2.194331027567387E-003;-9.461661684326828E-004;
2.417000000000000E+009;1.767413765192032E-001;-6.125953793525696E-002;2.075609285384417E-003;-9.973879205062985E-004;
2.417166666666667E+009;1.763336211442947E-001;-6.130206957459450E-002;1.988185569643974E-003;-1.135140657424927E-003;
2.417333333333334E+009;1.757091432809830E-001;-6.151439249515533E-002;2.085903659462929E-003;-1.004825346171856E-003;
2.417500000000000E+009;1.751817017793655E-001;-6.173432245850563E-002;1.848070183768868E-003;-1.234639203175902E-003;
2.417666666666667E+009;1.746135950088501E-001;-6.188127771019936E-002;1.895613502711058E-003;-1.144693000242114E-003;
2.417833333333334E+009;1.737512797117233E-001;-6.216440349817276E-002;1.734368386678398E-003;-1.233362825587392E-003;
2.418000000000000E+009;1.728329509496689E-001;-6.257247179746628E-002;1.635871361941099E-003;-1.316969981417060E-003;
2.418166666666667E+009;1.718500554561615E-001;-6.270013004541397E-002;1.592913991771638E-003;-1.302222022786737E-003;
2.418333333333334E+009;1.711448282003403E-001;-6.312176585197449E-002;1.607857178896666E-003;-1.269763452000916E-003;
2.418500000000000E+009;1.700207144021988E-001;-6.339891999959946E-002;1.477603800594807E-003;-1.167911803349853E-003;
2.418666666666667E+009;1.689448505640030E-001;-6.385976076126099E-002;1.371112302877009E-003;-1.376405707560480E-003;
2.418833333333334E+009;1.677005141973496E-001;-6.455259770154953E-002;1.300508389249444E-003;-1.377269974909723E-003;
2.419000000000000E+009;1.664129048585892E-001;-6.509642302989960E-002;1.322028459981084E-003;-1.298059127293527E-003;
2.419166666666667E+009;1.654689311981201E-001;-6.573183834552765E-002;1.186244538985193E-003;-1.493514864705503E-003;
2.419333333333334E+009;1.639892011880875E-001;-6.621795892715454E-002;1.180467079393566E-003;-1.333896070718765E-003;
2.419500000000000E+009;1.628790795803070E-001;-6.730980426073074E-002;1.031807274557650E-003;-1.345265656709671E-003;
2.419666666666667E+009;1.617699712514877E-001;-6.822955608367920E-002;1.102977665141225E-003;-1.459515769965947E-003;
2.419833333333334E+009;1.606443524360657E-001;-6.902621686458588E-002;8.370666182599962E-004;-1.327920006588101E-003;
2.420000000000000E+009;1.595042496919632E-001;-7.003833353519440E-002;8.388755959458649E-004;-1.377293956466019E-003;
2.420166666666667E+009;1.582276076078415E-001;-7.126060128211975E-002;7.469178526662290E-004;-1.419608248397708E-003;
2.420333333333334E+009;1.571967750787735E-001;-7.233891636133194E-002;7.418022723868489E-004;-1.452329452149570E-003;
2.420500000000000E+009;1.561299264431000E-001;-7.339146733283997E-002;6.103249033913016E-004;-1.408631214872003E-003;
2.420666666666667E+009;1.551660001277924E-001;-7.469938695430756E-002;5.922722048126161E-004;-1.323084696196020E-003;
2.420833333333334E+009;1.542722135782242E-001;-7.627594470977783E-002;5.906788865104318E-004;-1.434552483260632E-003;
2.421000000000000E+009;1.532719284296036E-001;-7.776969671249390E-002;4.432814603205770E-004;-1.381707028485835E-003;
2.421166666666667E+009;1.526333838701248E-001;-7.915150374174118E-002;3.420112479943782E-004;-1.337070018053055E-003;
2.421333333333334E+009;1.520206481218338E-001;-8.099391311407089E-002;3.876188129652292E-004;-1.180654042400420E-003;
2.421500000000000E+009;1.512102633714676E-001;-8.237319439649582E-002;3.216684854123741E-004;-1.209197565913200E-003;
2.421666666666667E+009;1.506118327379227E-001;-8.400611579418182E-002;3.175326273776591E-004;-1.150491880252957E-003;
2.421833333333334E+009;1.503370702266693E-001;-8.582661300897598E-002;1.263547601411119E-004;-1.076243119314313E-003;
2.422000000000000E+009;1.499338895082474E-001;-8.746377378702164E-002;1.193843054352328E-004;-1.146882772445679E-003;
2.422166666666667E+009;1.494928151369095E-001;-8.934895694255829E-002;3.218027632101439E-005;-1.188528258353472E-003;
2.422333333333334E+009;1.494514048099518E-001;-9.093606472015381E-002;1.033703083521687E-004;-9.167781681753695E-004;
2.422500000000000E+009;1.492830663919449E-001;-9.260090440511704E-002;-1.608328420843463E-005;-8.985968306660652E-004;
2.422666666666667E+009;1.491476148366928E-001;-9.434886276721954E-002;6.307197327259928E-005;-1.055463682860136E-003;
2.422833333333334E+009;1.492663770914078E-001;-9.612276405096054E-002;-4.733664536615834E-005;-8.791127474978566E-004;
2.423000000000000E+009;1.493276804685593E-001;-9.769798815250397E-002;-1.266966864932329E-004;-8.787515107542276E-004;
2.423166666666667E+009;1.496904045343399E-001;-9.949992597103119E-002;-1.219489131472074E-004;-7.526746485382319E-004;
2.423333333333334E+009;1.499630212783814E-001;-1.009810045361519E-001;-1.187804009532556E-004;-8.779846830293536E-004;
2.423500000000000E+009;1.501708030700684E-001;-1.025478318333626E-001;-1.127092546084896E-004;-8.231744286604226E-004;
2.423666666666667E+009;1.505035012960434E-001;-1.042421534657478E-001;-2.361923980060965E-004;-6.230801227502525E-004;
2.423833333333334E+009;1.509200334548950E-001;-1.058202311396599E-001;-8.796109614195302E-005;-5.939530674368143E-004;
2.424000000000000E+009;1.512506157159805E-001;-1.069864407181740E-001;-1.976131752599031E-004;-5.888628656975925E-004;
2.424166666666667E+009;1.516057699918747E-001;-1.084410697221756E-001;-1.435402373317629E-004;-4.574193735606968E-004;
2.424333333333334E+009;1.521130353212357E-001;-1.095525026321411E-001;-8.055446232901886E-005;-5.128931370563805E-004;
2.424500000000000E+009;1.527340710163117E-001;-1.107625514268875E-001;-3.664672840386629E-005;-2.992588561028242E-004;
2.424666666666667E+009;1.533952206373215E-001;-1.117456033825874E-001;-1.514425675850362E-004;-1.969898876268417E-004;
2.424833333333334E+009;1.536453813314438E-001;-1.128393188118935E-001;8.059920219238848E-006;-2.319433988304809E-004;
2.425000000000000E+009;1.541672945022583E-001;-1.139436438679695E-001;3.095499778282829E-005;-2.708060201257467E-004;
2.425166666666667E+009;1.544669419527054E-001;-1.146477460861206E-001;2.308823459316045E-004;-1.629275502637029E-004;
2.425333333333334E+009;1.548731625080109E-001;-1.153706908226013E-001;7.121039379853755E-005;-1.551226305309683E-004;
2.425500000000000E+009;1.554676294326782E-001;-1.161775365471840E-001;1.342743198620156E-004;-1.001587006612681E-004;
2.425666666666667E+009;1.555685251951218E-001;-1.167270168662071E-001;2.559382701292634E-004;-1.369462115690112E-004;
2.425833333333334E+009;1.559980213642120E-001;-1.172776594758034E-001;2.641770406626165E-004;-3.092035694862716E-005;
2.426000000000000E+009;1.561476588249207E-001;-1.178322881460190E-001;3.089394012931734E-004;-9.738115477375686E-005;
2.426166666666667E+009;1.564465463161469E-001;-1.181914359331131E-001;5.645204219035804E-004;-7.584510603919625E-005;
2.426333333333334E+009;1.563995182514191E-001;-1.185011565685272E-001;5.411071470007300E-004;4.282852023607120E-005;
2.426500000000000E+009;1.564123034477234E-001;-1.187131404876709E-001;6.101096514612436E-004;-1.134483100031503E-004;
2.426666666666667E+009;1.564970463514328E-001;-1.187911853194237E-001;5.230106180533767E-004;-3.488449510768987E-005;
2.426833333333334E+009;1.562695801258087E-001;-1.190153285861015E-001;6.928850198164582E-004;-9.040175064001232E-005;
2.427000000000000E+009;1.560575962066650E-001;-1.193220615386963E-001;8.075021905824542E-004;-1.359194284304977E-004;
2.427166666666667E+009;1.556811034679413E-001;-1.192359030246735E-001;6.471926462836564E-004;-9.666776168160141E-005;
2.427333333333334E+009;1.551608592271805E-001;-1.193210706114769E-001;8.584455354139209E-004;-2.191412058891729E-004;
2.427500000000000E+009;1.547450572252274E-001;-1.195322498679161E-001;1.042748219333589E-003;-3.824820742011070E-004;
2.427666666666667E+009;1.540183275938034E-001;-1.195686534047127E-001;9.790790500119329E-004;-2.975764218717814E-004;
2.427833333333334E+009;1.531155556440353E-001;-1.196784675121307E-001;9.739981614984572E-004;-4.557432839646936E-004;
