# Version 1.00
#
freq[Hz];re:Trc1_S11;im:Trc1_S11;re:Trc2_S21;im:Trc2_S21;
2.400000000000000E+009;1.687301397323608E-001;3.950766101479530E-002;1.977413194254041E-003;-5.664596101269126E-004;
2.400166666666667E+009;1.693987548351288E-001;3.882690146565437E-002;1.961475471034646E-003;-5.742178182117641E-004;
2.400333333333334E+009;1.701855361461639E-001;3.794275969266892E-002;1.860110904090107E-003;-4.441972414497286E-004;
2.400500000000000E+009;1.707787066698074E-001;3.706556931138039E-002;1.830240827985108E-003;-4.845348885282874E-004;
2.400666666666667E+009;1.713229715824127E-001;3.626534715294838E-002;1.989540876820684E-003;-4.294450045563281E-004;
2.400833333333334E+009;1.718030422925949E-001;3.565641492605209E-002;1.901199226267636E-003;-4.573890473693609E-004;
2.401000000000000E+009;1.721071451902390E-001;3.476983681321144E-002;2.126411767676473E-003;-4.864264628849924E-004;
2.401166666666667E+009;1.724853068590164E-001;3.400255367159843E-002;2.052491065114737E-003;-3.868323692586273E-004;
2.401333333333334E+009;1.725712865591049E-001;3.327567502856255E-002;2.376985969021916E-003;-3.649722202681005E-004;
2.401500000000000E+009;1.730694025754929E-001;3.263283148407936E-002;2.505396958440542E-003;-6.169176194816828E-004;
2.401666666666667E+009;1.732445359230042E-001;3.192663565278053E-002;2.570969983935356E-003;-7.103344541974366E-004;
2.401833333333334E+009;1.732815355062485E-001;3.110821172595024E-002;2.577947685495019E-003;-7.792963297106326E-004;
2.402000000000000E+009;1.733583360910416E-001;3.028879500925541E-002;2.728035906329751E-003;-8.027286385186017E-004;
2.402166666666667E+009;1.734961867332459E-001;2.957195416092873E-002;2.699435921385884E-003;-1.014675479382277E-003;
2.402333333333334E+009;1.734135597944260E-001;2.888057939708233E-002;2.660474274307489E-003;-1.057802350260317E-003;
2.402500000000000E+009;1.734640449285507E-001;2.803860418498516E-002;2.845153212547302E-003;-1.343894284218550E-003;
2.402666666666667E+009;1.733285784721375E-001;2.723549492657185E-002;2.649404574185610E-003;-1.502639846876264E-003;
2.402833333333334E+009;1.731879711151123E-001;2.636533603072166E-002;2.709954744204879E-003;-1.679220004007220E-003;
2.403000000000000E+009;1.729937791824341E-001;2.554122544825077E-002;2.772513078525662E-003;-1.887712394818664E-003;
2.403166666666667E+009;1.728814393281937E-001;2.463612146675587E-002;2.619548235088587E-003;-2.050005597993732E-003;
2.403333333333334E+009;1.726489812135696E-001;2.368067950010300E-002;2.548125106841326E-003;-2.375296549871564E-003;
2.403500000000000E+009;1.724276095628738E-001;2.256581932306290E-002;2.471125684678555E-003;-2.473974367603660E-003;
2.403666666666667E+009;1.721587032079697E-001;2.146455459296703E-002;2.604056382551789E-003;-2.538870554417372E-003;
2.403833333333334E+009;1.720251142978668E-001;2.038802020251751E-002;2.138695679605007E-003;-2.809201367199421E-003;
2.404000000000000E+009;1.717887222766876E-001;1.923884823918343E-002;2.084117848426104E-003;-2.949926536530256E-003;
2.404166666666667E+009;1.714816093444824E-001;1.781986095011234E-002;1.801220700144768E-003;-3.111077938228846E-003;
2.404333333333334E+009;1.712940484285355E-001;1.661220006644726E-002;1.392426784150302E-003;-3.156623570248485E-003;
2.404500000000000E+009;1.710121631622315E-001;1.509632635861635E-002;1.409267773851752E-003;-3.313286695629358E-003;
2.404666666666667E+009;1.709004491567612E-001;1.382619049400091E-002;9.781694971024990E-004;-3.360004397109151E-003;
2.404833333333334E+009;1.705548763275147E-001;1.238921005278826E-002;7.442895439453423E-004;-3.329777391627431E-003;
2.405000000000000E+009;1.704011559486389E-001;1.088901050388813E-002;6.291272584348917E-004;-3.243542974814773E-003;
2.405166666666667E+009;1.702452898025513E-001;9.303020313382149E-003;3.372265200596303E-004;-3.015181049704552E-003;
2.405333333333334E+009;1.699842810630798E-001;7.619743235409260E-003;1.282899611396715E-004;-3.261779434978962E-003;
2.405500000000000E+009;1.699270457029343E-001;6.009737029671669E-003;-1.038887130562216E-004;-3.087397199124098E-003;
2.405666666666667E+009;1.696449518203735E-001;4.211929626762867E-003;2.059025428025052E-005;-2.684366656467319E-003;
2.405833333333334E+009;1.693971604108810E-001;2.685069805011153E-003;-3.160687338095158E-004;-2.780726877972484E-003;
2.406000000000000E+009;1.691394299268723E-001;8.583767339587212E-004;-2.963205915875733E-004;-2.444540616124868E-003;
2.406166666666667E+009;1.688545197248459E-001;-7.752517121843994E-004;-3.927769721485674E-004;-2.348921960219741E-003;
2.406333333333334E+009;1.688290238380432E-001;-2.462850650772452E-003;-4.136500356253237E-004;-2.307677641510963E-003;
2.406500000000000E+009;1.685011237859726E-001;-4.241759423166513E-003;-3.981682239100337E-004;-2.210220554843545E-003;
2.406666666666667E+009;1.680312901735306E-001;-5.947612691670656E-003;-3.459322615526617E-004;-2.098694210872054E-003;
2.406833333333334E+009;1.679574549198151E-001;-7.620627060532570E-003;-2.287618553964421E-004;-1.844507525674999E-003;
2.407000000000000E+009;1.678175181150436E-001;-9.376705624163151E-003;-2.615785633679479E-004;-1.833580667153001E-003;
2.407166666666667E+009;1.677604764699936E-001;-1.079716440290213E-002;-2.918202080763876E-004;-1.786038395948708E-003;
2.407333333333334E+009;1.674528270959854E-001;-1.240868773311377E-002;-5.530298585654236E-005;-1.890608691610396E-003;
2.407500000000000E+009;1.671978831291199E-001;-1.381078921258450E-002;1.643197947487352E-006;-1.882970449514687E-003;
2.407666666666667E+009;1.671938002109528E-001;-1.512102875858545E-002;1.180955878226087E-004;-1.901814364828169E-003;
2.407833333333334E+009;1.669905483722687E-001;-1.644803583621979E-002;-9.190529453917407E-006;-2.053865697234869E-003;
2.408000000000000E+009;1.670047491788864E-001;-1.782019063830376E-002;1.171780750155449E-004;-2.177968388423324E-003;
2.408166666666667E+009;1.670022606849670E-001;-1.894996315240860E-002;1.011324002320180E-005;-2.069156849756837E-003;
2.408333333333334E+009;1.672448217868805E-001;-1.995358243584633E-002;9.706283890409395E-005;-2.284124027937651E-003;
2.408500000000000E+009;1.671771705150604E-001;-2.108391188085079E-002;-6.887193012516946E-005;-2.386621898040175E-003;
2.408666666666667E+009;1.672661900520325E-001;-2.210092358291149E-002;-8.370762225240469E-005;-2.295191865414381E-003;
2.408833333333334E+009;1.675586849451065E-001;-2.302980795502663E-002;-2.298577164765447E-004;-2.333246171474457E-003;
2.409000000000000E+009;1.676572561264038E-001;-2.414741553366184E-002;-3.789387410506606E-004;-2.691605361178517E-003;
2.409166666666667E+009;1.681135147809982E-001;-2.497523091733456E-002;-4.943849635310471E-004;-2.654732204973698E-003;
2.409333333333334E+009;1.685136854648590E-001;-2.605078741908073E-002;-6.835510139353573E-004;-2.775479573756456E-003;
2.409500000000000E+009;1.686083674430847E-001;-2.703375555574894E-002;-6.215490284375846E-004;-2.754878252744675E-003;
2.409666666666667E+009;1.689772903919220E-001;-2.796760573983192E-002;-1.087633310817182E-003;-2.794373081997037E-003;
2.409833333333334E+009;1.691166609525681E-001;-2.881306968629360E-002;-1.124790054745972E-003;-2.839402062818408E-003;
2.410000000000000E+009;1.694193482398987E-001;-2.965596690773964E-002;-1.259506097994745E-003;-2.771739847958088E-003;
2.410166666666667E+009;1.697038561105728E-001;-3.054856508970261E-002;-1.538814976811409E-003;-2.688002539798617E-003;
2.410333333333334E+009;1.697919517755508E-001;-3.141750395298004E-002;-1.534483628347516E-003;-2.437970601022244E-003;
2.410500000000000E+009;1.700228005647659E-001;-3.226789832115173E-002;-1.835701055824757E-003;-2.540758578106761E-003;
2.410666666666667E+009;1.699385493993759E-001;-3.314602002501488E-002;-1.857848954387009E-003;-2.182088792324066E-003;
2.410833333333334E+009;1.699762940406799E-001;-3.383908048272133E-002;-1.970926998183131E-003;-2.099083270877600E-003;
2.411000000000000E+009;1.701572388410568E-001;-3.476370871067047E-002;-2.100601326674223E-003;-2.009008312597871E-003;
2.411166666666667E+009;1.700396239757538E-001;-3.559332340955734E-002;-2.213449683040381E-003;-1.735522062517703E-003;
2.411333333333334E+009;1.701367497444153E-001;-3.626334667205811E-002;-2.033372875303030E-003;-1.437200582586229E-003;
2.411500000000000E+009;1.698858290910721E-001;-3.703877702355385E-002;-2.191486302763224E-003;-1.555595197714865E-003;
2.411666666666667E+009;1.700446307659149E-001;-3.778099641203880E-002;-2.107419539242983E-003;-1.368452096357942E-003;
2.411833333333334E+009;1.695781052112579E-001;-3.829144313931465E-002;-1.973168924450874E-003;-1.226681633852422E-003;
2.412000000000000E+009;1.694641709327698E-001;-3.923358023166657E-002;-1.896514790132642E-003;-1.165247638709843E-003;
2.412166666666667E+009;1.691965609788895E-001;-3.996190056204796E-002;-1.752923591993749E-003;-1.110059441998601E-003;
2.412333333333334E+009;1.693504005670548E-001;-4.068364948034287E-002;-1.594245433807373E-003;-1.060267677530646E-003;
2.412500000000000E+009;1.685858517885208E-001;-4.153106361627579E-002;-1.588206621818245E-003;-1.118810265325010E-003;
2.412666666666667E+009;1.683800816535950E-001;-4.234790056943893E-002;-1.609281636774540E-003;-1.244053826667368E-003;
2.412833333333334E+009;1.680030077695847E-001;-4.314287006855011E-002;-1.628331141546369E-003;-1.398742198944092E-003;
2.413000000000000E+009;1.675293445587158E-001;-4.404456540942192E-002;-1.606714562512934E-003;-1.395009690895677E-003;
2.413166666666667E+009;1.669337749481201E-001;-4.480207711458206E-002;-1.566220656968653E-003;-1.542811049148440E-003;
2.413333333333334E+009;1.665611565113068E-001;-4.573482647538185E-002;-1.827291329391301E-003;-1.656420878134668E-003;
2.413500000000000E+009;1.659116894006729E-001;-4.670358449220657E-002;-1.831317204050720E-003;-1.523598562926054E-003;
2.413666666666667E+009;1.653731912374497E-001;-4.762929305434227E-002;-2.138937590643764E-003;-1.543164835311472E-003;
2.413833333333334E+009;1.646798551082611E-001;-4.847503453493118E-002;-2.181888092309237E-003;-1.590261817909777E-003;
2.414000000000000E+009;1.641976535320282E-001;-4.923670366406441E-002;-2.636285731568933E-003;-1.625367905944586E-003;
2.414166666666667E+009;1.637732088565826E-001;-5.015245452523232E-002;-2.505194162949920E-003;-1.424692920409143E-003;
2.414333333333334E+009;1.631572097539902E-001;-5.116263777017593E-002;-2.775609260424972E-003;-1.439216779544950E-003;
2.414500000000000E+009;1.627892702817917E-001;-5.196326598525047E-002;-2.833698876202107E-003;-1.094769919291139E-003;
2.414666666666667E+009;1.623176634311676E-001;-5.276620015501976E-002;-2.752819331362844E-003;-1.122928224503994E-003;
2.414833333333334E+009;1.617545634508133E-001;-5.405811220407486E-002;-3.187758848071098E-003;-9.032658999785781E-004;
2.415000000000000E+009;1.613113880157471E-001;-5.487086623907089E-002;-3.163794754073024E-003;-6.097771110944450E-004;
2.415166666666667E+009;1.609211415052414E-001;-5.592083185911179E-002;-3.212195122614503E-003;-5.797575577162206E-004;
2.415333333333334E+009;1.607401072978973E-001;-5.715668201446533E-002;-3.114538267254829E-003;-3.120987676084042E-004;
2.415500000000000E+009;1.603231430053711E-001;-5.819885805249214E-002;-3.049147082492709E-003;-1.275957183679566E-004;
2.415666666666667E+009;1.601179689168930E-001;-5.937232449650765E-002;-3.158309962600470E-003;3.446406481089070E-005;
2.415833333333334E+009;1.598314940929413E-001;-6.065881624817848E-002;-3.023496363312006E-003;1.730697986204177E-004;
2.416000000000000E+009;1.594301462173462E-001;-6.202552095055580E-002;-3.032276406884193E-003;2.961924765259028E-004;
2.416166666666667E+009;1.591966450214386E-001;-6.335261464118958E-002;-2.927261404693127E-003;5.216486169956625E-004;
2.416333333333334E+009;1.587270200252533E-001;-6.463863700628281E-002;-2.720846328884363E-003;6.396687240339816E-004;
2.416500000000000E+009;1.582932323217392E-001;-6.604811549186707E-002;-2.674442250281572E-003;4.703118465840817E-004;
2.416666666666667E+009;1.579827666282654E-001;-6.741374731063843E-002;-2.565501490607858E-003;7.196007645688951E-004;
2.416833333333334E+009;1.576826572418213E-001;-6.880779564380646E-002;-2.535366220399737E-003;5.504320724867284E-004;
2.417000000000000E+009;1.570915430784226E-001;-7.001807540655136E-002;-2.471358282491565E-003;6.328651797957718E-004;
2.417166666666667E+009;1.567182093858719E-001;-7.109724730253220E-002;-2.464186633005738E-003;5.667941295541823E-004;
2.417333333333334E+009;1.563654243946075E-001;-7.223609834909439E-002;-2.442447002977133E-003;6.375396624207497E-004;
2.417500000000000E+009;1.559449881315231E-001;-7.363053411245346E-002;-2.343883970752358E-003;7.579115335829556E-004;
2.417666666666667E+009;1.557828933000565E-001;-7.453422993421555E-002;-2.390956506133080E-003;6.239126087166369E-004;
2.417833333333334E+009;1.555588394403458E-001;-7.544393837451935E-002;-2.546497154980898E-003;6.749083404429257E-004;
2.418000000000000E+009;1.550938785076141E-001;-7.674484699964523E-002;-2.378653036430478E-003;7.662731804884970E-004;
2.418166666666667E+009;1.548415720462799E-001;-7.745600491762161E-002;-2.463848330080509E-003;8.790889987722039E-004;
2.418333333333334E+009;1.548399031162262E-001;-7.857532054185867E-002;-2.565653063356876E-003;9.443516610190272E-004;
2.418500000000000E+009;1.544926613569260E-001;-7.943834364414215E-002;-2.501761307939887E-003;1.005459227599204E-003;
2.418666666666667E+009;1.545417606830597E-001;-8.039578050374985E-002;-2.578900894150138E-003;1.032216008752585E-003;
2.418833333333334E+009;1.541276276111603E-001;-8.138970285654068E-002;-2.474333392456174E-003;1.147033879533410E-003;
2.419000000000000E+009;1.538462936878204E-001;-8.210980892181397E-002;-2.521624090149999E-003;1.124418457038701E-003;
2.419166666666667E+009;1.537628769874573E-001;-8.288186043500900E-002;-2.526050200685859E-003;1.316897454671562E-003;
2.419333333333334E+009;1.534422934055328E-001;-8.344753831624985E-002;-2.385813510045409E-003;1.429411699064076E-003;
2.419500000000000E+009;1.532422155141830E-001;-8.439167588949204E-002;-2.544085262343288E-003;1.519259996712208E-003;
2.419666666666667E+009;1.533574312925339E-001;-8.517999202013016E-002;-2.442048629745841E-003;1.517624477855861E-003;
2.419833333333334E+009;1.528788655996323E-001;-8.573389798402786E-002;-2.381037455052137E-003;1.666680793277919E-003;
2.420000000000000E+009;1.526745110750198E-001;-8.632093667984009E-002;-2.372510032728314E-003;1.697663217782974E-003;
2.420166666666667E+009;1.525129377841950E-001;-8.692231029272080E-002;-2.464532386511564E-003;1.887978753075004E-003;
2.420333333333334E+009;1.525200456380844E-001;-8.754678070545197E-002;-2.502422081306577E-003;1.771195326000452E-003;
2.420500000000000E+009;1.523539423942566E-001;-8.799839764833450E-002;-2.424370730295777E-003;1.908209407702088E-003;
2.420666666666667E+009;1.519533544778824E-001;-8.856017887592316E-002;-2.425560262054205E-003;2.243699273094535E-003;
2.420833333333334E+009;1.519063115119934E-001;-8.927021920681000E-002;-2.365037333220244E-003;2.371480222791433E-003;
2.421000000000000E+009;1.516188234090805E-001;-8.985810726881027E-002;-2.340443432331085E-003;2.380506135523319E-003;
2.421166666666667E+009;1.512385159730911E-001;-9.053606539964676E-002;-2.230528509244323E-003;2.503549214452505E-003;
2.421333333333334E+009;1.509431302547455E-001;-9.117801487445831E-002;-2.311124466359615E-003;2.914261072874069E-003;
2.421500000000000E+009;1.505180895328522E-001;-9.166048467159271E-002;-2.124537713825703E-003;2.963305218145251E-003;
2.421666666666667E+009;1.501217484474182E-001;-9.227536618709564E-002;-1.948934863321483E-003;3.196245292201638E-003;
2.421833333333334E+009;1.497348248958588E-001;-9.285607188940048E-002;-1.902055577374995E-003;3.486014902591705E-003;
2.422000000000000E+009;1.492756605148315E-001;-9.344779700040817E-002;-1.837920630350709E-003;3.527641063556075E-003;
2.422166666666667E+009;1.486295312643051E-001;-9.428470581769943E-002;-1.530225388705730E-003;3.699560184031725E-003;
2.422333333333334E+009;1.481035202741623E-001;-9.453430771827698E-002;-1.203502994030714E-003;3.804006846621633E-003;
2.422500000000000E+009;1.474244445562363E-001;-9.526377916336060E-002;-1.029682811349630E-003;3.979965578764677E-003;
2.422666666666667E+009;1.468622237443924E-001;-9.607333689928055E-002;-6.257878267206252E-004;3.977045416831970E-003;
2.422833333333334E+009;1.462499499320984E-001;-9.683073312044144E-002;-5.195346311666071E-004;4.052123520523310E-003;
2.423000000000000E+009;1.456753760576248E-001;-9.740876406431198E-002;-2.187926147598773E-004;4.171516746282578E-003;
2.423166666666667E+009;1.450919955968857E-001;-9.821075201034546E-002;2.480320981703699E-004;4.006166942417622E-003;
2.423333333333334E+009;1.445800662040710E-001;-9.887055307626724E-002;4.658509860746563E-004;3.887863364070654E-003;
2.423500000000000E+009;1.436824351549149E-001;-9.963585436344147E-002;6.333821802400053E-004;3.838808042928577E-003;
2.423666666666667E+009;1.427927762269974E-001;-1.006290763616562E-001;9.650900610722601E-004;3.600370371714234E-003;
2.423833333333334E+009;1.420286744832993E-001;-1.014757305383682E-001;1.072829007171094E-003;3.428960219025612E-003;
2.424000000000000E+009;1.411247253417969E-001;-1.019799262285233E-001;1.168551272712648E-003;3.230630652979016E-003;
2.424166666666667E+009;1.403729766607285E-001;-1.028832271695137E-001;1.383967697620392E-003;3.119610948488116E-003;
2.424333333333334E+009;1.396590322256088E-001;-1.035823747515678E-001;1.427966984920204E-003;2.788018435239792E-003;
2.424500000000000E+009;1.390583962202072E-001;-1.046344637870789E-001;1.625809585675597E-003;2.620642771944404E-003;
2.424666666666667E+009;1.383464336395264E-001;-1.053040623664856E-001;1.650144811719656E-003;2.542388625442982E-003;
2.424833333333334E+009;1.374643296003342E-001;-1.061959192156792E-001;1.620065304450691E-003;2.268020762130618E-003;
2.425000000000000E+009;1.368413120508194E-001;-1.071999296545982E-001;1.567365950904787E-003;2.258486580103636E-003;
2.425166666666667E+009;1.359521597623825E-001;-1.081277653574944E-001;1.614508568309248E-003;2.152801025658846E-003;
2.425333333333334E+009;1.352560967206955E-001;-1.090499013662338E-001;1.406348426826298E-003;1.964920200407505E-003;
2.425500000000000E+009;1.346306204795837E-001;-1.100628077983856E-001;1.453147386200726E-003;1.785289496183395E-003;
2.425666666666667E+009;1.339306235313416E-001;-1.109971553087235E-001;1.440498162992299E-003;1.743254484608769E-003;
2.425833333333334E+009;1.332895904779434E-001;-1.119429543614388E-001;1.259179203771055E-003;1.848827116191387E-003;
2.426000000000000E+009;1.327382326126099E-001;-1.130434721708298E-001;1.215634983964264E-003;1.679539680480957E-003;
2.426166666666667E+009;1.323091089725494E-001;-1.140239462256432E-001;1.217900193296373E-003;1.751725445501506E-003;
2.426333333333334E+009;1.315676718950272E-001;-1.150276958942413E-001;1.258019823580980E-003;1.667171833105385E-003;
2.426500000000000E+009;1.310927569866180E-001;-1.159954220056534E-001;1.269040629267693E-003;1.660006935708225E-003;
2.426666666666667E+009;1.306493431329727E-001;-1.168135255575180E-001;1.387182390317321E-003;1.576477778144181E-003;
2.426833333333334E+009;1.300232261419296E-001;-1.178226321935654E-001;1.273948117159307E-003;1.667822012677789E-003;
2.427000000000000E+009;1.294847279787064E-001;-1.187907308340073E-001;1.231906004250050E-003;1.532241120003164E-003;
2.427166666666667E+009;1.291233152151108E-001;-1.195668727159500E-001;1.264235237613320E-003;1.580957090482116E-003;
2.427333333333334E+009;1.286828517913818E-001;-1.205185204744339E-001;1.238576252944768E-003;1.629319856874645E-003;
2.427500000000000E+009;1.283446848392487E-001;-1.213957071304321E-001;1.362925162538886E-003;1.652993494644761E-003;
2.427666666666667E+009;1.278371065855026E-001;-1.221283078193665E-001;1.230261987075210E-003;1.408158452250063E-003;
