# Version 1.00
#
freq[Hz];re:Trc1_S11;im:Trc1_S11;re:Trc2_S21;im:Trc2_S21;
2.400000000000000E+009;1.686119884252548E-001;3.936009109020233E-002;2.131756162270904E-003;-4.630500625353307E-004;
2.400166666666667E+009;1.693845987319946E-001;3.887601196765900E-002;1.882562995888293E-003;-4.853142600040883E-004;
2.400333333333334E+009;1.699370443820953E-001;3.800203651189804E-002;1.952948281541467E-003;-4.181440745014697E-004;
2.400500000000000E+009;1.705790013074875E-001;3.714924678206444E-002;2.003618516027927E-003;-4.764838085975498E-004;
2.400666666666667E+009;1.711381226778030E-001;3.621960431337357E-002;2.028278307989240E-003;-4.985252162441611E-004;
2.400833333333334E+009;1.718126237392426E-001;3.551279008388519E-002;1.912794657982886E-003;-3.657832276076078E-004;
2.401000000000000E+009;1.721214056015015E-001;3.486973047256470E-002;2.060735132545233E-003;-5.177080747671425E-004;
2.401166666666667E+009;1.724352389574051E-001;3.403861820697784E-002;2.416939008980990E-003;-3.668016870506108E-004;
2.401333333333334E+009;1.727275103330612E-001;3.333447873592377E-002;2.314083278179169E-003;-5.032476619817317E-004;
2.401500000000000E+009;1.730380505323410E-001;3.264523297548294E-002;2.431483240798116E-003;-4.472912114579231E-004;
2.401666666666667E+009;1.731376796960831E-001;3.219284117221832E-002;2.478037262335420E-003;-5.839501973241568E-004;
2.401833333333334E+009;1.733882427215576E-001;3.101479262113571E-002;2.612869022414088E-003;-8.296458399854600E-004;
2.402000000000000E+009;1.732615679502487E-001;3.042605891823769E-002;2.701785415410996E-003;-9.250475559383631E-004;
2.402166666666667E+009;1.733937412500382E-001;2.959398366510868E-002;2.555488143116236E-003;-9.720871457830071E-004;
2.402333333333334E+009;1.733281910419464E-001;2.890802547335625E-002;2.716390648856759E-003;-1.159651670604944E-003;
2.402500000000000E+009;1.734359115362167E-001;2.824919670820236E-002;2.818915527313948E-003;-1.312756212428212E-003;
2.402666666666667E+009;1.733729541301727E-001;2.733025699853897E-002;2.783757634460926E-003;-1.599399838596582E-003;
2.402833333333334E+009;1.732473820447922E-001;2.646123431622982E-002;2.646223874762654E-003;-1.661079586483538E-003;
2.403000000000000E+009;1.731343120336533E-001;2.567995898425579E-002;2.790838247165084E-003;-2.025132300332189E-003;
2.403166666666667E+009;1.730888634920120E-001;2.461924217641354E-002;2.732957480475307E-003;-2.196503337472677E-003;
2.403333333333334E+009;1.730203628540039E-001;2.384827099740505E-002;2.616172889247537E-003;-2.366026164963841E-003;
2.403500000000000E+009;1.727022528648377E-001;2.254831977188587E-002;2.274036407470703E-003;-2.473846543580294E-003;
2.403666666666667E+009;1.723894625902176E-001;2.154827862977982E-002;2.318948274478316E-003;-2.723609795793891E-003;
2.403833333333334E+009;1.722246110439301E-001;2.029728703200817E-002;2.063588704913855E-003;-2.922415034845471E-003;
2.404000000000000E+009;1.718723773956299E-001;1.907686889171600E-002;1.844163751229644E-003;-2.978194970637560E-003;
2.404166666666667E+009;1.715831309556961E-001;1.776861771941185E-002;1.807917142286897E-003;-3.160610562190414E-003;
2.404333333333334E+009;1.713847517967224E-001;1.667159795761108E-002;1.479079946875572E-003;-3.229695605114102E-003;
2.404500000000000E+009;1.711141616106033E-001;1.518364995718002E-002;1.333979773335159E-003;-3.363658208400011E-003;
2.404666666666667E+009;1.709340065717697E-001;1.380691956728697E-002;9.893989190459251E-004;-3.172755008563399E-003;
2.404833333333334E+009;1.706890910863876E-001;1.242212392389774E-002;8.865206036716700E-004;-3.291501663625240E-003;
2.405000000000000E+009;1.705101430416107E-001;1.078925468027592E-002;5.879692616872490E-004;-3.298412542790175E-003;
2.405166666666667E+009;1.701508164405823E-001;9.258888661861420E-003;2.691945410333574E-004;-3.210588358342648E-003;
2.405333333333334E+009;1.701890528202057E-001;7.490464486181736E-003;1.902791409520432E-004;-3.017507027834654E-003;
2.405500000000000E+009;1.699779927730560E-001;5.962763447314501E-003;8.412707393290475E-005;-3.014033893123269E-003;
2.405666666666667E+009;1.696876287460327E-001;4.211159888654947E-003;-7.328833453357220E-005;-2.697522519156337E-003;
2.405833333333334E+009;1.693544983863831E-001;2.709842054173350E-003;-2.516006061341614E-004;-2.710353117436171E-003;
2.406000000000000E+009;1.691319346427918E-001;7.300421129912138E-004;-2.219189336756244E-004;-2.446502214297652E-003;
2.406166666666667E+009;1.689426153898239E-001;-7.881480851210654E-004;-3.478842845652252E-004;-2.394057577475905E-003;
2.406333333333334E+009;1.688876450061798E-001;-2.670341636985540E-003;-4.419509496074170E-004;-2.262757858261466E-003;
2.406500000000000E+009;1.685371845960617E-001;-4.286932758986950E-003;-3.901924355886877E-004;-2.088457345962524E-003;
2.406666666666667E+009;1.681065708398819E-001;-5.910890176892281E-003;-2.539496344979852E-004;-2.093260409310460E-003;
2.406833333333334E+009;1.680428683757782E-001;-7.675374858081341E-003;-2.480412949807942E-004;-1.823112019337714E-003;
2.407000000000000E+009;1.678593158721924E-001;-9.331501089036465E-003;-1.907446858240292E-004;-1.869384897872806E-003;
2.407166666666667E+009;1.677200049161911E-001;-1.080098003149033E-002;-1.047494370141067E-004;-1.841553254052997E-003;
2.407333333333334E+009;1.674368530511856E-001;-1.236456353217363E-002;-2.022586413659155E-004;-1.755351317115128E-003;
2.407500000000000E+009;1.673093140125275E-001;-1.372828427702189E-002;-7.315465336432681E-005;-1.816468429751694E-003;
2.407666666666667E+009;1.671834439039230E-001;-1.501703355461359E-002;-7.672965875826776E-005;-1.988457748666406E-003;
2.407833333333334E+009;1.670380830764771E-001;-1.646427065134049E-002;5.234745549387299E-005;-1.913833897560835E-003;
2.408000000000000E+009;1.670204997062683E-001;-1.783095486462116E-002;-2.218246481788810E-005;-2.100747078657150E-003;
2.408166666666667E+009;1.669249087572098E-001;-1.876524835824966E-002;8.251573308371007E-005;-2.087854547426105E-003;
2.408333333333334E+009;1.671475768089294E-001;-1.982709765434265E-002;-2.457831214996986E-005;-2.210402628406882E-003;
2.408500000000000E+009;1.671839654445648E-001;-2.100640721619129E-002;-9.661158401286230E-005;-2.340700710192323E-003;
2.408666666666667E+009;1.673408597707748E-001;-2.201033756136894E-002;-8.794027962721884E-005;-2.476495224982500E-003;
2.408833333333334E+009;1.676217913627625E-001;-2.307835035026074E-002;-2.208498044637963E-004;-2.543805632740259E-003;
2.409000000000000E+009;1.677764803171158E-001;-2.403615973889828E-002;-4.023650253657252E-004;-2.535881707444787E-003;
2.409166666666667E+009;1.679964661598206E-001;-2.503201179206371E-002;-4.885970847681165E-004;-2.745587145909667E-003;
2.409333333333334E+009;1.684261560440064E-001;-2.595997415482998E-002;-6.511078099720180E-004;-2.828860189765692E-003;
2.409500000000000E+009;1.686629056930542E-001;-2.706888690590859E-002;-7.854250143282116E-004;-2.719060285016894E-003;
2.409666666666667E+009;1.688561588525772E-001;-2.783308736979961E-002;-1.018073991872370E-003;-2.901647705584765E-003;
2.409833333333334E+009;1.692427396774292E-001;-2.858700603246689E-002;-1.158266095444560E-003;-2.792542334645987E-003;
2.410000000000000E+009;1.696095764636993E-001;-2.961280383169651E-002;-1.236920361407101E-003;-2.632771618664265E-003;
2.410166666666667E+009;1.698985695838928E-001;-3.040017746388912E-002;-1.504885265603662E-003;-2.583911875262857E-003;
2.410333333333334E+009;1.700038760900497E-001;-3.126771003007889E-002;-1.568449544720352E-003;-2.609211485832930E-003;
2.410500000000000E+009;1.702557057142258E-001;-3.220392391085625E-002;-1.764161163009703E-003;-2.390740206465125E-003;
2.410666666666667E+009;1.703466773033142E-001;-3.319226205348969E-002;-1.847485313192010E-003;-2.426019171252847E-003;
2.410833333333334E+009;1.703206896781921E-001;-3.400281816720963E-002;-1.984144095331430E-003;-2.129863714799285E-003;
2.411000000000000E+009;1.702747046947479E-001;-3.471651300787926E-002;-2.275571227073669E-003;-2.077542711049318E-003;
2.411166666666667E+009;1.702742725610733E-001;-3.552098199725151E-002;-2.103227423503995E-003;-1.851617009378970E-003;
2.411333333333334E+009;1.700706928968430E-001;-3.614087775349617E-002;-2.164127305150032E-003;-1.674394705332816E-003;
2.411500000000000E+009;1.699756681919098E-001;-3.711215406656265E-002;-2.072995761409402E-003;-1.420028507709503E-003;
2.411666666666667E+009;1.699897795915604E-001;-3.778952732682228E-002;-2.205073600634933E-003;-1.322815078310669E-003;
2.411833333333334E+009;1.698089838027954E-001;-3.847962990403175E-002;-2.088331384584308E-003;-1.244578510522842E-003;
2.412000000000000E+009;1.697185188531876E-001;-3.918061405420303E-002;-2.009208779782057E-003;-1.232076087035239E-003;
2.412166666666667E+009;1.693144738674164E-001;-3.994775936007500E-002;-1.768697635270655E-003;-1.171570504084230E-003;
2.412333333333334E+009;1.691183596849442E-001;-4.056799039244652E-002;-1.679640845395625E-003;-1.039164140820503E-003;
2.412500000000000E+009;1.687189787626267E-001;-4.144835844635963E-002;-1.692808000370860E-003;-1.062070834450424E-003;
2.412666666666667E+009;1.684708297252655E-001;-4.237071424722672E-002;-1.737022423185408E-003;-1.228903653100133E-003;
2.412833333333334E+009;1.682023108005524E-001;-4.322752729058266E-002;-1.548437867313623E-003;-1.248483196832240E-003;
2.413000000000000E+009;1.675343960523605E-001;-4.413840174674988E-002;-1.708165742456913E-003;-1.467599067837000E-003;
2.413166666666667E+009;1.668913662433624E-001;-4.499173536896706E-002;-1.892361557111144E-003;-1.478911493904889E-003;
2.413333333333334E+009;1.663571149110794E-001;-4.590114206075668E-002;-1.756820129230619E-003;-1.562910969369113E-003;
2.413500000000000E+009;1.661124378442764E-001;-4.673209413886070E-002;-1.875240472145379E-003;-1.608237042091787E-003;
2.413666666666667E+009;1.654917001724243E-001;-4.757250100374222E-002;-2.037975937128067E-003;-1.450913259759545E-003;
2.413833333333334E+009;1.647025197744370E-001;-4.854022711515427E-002;-2.266033785417676E-003;-1.546899671666324E-003;
2.414000000000000E+009;1.639579981565476E-001;-4.918658360838890E-002;-2.378181088715792E-003;-1.503991428762674E-003;
2.414166666666667E+009;1.636942178010941E-001;-5.012893304228783E-002;-2.625609515234828E-003;-1.456731348298490E-003;
2.414333333333334E+009;1.633007675409317E-001;-5.106007307767868E-002;-2.829624107107520E-003;-1.211595255881548E-003;
2.414500000000000E+009;1.628554612398148E-001;-5.196706578135490E-002;-3.066181670874357E-003;-1.079404493793845E-003;
2.414666666666667E+009;1.621204763650894E-001;-5.293552577495575E-002;-2.900288673117757E-003;-9.760427055880427E-004;
2.414833333333334E+009;1.617580354213715E-001;-5.395677313208580E-002;-3.118832595646381E-003;-7.999266381375492E-004;
2.415000000000000E+009;1.614430844783783E-001;-5.488792434334755E-002;-3.149310825392604E-003;-6.034937687218189E-004;
2.415166666666667E+009;1.611078381538391E-001;-5.589325353503227E-002;-3.165408968925476E-003;-5.983390728943050E-004;
2.415333333333334E+009;1.607986688613892E-001;-5.716052651405335E-002;-3.192690899595618E-003;-2.366442931815982E-004;
2.415500000000000E+009;1.604002118110657E-001;-5.833539366722107E-002;-3.186922520399094E-003;-3.037595161003992E-005;
2.415666666666667E+009;1.600384861230850E-001;-5.937555432319641E-002;-3.123400965705514E-003;-1.046957277139882E-005;
2.415833333333334E+009;1.598145961761475E-001;-6.077821180224419E-002;-3.173365024849773E-003;2.208449877798557E-004;
2.416000000000000E+009;1.593650132417679E-001;-6.194788962602615E-002;-3.020467469468713E-003;3.009828797075898E-004;
2.416166666666667E+009;1.592451035976410E-001;-6.334032863378525E-002;-2.978960983455181E-003;5.228290683589876E-004;
2.416333333333334E+009;1.587439477443695E-001;-6.462761014699936E-002;-2.613348420709372E-003;4.465758684091270E-004;
2.416500000000000E+009;1.584050059318543E-001;-6.605596840381622E-002;-2.614446450024843E-003;7.341873133555055E-004;
2.416666666666667E+009;1.579912453889847E-001;-6.726815551519394E-002;-2.453048247843981E-003;7.223028223961592E-004;
2.416833333333334E+009;1.575661003589630E-001;-6.876479089260101E-002;-2.500608796253800E-003;5.058111273683608E-004;
2.417000000000000E+009;1.570121496915817E-001;-7.001991569995880E-002;-2.495568478479981E-003;6.908408249728382E-004;
2.417166666666667E+009;1.567573249340057E-001;-7.101798057556152E-002;-2.476535504683852E-003;7.411137921735644E-004;
2.417333333333334E+009;1.565102785825729E-001;-7.225582003593445E-002;-2.424005419015884E-003;5.740037886425853E-004;
2.417500000000000E+009;1.560530066490173E-001;-7.350502908229828E-002;-2.499772235751152E-003;6.161963683553040E-004;
2.417666666666667E+009;1.558587849140167E-001;-7.443123310804367E-002;-2.593281911686063E-003;5.626031197607517E-004;
2.417833333333334E+009;1.554375588893890E-001;-7.550553232431412E-002;-2.598943887278438E-003;7.030351553112268E-004;
2.418000000000000E+009;1.550686657428742E-001;-7.666107267141342E-002;-2.614797791466117E-003;7.593652699142695E-004;
2.418166666666667E+009;1.548918187618256E-001;-7.746758311986923E-002;-2.517340704798698E-003;8.689425303600729E-004;
2.418333333333334E+009;1.549574136734009E-001;-7.843977212905884E-002;-2.691118512302637E-003;8.420610101893544E-004;
2.418500000000000E+009;1.546684056520462E-001;-7.944475114345551E-002;-2.546396804973483E-003;9.186274255625904E-004;
2.418666666666667E+009;1.546258330345154E-001;-8.049683272838593E-002;-2.464828314259648E-003;1.007186598144472E-003;
2.418833333333334E+009;1.541236191987991E-001;-8.142547309398651E-002;-2.638275967910886E-003;1.115157268941402E-003;
2.419000000000000E+009;1.539125293493271E-001;-8.227525651454926E-002;-2.675679977983236E-003;1.299695693887770E-003;
2.419166666666667E+009;1.538130491971970E-001;-8.293058723211289E-002;-2.346280263736844E-003;1.348724239505827E-003;
2.419333333333334E+009;1.535141468048096E-001;-8.361767977476120E-002;-2.492714673280716E-003;1.467692432925105E-003;
2.419500000000000E+009;1.534043103456497E-001;-8.457161486148834E-002;-2.552996389567852E-003;1.503058359958231E-003;
2.419666666666667E+009;1.533758938312531E-001;-8.521032333374023E-002;-2.345983870327473E-003;1.534825423732400E-003;
2.419833333333334E+009;1.529578566551209E-001;-8.566632866859436E-002;-2.487509744241834E-003;1.499509788118303E-003;
2.420000000000000E+009;1.529951393604279E-001;-8.653159439563751E-002;-2.374225528910756E-003;1.766333123669028E-003;
2.420166666666667E+009;1.525827944278717E-001;-8.717283606529236E-002;-2.394752809777856E-003;1.824967330321670E-003;
2.420333333333334E+009;1.525133103132248E-001;-8.758662641048431E-002;-2.434556838124991E-003;1.868661725893617E-003;
2.420500000000000E+009;1.524268090724945E-001;-8.808410912752152E-002;-2.351007424294949E-003;2.008095616474748E-003;
2.420666666666667E+009;1.522047966718674E-001;-8.861196041107178E-002;-2.365688327699900E-003;2.171646337956190E-003;
2.420833333333334E+009;1.518453955650330E-001;-8.935630321502686E-002;-2.428103704005480E-003;2.330097835510969E-003;
2.421000000000000E+009;1.515787541866303E-001;-8.993619680404663E-002;-2.302137902006507E-003;2.500315662473440E-003;
2.421166666666667E+009;1.512399911880493E-001;-9.052581340074539E-002;-2.291967859491706E-003;2.623165259137750E-003;
2.421333333333334E+009;1.511418372392654E-001;-9.120147675275803E-002;-2.181963063776493E-003;2.794863888993859E-003;
2.421500000000000E+009;1.506219953298569E-001;-9.161771088838577E-002;-2.044612541794777E-003;3.041819436475635E-003;
2.421666666666667E+009;1.501859426498413E-001;-9.240086376667023E-002;-2.138482872396708E-003;3.317498136311770E-003;
2.421833333333334E+009;1.497619748115540E-001;-9.300936758518219E-002;-1.987059134989977E-003;3.391031641513109E-003;
2.422000000000000E+009;1.490579992532730E-001;-9.355054050683975E-002;-1.737980754114687E-003;3.426963696256280E-003;
2.422166666666667E+009;1.485902965068817E-001;-9.436611831188202E-002;-1.515014795586467E-003;3.764590015634894E-003;
2.422333333333334E+009;1.479590684175491E-001;-9.487909078598023E-002;-1.336447894573212E-003;3.799566766247153E-003;
2.422500000000000E+009;1.473715901374817E-001;-9.526122361421585E-002;-9.711220045574009E-004;3.959325607866049E-003;
2.422666666666667E+009;1.468762308359146E-001;-9.595979005098343E-002;-7.516273180954158E-004;4.113036673516035E-003;
2.422833333333334E+009;1.462272852659226E-001;-9.668163955211639E-002;-5.109718767926097E-004;4.019119311124086E-003;
2.423000000000000E+009;1.455580443143845E-001;-9.727624803781509E-002;-1.429751573596150E-004;4.059995990246534E-003;
2.423166666666667E+009;1.449949294328690E-001;-9.820555150508881E-002;1.503177481936291E-004;4.116921219974756E-003;
2.423333333333334E+009;1.443380564451218E-001;-9.878045320510864E-002;3.109395911451429E-004;4.151425324380398E-003;
2.423500000000000E+009;1.435106843709946E-001;-9.968712925910950E-002;5.639527225866914E-004;3.901746124029160E-003;
2.423666666666667E+009;1.427311897277832E-001;-1.005502492189407E-001;9.978429879993200E-004;3.787428373470902E-003;
2.423833333333334E+009;1.420519202947617E-001;-1.013000681996346E-001;1.108481665141881E-003;3.556412411853671E-003;
2.424000000000000E+009;1.412366330623627E-001;-1.019053384661675E-001;1.398544758558273E-003;3.418713109567761E-003;
2.424166666666667E+009;1.404758393764496E-001;-1.028187125921249E-001;1.341729890555143E-003;3.200905164703727E-003;
2.424333333333334E+009;1.396405845880508E-001;-1.036080569028854E-001;1.593993278220296E-003;3.012116532772780E-003;
2.424500000000000E+009;1.389357894659042E-001;-1.044714227318764E-001;1.610088278539479E-003;2.791910432279110E-003;
2.424666666666667E+009;1.383870840072632E-001;-1.052502244710922E-001;1.613187254406512E-003;2.491012215614319E-003;
2.424833333333334E+009;1.375159323215485E-001;-1.060916036367416E-001;1.656024600379169E-003;2.479387447237968E-003;
2.425000000000000E+009;1.368662714958191E-001;-1.070689857006073E-001;1.530558918602765E-003;2.233761595562100E-003;
2.425166666666667E+009;1.359707564115524E-001;-1.079116761684418E-001;1.658974681049585E-003;2.017872873693705E-003;
2.425333333333334E+009;1.354228556156158E-001;-1.089150682091713E-001;1.377425855025649E-003;1.910217688418925E-003;
2.425500000000000E+009;1.347710192203522E-001;-1.099985018372536E-001;1.430649659596384E-003;1.843547099269927E-003;
2.425666666666667E+009;1.339785158634186E-001;-1.108876317739487E-001;1.290303189307451E-003;1.915404340252280E-003;
2.425833333333334E+009;1.334666907787323E-001;-1.118683591485024E-001;1.356960041448474E-003;1.809215173125267E-003;
2.426000000000000E+009;1.328236162662506E-001;-1.128995940089226E-001;1.372648053802550E-003;1.842647790908814E-003;
2.426166666666667E+009;1.324719339609146E-001;-1.140682026743889E-001;1.353454892523587E-003;1.780391321517527E-003;
2.426333333333334E+009;1.317437291145325E-001;-1.149368807673454E-001;1.482903375290334E-003;1.710536889731884E-003;
2.426500000000000E+009;1.312081366777420E-001;-1.159662678837776E-001;1.320312498137355E-003;1.776625053025782E-003;
2.426666666666667E+009;1.309032738208771E-001;-1.167633235454559E-001;1.313416170887649E-003;1.644254312850535E-003;
2.426833333333334E+009;1.301219612360001E-001;-1.178629547357559E-001;1.254270435310900E-003;1.711297198198736E-003;
2.427000000000000E+009;1.296675950288773E-001;-1.188067346811295E-001;1.297693233937025E-003;1.758701866492629E-003;
2.427166666666667E+009;1.292372941970825E-001;-1.195271462202072E-001;1.333876745775342E-003;1.636582775972784E-003;
2.427333333333334E+009;1.287533640861511E-001;-1.204458773136139E-001;1.380345318466425E-003;1.683774986304343E-003;
2.427500000000000E+009;1.284060478210449E-001;-1.213426291942596E-001;1.388884149491787E-003;1.523276441730559E-003;
2.427666666666667E+009;1.280387043952942E-001;-1.221680492162705E-001;1.405781484209001E-003;1.489241723902524E-003;
