# Version 1.00
#
freq[Hz];re:Trc1_S11;im:Trc1_S11;re:Trc2_S21;im:Trc2_S21;
2.400000000000000E+009;1.688157469034195E-001;4.603860154747963E-002;-5.401742644608021E-003;-6.216744077391923E-004;
2.400166666666667E+009;1.699559092521668E-001;4.502119496464729E-002;-5.668818484991789E-003;-4.468254046514630E-004;
2.400333333333334E+009;1.709739118814468E-001;4.388756677508354E-002;-5.759772378951311E-003;-1.281616423511878E-004;
2.400500000000000E+009;1.720416694879532E-001;4.302126541733742E-002;-5.757703911513090E-003;-1.416007580701262E-004;
2.400666666666667E+009;1.727571189403534E-001;4.199064150452614E-002;-5.866297986358404E-003;2.608565846458077E-004;
2.400833333333334E+009;1.737735122442246E-001;4.128525778651238E-002;-5.854914430528879E-003;5.607969942502677E-004;
2.401000000000000E+009;1.745815873146057E-001;4.038789123296738E-002;-5.934858694672585E-003;6.934223929420114E-004;
2.401166666666667E+009;1.753219813108444E-001;3.968156874179840E-002;-5.910853389650583E-003;8.507675374858081E-004;
2.401333333333334E+009;1.758851110935211E-001;3.898733481764793E-002;-6.140497513115406E-003;1.253280905075371E-003;
2.401500000000000E+009;1.767639219760895E-001;3.842322155833244E-002;-6.039653439074755E-003;1.437057740986347E-003;
2.401666666666667E+009;1.774446219205856E-001;3.788020089268684E-002;-5.943951662629843E-003;1.848225831054151E-003;
2.401833333333334E+009;1.780169606208801E-001;3.727339953184128E-002;-5.987016949802637E-003;2.069246023893356E-003;
2.402000000000000E+009;1.784000843763351E-001;3.646339848637581E-002;-5.885738879442215E-003;2.447708742693067E-003;
2.402166666666667E+009;1.788244396448135E-001;3.589556366205216E-002;-5.903394892811775E-003;2.781634451821446E-003;
2.402333333333334E+009;1.792441159486771E-001;3.524009883403778E-002;-5.663555581122637E-003;3.045303281396627E-003;
2.402500000000000E+009;1.797260046005249E-001;3.469898924231529E-002;-5.535542033612728E-003;3.356959903612733E-003;
2.402666666666667E+009;1.797296255826950E-001;3.416257724165916E-002;-5.767226684838533E-003;3.560439916327596E-003;
2.402833333333334E+009;1.799372881650925E-001;3.340553119778633E-002;-5.470938980579376E-003;4.016213584691286E-003;
2.403000000000000E+009;1.800244152545929E-001;3.281135857105255E-002;-5.491134710609913E-003;4.057530313730240E-003;
2.403166666666667E+009;1.800073385238648E-001;3.179728612303734E-002;-5.212835501879454E-003;4.483451601117849E-003;
2.403333333333334E+009;1.798887401819229E-001;3.105345368385315E-002;-4.990613553673029E-003;4.537822213023901E-003;
2.403500000000000E+009;1.796270012855530E-001;3.026923723518848E-002;-4.731046035885811E-003;4.719404038041830E-003;
2.403666666666667E+009;1.795303225517273E-001;2.925486117601395E-002;-4.381894133985043E-003;5.125183612108231E-003;
2.403833333333334E+009;1.793106943368912E-001;2.803988754749298E-002;-4.181476309895515E-003;5.183218512684107E-003;
2.404000000000000E+009;1.789909899234772E-001;2.718736603856087E-002;-3.922901116311550E-003;5.581603385508061E-003;
2.404166666666667E+009;1.785303801298142E-001;2.595139108598232E-002;-3.800648730248213E-003;5.682783201336861E-003;
2.404333333333334E+009;1.780596226453781E-001;2.467523887753487E-002;-3.369458019733429E-003;5.871938541531563E-003;
2.404500000000000E+009;1.775519549846649E-001;2.347355708479881E-002;-3.092729952186346E-003;6.057892926037312E-003;
2.404666666666667E+009;1.771663427352905E-001;2.196432836353779E-002;-2.635512966662645E-003;6.155302282422781E-003;
2.404833333333334E+009;1.768321543931961E-001;2.064673230051994E-002;-2.408233238384128E-003;6.096293218433857E-003;
2.405000000000000E+009;1.763346940279007E-001;1.905805617570877E-002;-2.113938331604004E-003;6.184815429151058E-003;
2.405166666666667E+009;1.758219897747040E-001;1.746281981468201E-002;-1.675733132287860E-003;6.509949453175068E-003;
2.405333333333334E+009;1.754162460565567E-001;1.571298763155937E-002;-1.599915092810988E-003;6.093784701079130E-003;
2.405500000000000E+009;1.749200820922852E-001;1.419761776924133E-002;-1.105630188249052E-003;6.140260025858879E-003;
2.405666666666667E+009;1.744903624057770E-001;1.244578510522842E-002;-8.470976608805358E-004;6.085717119276524E-003;
2.405833333333334E+009;1.739859282970429E-001;1.064842659980059E-002;-5.786662804894149E-004;6.039403378963471E-003;
2.406000000000000E+009;1.738400012254715E-001;8.727747946977615E-003;-3.540555480867624E-004;5.916369613260031E-003;
2.406166666666667E+009;1.734406948089600E-001;6.838462781161070E-003;-2.150600485038012E-004;5.944333039224148E-003;
2.406333333333334E+009;1.734116077423096E-001;4.901215899735689E-003;3.293470945209265E-005;5.669836886227131E-003;
2.406500000000000E+009;1.732434779405594E-001;2.852530451491475E-003;1.245274615939707E-004;5.556545685976744E-003;
2.406666666666667E+009;1.729844212532044E-001;7.831989205442369E-004;3.417217812966555E-004;5.429963581264019E-003;
2.406833333333334E+009;1.730261296033859E-001;-1.288786297664046E-003;4.914344754070044E-004;5.227508489042521E-003;
2.407000000000000E+009;1.731019169092178E-001;-3.396799089387059E-003;7.851697155274451E-004;5.076240282505751E-003;
2.407166666666667E+009;1.732717007398605E-001;-5.461021326482296E-003;6.845383322797716E-004;4.917214158922434E-003;
2.407333333333334E+009;1.733168065547943E-001;-7.652808912098408E-003;8.850842132233083E-004;5.133279133588076E-003;
2.407500000000000E+009;1.735077649354935E-001;-9.794968180358410E-003;9.428350604139268E-004;4.836457315832377E-003;
2.407666666666667E+009;1.737065464258194E-001;-1.171897724270821E-002;9.821401908993721E-004;4.839099943637848E-003;
2.407833333333334E+009;1.739238947629929E-001;-1.400784030556679E-002;1.123953144997358E-003;4.930850584059954E-003;
2.408000000000000E+009;1.743312329053879E-001;-1.621628552675247E-002;1.180243445560336E-003;4.634993616491556E-003;
2.408166666666667E+009;1.747450828552246E-001;-1.815835200250149E-002;1.245268387719989E-003;4.534552805125713E-003;
2.408333333333334E+009;1.752172410488129E-001;-2.005611546337605E-002;1.346414675936103E-003;4.717140924185515E-003;
2.408500000000000E+009;1.754761040210724E-001;-2.209745720028877E-002;1.437430386431515E-003;4.402615129947662E-003;
2.408666666666667E+009;1.757919788360596E-001;-2.400204166769981E-002;1.515378942713141E-003;4.449475556612015E-003;
2.408833333333334E+009;1.761749684810638E-001;-2.583558298647404E-002;1.627906924113631E-003;4.526569973677397E-003;
2.409000000000000E+009;1.764911711215973E-001;-2.749546617269516E-002;1.681720372289419E-003;4.297870676964521E-003;
2.409166666666667E+009;1.769763380289078E-001;-2.902156487107277E-002;1.696096383966506E-003;4.359366372227669E-003;
2.409333333333334E+009;1.773967593908310E-001;-3.051349334418774E-002;1.893687178380787E-003;4.245708696544170E-003;
2.409500000000000E+009;1.777314245700836E-001;-3.184508904814720E-002;1.892417785711587E-003;4.276129417121410E-003;
2.409666666666667E+009;1.781205087900162E-001;-3.306309133768082E-002;2.220835303887725E-003;4.363542422652245E-003;
2.409833333333334E+009;1.784885525703430E-001;-3.414689004421234E-002;2.267404925078154E-003;4.335133358836174E-003;
2.410000000000000E+009;1.789247542619705E-001;-3.509774431586266E-002;2.422956051304936E-003;4.187178798019886E-003;
2.410166666666667E+009;1.794747859239578E-001;-3.592361509799957E-002;2.473769476637244E-003;4.146787337958813E-003;
2.410333333333334E+009;1.799323260784149E-001;-3.693912178277969E-002;2.778208348900080E-003;4.166818223893642E-003;
2.410500000000000E+009;1.802562326192856E-001;-3.772916644811630E-002;2.976079704239965E-003;4.150718916207552E-003;
2.410666666666667E+009;1.805122792720795E-001;-3.849211335182190E-002;2.976537682116032E-003;4.021186847239733E-003;
2.410833333333334E+009;1.811310946941376E-001;-3.902354836463928E-002;3.116784151643515E-003;3.971274476498365E-003;
2.411000000000000E+009;1.811527758836746E-001;-3.961002081632614E-002;3.298840718343854E-003;3.836147487163544E-003;
2.411166666666667E+009;1.813369691371918E-001;-3.999760374426842E-002;3.503488143905997E-003;3.755674464628100E-003;
2.411333333333334E+009;1.815580725669861E-001;-4.037479683756828E-002;3.719334723427892E-003;3.546630963683128E-003;
2.411500000000000E+009;1.815400868654251E-001;-4.089387878775597E-002;3.778234822675586E-003;3.513961331918836E-003;
2.411666666666667E+009;1.818047910928726E-001;-4.135304689407349E-002;3.949131816625595E-003;3.386524505913258E-003;
2.411833333333334E+009;1.814812123775482E-001;-4.164126515388489E-002;4.107924643903971E-003;3.107501193881035E-003;
2.412000000000000E+009;1.815131306648254E-001;-4.218464344739914E-002;4.172082059085369E-003;3.042613388970494E-003;
2.412166666666667E+009;1.810212731361389E-001;-4.238325729966164E-002;4.173327237367630E-003;2.869717311114073E-003;
2.412333333333334E+009;1.808446347713471E-001;-4.268233478069305E-002;4.252341110259295E-003;2.691448666155338E-003;
2.412500000000000E+009;1.801355332136154E-001;-4.303795844316483E-002;4.369424190372229E-003;2.528780372813344E-003;
2.412666666666667E+009;1.798688769340515E-001;-4.341650381684303E-002;4.377843346446753E-003;2.417895011603832E-003;
2.412833333333334E+009;1.792154014110565E-001;-4.379751905798912E-002;4.565145820379257E-003;2.164519857615233E-003;
2.413000000000000E+009;1.784892231225967E-001;-4.402321204543114E-002;4.571186378598213E-003;2.044834895059466E-003;
2.413166666666667E+009;1.774222701787949E-001;-4.459411278367043E-002;4.537089727818966E-003;1.825022394768894E-003;
2.413333333333334E+009;1.766743510961533E-001;-4.493186622858048E-002;4.674705676734448E-003;1.743507571518421E-003;
2.413500000000000E+009;1.756405383348465E-001;-4.552214592695236E-002;4.686555359512568E-003;1.429910073056817E-003;
2.413666666666667E+009;1.747365146875382E-001;-4.591832309961319E-002;4.733307287096977E-003;1.344383461400867E-003;
2.413833333333334E+009;1.736353933811188E-001;-4.651561006903648E-002;4.730116110295057E-003;1.157405436970294E-003;
2.414000000000000E+009;1.724840551614761E-001;-4.719921201467514E-002;4.602541681379080E-003;1.035486930049956E-003;
2.414166666666667E+009;1.713876724243164E-001;-4.785771295428276E-002;4.797918256372213E-003;8.403494139201939E-004;
2.414333333333334E+009;1.701577752828598E-001;-4.865691810846329E-002;4.688626155257225E-003;7.437250460498035E-004;
2.414500000000000E+009;1.691405177116394E-001;-4.945336282253265E-002;4.476506728678942E-003;4.625964502338320E-004;
2.414666666666667E+009;1.678592711687088E-001;-5.033598095178604E-002;4.438374657183886E-003;3.625073295552284E-004;
2.414833333333334E+009;1.666496545076370E-001;-5.131959170103073E-002;4.548757337033749E-003;2.949094632640481E-004;
2.415000000000000E+009;1.655086576938629E-001;-5.230146273970604E-002;4.475087393075228E-003;6.759141251677647E-005;
2.415166666666667E+009;1.642516702413559E-001;-5.359393730759621E-002;4.315475001931191E-003;-2.345235225220677E-005;
2.415333333333334E+009;1.632724553346634E-001;-5.505039170384407E-002;4.239883739501238E-003;-2.553502563387156E-004;
2.415500000000000E+009;1.621230989694595E-001;-5.635438859462738E-002;4.295930732041597E-003;-2.586529299151152E-004;
2.415666666666667E+009;1.608552485704422E-001;-5.777761712670326E-002;4.205361474305391E-003;-3.500853199511766E-004;
2.415833333333334E+009;1.599874794483185E-001;-5.939039587974548E-002;4.200464114546776E-003;-4.153666668571532E-004;
2.416000000000000E+009;1.586609631776810E-001;-6.108024716377258E-002;4.026964772492647E-003;-5.817231140099466E-004;
2.416166666666667E+009;1.579815149307251E-001;-6.283919513225555E-002;3.826159052550793E-003;-7.226387970149517E-004;
2.416333333333334E+009;1.568661034107208E-001;-6.452175229787827E-002;3.743549808859825E-003;-5.584362079389393E-004;
2.416500000000000E+009;1.559305787086487E-001;-6.642840057611466E-002;3.737307386472821E-003;-7.279072888195515E-004;
2.416666666666667E+009;1.549694836139679E-001;-6.824854016304016E-002;3.786932677030563E-003;-7.679508416913450E-004;
2.416833333333334E+009;1.543895751237869E-001;-7.031136751174927E-002;3.629032988101244E-003;-8.367573027499020E-004;
2.417000000000000E+009;1.533341705799103E-001;-7.218734174966812E-002;3.621900454163551E-003;-6.545400246977806E-004;
2.417166666666667E+009;1.527317166328430E-001;-7.407125085592270E-002;3.524068044498563E-003;-8.099823025986552E-004;
2.417333333333334E+009;1.520928144454956E-001;-7.585296034812927E-002;3.412395715713501E-003;-6.545328651554883E-004;
2.417500000000000E+009;1.514799743890762E-001;-7.801492512226105E-002;3.445497248321772E-003;-6.301538669504225E-004;
2.417666666666667E+009;1.510520428419113E-001;-7.980535179376602E-002;3.482497530058026E-003;-6.576890591531992E-004;
2.417833333333334E+009;1.506633311510086E-001;-8.153222501277924E-002;3.601872362196446E-003;-4.929639981128275E-004;
2.418000000000000E+009;1.501277685165405E-001;-8.346581459045410E-002;3.593608736991882E-003;-7.019887561909854E-004;
2.418166666666667E+009;1.499328017234802E-001;-8.505856990814209E-002;3.766253124922514E-003;-7.544786785729230E-004;
2.418333333333334E+009;1.498881727457047E-001;-8.687920123338699E-002;3.889653831720352E-003;-6.151289562694728E-004;
2.418500000000000E+009;1.495700180530548E-001;-8.837988227605820E-002;3.935037646442652E-003;-7.078355411067605E-004;
2.418666666666667E+009;1.496338099241257E-001;-9.004381299018860E-002;4.008472897112370E-003;-8.485869620926678E-004;
2.418833333333334E+009;1.493664979934692E-001;-9.139257669448853E-002;4.060871899127960E-003;-8.127293549478054E-004;
2.419000000000000E+009;1.494033038616180E-001;-9.259214997291565E-002;4.235561471432447E-003;-1.061949529685080E-003;
2.419166666666667E+009;1.495173424482346E-001;-9.401915967464447E-002;4.107527900487185E-003;-1.212419825606048E-003;
2.419333333333334E+009;1.495895385742188E-001;-9.488166868686676E-002;4.426158033311367E-003;-1.430534757673740E-003;
2.419500000000000E+009;1.497672945261002E-001;-9.617653489112854E-002;4.463683813810349E-003;-1.461165840737522E-003;
2.419666666666667E+009;1.500028520822525E-001;-9.693954885005951E-002;4.443314857780933E-003;-1.608597696758807E-003;
2.419833333333334E+009;1.501787900924683E-001;-9.763394296169281E-002;4.563773050904274E-003;-1.837255666032434E-003;
2.420000000000000E+009;1.504631489515305E-001;-9.831506013870239E-002;4.553615581244230E-003;-2.171820960938931E-003;
2.420166666666667E+009;1.507875472307205E-001;-9.884891659021378E-002;4.456877708435059E-003;-2.257745480164886E-003;
2.420333333333334E+009;1.510705947875977E-001;-9.949900954961777E-002;4.501634277403355E-003;-2.518347697332501E-003;
2.420500000000000E+009;1.514452397823334E-001;-9.970495849847794E-002;4.625248257070780E-003;-2.769300714135170E-003;
2.420666666666667E+009;1.516707539558411E-001;-9.989219903945923E-002;4.461653996258974E-003;-2.980766352266073E-003;
2.420833333333334E+009;1.519096344709396E-001;-1.001583039760590E-001;4.367829300463200E-003;-3.177872160449624E-003;
2.421000000000000E+009;1.522157937288284E-001;-1.002705320715904E-001;4.530331585556269E-003;-3.517894772812724E-003;
2.421166666666667E+009;1.523789614439011E-001;-1.003275960683823E-001;4.346936009824276E-003;-3.696650499477983E-003;
2.421333333333334E+009;1.526663750410080E-001;-1.002717837691307E-001;4.205153789371252E-003;-4.022998735308647E-003;
2.421500000000000E+009;1.525093466043472E-001;-1.002178043127060E-001;4.145749378949404E-003;-4.167789593338966E-003;
2.421666666666667E+009;1.525729298591614E-001;-1.001229509711266E-001;3.933571744710207E-003;-4.370545502752066E-003;
2.421833333333334E+009;1.526296883821487E-001;-9.981207549571991E-002;3.998156171292067E-003;-4.696172662079334E-003;
2.422000000000000E+009;1.523940861225128E-001;-9.960925579071045E-002;3.695305902510881E-003;-4.892162512987852E-003;
2.422166666666667E+009;1.522007137537003E-001;-9.952230751514435E-002;3.539700526744127E-003;-5.229355767369270E-003;
2.422333333333334E+009;1.518157869577408E-001;-9.919434785842896E-002;3.282599616795778E-003;-5.526855122298002E-003;
2.422500000000000E+009;1.513441652059555E-001;-9.888147562742233E-002;3.196532605215907E-003;-5.708225537091494E-003;
2.422666666666667E+009;1.507940739393234E-001;-9.868814796209335E-002;2.807013224810362E-003;-5.807163659483194E-003;
2.422833333333334E+009;1.500520855188370E-001;-9.823259711265564E-002;2.611561678349972E-003;-5.985232535749674E-003;
2.423000000000000E+009;1.491329371929169E-001;-9.796247631311417E-002;2.206506673246622E-003;-6.196619942784309E-003;
2.423166666666667E+009;1.484307050704956E-001;-9.774854034185410E-002;1.914185006171465E-003;-6.253976374864578E-003;
2.423333333333334E+009;1.475776880979538E-001;-9.721527248620987E-002;1.623093383386731E-003;-6.282432004809380E-003;
2.423500000000000E+009;1.462647467851639E-001;-9.701935946941376E-002;1.510786940343678E-003;-6.406046450138092E-003;
2.423666666666667E+009;1.450255811214447E-001;-9.687037765979767E-002;1.036424422636628E-003;-6.472960580140352E-003;
2.423833333333334E+009;1.438496410846710E-001;-9.654081612825394E-002;8.044757996685803E-004;-6.557507906109095E-003;
2.424000000000000E+009;1.424955874681473E-001;-9.615573287010193E-002;5.355715402401984E-004;-6.480772979557514E-003;
2.424166666666667E+009;1.412393301725388E-001;-9.622011333703995E-002;1.429644325980917E-004;-6.608240772038698E-003;
2.424333333333334E+009;1.399459838867188E-001;-9.602952003479004E-002;-9.352214692626149E-005;-6.483981851488352E-003;
2.424500000000000E+009;1.385514140129089E-001;-9.604015201330185E-002;-5.236483411863446E-004;-6.641058716922998E-003;
2.424666666666667E+009;1.372917592525482E-001;-9.606070816516876E-002;-7.233436917886138E-004;-6.644866429269314E-003;
2.424833333333334E+009;1.356579661369324E-001;-9.629479795694351E-002;-8.679840248078108E-004;-6.495479494333267E-003;
2.425000000000000E+009;1.342234313488007E-001;-9.669262170791626E-002;-1.320010749623179E-003;-6.510792765766382E-003;
2.425166666666667E+009;1.325478404760361E-001;-9.705894440412521E-002;-1.642458490096033E-003;-6.316160783171654E-003;
2.425333333333334E+009;1.311418265104294E-001;-9.762475639581680E-002;-1.907236641272903E-003;-6.292616482824087E-003;
2.425500000000000E+009;1.297701448202133E-001;-9.830152988433838E-002;-2.040558028966188E-003;-6.216918583959341E-003;
2.425666666666667E+009;1.281168907880783E-001;-9.893465042114258E-002;-2.433040412142873E-003;-6.036412436515093E-003;
2.425833333333334E+009;1.267592757940292E-001;-1.000063493847847E-001;-2.605077577754855E-003;-5.863707512617111E-003;
2.426000000000000E+009;1.254064440727234E-001;-1.010373309254646E-001;-2.973890630528331E-003;-5.713983904570341E-003;
2.426166666666667E+009;1.241933405399323E-001;-1.021119728684425E-001;-3.155296668410301E-003;-5.395389162003994E-003;
2.426333333333334E+009;1.227824091911316E-001;-1.033008098602295E-001;-3.353750333189964E-003;-5.252848844975233E-003;
2.426500000000000E+009;1.215602383017540E-001;-1.045216321945190E-001;-3.540765494108200E-003;-5.092420149594545E-003;
2.426666666666667E+009;1.205776110291481E-001;-1.059349402785301E-001;-3.761814441531897E-003;-4.934342578053474E-003;
2.426833333333334E+009;1.193121895194054E-001;-1.073728129267693E-001;-3.760580671951175E-003;-4.571743309497833E-003;
2.427000000000000E+009;1.182128787040710E-001;-1.089693456888199E-001;-3.848042106255889E-003;-4.467919468879700E-003;
2.427166666666667E+009;1.171664670109749E-001;-1.104546934366226E-001;-4.009476397186518E-003;-4.145674407482147E-003;
2.427333333333334E+009;1.162579134106636E-001;-1.121663749217987E-001;-4.108593799173832E-003;-3.931475803256035E-003;
2.427500000000000E+009;1.156083196401596E-001;-1.138243153691292E-001;-4.147413652390242E-003;-3.683131420984864E-003;
2.427666666666667E+009;1.147783994674683E-001;-1.154667586088181E-001;-4.333051387220621E-003;-3.546673106029630E-003;
