# Version 1.00
#
freq[Hz];re:Trc1_S11;im:Trc1_S11;re:Trc2_S21;im:Trc2_S21;
2.400000000000000E+009;1.688855588436127E-001;4.597907513380051E-002;-5.653374828398228E-003;-5.405657575465739E-004;
2.400166666666667E+009;1.700261831283569E-001;4.490617662668228E-002;-5.841019563376904E-003;-3.489422088023275E-004;
2.400333333333334E+009;1.710789203643799E-001;4.378607869148254E-002;-5.804885644465685E-003;-2.069326437776908E-004;
2.400500000000000E+009;1.719456911087036E-001;4.300730675458908E-002;-6.098356097936630E-003;1.573353220010176E-004;
2.400666666666667E+009;1.726820170879364E-001;4.207083582878113E-002;-5.932086147367954E-003;2.788348065223545E-004;
2.400833333333334E+009;1.737778931856155E-001;4.120574519038200E-002;-6.019599270075560E-003;5.005988059565425E-004;
2.401000000000000E+009;1.744133383035660E-001;4.035762324929237E-002;-6.134063936769962E-003;6.687093409709632E-004;
2.401166666666667E+009;1.752307415008545E-001;3.957185521721840E-002;-6.116837728768587E-003;1.101033878512681E-003;
2.401333333333334E+009;1.759340614080429E-001;3.885111212730408E-002;-6.104893516749144E-003;1.390754710882902E-003;
2.401500000000000E+009;1.767501980066299E-001;3.819838166236877E-002;-6.163178477436304E-003;1.436518155969679E-003;
2.401666666666667E+009;1.772760301828384E-001;3.773177415132523E-002;-6.063127424567938E-003;1.825986662879586E-003;
2.401833333333334E+009;1.779173165559769E-001;3.716107830405235E-002;-6.121080368757248E-003;2.138716401532292E-003;
2.402000000000000E+009;1.782289594411850E-001;3.652235865592957E-002;-6.074735429137945E-003;2.342264633625746E-003;
2.402166666666667E+009;1.788037568330765E-001;3.590657562017441E-002;-5.911948624998331E-003;2.742659067735076E-003;
2.402333333333334E+009;1.791155785322189E-001;3.525986149907112E-002;-5.930160637944937E-003;2.996094524860382E-003;
2.402500000000000E+009;1.797173023223877E-001;3.477040305733681E-002;-5.832228343933821E-003;3.178589278832078E-003;
2.402666666666667E+009;1.796950399875641E-001;3.410474956035614E-002;-5.896082147955895E-003;3.598198760300875E-003;
2.402833333333334E+009;1.798453032970429E-001;3.325250744819641E-002;-5.711108911782503E-003;3.977030981332064E-003;
2.403000000000000E+009;1.798351556062698E-001;3.268932923674583E-002;-5.555696785449982E-003;4.242511931806803E-003;
2.403166666666667E+009;1.801207512617111E-001;3.173423558473587E-002;-5.168069154024124E-003;4.367416724562645E-003;
2.403333333333334E+009;1.800389289855957E-001;3.104012645781040E-002;-5.158451851457357E-003;4.688610322773457E-003;
2.403500000000000E+009;1.797904521226883E-001;3.028988093137741E-002;-4.896084778010845E-003;4.989013075828552E-003;
2.403666666666667E+009;1.794416904449463E-001;2.919025532901287E-002;-4.614249337464571E-003;5.075559951364994E-003;
2.403833333333334E+009;1.793848723173142E-001;2.816472575068474E-002;-4.291571676731110E-003;5.288525950163603E-003;
2.404000000000000E+009;1.788661628961563E-001;2.706643939018250E-002;-4.130734596401453E-003;5.581267643719912E-003;
2.404166666666667E+009;1.784365028142929E-001;2.580549567937851E-002;-3.867016173899174E-003;5.847653374075890E-003;
2.404333333333334E+009;1.780999600887299E-001;2.476872690021992E-002;-3.412629943341017E-003;5.937220994383097E-003;
2.404500000000000E+009;1.776105165481567E-001;2.315381541848183E-002;-3.193563316017389E-003;6.036606151610613E-003;
2.404666666666667E+009;1.771095246076584E-001;2.198463119566441E-002;-2.829652046784759E-003;6.055183708667755E-003;
2.404833333333334E+009;1.766236871480942E-001;2.051528729498386E-002;-2.532708924263716E-003;6.224639713764191E-003;
2.405000000000000E+009;1.761748790740967E-001;1.888229139149189E-002;-2.241761656478047E-003;6.087374873459339E-003;
2.405166666666667E+009;1.756627559661865E-001;1.746044121682644E-002;-1.854898291639984E-003;6.262817885726690E-003;
2.405333333333334E+009;1.752074360847473E-001;1.559134200215340E-002;-1.682149479165673E-003;6.256278604269028E-003;
2.405500000000000E+009;1.747051477432251E-001;1.407423522323370E-002;-1.238841912709177E-003;6.189339328557253E-003;
2.405666666666667E+009;1.744313985109329E-001;1.245274208486080E-002;-9.380353149026632E-004;6.067028734833002E-003;
2.405833333333334E+009;1.739004254341126E-001;1.058393158018589E-002;-7.963794050738215E-004;6.049892865121365E-003;
2.406000000000000E+009;1.737789213657379E-001;8.503224700689316E-003;-6.144639919511974E-004;5.978696048259735E-003;
2.406166666666667E+009;1.731899678707123E-001;6.849719677120447E-003;-2.677445882000029E-004;5.850647576153278E-003;
2.406333333333334E+009;1.732411235570908E-001;4.771968349814415E-003;-1.227397151524201E-004;5.713575985282660E-003;
2.406500000000000E+009;1.730452477931976E-001;2.687029074877501E-003;8.280391193693504E-005;5.591470282524824E-003;
2.406666666666667E+009;1.727788895368576E-001;8.626760682091117E-004;2.513098879717290E-004;5.573200061917305E-003;
2.406833333333334E+009;1.729888319969177E-001;-1.334278029389679E-003;3.318871313240379E-004;5.328447557985783E-003;
2.407000000000000E+009;1.730105280876160E-001;-3.457948332652450E-003;4.870716948062182E-004;5.397111177444458E-003;
2.407166666666667E+009;1.731496006250382E-001;-5.392376799136400E-003;6.860870635136962E-004;5.056803114712238E-003;
2.407333333333334E+009;1.732085645198822E-001;-7.606066763401032E-003;8.432394242845476E-004;5.202438682317734E-003;
2.407500000000000E+009;1.734445244073868E-001;-9.618389420211315E-003;8.789874846115708E-004;5.085174459964037E-003;
2.407666666666667E+009;1.736908555030823E-001;-1.173684652894735E-002;9.329326567240059E-004;4.852967802435160E-003;
2.407833333333334E+009;1.739828437566757E-001;-1.393112353980541E-002;1.036506262607873E-003;4.780896939337254E-003;
2.408000000000000E+009;1.743783056735992E-001;-1.617373712360859E-002;1.077288179658353E-003;4.707183688879013E-003;
2.408166666666667E+009;1.746838390827179E-001;-1.795418374240398E-002;1.218639430589974E-003;4.646887537091970E-003;
2.408333333333334E+009;1.751155704259872E-001;-2.008297294378281E-002;1.314512919634581E-003;4.522446542978287E-003;
2.408500000000000E+009;1.753961741924286E-001;-2.215765416622162E-002;1.274924841709435E-003;4.554761573672295E-003;
2.408666666666667E+009;1.758233159780502E-001;-2.398315817117691E-002;1.460585393942893E-003;4.631188232451677E-003;
2.408833333333334E+009;1.762113422155380E-001;-2.574159763753414E-002;1.429228927008808E-003;4.484744742512703E-003;
2.409000000000000E+009;1.763838976621628E-001;-2.746689505875111E-002;1.593499560840428E-003;4.542396869510412E-003;
2.409166666666667E+009;1.769459843635559E-001;-2.893310785293579E-002;1.590189291164279E-003;4.444834310561419E-003;
2.409333333333334E+009;1.771813929080963E-001;-3.043744713068008E-002;1.872424967586994E-003;4.519291687756777E-003;
2.409500000000000E+009;1.776874214410782E-001;-3.193578124046326E-002;2.047519199550152E-003;4.610210657119751E-003;
2.409666666666667E+009;1.780577600002289E-001;-3.316386416554451E-002;2.239615190774202E-003;4.543234128504992E-003;
2.409833333333334E+009;1.785335689783096E-001;-3.396438062191010E-002;2.208036603406072E-003;4.479662049561739E-003;
2.410000000000000E+009;1.790925115346909E-001;-3.505638241767883E-002;2.427163068205118E-003;4.426603205502033E-003;
2.410166666666667E+009;1.793886274099350E-001;-3.605028614401817E-002;2.511011902242899E-003;4.336314275860786E-003;
2.410333333333334E+009;1.798195987939835E-001;-3.675613552331924E-002;2.920179860666394E-003;4.387626424431801E-003;
2.410500000000000E+009;1.802987009286881E-001;-3.756798431277275E-002;2.985732164233923E-003;4.306998103857040E-003;
2.410666666666667E+009;1.804846078157425E-001;-3.843957930803299E-002;3.064099699258804E-003;4.184554796665907E-003;
2.410833333333334E+009;1.811549365520477E-001;-3.886135667562485E-002;3.246276872232556E-003;4.119308199733496E-003;
2.411000000000000E+009;1.811391115188599E-001;-3.937072306871414E-002;3.412874415516853E-003;3.936950117349625E-003;
2.411166666666667E+009;1.814889013767242E-001;-4.014015197753906E-002;3.556452691555023E-003;3.885474056005478E-003;
2.411333333333334E+009;1.815683394670487E-001;-4.032973945140839E-002;3.629534738138318E-003;3.658474190160632E-003;
2.411500000000000E+009;1.814897209405899E-001;-4.094672575592995E-002;3.878374584019184E-003;3.577491967007518E-003;
2.411666666666667E+009;1.817471385002136E-001;-4.124377667903900E-002;3.988097887486219E-003;3.558689961209893E-003;
2.411833333333334E+009;1.816372126340866E-001;-4.161618277430534E-002;4.213464912027121E-003;3.141174092888832E-003;
2.412000000000000E+009;1.814957112073898E-001;-4.218741133809090E-002;4.334898199886084E-003;3.051673294976354E-003;
2.412166666666667E+009;1.809156090021133E-001;-4.240235686302185E-002;4.331079311668873E-003;2.901022555306554E-003;
2.412333333333334E+009;1.811115741729736E-001;-4.275152459740639E-002;4.496871493756771E-003;2.805782482028008E-003;
2.412500000000000E+009;1.803445667028427E-001;-4.312610626220703E-002;4.480357747524977E-003;2.597262151539326E-003;
2.412666666666667E+009;1.798941045999527E-001;-4.353437945246697E-002;4.502364899963141E-003;2.330244053155184E-003;
2.412833333333334E+009;1.791139096021652E-001;-4.376503080129623E-002;4.660728853195906E-003;2.235192805528641E-003;
2.413000000000000E+009;1.784000992774963E-001;-4.423975571990013E-002;4.714877344667912E-003;2.142311772331595E-003;
2.413166666666667E+009;1.775870621204376E-001;-4.445557296276093E-002;4.832137841731310E-003;1.937049208208919E-003;
2.413333333333334E+009;1.766490191221237E-001;-4.499923065304756E-002;4.786511417478323E-003;1.744659151881933E-003;
2.413500000000000E+009;1.758430451154709E-001;-4.541308432817459E-002;4.820723086595535E-003;1.442844979465008E-003;
2.413666666666667E+009;1.748132258653641E-001;-4.580765590071678E-002;4.827263765037060E-003;1.315053319558501E-003;
2.413833333333334E+009;1.737150400876999E-001;-4.647172987461090E-002;4.856855142861605E-003;1.168484217487276E-003;
2.414000000000000E+009;1.724210381507874E-001;-4.727483540773392E-002;4.876464139670134E-003;8.722139173187316E-004;
2.414166666666667E+009;1.715136468410492E-001;-4.784373566508293E-002;4.807747434824705E-003;8.204608457162976E-004;
2.414333333333334E+009;1.702814251184464E-001;-4.841973260045052E-002;4.903188440948725E-003;6.214054883457720E-004;
2.414500000000000E+009;1.692410558462143E-001;-4.938860237598419E-002;4.766594152897596E-003;3.498489677440375E-004;
2.414666666666667E+009;1.679097563028336E-001;-5.044934526085854E-002;4.862151574343443E-003;3.240098303649575E-004;
2.414833333333334E+009;1.667232513427734E-001;-5.150268971920013E-002;4.697579890489578E-003;7.757791172480211E-005;
2.415000000000000E+009;1.654401719570160E-001;-5.249097943305969E-002;4.595023579895496E-003;-2.415946619294118E-005;
2.415166666666667E+009;1.642769128084183E-001;-5.373827368021011E-002;4.552843514829874E-003;-1.417396269971505E-004;
2.415333333333334E+009;1.633349061012268E-001;-5.507606267929077E-002;4.479744471609592E-003;-3.215034375898540E-004;
2.415500000000000E+009;1.620763540267944E-001;-5.646754801273346E-002;4.279463551938534E-003;-3.743069246411324E-004;
2.415666666666667E+009;1.610209047794342E-001;-5.782772228121758E-002;4.193560685962439E-003;-4.087366105522960E-004;
2.415833333333334E+009;1.599579751491547E-001;-5.947265028953552E-002;4.268909338861704E-003;-6.233820458874106E-004;
2.416000000000000E+009;1.586950570344925E-001;-6.110583618283272E-002;3.947270568460226E-003;-6.579929031431675E-004;
2.416166666666667E+009;1.579181998968124E-001;-6.283134222030640E-002;3.903737990185618E-003;-6.446964107453823E-004;
2.416333333333334E+009;1.569393128156662E-001;-6.460462510585785E-002;3.852256806567311E-003;-7.176155922934413E-004;
2.416500000000000E+009;1.560081094503403E-001;-6.648459285497665E-002;3.846845356747508E-003;-9.620318305678666E-004;
2.416666666666667E+009;1.550685912370682E-001;-6.823424249887466E-002;3.676519962027669E-003;-8.213947294279933E-004;
2.416833333333334E+009;1.543474346399307E-001;-7.034186273813248E-002;3.647981677204371E-003;-7.300863508135080E-004;
2.417000000000000E+009;1.534254997968674E-001;-7.228010147809982E-002;3.641379764303565E-003;-7.890619453974068E-004;
2.417166666666667E+009;1.526640057563782E-001;-7.413566857576370E-002;3.652377519756556E-003;-8.681099279783666E-004;
2.417333333333334E+009;1.521518230438232E-001;-7.596378773450851E-002;3.495071083307266E-003;-7.445756928063929E-004;
2.417500000000000E+009;1.514873653650284E-001;-7.806041091680527E-002;3.562433412298560E-003;-6.907896604388952E-004;
2.417666666666667E+009;1.510628461837769E-001;-7.974486052989960E-002;3.446442307904363E-003;-7.525258697569370E-004;
2.417833333333334E+009;1.506315469741821E-001;-8.169362694025040E-002;3.575815586373210E-003;-7.399491732940078E-004;
2.418000000000000E+009;1.502766609191895E-001;-8.353298157453537E-002;3.666067030280829E-003;-7.489250856451690E-004;
2.418166666666667E+009;1.499320715665817E-001;-8.502721041440964E-002;3.697132226079702E-003;-6.682226085104048E-004;
2.418333333333334E+009;1.498375236988068E-001;-8.691278845071793E-002;3.920851740986109E-003;-7.115195621736348E-004;
2.418500000000000E+009;1.496537774801254E-001;-8.843758702278137E-002;3.879733150824904E-003;-8.919106330722570E-004;
2.418666666666667E+009;1.496149003505707E-001;-9.007441997528076E-002;3.994393162429333E-003;-9.459211723878980E-004;
2.418833333333334E+009;1.493835896253586E-001;-9.141638129949570E-002;4.100412596017122E-003;-1.074712257832289E-003;
2.419000000000000E+009;1.493885368108749E-001;-9.260676056146622E-002;4.274661652743816E-003;-1.115728286094964E-003;
2.419166666666667E+009;1.494916081428528E-001;-9.398365765810013E-002;4.366688430309296E-003;-1.284579397179186E-003;
2.419333333333334E+009;1.495070606470108E-001;-9.488239884376526E-002;4.294578451663256E-003;-1.426042988896370E-003;
2.419500000000000E+009;1.497675627470017E-001;-9.610937535762787E-002;4.561878275126219E-003;-1.696744118817151E-003;
2.419666666666667E+009;1.499924808740616E-001;-9.702765941619873E-002;4.546711221337318E-003;-1.736227772198618E-003;
2.419833333333334E+009;1.501484811306000E-001;-9.767594933509827E-002;4.509831778705120E-003;-2.005757763981819E-003;
2.420000000000000E+009;1.506602168083191E-001;-9.829163551330566E-002;4.696719814091921E-003;-2.240626607090235E-003;
2.420166666666667E+009;1.507540792226791E-001;-9.902026504278183E-002;4.548131953924894E-003;-2.559004817157984E-003;
2.420333333333334E+009;1.510666161775589E-001;-9.940927475690842E-002;4.620776511728764E-003;-2.779367845505476E-003;
2.420500000000000E+009;1.514639407396317E-001;-9.966139495372772E-002;4.632651340216398E-003;-2.892484888434410E-003;
2.420666666666667E+009;1.516964137554169E-001;-9.996351599693298E-002;4.556417465209961E-003;-3.098114859312773E-003;
2.420833333333334E+009;1.517311781644821E-001;-1.002205163240433E-001;4.530788399279118E-003;-3.351502586156130E-003;
2.421000000000000E+009;1.521748900413513E-001;-1.003403514623642E-001;4.391994327306747E-003;-3.698370652273297E-003;
2.421166666666667E+009;1.523000448942184E-001;-1.003728434443474E-001;4.352369811385870E-003;-3.808556590229273E-003;
2.421333333333334E+009;1.525755077600479E-001;-1.005617007613182E-001;4.280459135770798E-003;-3.971394151449204E-003;
2.421500000000000E+009;1.526654958724976E-001;-1.001839488744736E-001;4.129445180296898E-003;-4.388017114251852E-003;
2.421666666666667E+009;1.525411903858185E-001;-1.001425310969353E-001;4.100920632481575E-003;-4.559789318591356E-003;
2.421833333333334E+009;1.526327729225159E-001;-9.995245188474655E-002;3.833484603092074E-003;-4.702962934970856E-003;
2.422000000000000E+009;1.524030864238739E-001;-9.967073053121567E-002;3.748015034943819E-003;-5.168590229004622E-003;
2.422166666666667E+009;1.520913839340210E-001;-9.973137825727463E-002;3.540662350133061E-003;-5.489131435751915E-003;
2.422333333333334E+009;1.519211083650589E-001;-9.914385527372360E-002;3.369948128238320E-003;-5.699914414435625E-003;
2.422500000000000E+009;1.512805670499802E-001;-9.901556372642517E-002;3.132138401269913E-003;-5.719573237001896E-003;
2.422666666666667E+009;1.505775898694992E-001;-9.870882332324982E-002;2.972120884805918E-003;-5.932196043431759E-003;
2.422833333333334E+009;1.501902192831039E-001;-9.843939542770386E-002;2.593716140836477E-003;-6.167471408843994E-003;
2.423000000000000E+009;1.493414342403412E-001;-9.804915636777878E-002;2.305752830579877E-003;-6.343829445540905E-003;
2.423166666666667E+009;1.484850347042084E-001;-9.772764146327972E-002;2.020420040935278E-003;-6.564513314515352E-003;
2.423333333333334E+009;1.472960114479065E-001;-9.729290753602982E-002;1.529119210317731E-003;-6.533233914524317E-003;
2.423500000000000E+009;1.462660729885101E-001;-9.708594530820847E-002;1.256306655704975E-003;-6.463933736085892E-003;
2.423666666666667E+009;1.450012773275375E-001;-9.687541425228119E-002;9.682800155133009E-004;-6.641467101871967E-003;
2.423833333333334E+009;1.438946425914764E-001;-9.655998647212982E-002;7.593233021907508E-004;-6.760155782103539E-003;
2.424000000000000E+009;1.424697637557983E-001;-9.619895368814468E-002;3.987067611888051E-004;-6.822829600423574E-003;
2.424166666666667E+009;1.411179155111313E-001;-9.624005109071732E-002;1.130472373915836E-004;-6.634142249822617E-003;
2.424333333333334E+009;1.399297118186951E-001;-9.594551473855972E-002;-2.598700521048158E-004;-6.732380017638207E-003;
2.424500000000000E+009;1.384392529726028E-001;-9.607842564582825E-002;-5.687199882231653E-004;-6.632578093558550E-003;
2.424666666666667E+009;1.372718811035156E-001;-9.597313404083252E-002;-7.716690888628364E-004;-6.624171510338783E-003;
2.424833333333334E+009;1.355862170457840E-001;-9.626591950654984E-002;-1.117783831432462E-003;-6.730379536747932E-003;
2.425000000000000E+009;1.341699659824371E-001;-9.655766934156418E-002;-1.476633595302701E-003;-6.567253265529871E-003;
2.425166666666667E+009;1.326335966587067E-001;-9.710291773080826E-002;-1.647944562137127E-003;-6.606335286051035E-003;
2.425333333333334E+009;1.312685012817383E-001;-9.747126698493958E-002;-2.028598682954907E-003;-6.327335257083178E-003;
2.425500000000000E+009;1.298775821924210E-001;-9.821404516696930E-002;-2.245042240247130E-003;-6.099514663219452E-003;
2.425666666666667E+009;1.281709074974060E-001;-9.897904843091965E-002;-2.549934666603804E-003;-6.112521514296532E-003;
2.425833333333334E+009;1.268443018198013E-001;-9.987992048263550E-002;-2.767528407275677E-003;-5.980226676911116E-003;
2.426000000000000E+009;1.254228204488754E-001;-1.009005382657051E-001;-2.978465752676129E-003;-5.731803830713034E-003;
2.426166666666667E+009;1.242190524935722E-001;-1.020870655775070E-001;-3.309530671685934E-003;-5.458139814436436E-003;
2.426333333333334E+009;1.228515133261681E-001;-1.033100634813309E-001;-3.475112607702613E-003;-5.343134980648756E-003;
2.426500000000000E+009;1.214893981814385E-001;-1.045001596212387E-001;-3.681972157210112E-003;-4.932709503918886E-003;
2.426666666666667E+009;1.205044016242027E-001;-1.058183610439301E-001;-3.804841078817844E-003;-4.889387171715498E-003;
2.426833333333334E+009;1.193304285407066E-001;-1.073027178645134E-001;-3.949733916670084E-003;-4.525593016296625E-003;
2.427000000000000E+009;1.182274818420410E-001;-1.089366003870964E-001;-3.859032178297639E-003;-4.523130599409342E-003;
2.427166666666667E+009;1.171885132789612E-001;-1.103982850909233E-001;-4.168087150901556E-003;-4.003971815109253E-003;
2.427333333333334E+009;1.163029894232750E-001;-1.120846569538117E-001;-4.225775599479675E-003;-3.874195739626885E-003;
2.427500000000000E+009;1.156111881136894E-001;-1.136998832225800E-001;-4.344920627772808E-003;-3.675058716908097E-003;
2.427666666666667E+009;1.148862168192864E-001;-1.155331954360008E-001;-4.453546367585659E-003;-3.375934902578592E-003;
