# Version 1.00
#
freq[Hz];re:Trc1_S11;im:Trc1_S11;re:Trc2_S21;im:Trc2_S21;
2.400000000000000E+009;1.688842922449112E-001;4.607307538390160E-002;-5.769459996372461E-003;-5.137558910064399E-004;
2.400166666666667E+009;1.699406206607819E-001;4.509091377258301E-002;-5.843839608132839E-003;-4.535641637630761E-004;
2.400333333333334E+009;1.708426177501679E-001;4.400102794170380E-002;-5.913677159696817E-003;-1.708057970972732E-004;
2.400500000000000E+009;1.719896644353867E-001;4.290395975112915E-002;-5.968617741018534E-003;8.681935287313536E-005;
2.400666666666667E+009;1.726427525281906E-001;4.196986556053162E-002;-6.088573019951582E-003;3.028663049917668E-004;
2.400833333333334E+009;1.737585514783859E-001;4.136465117335320E-002;-6.050782278180122E-003;5.791438161395490E-004;
2.401000000000000E+009;1.745037734508514E-001;4.034351930022240E-002;-6.143643520772457E-003;7.285379106178880E-004;
2.401166666666667E+009;1.753654032945633E-001;3.963046520948410E-002;-6.103894673287869E-003;1.122350804507732E-003;
2.401333333333334E+009;1.759181022644043E-001;3.897706791758537E-002;-6.147770211100578E-003;1.232543028891087E-003;
2.401500000000000E+009;1.766982823610306E-001;3.843826055526733E-002;-6.211000494658947E-003;1.573190675117075E-003;
2.401666666666667E+009;1.773073375225067E-001;3.795515000820160E-002;-6.137250922620297E-003;1.821061479859054E-003;
2.401833333333334E+009;1.780967414379120E-001;3.728462010622025E-002;-6.147758103907108E-003;2.193795749917626E-003;
2.402000000000000E+009;1.783665269613266E-001;3.652692586183548E-002;-6.019741296768189E-003;2.473655156791210E-003;
2.402166666666667E+009;1.788230240345001E-001;3.588034212589264E-002;-6.002401001751423E-003;2.655147574841976E-003;
2.402333333333334E+009;1.790105998516083E-001;3.527447953820229E-002;-5.859738681465387E-003;3.028866369277239E-003;
2.402500000000000E+009;1.794936060905457E-001;3.469895198941231E-002;-5.778557155281305E-003;3.389175515621901E-003;
2.402666666666667E+009;1.797659695148468E-001;3.423913195729256E-002;-5.746828392148018E-003;3.427747637033463E-003;
2.402833333333334E+009;1.799985021352768E-001;3.336212411522865E-002;-5.733068101108074E-003;3.941186703741550E-003;
2.403000000000000E+009;1.800145357847214E-001;3.271687775850296E-002;-5.512198898941279E-003;4.152934532612562E-003;
2.403166666666667E+009;1.799067109823227E-001;3.174528852105141E-002;-5.210848059505224E-003;4.506023600697517E-003;
2.403333333333334E+009;1.799442172050476E-001;3.106337413191795E-002;-5.033689085394144E-003;4.735691472887993E-003;
2.403500000000000E+009;1.797947734594345E-001;3.023388050496578E-002;-4.991436377167702E-003;4.985237494111061E-003;
2.403666666666667E+009;1.796069890260696E-001;2.925896458327770E-002;-4.511140286922455E-003;5.382442381232977E-003;
2.403833333333334E+009;1.793039441108704E-001;2.821823768317699E-002;-4.308344330638647E-003;5.371641833335161E-003;
2.404000000000000E+009;1.788951456546783E-001;2.701642736792564E-002;-3.935547545552254E-003;5.725201219320297E-003;
2.404166666666667E+009;1.786294877529144E-001;2.573606558144093E-002;-3.737371647730470E-003;5.953315179795027E-003;
2.404333333333334E+009;1.780320703983307E-001;2.467881888151169E-002;-3.401008667424321E-003;6.062407977879047E-003;
2.404500000000000E+009;1.775153279304504E-001;2.337965928018093E-002;-3.072104183956981E-003;6.272188387811184E-003;
2.404666666666667E+009;1.772033721208572E-001;2.194808050990105E-002;-2.879358828067780E-003;6.252267397940159E-003;
2.404833333333334E+009;1.765941977500916E-001;2.062565833330154E-002;-2.406752668321133E-003;6.237774621695280E-003;
2.405000000000000E+009;1.762155741453171E-001;1.908021792769432E-002;-2.163527067750692E-003;6.330263335257769E-003;
2.405166666666667E+009;1.759151816368103E-001;1.752454042434692E-002;-1.943274750374258E-003;6.336215883493424E-003;
2.405333333333334E+009;1.752999424934387E-001;1.593267731368542E-002;-1.657313900068402E-003;6.213729269802570E-003;
2.405500000000000E+009;1.747688651084900E-001;1.417445763945580E-002;-1.177942031063139E-003;6.101166829466820E-003;
2.405666666666667E+009;1.744114011526108E-001;1.231709960848093E-002;-1.038163201883435E-003;6.335807498544455E-003;
2.405833333333334E+009;1.740333884954453E-001;1.065332069993019E-002;-7.607903680764139E-004;6.088166031986475E-003;
2.406000000000000E+009;1.738368123769760E-001;8.619931526482105E-003;-4.459742631297559E-004;6.145636551082134E-003;
2.406166666666667E+009;1.732905656099320E-001;6.855146493762732E-003;-2.410161832813174E-004;5.835258867591620E-003;
2.406333333333334E+009;1.732834577560425E-001;4.839182365685701E-003;1.136930004577152E-004;5.867847241461277E-003;
2.406500000000000E+009;1.732713729143143E-001;2.796747023239732E-003;1.049951970344409E-004;5.716855172067881E-003;
2.406666666666667E+009;1.729008108377457E-001;8.778927149251103E-004;5.174753605388105E-004;5.589619278907776E-003;
2.406833333333334E+009;1.730380803346634E-001;-1.385167706757784E-003;5.173089448362589E-004;5.269309040158987E-003;
2.407000000000000E+009;1.731089353561401E-001;-3.434596816077828E-003;6.457445560954511E-004;5.217682104557753E-003;
2.407166666666667E+009;1.732047200202942E-001;-5.263271741569042E-003;9.081435273401439E-004;5.215828306972981E-003;
2.407333333333334E+009;1.733117997646332E-001;-7.609630469232798E-003;7.953398744575679E-004;5.136123392730951E-003;
2.407500000000000E+009;1.735436767339706E-001;-9.678104892373085E-003;9.518421138636768E-004;4.977476783096790E-003;
2.407666666666667E+009;1.737899929285049E-001;-1.172795612365007E-002;9.879544377326965E-004;4.944519605487585E-003;
2.407833333333334E+009;1.740923672914505E-001;-1.401411183178425E-002;1.096074818633497E-003;4.811574704945087E-003;
2.408000000000000E+009;1.743174940347672E-001;-1.618156209588051E-002;1.269397907890379E-003;4.687377717345953E-003;
2.408166666666667E+009;1.747328341007233E-001;-1.815326884388924E-002;1.117117586545646E-003;4.653565119951963E-003;
2.408333333333334E+009;1.751984059810638E-001;-2.007461525499821E-002;1.246910542249680E-003;4.460523370653391E-003;
2.408500000000000E+009;1.754237413406372E-001;-2.212034165859222E-002;1.338701928034425E-003;4.780373070389032E-003;
2.408666666666667E+009;1.758995652198792E-001;-2.403603494167328E-002;1.604360062628985E-003;4.633055534213781E-003;
2.408833333333334E+009;1.761311441659927E-001;-2.580889500677586E-002;1.560179283842444E-003;4.442527424544096E-003;
2.409000000000000E+009;1.763794422149658E-001;-2.738561294972897E-002;1.596864080056548E-003;4.559525754302740E-003;
2.409166666666667E+009;1.768908798694611E-001;-2.905027940869331E-002;1.810766407288611E-003;4.542234819382429E-003;
2.409333333333334E+009;1.773976534605026E-001;-3.048091754317284E-002;2.011537784710527E-003;4.695071373134852E-003;
2.409500000000000E+009;1.776630133390427E-001;-3.180638700723648E-002;1.852807588875294E-003;4.477513022720814E-003;
2.409666666666667E+009;1.780393421649933E-001;-3.306829556822777E-002;1.990612596273422E-003;4.496434703469276E-003;
2.409833333333334E+009;1.784664839506149E-001;-3.399151563644409E-002;2.177022863179445E-003;4.589845892041922E-003;
2.410000000000000E+009;1.791906505823135E-001;-3.504940867424011E-002;2.371335867792368E-003;4.516731481999159E-003;
2.410166666666667E+009;1.796108335256577E-001;-3.592852503061295E-002;2.487708581611514E-003;4.374237265437841E-003;
2.410333333333334E+009;1.799160540103912E-001;-3.665053844451904E-002;2.619958249852061E-003;4.371680784970522E-003;
2.410500000000000E+009;1.804237365722656E-001;-3.772401064634323E-002;2.971466397866607E-003;4.329985473304987E-003;
2.410666666666667E+009;1.805279403924942E-001;-3.846834972500801E-002;2.934464719146490E-003;4.184175748378038E-003;
2.410833333333334E+009;1.808590739965439E-001;-3.887135908007622E-002;3.194307209923863E-003;4.110557492822409E-003;
2.411000000000000E+009;1.811138391494751E-001;-3.931825608015060E-002;3.343670628964901E-003;3.986734896898270E-003;
2.411166666666667E+009;1.813081651926041E-001;-4.009952023625374E-002;3.489382565021515E-003;3.952331840991974E-003;
2.411333333333334E+009;1.816172748804092E-001;-4.044154286384583E-002;3.733118297532201E-003;3.815951058641076E-003;
2.411500000000000E+009;1.817079484462738E-001;-4.095375910401344E-002;3.896888811141253E-003;3.534317482262850E-003;
2.411666666666667E+009;1.817439794540405E-001;-4.129907488822937E-002;3.967111464589834E-003;3.549618413671851E-003;
2.411833333333334E+009;1.816818416118622E-001;-4.150906950235367E-002;4.126875195652247E-003;3.402139758691192E-003;
2.412000000000000E+009;1.814122647047043E-001;-4.216723889112473E-002;4.283428657799959E-003;3.158187260851264E-003;
2.412166666666667E+009;1.812153905630112E-001;-4.247583448886871E-002;4.439006093889475E-003;2.973569789901376E-003;
2.412333333333334E+009;1.810298413038254E-001;-4.260464385151863E-002;4.439998418092728E-003;2.742756623774767E-003;
2.412500000000000E+009;1.803845614194870E-001;-4.294888302683830E-002;4.558489657938480E-003;2.515490632504225E-003;
2.412666666666667E+009;1.797809153795242E-001;-4.339817166328430E-002;4.731800407171249E-003;2.604782348498702E-003;
2.412833333333334E+009;1.792175769805908E-001;-4.378572851419449E-002;4.529163241386414E-003;2.119419863447547E-003;
2.413000000000000E+009;1.784855574369431E-001;-4.406991600990295E-002;4.684688523411751E-003;2.133258385583758E-003;
2.413166666666667E+009;1.775699853897095E-001;-4.448209330439568E-002;4.903462715446949E-003;1.918179797939956E-003;
2.413333333333334E+009;1.765799224376679E-001;-4.476070404052734E-002;4.772828426212072E-003;1.664970070123673E-003;
2.413500000000000E+009;1.757273674011231E-001;-4.550541192293167E-002;4.837499000132084E-003;1.471353927627206E-003;
2.413666666666667E+009;1.748832315206528E-001;-4.611334204673767E-002;4.916267003864050E-003;1.284477068111301E-003;
2.413833333333334E+009;1.736933439970017E-001;-4.636689275503159E-002;4.700363148003817E-003;1.203363179229200E-003;
2.414000000000000E+009;1.724022626876831E-001;-4.718744382262230E-002;4.825997166335583E-003;8.783353259786964E-004;
2.414166666666667E+009;1.713909059762955E-001;-4.769729077816010E-002;4.821578040719032E-003;6.276001804508269E-004;
2.414333333333334E+009;1.702216863632202E-001;-4.871088638901711E-002;4.633074160665274E-003;6.028990028426051E-004;
2.414500000000000E+009;1.691560298204422E-001;-4.942085966467857E-002;4.768124315887690E-003;3.577050520107150E-004;
2.414666666666667E+009;1.678881645202637E-001;-5.027808621525765E-002;4.659597296267748E-003;2.364775718888268E-004;
2.414833333333334E+009;1.666375994682312E-001;-5.139295384287834E-002;4.758842755109072E-003;8.725496445549652E-005;
2.415000000000000E+009;1.653189510107040E-001;-5.247111991047859E-002;4.625446628779173E-003;7.638692477485165E-005;
2.415166666666667E+009;1.643391251564026E-001;-5.364979431033135E-002;4.439183510839939E-003;-2.258962922496721E-004;
2.415333333333334E+009;1.632993221282959E-001;-5.507802218198776E-002;4.401370417326689E-003;-1.056888577295467E-004;
2.415500000000000E+009;1.621772795915604E-001;-5.646493658423424E-002;4.370509181171656E-003;-2.426403079880402E-004;
2.415666666666667E+009;1.609358042478561E-001;-5.791557580232620E-002;4.193350672721863E-003;-4.339797887951136E-004;
2.415833333333334E+009;1.599918901920319E-001;-5.953036993741989E-002;4.109386354684830E-003;-5.376488552428782E-004;
2.416000000000000E+009;1.587138026952744E-001;-6.116516888141632E-002;3.995573613792658E-003;-5.990207428112626E-004;
2.416166666666667E+009;1.579369306564331E-001;-6.287273019552231E-002;3.968820441514254E-003;-6.399482372216880E-004;
2.416333333333334E+009;1.569322496652603E-001;-6.458624452352524E-002;3.846740117296577E-003;-7.723508169874549E-004;
2.416500000000000E+009;1.559931933879852E-001;-6.650682538747788E-002;3.831776557490230E-003;-7.014960865490139E-004;
2.416666666666667E+009;1.550584733486176E-001;-6.836268305778503E-002;3.583575831726193E-003;-8.446249994449318E-004;
2.416833333333334E+009;1.543468534946442E-001;-7.032177597284317E-002;3.658060915768147E-003;-9.357677190564573E-004;
2.417000000000000E+009;1.533772498369217E-001;-7.237838208675385E-002;3.609818173572421E-003;-7.760497974231839E-004;
2.417166666666667E+009;1.527286767959595E-001;-7.411414384841919E-002;3.438795683905482E-003;-6.968397647142410E-004;
2.417333333333334E+009;1.520279049873352E-001;-7.597898691892624E-002;3.661317517980933E-003;-6.860460853204131E-004;
2.417500000000000E+009;1.515329927206039E-001;-7.802366465330124E-002;3.543688682839274E-003;-8.175402181223035E-004;
2.417666666666667E+009;1.511253267526627E-001;-7.986982166767120E-002;3.563167061656714E-003;-8.814196335151792E-004;
2.417833333333334E+009;1.505964398384094E-001;-8.163402229547501E-002;3.556862007826567E-003;-7.706885226070881E-004;
2.418000000000000E+009;1.502799838781357E-001;-8.345931023359299E-002;3.697480540722609E-003;-7.649175240658224E-004;
2.418166666666667E+009;1.498229503631592E-001;-8.527459949254990E-002;3.669251920655370E-003;-8.643104229122400E-004;
2.418333333333334E+009;1.498325467109680E-001;-8.686512708663940E-002;3.773361211642623E-003;-8.659978630021215E-004;
2.418500000000000E+009;1.497062146663666E-001;-8.841680735349655E-002;3.892296226695180E-003;-8.147954940795898E-004;
2.418666666666667E+009;1.496692001819611E-001;-8.986391872167587E-002;4.075969569385052E-003;-1.067595323547721E-003;
2.418833333333334E+009;1.494148522615433E-001;-9.132193028926849E-002;4.167973995208740E-003;-1.016602967865765E-003;
2.419000000000000E+009;1.494175344705582E-001;-9.264460951089859E-002;4.136582370847464E-003;-1.061465824022889E-003;
2.419166666666667E+009;1.495544165372849E-001;-9.390480071306229E-002;4.261062946170569E-003;-1.283756224438548E-003;
2.419333333333334E+009;1.494638621807098E-001;-9.486418962478638E-002;4.382830578833818E-003;-1.503870007582009E-003;
2.419500000000000E+009;1.496991813182831E-001;-9.609449654817581E-002;4.418733064085245E-003;-1.624504337087274E-003;
2.419666666666667E+009;1.500124931335449E-001;-9.701628983020783E-002;4.342636559158564E-003;-1.758178463205695E-003;
2.419833333333334E+009;1.501452177762985E-001;-9.754806011915207E-002;4.470890387892723E-003;-1.842525554820895E-003;
2.420000000000000E+009;1.504653841257095E-001;-9.833876043558121E-002;4.378747660666704E-003;-2.252524951472879E-003;
2.420166666666667E+009;1.505964249372482E-001;-9.888246655464172E-002;4.465027712285519E-003;-2.500844420865178E-003;
2.420333333333334E+009;1.509634703397751E-001;-9.936101734638214E-002;4.524134099483490E-003;-2.656672615557909E-003;
2.420500000000000E+009;1.514729410409927E-001;-9.974304586648941E-002;4.393559414893389E-003;-2.969619818031788E-003;
2.420666666666667E+009;1.517721712589264E-001;-1.000371947884560E-001;4.490696359425783E-003;-3.125937888398767E-003;
2.420833333333334E+009;1.520212292671204E-001;-1.001156195998192E-001;4.320214502513409E-003;-3.353305859491229E-003;
2.421000000000000E+009;1.520744562149048E-001;-1.002872958779335E-001;4.349781200289726E-003;-3.657364984974265E-003;
2.421166666666667E+009;1.524447500705719E-001;-1.002495065331459E-001;4.356711171567440E-003;-3.883027238771319E-003;
2.421333333333334E+009;1.525907516479492E-001;-1.003118976950645E-001;4.124158062040806E-003;-4.003142938017845E-003;
2.421500000000000E+009;1.525174975395203E-001;-1.002209708094597E-001;4.013839643448591E-003;-4.108553752303124E-003;
2.421666666666667E+009;1.526868641376495E-001;-1.001173332333565E-001;3.949554637074471E-003;-4.350593779236078E-003;
2.421833333333334E+009;1.525384634733200E-001;-9.985947608947754E-002;3.958994057029486E-003;-4.786212928593159E-003;
2.422000000000000E+009;1.523583233356476E-001;-9.966877102851868E-002;3.643486183136702E-003;-5.001216661185026E-003;
2.422166666666667E+009;1.521502733230591E-001;-9.959307312965393E-002;3.500570310279727E-003;-5.290138535201550E-003;
2.422333333333334E+009;1.516869664192200E-001;-9.933313727378845E-002;3.302505938336253E-003;-5.492371972650290E-003;
2.422500000000000E+009;1.513269394636154E-001;-9.892917424440384E-002;3.106903517618775E-003;-5.716847721487284E-003;
2.422666666666667E+009;1.505615562200546E-001;-9.870192408561707E-002;2.789040561765432E-003;-5.955884233117104E-003;
2.422833333333334E+009;1.500680893659592E-001;-9.841536730527878E-002;2.486122539266944E-003;-6.055135279893875E-003;
2.423000000000000E+009;1.493139714002609E-001;-9.806831926107407E-002;2.129642991349101E-003;-6.234990898519754E-003;
2.423166666666667E+009;1.485152095556259E-001;-9.777055680751801E-002;1.985366456210613E-003;-6.417979951947928E-003;
2.423333333333334E+009;1.474134474992752E-001;-9.719849377870560E-002;1.528438762761653E-003;-6.546187680214644E-003;
2.423500000000000E+009;1.462612301111221E-001;-9.703514724969864E-002;1.360423048026860E-003;-6.583844311535358E-003;
2.423666666666667E+009;1.449609100818634E-001;-9.686636924743652E-002;1.034831744618714E-003;-6.583224050700665E-003;
2.423833333333334E+009;1.439270824193955E-001;-9.654802829027176E-002;7.691704668104649E-004;-6.607800256460905E-003;
2.424000000000000E+009;1.425555497407913E-001;-9.621385484933853E-002;5.279260803945363E-004;-6.670700851827860E-003;
2.424166666666667E+009;1.410998851060867E-001;-9.610826522111893E-002;1.195958102471195E-004;-6.630956195294857E-003;
2.424333333333334E+009;1.398654729127884E-001;-9.607617557048798E-002;-1.389075769111514E-004;-6.676603108644486E-003;
2.424500000000000E+009;1.385308802127838E-001;-9.606563299894333E-002;-4.855540173593909E-004;-6.671524606645107E-003;
2.424666666666667E+009;1.372212320566177E-001;-9.596489369869232E-002;-7.613722700625658E-004;-6.563820876181126E-003;
2.424833333333334E+009;1.355391591787338E-001;-9.631400555372238E-002;-9.961277246475220E-004;-6.703910417854786E-003;
2.425000000000000E+009;1.341510266065598E-001;-9.657382220029831E-002;-1.277186907827854E-003;-6.669744849205017E-003;
2.425166666666667E+009;1.325158774852753E-001;-9.713196754455566E-002;-1.522284583188593E-003;-6.469529122114182E-003;
2.425333333333334E+009;1.311216354370117E-001;-9.751407802104950E-002;-2.105119638144970E-003;-6.502963602542877E-003;
2.425500000000000E+009;1.298153102397919E-001;-9.816689044237137E-002;-2.239616820588708E-003;-6.215125322341919E-003;
2.425666666666667E+009;1.281710714101791E-001;-9.909392893314362E-002;-2.525360090658069E-003;-6.177440751343966E-003;
2.425833333333334E+009;1.268286257982254E-001;-9.994887560606003E-002;-2.750658662989736E-003;-6.084667053073645E-003;
2.426000000000000E+009;1.254978924989700E-001;-1.009649485349655E-001;-3.036473644897342E-003;-5.801271181553602E-003;
2.426166666666667E+009;1.242343261837959E-001;-1.021092161536217E-001;-3.217589575797319E-003;-5.469104275107384E-003;
2.426333333333334E+009;1.228341609239578E-001;-1.032605394721031E-001;-3.378010354936123E-003;-5.429044831544161E-003;
2.426500000000000E+009;1.216028258204460E-001;-1.045185402035713E-001;-3.577258670702577E-003;-5.132858175784349E-003;
2.426666666666667E+009;1.205722764134407E-001;-1.057880520820618E-001;-3.760103601962328E-003;-4.920306149870157E-003;
2.426833333333334E+009;1.194053217768669E-001;-1.073726788163185E-001;-3.947503864765167E-003;-4.656395874917507E-003;
2.427000000000000E+009;1.181361526250839E-001;-1.089829057455063E-001;-3.987866453826428E-003;-4.428288899362087E-003;
2.427166666666667E+009;1.173051223158836E-001;-1.104198619723320E-001;-4.087809473276138E-003;-4.207669291645289E-003;
2.427333333333334E+009;1.163631975650787E-001;-1.121494919061661E-001;-4.179493058472872E-003;-4.034071695059538E-003;
2.427500000000000E+009;1.155096516013145E-001;-1.137532368302345E-001;-4.236950073391199E-003;-3.799795638769865E-003;
2.427666666666667E+009;1.148058101534843E-001;-1.155632883310318E-001;-4.465506412088871E-003;-3.545489162206650E-003;
