# Version 1.00
#
freq[Hz];re:Trc1_S11;im:Trc1_S11;re:Trc2_S21;im:Trc2_S21;
2.400000000000000E+009;1.690866947174072E-001;4.601541906595230E-002;-5.714276339858770E-003;-6.406510947272182E-004;
2.400166666666667E+009;1.700641214847565E-001;4.485587030649185E-002;-5.742631386965513E-003;-4.238705150783062E-004;
2.400333333333334E+009;1.708467751741409E-001;4.387072846293449E-002;-5.879207979887724E-003;-7.654778892174363E-005;
2.400500000000000E+009;1.718196123838425E-001;4.288396239280701E-002;-6.020730361342430E-003;8.433483890257776E-005;
2.400666666666667E+009;1.726709306240082E-001;4.201750084757805E-002;-5.783561151474714E-003;3.694916376844049E-004;
2.400833333333334E+009;1.736082285642624E-001;4.127181321382523E-002;-6.047708913683891E-003;6.241991068236530E-004;
2.401000000000000E+009;1.743973046541214E-001;4.038844630122185E-002;-6.036436650902033E-003;6.635217578150332E-004;
2.401166666666667E+009;1.753454804420471E-001;3.956909850239754E-002;-6.226023659110069E-003;9.642208460718393E-004;
2.401333333333334E+009;1.758915930986404E-001;3.895699605345726E-002;-6.206587888300419E-003;1.339561422355473E-003;
2.401500000000000E+009;1.767486631870270E-001;3.823714703321457E-002;-6.231288425624371E-003;1.502071507275105E-003;
2.401666666666667E+009;1.774233728647232E-001;3.769526630640030E-002;-6.127865519374609E-003;1.806786516681314E-003;
2.401833333333334E+009;1.780401319265366E-001;3.711295500397682E-002;-6.122815422713757E-003;2.110261004418135E-003;
2.402000000000000E+009;1.784463077783585E-001;3.642788529396057E-002;-6.088357884436846E-003;2.300847787410021E-003;
2.402166666666667E+009;1.787148267030716E-001;3.572199121117592E-002;-6.116436328738928E-003;2.525674412027001E-003;
2.402333333333334E+009;1.791325956583023E-001;3.532284870743752E-002;-5.947103723883629E-003;3.015460213646293E-003;
2.402500000000000E+009;1.796868592500687E-001;3.464045003056526E-002;-5.884560290724039E-003;3.238595556467772E-003;
2.402666666666667E+009;1.797471046447754E-001;3.405722603201866E-002;-5.712667480111122E-003;3.440978936851025E-003;
2.402833333333334E+009;1.797820031642914E-001;3.347529098391533E-002;-5.670063663274050E-003;3.948517609387636E-003;
2.403000000000000E+009;1.799273192882538E-001;3.275576978921890E-002;-5.590185523033142E-003;4.201256204396486E-003;
2.403166666666667E+009;1.800802797079086E-001;3.172419592738152E-002;-5.276273470371962E-003;4.217367153614759E-003;
2.403333333333334E+009;1.798588484525681E-001;3.109219856560230E-002;-4.994280636310577E-003;4.558161366730928E-003;
2.403500000000000E+009;1.796910464763641E-001;3.025893494486809E-002;-4.886077251285315E-003;4.839356523007155E-003;
2.403666666666667E+009;1.795004904270172E-001;2.909183688461781E-002;-4.753292072564364E-003;4.972905386239290E-003;
2.403833333333334E+009;1.794017255306244E-001;2.823134511709213E-002;-4.471718799322844E-003;5.289863795042038E-003;
2.404000000000000E+009;1.788222491741180E-001;2.708382718265057E-002;-4.054078832268715E-003;5.619054194539785E-003;
2.404166666666667E+009;1.785006523132324E-001;2.577134966850281E-002;-3.761314786970615E-003;5.703180562704802E-003;
2.404333333333334E+009;1.780274808406830E-001;2.468232624232769E-002;-3.591250162571669E-003;5.967138335108757E-003;
2.404500000000000E+009;1.775915026664734E-001;2.316083200275898E-002;-3.100008703768253E-003;5.987368058413267E-003;
2.404666666666667E+009;1.771304458379746E-001;2.189962379634380E-002;-2.719634212553501E-003;6.169718690216541E-003;
2.404833333333334E+009;1.765906214714050E-001;2.051574364304543E-002;-2.489261329174042E-003;6.117110140621662E-003;
2.405000000000000E+009;1.760721504688263E-001;1.900730654597282E-002;-2.193060237914324E-003;6.486529950052500E-003;
2.405166666666667E+009;1.757695525884628E-001;1.745773479342461E-002;-1.998026855289936E-003;6.343023851513863E-003;
2.405333333333334E+009;1.753010004758835E-001;1.564936153590679E-002;-1.661740476265550E-003;6.117604207247496E-003;
2.405500000000000E+009;1.748084425926209E-001;1.407249644398689E-002;-1.398040913045406E-003;6.299190688878298E-003;
2.405666666666667E+009;1.744375079870224E-001;1.232650224119425E-002;-1.157920924015343E-003;6.231481675058603E-003;
2.405833333333334E+009;1.739430278539658E-001;1.065514888614416E-002;-6.426086183637381E-004;6.065917667001486E-003;
2.406000000000000E+009;1.737633943557739E-001;8.579341694712639E-003;-5.602165474556387E-004;5.992280784994364E-003;
2.406166666666667E+009;1.733241081237793E-001;6.978179328143597E-003;-3.013891400769353E-004;6.046864669770002E-003;
2.406333333333334E+009;1.732146292924881E-001;4.953271243721247E-003;-1.017719841911458E-004;5.831428337842226E-003;
2.406500000000000E+009;1.729796528816223E-001;2.838816726580262E-003;1.557343930471689E-004;5.655934568494558E-003;
2.406666666666667E+009;1.728290021419525E-001;8.360883221030235E-004;4.472028813324869E-004;5.621750839054585E-003;
2.406833333333334E+009;1.729266643524170E-001;-1.230840338394046E-003;5.372383748181164E-004;5.486357491463423E-003;
2.407000000000000E+009;1.729011088609695E-001;-3.319311654195190E-003;5.253922427073121E-004;5.292729008942843E-003;
2.407166666666667E+009;1.731547564268112E-001;-5.346963182091713E-003;7.381121395155788E-004;5.147759802639484E-003;
2.407333333333334E+009;1.732686012983322E-001;-7.710496895015240E-003;9.359260438941419E-004;5.029307212680578E-003;
2.407500000000000E+009;1.734723448753357E-001;-9.761281311511993E-003;8.913828642107546E-004;4.988727159798145E-003;
2.407666666666667E+009;1.737666577100754E-001;-1.183747313916683E-002;1.010076492093504E-003;4.921358078718185E-003;
2.407833333333334E+009;1.739899218082428E-001;-1.396620925515890E-002;1.112697180360556E-003;4.762179683893919E-003;
2.408000000000000E+009;1.744417548179627E-001;-1.610268279910088E-002;1.240885932929814E-003;4.736776463687420E-003;
2.408166666666667E+009;1.746603846549988E-001;-1.807680912315846E-002;1.223884872160852E-003;4.642622079700232E-003;
2.408333333333334E+009;1.752155721187592E-001;-2.004495449364185E-002;1.306112739257515E-003;4.621508996933699E-003;
2.408500000000000E+009;1.754778176546097E-001;-2.207529172301292E-002;1.483840984292328E-003;4.624969325959683E-003;
2.408666666666667E+009;1.759618371725082E-001;-2.396167628467083E-002;1.601486816070974E-003;4.531372804194689E-003;
2.408833333333334E+009;1.762686371803284E-001;-2.568246610462666E-002;1.525708241388202E-003;4.644609522074461E-003;
2.409000000000000E+009;1.765616685152054E-001;-2.731905318796635E-002;1.658654073253274E-003;4.619912710040808E-003;
2.409166666666667E+009;1.768842339515686E-001;-2.896581031382084E-002;1.786227221600711E-003;4.539140034466982E-003;
2.409333333333334E+009;1.774472296237946E-001;-3.045489266514778E-002;1.823158119805157E-003;4.601596854627132E-003;
2.409500000000000E+009;1.774737089872360E-001;-3.180273622274399E-002;1.952076330780983E-003;4.395526368170977E-003;
2.409666666666667E+009;1.780699789524078E-001;-3.285046294331551E-002;2.186889294534922E-003;4.349306225776672E-003;
2.409833333333334E+009;1.784837543964386E-001;-3.398440405726433E-002;2.290023025125265E-003;4.476492293179035E-003;
2.410000000000000E+009;1.790278404951096E-001;-3.501135110855103E-002;2.456347690895200E-003;4.507296718657017E-003;
2.410166666666667E+009;1.796201616525650E-001;-3.598075360059738E-002;2.494016662240028E-003;4.492936190217733E-003;
2.410333333333334E+009;1.799703240394592E-001;-3.659800440073013E-002;2.768604550510645E-003;4.325128626078367E-003;
2.410500000000000E+009;1.801844388246536E-001;-3.752328455448151E-002;3.007374005392194E-003;4.193848464637995E-003;
2.410666666666667E+009;1.805587261915207E-001;-3.834668919444084E-002;3.252054564654827E-003;4.102469887584448E-003;
2.410833333333334E+009;1.809078156948090E-001;-3.882609680294991E-002;3.352689323946834E-003;4.031054209917784E-003;
2.411000000000000E+009;1.812200099229813E-001;-3.937489166855812E-002;3.336174646392465E-003;3.948978614062071E-003;
2.411166666666667E+009;1.815124154090881E-001;-4.000266641378403E-002;3.668149467557669E-003;3.949668258428574E-003;
2.411333333333334E+009;1.815351694822311E-001;-4.057908803224564E-002;3.721430199220777E-003;3.689479082822800E-003;
2.411500000000000E+009;1.815729141235352E-001;-4.103574901819229E-002;3.860987955704331E-003;3.779629478231072E-003;
2.411666666666667E+009;1.818948388099670E-001;-4.140282422304153E-002;4.100064747035503E-003;3.471818519756198E-003;
2.411833333333334E+009;1.815256774425507E-001;-4.156978800892830E-002;4.242308437824249E-003;3.147454233840108E-003;
2.412000000000000E+009;1.813597083091736E-001;-4.232686758041382E-002;4.248499870300293E-003;3.109138691797853E-003;
2.412166666666667E+009;1.811675727367401E-001;-4.235986992716789E-002;4.317179322242737E-003;2.897130791097879E-003;
2.412333333333334E+009;1.809230744838715E-001;-4.269753396511078E-002;4.520735703408718E-003;2.774312393739820E-003;
2.412500000000000E+009;1.802837699651718E-001;-4.311916977167130E-002;4.626862704753876E-003;2.580462722107768E-003;
2.412666666666667E+009;1.796337515115738E-001;-4.345402494072914E-002;4.551590420305729E-003;2.507795346900821E-003;
2.412833333333334E+009;1.791217476129532E-001;-4.366514831781387E-002;4.731771536171436E-003;2.237732056528330E-003;
2.413000000000000E+009;1.784702241420746E-001;-4.408141970634460E-002;4.668354988098145E-003;2.001368906348944E-003;
2.413166666666667E+009;1.776983886957169E-001;-4.453921318054199E-002;4.815364256501198E-003;1.930712372995913E-003;
2.413333333333334E+009;1.767064630985260E-001;-4.497916623950005E-002;4.738585092127323E-003;1.573260640725493E-003;
2.413500000000000E+009;1.758427917957306E-001;-4.550820589065552E-002;4.845254588872194E-003;1.457101432606578E-003;
2.413666666666667E+009;1.749114841222763E-001;-4.593775421380997E-002;4.846933763474226E-003;1.335278502665460E-003;
2.413833333333334E+009;1.737365126609802E-001;-4.642966389656067E-002;4.834868013858795E-003;1.151178847067058E-003;
2.414000000000000E+009;1.725295335054398E-001;-4.719928652048111E-002;4.752617329359055E-003;9.011671063490212E-004;
2.414166666666667E+009;1.715776622295380E-001;-4.784548282623291E-002;4.919525235891342E-003;7.694087689742446E-004;
2.414333333333334E+009;1.702097207307816E-001;-4.861406236886978E-002;4.854835569858551E-003;5.918960087001324E-004;
2.414500000000000E+009;1.692681312561035E-001;-4.942297935485840E-002;4.736226052045822E-003;4.716538824141026E-004;
2.414666666666667E+009;1.680119335651398E-001;-5.034073442220688E-002;4.853174090385437E-003;3.051361418329179E-004;
2.414833333333334E+009;1.667355448007584E-001;-5.138695612549782E-002;4.666143096983433E-003;1.110844677896239E-004;
2.415000000000000E+009;1.655276119709015E-001;-5.244489759206772E-002;4.470691550523043E-003;-1.181877087219618E-004;
2.415166666666667E+009;1.643756926059723E-001;-5.377187579870224E-002;4.562491085380316E-003;-5.943313954048790E-005;
2.415333333333334E+009;1.633127927780151E-001;-5.518959835171700E-002;4.373934585601091E-003;-3.965091891586781E-004;
2.415500000000000E+009;1.620679944753647E-001;-5.642377957701683E-002;4.349181894212961E-003;-4.473395820241422E-004;
2.415666666666667E+009;1.610905528068543E-001;-5.780726298689842E-002;4.306038375943899E-003;-3.898725262843072E-004;
2.415833333333334E+009;1.599326282739639E-001;-5.953225493431091E-002;4.308260977268219E-003;-5.661934847012162E-004;
2.416000000000000E+009;1.588524430990219E-001;-6.116594746708870E-002;4.047435708343983E-003;-5.816982011310756E-004;
2.416166666666667E+009;1.579660028219223E-001;-6.285455077886581E-002;3.964652772992849E-003;-5.935779190622270E-004;
2.416333333333334E+009;1.569287180900574E-001;-6.461837142705917E-002;3.869794309139252E-003;-7.161293178796768E-004;
2.416500000000000E+009;1.559981554746628E-001;-6.647037714719772E-002;3.736694576218724E-003;-8.441047975793481E-004;
2.416666666666667E+009;1.551059931516647E-001;-6.833942234516144E-002;3.778469748795033E-003;-8.061547996476293E-004;
2.416833333333334E+009;1.542693376541138E-001;-7.033834606409073E-002;3.680917201563716E-003;-8.685595821589232E-004;
2.417000000000000E+009;1.532956510782242E-001;-7.226303219795227E-002;3.737175604328513E-003;-7.642921991646290E-004;
2.417166666666667E+009;1.527505218982697E-001;-7.407286018133164E-002;3.569509601220489E-003;-8.136142278090119E-004;
2.417333333333334E+009;1.520797312259674E-001;-7.597848773002625E-002;3.477178281173110E-003;-6.271607126109302E-004;
2.417500000000000E+009;1.515052467584610E-001;-7.800839096307755E-002;3.479220438748598E-003;-7.445568335242569E-004;
2.417666666666667E+009;1.510982066392899E-001;-7.976868748664856E-002;3.549566026777029E-003;-8.527257596142590E-004;
2.417833333333334E+009;1.507446020841599E-001;-8.156321197748184E-002;3.585368162021041E-003;-6.736720679327846E-004;
2.418000000000000E+009;1.503191292285919E-001;-8.356343954801559E-002;3.805267391726375E-003;-7.750712102279067E-004;
2.418166666666667E+009;1.499196439981461E-001;-8.516610413789749E-002;3.738382132723928E-003;-6.624920642934740E-004;
2.418333333333334E+009;1.499312222003937E-001;-8.685097843408585E-002;4.035577178001404E-003;-8.678820449858904E-004;
2.418500000000000E+009;1.496340930461884E-001;-8.842024207115173E-002;4.101625643670559E-003;-7.380686583928764E-004;
2.418666666666667E+009;1.497836858034134E-001;-8.995093405246735E-002;4.020042717456818E-003;-8.485800353810191E-004;
2.418833333333334E+009;1.494366228580475E-001;-9.145165234804153E-002;4.033993463963270E-003;-9.641214855946600E-004;
2.419000000000000E+009;1.494123935699463E-001;-9.283117204904556E-002;4.215429536998272E-003;-1.049250480718911E-003;
2.419166666666667E+009;1.496495902538300E-001;-9.394497424364090E-002;4.446173086762428E-003;-1.282951561734080E-003;
2.419333333333334E+009;1.495996713638306E-001;-9.485138952732086E-002;4.422895610332489E-003;-1.469397102482617E-003;
2.419500000000000E+009;1.496407538652420E-001;-9.611103683710098E-002;4.388987552374601E-003;-1.755445497110486E-003;
2.419666666666667E+009;1.499733328819275E-001;-9.708698838949204E-002;4.542841110378504E-003;-1.775534357875586E-003;
2.419833333333334E+009;1.500451117753983E-001;-9.766037762165070E-002;4.498177673667669E-003;-2.089313697069883E-003;
2.420000000000000E+009;1.504370272159576E-001;-9.838308393955231E-002;4.733313806355000E-003;-2.081127837300301E-003;
2.420166666666667E+009;1.507832854986191E-001;-9.907470643520355E-002;4.597796127200127E-003;-2.366064814850688E-003;
2.420333333333334E+009;1.511120200157166E-001;-9.941509366035461E-002;4.554460290819407E-003;-2.549988916143775E-003;
2.420500000000000E+009;1.513642519712448E-001;-9.974906593561173E-002;4.610416479408741E-003;-2.817915286868811E-003;
2.420666666666667E+009;1.516096889972687E-001;-9.994619339704514E-002;4.532412160187960E-003;-3.120451467111707E-003;
2.420833333333334E+009;1.518056243658066E-001;-1.002638787031174E-001;4.463150631636381E-003;-3.388940822333098E-003;
2.421000000000000E+009;1.520072668790817E-001;-1.003191322088242E-001;4.408909007906914E-003;-3.520052414387465E-003;
2.421166666666667E+009;1.524026989936829E-001;-1.002611666917801E-001;4.443233367055655E-003;-3.703409573063254E-003;
2.421333333333334E+009;1.524281650781632E-001;-1.003477126359940E-001;4.184918012470007E-003;-4.170283209532499E-003;
2.421500000000000E+009;1.525458991527557E-001;-1.001862734556198E-001;4.220044706016779E-003;-4.302396439015865E-003;
2.421666666666667E+009;1.526687741279602E-001;-1.001216620206833E-001;4.151966422796249E-003;-4.549609031528235E-003;
2.421833333333334E+009;1.526259481906891E-001;-9.998410195112228E-002;4.052388947457075E-003;-4.775850567966700E-003;
2.422000000000000E+009;1.523846089839935E-001;-9.965751320123673E-002;3.671008860692382E-003;-5.015264265239239E-003;
2.422166666666667E+009;1.520140469074249E-001;-9.963128715753555E-002;3.633295651525259E-003;-5.376544781029224E-003;
2.422333333333334E+009;1.517541855573654E-001;-9.936425834894180E-002;3.426585579290986E-003;-5.636977497488260E-003;
2.422500000000000E+009;1.511704474687576E-001;-9.878866374492645E-002;3.098620101809502E-003;-5.765316542237997E-003;
2.422666666666667E+009;1.505496352910996E-001;-9.866971522569656E-002;2.910589100793004E-003;-6.034552119672298E-003;
2.422833333333334E+009;1.498932540416718E-001;-9.832516312599182E-002;2.411009510979056E-003;-6.178701296448708E-003;
2.423000000000000E+009;1.492230147123337E-001;-9.804207831621170E-002;2.190673490986228E-003;-6.202349439263344E-003;
2.423166666666667E+009;1.483062058687210E-001;-9.767568111419678E-002;1.910079387016594E-003;-6.419472862035036E-003;
2.423333333333334E+009;1.473078578710556E-001;-9.728106111288071E-002;1.684356946498156E-003;-6.516917608678341E-003;
2.423500000000000E+009;1.462616175413132E-001;-9.690604358911514E-002;1.300532836467028E-003;-6.469173822551966E-003;
2.423666666666667E+009;1.450547724962235E-001;-9.676681458950043E-002;1.144535723142326E-003;-6.667892448604107E-003;
2.423833333333334E+009;1.437502056360245E-001;-9.655524045228958E-002;7.545639527961612E-004;-6.842018570750952E-003;
2.424000000000000E+009;1.425084769725800E-001;-9.630602598190308E-002;4.133484617341310E-004;-6.711582653224468E-003;
2.424166666666667E+009;1.410822570323944E-001;-9.605529904365540E-002;9.031707122630905E-006;-6.612002849578857E-003;
2.424333333333334E+009;1.399628967046738E-001;-9.595047682523727E-002;-1.732493692543358E-004;-6.732477806508541E-003;
2.424500000000000E+009;1.384248733520508E-001;-9.606324136257172E-002;-4.453177098184824E-004;-6.696530617773533E-003;
2.424666666666667E+009;1.371788978576660E-001;-9.597413241863251E-002;-8.223530021496117E-004;-6.491026841104031E-003;
2.424833333333334E+009;1.355365365743637E-001;-9.619893133640289E-002;-1.047145458869636E-003;-6.616386584937573E-003;
2.425000000000000E+009;1.341303437948227E-001;-9.673461318016052E-002;-1.367343240417540E-003;-6.551811937242746E-003;
2.425166666666667E+009;1.325189918279648E-001;-9.685758501291275E-002;-1.741202548146248E-003;-6.509244441986084E-003;
2.425333333333334E+009;1.310996711254120E-001;-9.744925796985626E-002;-2.004854613915086E-003;-6.399956531822681E-003;
2.425500000000000E+009;1.296884864568710E-001;-9.822927415370941E-002;-2.296376274898648E-003;-6.131429225206375E-003;
2.425666666666667E+009;1.281559616327286E-001;-9.892333298921585E-002;-2.436525421217084E-003;-5.972540937364101E-003;
2.425833333333334E+009;1.268228888511658E-001;-9.983612596988678E-002;-2.775253029540181E-003;-5.974984262138605E-003;
2.426000000000000E+009;1.253992021083832E-001;-1.009344756603241E-001;-2.999948337674141E-003;-5.723231472074986E-003;
2.426166666666667E+009;1.242065653204918E-001;-1.021058037877083E-001;-3.351332154124975E-003;-5.430031102150679E-003;
2.426333333333334E+009;1.227854788303375E-001;-1.032337546348572E-001;-3.451996017247438E-003;-5.231141578406096E-003;
2.426500000000000E+009;1.215963140130043E-001;-1.044831499457359E-001;-3.696919884532690E-003;-5.073790438473225E-003;
2.426666666666667E+009;1.205316185951233E-001;-1.057912781834602E-001;-3.749046009033918E-003;-4.844074137508869E-003;
2.426833333333334E+009;1.193282827734947E-001;-1.073019877076149E-001;-4.008390940725803E-003;-4.587101750075817E-003;
2.427000000000000E+009;1.181187331676483E-001;-1.089869663119316E-001;-4.039760679006577E-003;-4.283689893782139E-003;
2.427166666666667E+009;1.172946020960808E-001;-1.103433743119240E-001;-4.276732448488474E-003;-4.074983764439821E-003;
2.427333333333334E+009;1.162366271018982E-001;-1.120005622506142E-001;-4.062362946569920E-003;-3.888348117470741E-003;
2.427500000000000E+009;1.156372725963593E-001;-1.137513741850853E-001;-4.348406102508307E-003;-3.680501831695437E-003;
2.427666666666667E+009;1.148776486515999E-001;-1.155034080147743E-001;-4.456978291273117E-003;-3.359058639034629E-003;
