# Version 1.00
#
freq[Hz];re:Trc1_S11;im:Trc1_S11;re:Trc2_S21;im:Trc2_S21;
2.400000000000000E+009;1.548547148704529E-001;1.068387255072594E-001;-1.750613912008703E-003;4.178303293883801E-003;
2.400166666666667E+009;1.546768546104431E-001;1.045860871672630E-001;-1.779811806045473E-003;4.189952742308378E-003;
2.400333333333334E+009;1.545893847942352E-001;1.023598909378052E-001;-1.696277642622590E-003;4.461015108972788E-003;
2.400500000000000E+009;1.545384377241135E-001;9.956089407205582E-002;-1.554614980705082E-003;4.683737643063068E-003;
2.400666666666667E+009;1.545635908842087E-001;9.683864563703537E-002;-1.576174516230822E-003;4.651483148336411E-003;
2.400833333333334E+009;1.546176522970200E-001;9.407993406057358E-002;-1.381801906973124E-003;4.867683630436659E-003;
2.401000000000000E+009;1.547094285488129E-001;9.109668433666229E-002;-1.216903096064925E-003;4.939968232065439E-003;
2.401166666666667E+009;1.547017097473145E-001;8.856110274791718E-002;-1.211032387800515E-003;5.177000071853399E-003;
2.401333333333334E+009;1.551219671964645E-001;8.560166507959366E-002;-9.654504247009754E-004;5.238360725343227E-003;
2.401500000000000E+009;1.555973887443543E-001;8.296526223421097E-002;-9.242526139132679E-004;5.425672978162766E-003;
2.401666666666667E+009;1.560137569904327E-001;7.954254746437073E-002;-8.880427922122181E-004;5.851655267179012E-003;
2.401833333333334E+009;1.564060896635056E-001;7.731861621141434E-002;-6.019228021614254E-004;5.626471247524023E-003;
2.402000000000000E+009;1.570380926132202E-001;7.418609410524368E-002;-2.217356231994927E-004;5.916249472647905E-003;
2.402166666666667E+009;1.581478565931320E-001;7.190780341625214E-002;-2.763372904155403E-004;5.971547216176987E-003;
2.402333333333334E+009;1.595825552940369E-001;6.897421926259995E-002;-2.976274117827416E-004;6.280852016061544E-003;
2.402500000000000E+009;1.606365889310837E-001;6.681916862726212E-002;-1.528378779767081E-004;6.067798472940922E-003;
2.402666666666667E+009;1.616758406162262E-001;6.434813886880875E-002;3.642277806648053E-005;6.418510340154171E-003;
2.402833333333334E+009;1.622486263513565E-001;6.196371093392372E-002;1.066988334059715E-003;6.421913858503103E-003;
2.403000000000000E+009;1.639976501464844E-001;5.886537581682205E-002;1.106776646338403E-003;7.016271818429232E-003;
2.403166666666667E+009;1.658385545015335E-001;5.704328045248985E-002;1.425487222149968E-003;6.686029024422169E-003;
2.403333333333334E+009;1.672900319099426E-001;5.494032427668572E-002;1.755232806317508E-003;6.760235410183668E-003;
2.403500000000000E+009;1.690836250782013E-001;5.288888886570931E-002;2.225959207862616E-003;6.869193166494370E-003;
2.403666666666667E+009;1.707966029644013E-001;5.099742114543915E-002;2.330094343051314E-003;6.878115702420473E-003;
2.403833333333334E+009;1.725310981273651E-001;4.910781234502792E-002;3.956069704145193E-003;7.907370105385780E-003;
2.404000000000000E+009;1.738671362400055E-001;4.730014130473137E-002;4.761549644172192E-003;7.130115758627653E-003;
2.404166666666667E+009;1.755681037902832E-001;4.583899676799774E-002;4.160678479820490E-003;4.855037666857243E-003;
2.404333333333334E+009;1.772285103797913E-001;4.422824457287788E-002;5.469244439154863E-003;5.701209884136915E-003;
2.404500000000000E+009;1.787867248058319E-001;4.321129247546196E-002;2.964451210573316E-003;4.239750560373068E-003;
2.404666666666667E+009;1.805348098278046E-001;4.196447134017944E-002;5.100711248815060E-003;5.160693079233170E-003;
2.404833333333334E+009;1.822842359542847E-001;4.074700549244881E-002;5.538938567042351E-003;4.116762895137072E-003;
2.405000000000000E+009;1.835999041795731E-001;4.030607640743256E-002;4.659536294639111E-003;5.190532188862562E-003;
2.405166666666667E+009;1.851363927125931E-001;3.934704884886742E-002;5.960137583315373E-003;4.880570806562901E-003;
2.405333333333334E+009;1.864866614341736E-001;3.908627107739449E-002;5.437493324279785E-003;3.963336814194918E-003;
2.405500000000000E+009;1.879376471042633E-001;3.863425180315971E-002;5.548810586333275E-003;3.721271175891161E-003;
2.405666666666667E+009;1.890781372785568E-001;3.830899670720100E-002;5.552699323743582E-003;3.275112947449088E-003;
2.405833333333334E+009;1.903737485408783E-001;3.804353252053261E-002;5.630844272673130E-003;3.156052902340889E-003;
2.406000000000000E+009;1.914938241243362E-001;3.791697695851326E-002;5.641444120556116E-003;2.907889895141125E-003;
2.406166666666667E+009;1.923911869525909E-001;3.780262172222138E-002;5.707451142370701E-003;2.629271475598216E-003;
2.406333333333334E+009;1.932421028614044E-001;3.793055936694145E-002;5.673022940754890E-003;2.465938916429877E-003;
2.406500000000000E+009;1.940395534038544E-001;3.803227096796036E-002;5.604529287666082E-003;2.053186297416687E-003;
2.406666666666667E+009;1.946723461151123E-001;3.800527006387711E-002;5.585254170000553E-003;1.948534860275686E-003;
2.406833333333334E+009;1.952774077653885E-001;3.806396946310997E-002;5.495729856193066E-003;1.600766321644187E-003;
2.407000000000000E+009;1.956540793180466E-001;3.827483206987381E-002;5.489594303071499E-003;1.542228041216731E-003;
2.407166666666667E+009;1.959397643804550E-001;3.825868293642998E-002;5.534447263926268E-003;1.215852680616081E-003;
2.407333333333334E+009;1.960710883140564E-001;3.846615925431252E-002;5.369881168007851E-003;1.089636469259858E-003;
2.407500000000000E+009;1.959469169378281E-001;3.861136361956596E-002;5.299857817590237E-003;8.962915162555873E-004;
2.407666666666667E+009;1.960882097482681E-001;3.859549015760422E-002;5.320494063198566E-003;8.517127134837210E-004;
2.407833333333334E+009;1.955944895744324E-001;3.841811791062355E-002;5.201536230742931E-003;4.787473590113223E-004;
2.408000000000000E+009;1.955722719430924E-001;3.829223290085793E-002;4.960661754012108E-003;3.076893626712263E-004;
2.408166666666667E+009;1.950149387121201E-001;3.800717368721962E-002;5.101114045828581E-003;1.795091520762071E-004;
2.408333333333334E+009;1.945218443870544E-001;3.751999884843826E-002;4.894473124295473E-003;3.453140379860997E-005;
2.408500000000000E+009;1.938989013433456E-001;3.726564720273018E-002;4.891595337539911E-003;-8.091275230981410E-005;
2.408666666666667E+009;1.932718604803085E-001;3.672467544674873E-002;4.729397594928742E-003;-3.647779813036323E-004;
2.408833333333334E+009;1.926856935024262E-001;3.600089624524117E-002;4.710023291409016E-003;-5.015211063437164E-004;
2.409000000000000E+009;1.917404681444168E-001;3.513946384191513E-002;4.391654860228300E-003;-6.125934305600822E-004;
2.409166666666667E+009;1.908800303936005E-001;3.420767560601234E-002;4.337428137660027E-003;-5.103821167722344E-004;
2.409333333333334E+009;1.899308115243912E-001;3.322285413742065E-002;4.150209017097950E-003;-7.070739520713687E-004;
2.409500000000000E+009;1.889079362154007E-001;3.171408176422119E-002;3.899897448718548E-003;-7.267923792824149E-004;
2.409666666666667E+009;1.879048943519592E-001;3.041821159422398E-002;3.800503211095929E-003;-6.856874679215252E-004;
2.409833333333334E+009;1.867823004722595E-001;2.896927483379841E-002;3.667091252282262E-003;-6.795452209189534E-004;
2.410000000000000E+009;1.857681721448898E-001;2.722639963030815E-002;3.541033016517758E-003;-7.036708993837237E-004;
2.410166666666667E+009;1.848655939102173E-001;2.544261701405048E-002;3.416418796405196E-003;-4.947153502143920E-004;
2.410333333333334E+009;1.838130801916122E-001;2.350985445082188E-002;3.370772581547499E-003;-4.785124619957060E-004;
2.410500000000000E+009;1.829197853803635E-001;2.160564064979553E-002;3.333609784021974E-003;-4.563460825011134E-004;
2.410666666666667E+009;1.818964928388596E-001;1.924956962466240E-002;3.458562307059765E-003;-4.313220852054656E-004;
2.410833333333334E+009;1.813687235116959E-001;1.713120006024838E-002;3.309466876089573E-003;-4.544246185105294E-004;
2.411000000000000E+009;1.805640012025833E-001;1.496549602597952E-002;3.412455087527633E-003;-3.305015561636537E-004;
2.411166666666667E+009;1.798939555883408E-001;1.271941699087620E-002;3.427384188398719E-003;-3.625486278906465E-004;
2.411333333333334E+009;1.794002950191498E-001;1.032931450754404E-002;3.372208215296269E-003;-5.066987941972911E-004;
2.411500000000000E+009;1.788783967494965E-001;7.847113534808159E-003;3.562564495950937E-003;-5.861729732714593E-004;
2.411666666666667E+009;1.787896156311035E-001;5.379925947636366E-003;3.517794655635953E-003;-4.845354123972356E-004;
2.411833333333334E+009;1.785692423582077E-001;3.023846540600061E-003;3.554103896021843E-003;-6.897845887579024E-004;
2.412000000000000E+009;1.787253320217133E-001;4.404055653139949E-004;3.492393763735890E-003;-5.703822826035321E-004;
2.412166666666667E+009;1.786962151527405E-001;-1.859225449152291E-003;3.458729479461908E-003;-5.739178741350770E-004;
2.412333333333334E+009;1.789832264184952E-001;-4.348427522927523E-003;3.461351152509451E-003;-5.095473024994135E-004;
2.412500000000000E+009;1.794426143169403E-001;-6.887709256261587E-003;3.498721634969115E-003;-5.666005308739841E-004;
2.412666666666667E+009;1.798787862062454E-001;-9.395127184689045E-003;3.378526540473104E-003;-7.090652361512184E-004;
2.412833333333334E+009;1.806322634220123E-001;-1.188592612743378E-002;3.496523713693023E-003;-6.891553639434278E-004;
2.413000000000000E+009;1.815701574087143E-001;-1.436874922364950E-002;3.683560295030475E-003;-5.769203999079764E-004;
2.413166666666667E+009;1.823230683803558E-001;-1.650722324848175E-002;3.535469993948937E-003;-8.378274505957961E-004;
2.413333333333334E+009;1.833549290895462E-001;-1.889575459063053E-002;3.562462748959661E-003;-7.818387239240110E-004;
2.413500000000000E+009;1.841682493686676E-001;-2.113499306142330E-002;3.567869309335947E-003;-8.476392249576747E-004;
2.413666666666667E+009;1.853934079408646E-001;-2.344688214361668E-002;3.687028307467699E-003;-9.451177902519703E-004;
2.413833333333334E+009;1.865565925836563E-001;-2.549073845148087E-002;3.809627844020724E-003;-8.005507988855243E-004;
2.414000000000000E+009;1.875958740711212E-001;-2.739474549889565E-002;3.932828549295664E-003;-1.127632567659020E-003;
2.414166666666667E+009;1.888423264026642E-001;-2.930543012917042E-002;4.021707456558943E-003;-1.085182768292725E-003;
2.414333333333334E+009;1.900241672992706E-001;-3.123798035085201E-002;4.022170323878527E-003;-1.426015980541706E-003;
2.414500000000000E+009;1.911699771881104E-001;-3.272869810461998E-002;3.986020106822252E-003;-1.384198432788253E-003;
2.414666666666667E+009;1.925298422574997E-001;-3.428731486201286E-002;4.114311654120684E-003;-1.725822454318404E-003;
2.414833333333334E+009;1.937095522880554E-001;-3.567731007933617E-002;4.036172758787870E-003;-1.863029203377664E-003;
2.415000000000000E+009;1.947046369314194E-001;-3.689372912049294E-002;4.098132718354464E-003;-1.966176787391305E-003;
2.415166666666667E+009;1.961151361465454E-001;-3.805704787373543E-002;4.002153407782316E-003;-2.068368019536138E-003;
2.415333333333334E+009;1.972161531448364E-001;-3.917702659964562E-002;4.027777351438999E-003;-2.274869941174984E-003;
2.415500000000000E+009;1.981881707906723E-001;-3.966638818383217E-002;3.837097901850939E-003;-2.276647137477994E-003;
2.415666666666667E+009;1.992744207382202E-001;-4.057323932647705E-002;3.809767309576273E-003;-2.452814253047109E-003;
2.415833333333334E+009;2.001961022615433E-001;-4.108975082635880E-002;3.887754166498780E-003;-2.515665022656322E-003;
2.416000000000000E+009;2.009671628475189E-001;-4.184518381953239E-002;3.740175627171993E-003;-2.605495974421501E-003;
2.416166666666667E+009;2.016420960426331E-001;-4.230325669050217E-002;3.693951293826103E-003;-2.821747912093997E-003;
2.416333333333334E+009;2.022308707237244E-001;-4.270980879664421E-002;3.477843943983316E-003;-2.897506346926093E-003;
2.416500000000000E+009;2.027825117111206E-001;-4.284430667757988E-002;3.679623128846288E-003;-2.932498464360833E-003;
2.416666666666667E+009;2.029489576816559E-001;-4.331329092383385E-002;3.658530768007040E-003;-3.081218106672168E-003;
2.416833333333334E+009;2.032839357852936E-001;-4.320256412029266E-002;3.645460354164243E-003;-3.224772633984685E-003;
2.417000000000000E+009;2.033189833164215E-001;-4.333810880780220E-002;3.553758375346661E-003;-3.376560052856803E-003;
2.417166666666667E+009;2.031376808881760E-001;-4.318384826183319E-002;3.439989872276783E-003;-3.601001575589180E-003;
2.417333333333334E+009;2.028413712978363E-001;-4.306025058031082E-002;3.572068409994245E-003;-3.637506160885096E-003;
2.417500000000000E+009;2.025954127311707E-001;-4.300808161497116E-002;3.330287523567677E-003;-3.746051108464599E-003;
2.417666666666667E+009;2.021136432886124E-001;-4.283047839999199E-002;3.348104655742645E-003;-3.836352145299316E-003;
2.417833333333334E+009;2.016199529170990E-001;-4.271398112177849E-002;3.301217220723629E-003;-3.987662959843874E-003;
2.418000000000000E+009;2.009579986333847E-001;-4.240933060646057E-002;3.199857659637928E-003;-4.185236990451813E-003;
2.418166666666667E+009;2.001914381980896E-001;-4.232872650027275E-002;3.211247269064188E-003;-4.372018855065107E-003;
2.418333333333334E+009;1.992526054382324E-001;-4.226426407694817E-002;3.111740108579397E-003;-4.464137833565474E-003;
2.418500000000000E+009;1.982820332050324E-001;-4.219742864370346E-002;3.167308401316404E-003;-4.772199783474207E-003;
2.418666666666667E+009;1.972362697124481E-001;-4.199192300438881E-002;2.822771435603499E-003;-4.816901870071888E-003;
2.418833333333334E+009;1.959609687328339E-001;-4.228677600622177E-002;2.870588796213269E-003;-5.000034347176552E-003;
2.419000000000000E+009;1.947938650846481E-001;-4.251956567168236E-002;2.726094098761678E-003;-5.183394532650709E-003;
2.419166666666667E+009;1.934337764978409E-001;-4.284701496362686E-002;2.295027486979961E-003;-5.282434634864330E-003;
2.419333333333334E+009;1.920565068721771E-001;-4.322351142764092E-002;2.315746154636145E-003;-5.537061486393213E-003;
2.419500000000000E+009;1.904863417148590E-001;-4.391409829258919E-002;2.020168816670775E-003;-5.650046281516552E-003;
2.419666666666667E+009;1.888419240713120E-001;-4.476411640644074E-002;1.755189732648432E-003;-5.849086679518223E-003;
2.419833333333334E+009;1.872617006301880E-001;-4.525820165872574E-002;1.538667711429298E-003;-5.824644584208727E-003;
2.420000000000000E+009;1.857478320598602E-001;-4.629125446081162E-002;1.264362246729434E-003;-6.062360014766455E-003;
2.420166666666667E+009;1.840340346097946E-001;-4.717292636632919E-002;1.041173236444593E-003;-6.106515880674124E-003;
2.420333333333334E+009;1.823703199625015E-001;-4.843009635806084E-002;9.381383424624801E-004;-5.865058396011591E-003;
2.420500000000000E+009;1.807202398777008E-001;-4.982590675354004E-002;5.843023536726832E-004;-6.024991627782583E-003;
2.420666666666667E+009;1.790309250354767E-001;-5.093661323189735E-002;3.432775847613812E-004;-5.909945815801621E-003;
2.420833333333334E+009;1.774161905050278E-001;-5.226270854473114E-002;2.910740477091167E-005;-5.980408750474453E-003;
2.421000000000000E+009;1.757183670997620E-001;-5.404243990778923E-002;-9.771074837772176E-005;-5.973984021693468E-003;
2.421166666666667E+009;1.742816418409348E-001;-5.574872344732285E-002;-2.037682570517063E-004;-5.922103766351938E-003;
2.421333333333334E+009;1.727040410041809E-001;-5.726031959056854E-002;-4.128505534026772E-004;-5.848579108715057E-003;
2.421500000000000E+009;1.714549660682678E-001;-5.923053622245789E-002;-5.943163414485753E-004;-5.911865737289190E-003;
2.421666666666667E+009;1.701780110597611E-001;-6.106411293148994E-002;-8.984592859633267E-004;-5.911602173000574E-003;
2.421833333333334E+009;1.690553426742554E-001;-6.291539967060089E-002;-1.081987516954541E-003;-5.906422622501850E-003;
2.422000000000000E+009;1.677103936672211E-001;-6.489586085081101E-002;-1.161797903478146E-003;-5.895473994314671E-003;
2.422166666666667E+009;1.669223010540009E-001;-6.692557781934738E-002;-1.247367821633816E-003;-5.764366593211889E-003;
2.422333333333334E+009;1.659895032644272E-001;-6.911334395408630E-002;-1.611197600141168E-003;-5.855502560734749E-003;
2.422500000000000E+009;1.651681363582611E-001;-7.096173614263535E-002;-1.763466279953718E-003;-5.666716489940882E-003;
2.422666666666667E+009;1.644536107778549E-001;-7.291437685489655E-002;-2.098109805956483E-003;-5.689878948032856E-003;
2.422833333333334E+009;1.639775186777115E-001;-7.508277893066406E-002;-2.272491808980703E-003;-5.625102203339338E-003;
2.423000000000000E+009;1.634408533573151E-001;-7.722694426774979E-002;-2.502982504665852E-003;-5.561022087931633E-003;
2.423166666666667E+009;1.630483567714691E-001;-7.922408729791641E-002;-2.618128200992942E-003;-5.481197964400053E-003;
2.423333333333334E+009;1.628305613994598E-001;-8.120834082365036E-002;-2.974062459543347E-003;-5.161439999938011E-003;
2.423500000000000E+009;1.627466231584549E-001;-8.300036936998367E-002;-3.229829017072916E-003;-5.093829240649939E-003;
2.423666666666667E+009;1.627303808927536E-001;-8.499640226364136E-002;-3.587256418541074E-003;-4.837670829147100E-003;
2.423833333333334E+009;1.626177728176117E-001;-8.670935034751892E-002;-3.645892022177577E-003;-4.675314761698246E-003;
2.424000000000000E+009;1.627727895975113E-001;-8.854701370000839E-002;-3.857831005007029E-003;-4.425031598657370E-003;
2.424166666666667E+009;1.629699617624283E-001;-9.007319808006287E-002;-4.015169572085142E-003;-4.306206945329905E-003;
2.424333333333334E+009;1.630941182374954E-001;-9.158576279878616E-002;-4.137556534260511E-003;-3.938425332307816E-003;
2.424500000000000E+009;1.634969264268875E-001;-9.339392930269241E-002;-4.129544831812382E-003;-3.720107022672892E-003;
2.424666666666667E+009;1.636239141225815E-001;-9.481792896986008E-002;-4.173272754997015E-003;-3.487146226689220E-003;
2.424833333333334E+009;1.643181145191193E-001;-9.597621113061905E-002;-4.246226511895657E-003;-3.237064694985747E-003;
2.425000000000000E+009;1.645278483629227E-001;-9.725713729858398E-002;-4.132354166358709E-003;-3.107413416728377E-003;
2.425166666666667E+009;1.648649573326111E-001;-9.826850146055222E-002;-4.203136544674635E-003;-2.836750587448478E-003;
2.425333333333334E+009;1.651765108108521E-001;-9.926614165306091E-002;-4.418512806296349E-003;-2.712985267862678E-003;
2.425500000000000E+009;1.656736731529236E-001;-1.002796217799187E-001;-4.108991939574480E-003;-2.380200661718845E-003;
2.425666666666667E+009;1.662149131298065E-001;-1.009380891919136E-001;-4.251363687217236E-003;-2.225637668743730E-003;
2.425833333333334E+009;1.663739681243897E-001;-1.017812639474869E-001;-4.134259186685085E-003;-2.042061416432262E-003;
2.426000000000000E+009;1.668181121349335E-001;-1.022188365459442E-001;-4.095287993550301E-003;-1.899251365102828E-003;
2.426166666666667E+009;1.672248840332031E-001;-1.027666404843330E-001;-4.141823854297400E-003;-1.821869635023177E-003;
2.426333333333334E+009;1.673504561185837E-001;-1.030825451016426E-001;-4.084205254912376E-003;-1.731037162244320E-003;
2.426500000000000E+009;1.677023023366928E-001;-1.033534705638886E-001;-3.888443578034639E-003;-1.541983103379607E-003;
2.426666666666667E+009;1.679049581289291E-001;-1.037583276629448E-001;-3.934943117201328E-003;-1.551670837216079E-003;
2.426833333333334E+009;1.681620627641678E-001;-1.039622053503990E-001;-3.732978366315365E-003;-1.398629858158529E-003;
2.427000000000000E+009;1.681417822837830E-001;-1.040841639041901E-001;-3.773017786443234E-003;-1.386412419378758E-003;
2.427166666666667E+009;1.681398898363113E-001;-1.042572706937790E-001;-3.617963520810008E-003;-1.180433318950236E-003;
2.427333333333334E+009;1.679936051368713E-001;-1.044563800096512E-001;-3.746581496670842E-003;-1.191486604511738E-003;
2.427500000000000E+009;1.677459925413132E-001;-1.045638695359230E-001;-3.673092462122440E-003;-1.077825552783907E-003;
2.427666666666667E+009;1.673654913902283E-001;-1.045594289898872E-001;-3.646166762337089E-003;-1.087945303879678E-003;
