# Version 1.00
#
freq[Hz];re:Trc1_S11;im:Trc1_S11;re:Trc2_S21;im:Trc2_S21;
2.400000000000000E+009;1.551428735256195E-001;1.067117601633072E-001;-1.677568070590496E-003;3.937623463571072E-003;
2.400166666666667E+009;1.546824276447296E-001;1.042930483818054E-001;-1.635809545405209E-003;4.351657349616289E-003;
2.400333333333334E+009;1.547721922397614E-001;1.020388007164002E-001;-1.621522242203355E-003;4.455639515072107E-003;
2.400500000000000E+009;1.546426862478256E-001;9.926353394985199E-002;-1.513582305051386E-003;4.489576444029808E-003;
2.400666666666667E+009;1.547874361276627E-001;9.682819992303848E-002;-1.523253973573446E-003;4.716179333627224E-003;
2.400833333333334E+009;1.546452045440674E-001;9.388879686594009E-002;-1.481349463574588E-003;4.774536006152630E-003;
2.401000000000000E+009;1.549408286809921E-001;9.100267291069031E-002;-1.186326146125794E-003;4.973276052623987E-003;
2.401166666666667E+009;1.549701988697052E-001;8.828365057706833E-002;-1.175823970697820E-003;5.059444345533848E-003;
2.401333333333334E+009;1.555172055959702E-001;8.542117476463318E-002;-9.948782389983535E-004;5.253984127193689E-003;
2.401500000000000E+009;1.556262820959091E-001;8.245323598384857E-002;-8.874919731169939E-004;5.374690052121878E-003;
2.401666666666667E+009;1.560819000005722E-001;7.959540188312531E-002;-9.131950791925192E-004;5.570130888372660E-003;
2.401833333333334E+009;1.566371023654938E-001;7.710669189691544E-002;-6.885518669150770E-004;5.581018514931202E-003;
2.402000000000000E+009;1.574768871068955E-001;7.411357760429382E-002;-5.157439736649394E-004;5.926637910306454E-003;
2.402166666666667E+009;1.582723408937454E-001;7.162484526634216E-002;-1.408710377290845E-004;5.833737552165985E-003;
2.402333333333334E+009;1.592089384794235E-001;6.916571408510208E-002;-8.328533294843510E-005;6.012164056301117E-003;
2.402500000000000E+009;1.603790372610092E-001;6.635781377553940E-002;1.880855706986040E-004;5.981951020658016E-003;
2.402666666666667E+009;1.614274531602860E-001;6.399588286876679E-002;4.461841017473489E-004;6.354973651468754E-003;
2.402833333333334E+009;1.626165509223938E-001;6.154137477278709E-002;5.552135407924652E-004;6.389656104147434E-003;
2.403000000000000E+009;1.643405705690384E-001;5.906599387526512E-002;1.031392370350659E-003;6.475208792835474E-003;
2.403166666666667E+009;1.659221798181534E-001;5.703904852271080E-002;1.453950069844723E-003;6.595059763640165E-003;
2.403333333333334E+009;1.673754304647446E-001;5.480054765939713E-002;1.775972195900977E-003;6.815052591264248E-003;
2.403500000000000E+009;1.690483987331390E-001;5.276525765657425E-002;2.202507806941867E-003;6.894987542182207E-003;
2.403666666666667E+009;1.709087193012238E-001;5.072232335805893E-002;2.567796735092998E-003;6.799452472478151E-003;
2.403833333333334E+009;1.723396331071854E-001;4.886172339320183E-002;2.994913375005126E-003;6.566208787262440E-003;
2.404000000000000E+009;1.739542037248612E-001;4.696282744407654E-002;3.411026671528816E-003;6.494258064776659E-003;
2.404166666666667E+009;1.756217479705811E-001;4.562323540449143E-002;3.744918853044510E-003;6.127298809587956E-003;
2.404333333333334E+009;1.773242652416229E-001;4.414542019367218E-002;4.184576217085123E-003;5.841673351824284E-003;
2.404500000000000E+009;1.789062470197678E-001;4.284732416272163E-002;4.353286698460579E-003;5.474428646266460E-003;
2.404666666666667E+009;1.806411892175674E-001;4.151367768645287E-002;4.635390825569630E-003;5.332399159669876E-003;
2.404833333333334E+009;1.821788847446442E-001;4.057473316788673E-002;4.989170935004950E-003;4.924925509840250E-003;
2.405000000000000E+009;1.835568398237228E-001;3.999087214469910E-002;5.132028833031654E-003;4.537126049399376E-003;
2.405166666666667E+009;1.849826127290726E-001;3.933725133538246E-002;5.230045411735773E-003;4.312796983867884E-003;
2.405333333333334E+009;1.864272952079773E-001;3.889748454093933E-002;5.381109192967415E-003;3.967897500842810E-003;
2.405500000000000E+009;1.880330145359039E-001;3.835290297865868E-002;5.428110249340534E-003;3.672647755593061E-003;
2.405666666666667E+009;1.889566481113434E-001;3.805402666330338E-002;5.560979247093201E-003;3.414712380617857E-003;
2.405833333333334E+009;1.903852522373200E-001;3.788731619715691E-002;5.377105902880430E-003;3.077185712754726E-003;
2.406000000000000E+009;1.913965195417404E-001;3.784321993589401E-002;5.667299963533878E-003;2.853535348549485E-003;
2.406166666666667E+009;1.923561692237854E-001;3.750718757510185E-002;5.585237871855497E-003;2.635022625327110E-003;
2.406333333333334E+009;1.933511048555374E-001;3.758587315678597E-002;5.571504589170218E-003;2.295473823323846E-003;
2.406500000000000E+009;1.941293179988861E-001;3.768847510218620E-002;5.517667159438133E-003;2.120474353432655E-003;
2.406666666666667E+009;1.946445852518082E-001;3.777330741286278E-002;5.514090880751610E-003;1.880608964711428E-003;
2.406833333333334E+009;1.952918618917465E-001;3.787353262305260E-002;5.533403716981411E-003;1.659903558902443E-003;
2.407000000000000E+009;1.955661326646805E-001;3.802237659692764E-002;5.540217272937298E-003;1.523018698208034E-003;
2.407166666666667E+009;1.960111707448959E-001;3.796705603599548E-002;5.499171093106270E-003;1.236453535966575E-003;
2.407333333333334E+009;1.959293335676193E-001;3.817359358072281E-002;5.293074063956738E-003;9.350315085612238E-004;
2.407500000000000E+009;1.960381716489792E-001;3.825767338275909E-002;5.330965388566256E-003;8.919472456909716E-004;
2.407666666666667E+009;1.959448307752609E-001;3.812840208411217E-002;5.246143788099289E-003;7.267827168107033E-004;
2.407833333333334E+009;1.955111622810364E-001;3.806421905755997E-002;5.124273244291544E-003;5.266132648102939E-004;
2.408000000000000E+009;1.954985558986664E-001;3.795861080288887E-002;4.941598512232304E-003;3.298841766081750E-004;
2.408166666666667E+009;1.948743760585785E-001;3.768605366349220E-002;4.937272984534502E-003;9.942166070686653E-005;
2.408333333333334E+009;1.944999098777771E-001;3.714960813522339E-002;4.758641589432955E-003;1.280068863707129E-005;
2.408500000000000E+009;1.938232183456421E-001;3.686843812465668E-002;4.691156093031168E-003;-4.875431113759987E-005;
2.408666666666667E+009;1.931997984647751E-001;3.639692813158035E-002;4.590238910168409E-003;-2.492311177775264E-004;
2.408833333333334E+009;1.925531625747681E-001;3.555666282773018E-002;4.473693203181028E-003;-4.874268488492817E-004;
2.409000000000000E+009;1.913997530937195E-001;3.474728763103485E-002;4.270185716450214E-003;-6.401186110451818E-004;
2.409166666666667E+009;1.906736344099045E-001;3.378886729478836E-002;4.099146928638220E-003;-6.074658012948930E-004;
2.409333333333334E+009;1.897046864032745E-001;3.275284543633461E-002;3.869885811582208E-003;-6.586926174350083E-004;
2.409500000000000E+009;1.886109709739685E-001;3.149325400590897E-002;3.816352691501379E-003;-5.911103216931224E-004;
2.409666666666667E+009;1.876804381608963E-001;3.006363473832607E-002;3.604160388931632E-003;-6.490700761787593E-004;
2.409833333333334E+009;1.866820901632309E-001;2.870695106685162E-002;3.548201639205217E-003;-6.354618235491216E-004;
2.410000000000000E+009;1.858157813549042E-001;2.689489722251892E-002;3.478662110865116E-003;-7.167758303694427E-004;
2.410166666666667E+009;1.846751719713211E-001;2.515775151550770E-002;3.360717324540019E-003;-4.774974659085274E-004;
2.410333333333334E+009;1.836527884006500E-001;2.312145382165909E-002;3.415817162021995E-003;-5.574472015723586E-004;
2.410500000000000E+009;1.827853173017502E-001;2.130217105150223E-002;3.484173445031047E-003;-2.896310179494321E-004;
2.410666666666667E+009;1.816993504762650E-001;1.904429681599140E-002;3.376317676156759E-003;-3.638428461272270E-004;
2.410833333333334E+009;1.811574548482895E-001;1.686995476484299E-002;3.401144174858928E-003;-5.093918298371136E-004;
2.411000000000000E+009;1.803506165742874E-001;1.476034242659807E-002;3.323299344629049E-003;-4.581174580380321E-004;
2.411166666666667E+009;1.797231584787369E-001;1.259633898735046E-002;3.400680143386126E-003;-3.574033617042005E-004;
2.411333333333334E+009;1.792585998773575E-001;1.004439871758223E-002;3.491391427814961E-003;-3.453025710768998E-004;
2.411500000000000E+009;1.788455098867416E-001;7.570950314402580E-003;3.451428608968854E-003;-4.547026474028826E-004;
2.411666666666667E+009;1.784831136465073E-001;5.374547559767962E-003;3.379563335329294E-003;-5.213744007050991E-004;
2.411833333333334E+009;1.782641708850861E-001;2.979630371555686E-003;3.384420182555914E-003;-5.076220259070396E-004;
2.412000000000000E+009;1.782875210046768E-001;2.819563378579915E-004;3.403794718906283E-003;-5.514274816960096E-004;
2.412166666666667E+009;1.783842295408249E-001;-2.096707699820399E-003;3.416390391066670E-003;-6.509413360618055E-004;
2.412333333333334E+009;1.786789298057556E-001;-4.591118078678846E-003;3.383168950676918E-003;-4.805490025319159E-004;
2.412500000000000E+009;1.791532188653946E-001;-7.006516214460135E-003;3.378602676093578E-003;-5.334988818503916E-004;
2.412666666666667E+009;1.796837300062180E-001;-9.504577144980431E-003;3.594700712710619E-003;-6.810750928707421E-004;
2.412833333333334E+009;1.803593933582306E-001;-1.198930945247412E-002;3.421001136302948E-003;-6.323444540612400E-004;
2.413000000000000E+009;1.812646389007568E-001;-1.427774596959353E-002;3.498339559882879E-003;-6.144765065982938E-004;
2.413166666666667E+009;1.818925738334656E-001;-1.648501865565777E-002;3.480987390503287E-003;-6.290428573265672E-004;
2.413333333333334E+009;1.829960346221924E-001;-1.902930997312069E-002;3.544202074408531E-003;-7.401158218272030E-004;
2.413500000000000E+009;1.838744282722473E-001;-2.123881131410599E-002;3.697756212204695E-003;-8.211673120968044E-004;
2.413666666666667E+009;1.850892156362534E-001;-2.345526590943337E-002;3.637673333287239E-003;-7.582597900182009E-004;
2.413833333333334E+009;1.861602216959000E-001;-2.549045905470848E-002;3.837844589725137E-003;-9.248446440324187E-004;
2.414000000000000E+009;1.872986108064652E-001;-2.744217030704022E-002;3.857373492792249E-003;-1.100825029425323E-003;
2.414166666666667E+009;1.886490285396576E-001;-2.921303920447826E-002;3.925143275409937E-003;-1.014930079691112E-003;
2.414333333333334E+009;1.897568851709366E-001;-3.130229935050011E-002;4.037577658891678E-003;-1.135474885813892E-003;
2.414500000000000E+009;1.909316033124924E-001;-3.275503963232040E-002;4.053806886076927E-003;-1.408879295922816E-003;
2.414666666666667E+009;1.921352297067642E-001;-3.419287130236626E-002;4.014967475086451E-003;-1.540878321975470E-003;
2.414833333333334E+009;1.932879537343979E-001;-3.566672652959824E-002;4.142151679843664E-003;-1.691902521997690E-003;
2.415000000000000E+009;1.943400800228119E-001;-3.701271489262581E-002;4.012907389551401E-003;-1.837180927395821E-003;
2.415166666666667E+009;1.956484019756317E-001;-3.804440423846245E-002;3.916632384061813E-003;-2.026327187195420E-003;
2.415333333333334E+009;1.968230009078980E-001;-3.900893032550812E-002;4.105843137949705E-003;-2.154942834749818E-003;
2.415500000000000E+009;1.978320628404617E-001;-3.961442410945892E-002;3.893053857609630E-003;-2.370331669226289E-003;
2.415666666666667E+009;1.989425122737885E-001;-4.055772721767426E-002;3.809927031397820E-003;-2.322998596355319E-003;
2.415833333333334E+009;1.997826099395752E-001;-4.116292297840118E-002;3.818246070295572E-003;-2.458156784996390E-003;
2.416000000000000E+009;2.005372792482376E-001;-4.169665277004242E-002;3.742371220141649E-003;-2.582561457529664E-003;
2.416166666666667E+009;2.012684494256973E-001;-4.230028763413429E-002;3.750847419723868E-003;-2.799564274027944E-003;
2.416333333333334E+009;2.019532769918442E-001;-4.253964871168137E-002;3.797129495069385E-003;-2.870253985747695E-003;
2.416500000000000E+009;2.023540586233139E-001;-4.281565174460411E-002;3.729720134288073E-003;-2.963248873129487E-003;
2.416666666666667E+009;2.026824951171875E-001;-4.308034852147102E-002;3.598939394578338E-003;-3.216239158064127E-003;
2.416833333333334E+009;2.028927356004715E-001;-4.298371076583862E-002;3.605878213420510E-003;-3.217805642634630E-003;
2.417000000000000E+009;2.029709219932556E-001;-4.311762377619743E-002;3.592924913391471E-003;-3.447551745921373E-003;
2.417166666666667E+009;2.026887983083725E-001;-4.307278990745544E-002;3.528066677972674E-003;-3.547111060470343E-003;
2.417333333333334E+009;2.024614065885544E-001;-4.287817701697350E-002;3.476605517789722E-003;-3.529257606714964E-003;
2.417500000000000E+009;2.022444456815720E-001;-4.284507408738136E-002;3.247852437198162E-003;-3.685059258714318E-003;
2.417666666666667E+009;2.017258107662201E-001;-4.257023334503174E-002;3.418409964069724E-003;-4.019658081233501E-003;
2.417833333333334E+009;2.012765109539032E-001;-4.246725142002106E-002;3.187709255144000E-003;-3.996689803898335E-003;
2.418000000000000E+009;2.005852162837982E-001;-4.210098087787628E-002;3.218936966732144E-003;-4.071614705026150E-003;
2.418166666666667E+009;1.997684091329575E-001;-4.199128597974777E-002;3.232539165765047E-003;-4.295207094401121E-003;
2.418333333333334E+009;1.989322304725647E-001;-4.180659353733063E-002;3.060036571696401E-003;-4.423449747264385E-003;
2.418500000000000E+009;1.979268044233322E-001;-4.193079471588135E-002;3.069491125643253E-003;-4.668768495321274E-003;
2.418666666666667E+009;1.970290541648865E-001;-4.175278171896935E-002;2.843802794814110E-003;-4.681307822465897E-003;
2.418833333333334E+009;1.956977248191834E-001;-4.193488135933876E-002;2.821073867380619E-003;-4.986013285815716E-003;
2.419000000000000E+009;1.944275945425034E-001;-4.220033437013626E-002;2.621782245114446E-003;-5.164264235645533E-003;
2.419166666666667E+009;1.931712925434113E-001;-4.253097996115685E-002;2.608919050544500E-003;-5.474086850881577E-003;
2.419333333333334E+009;1.917529851198196E-001;-4.297924786806107E-002;2.130497945472598E-003;-5.450226366519928E-003;
2.419500000000000E+009;1.903268396854401E-001;-4.356931895017624E-002;2.114359987899661E-003;-5.592024419456720E-003;
2.419666666666667E+009;1.886156350374222E-001;-4.429874941706657E-002;1.823125872761011E-003;-5.752678029239178E-003;
2.419833333333334E+009;1.869651973247528E-001;-4.500697553157806E-002;1.544616185128689E-003;-5.819750484079123E-003;
2.420000000000000E+009;1.855186372995377E-001;-4.588072746992111E-002;1.323203556239605E-003;-5.914679728448391E-003;
2.420166666666667E+009;1.837939023971558E-001;-4.690400138497353E-002;1.079757232218981E-003;-5.894872825592756E-003;
2.420333333333334E+009;1.821390837430954E-001;-4.809267818927765E-002;8.511171909049153E-004;-5.987286567687988E-003;
2.420500000000000E+009;1.805251985788345E-001;-4.939638823270798E-002;4.463476943783462E-004;-6.051023490726948E-003;
2.420666666666667E+009;1.788048446178436E-001;-5.036202818155289E-002;3.170347481500357E-004;-5.936898291110992E-003;
2.420833333333334E+009;1.771859228610992E-001;-5.204430967569351E-002;1.414939179085195E-004;-5.907335318624973E-003;
2.421000000000000E+009;1.756194382905960E-001;-5.346722900867462E-002;2.842740514097386E-006;-5.896075628697872E-003;
2.421166666666667E+009;1.742746382951737E-001;-5.521462857723236E-002;-2.246442745672539E-004;-5.884245038032532E-003;
2.421333333333334E+009;1.726052314043045E-001;-5.698288604617119E-002;-4.367007059045136E-004;-5.982673261314631E-003;
2.421500000000000E+009;1.712303161621094E-001;-5.871883779764175E-002;-5.244875792413950E-004;-5.833986680954695E-003;
2.421666666666667E+009;1.700919419527054E-001;-6.065762788057327E-002;-7.574968039989471E-004;-5.758395418524742E-003;
2.421833333333334E+009;1.688952147960663E-001;-6.247347965836525E-002;-8.565161842852831E-004;-5.817191675305367E-003;
2.422000000000000E+009;1.677391082048416E-001;-6.433036923408508E-002;-1.030980376526713E-003;-5.817862227559090E-003;
2.422166666666667E+009;1.667388677597046E-001;-6.655698269605637E-002;-1.331910956650972E-003;-5.658010020852089E-003;
2.422333333333334E+009;1.658175736665726E-001;-6.852724403142929E-002;-1.456373138353229E-003;-5.651587620377541E-003;
2.422500000000000E+009;1.649263650178909E-001;-7.051829248666763E-002;-1.782046514563263E-003;-5.772768054157496E-003;
2.422666666666667E+009;1.642806828022003E-001;-7.250379025936127E-002;-1.829612068831921E-003;-5.738718435168266E-003;
2.422833333333334E+009;1.640317291021347E-001;-7.465363293886185E-002;-2.229773206636310E-003;-5.639718379825354E-003;
2.423000000000000E+009;1.632920652627945E-001;-7.673946768045425E-002;-2.405581763014197E-003;-5.514270626008511E-003;
2.423166666666667E+009;1.630658507347107E-001;-7.870691269636154E-002;-2.736058784648776E-003;-5.436492152512074E-003;
2.423333333333334E+009;1.627392172813416E-001;-8.077368885278702E-002;-2.987480023875833E-003;-5.259934812784195E-003;
2.423500000000000E+009;1.627429276704788E-001;-8.263626694679260E-002;-3.225609194487333E-003;-5.114737898111343E-003;
2.423666666666667E+009;1.628514975309372E-001;-8.451772481203079E-002;-3.493073862046003E-003;-4.860977642238140E-003;
2.423833333333334E+009;1.627334505319595E-001;-8.623954653739929E-002;-3.650485770776868E-003;-4.668406676501036E-003;
2.424000000000000E+009;1.628590226173401E-001;-8.809085935354233E-002;-3.840665565803647E-003;-4.439596086740494E-003;
2.424166666666667E+009;1.630994379520416E-001;-8.958800882101059E-002;-4.005389288067818E-003;-4.072425421327353E-003;
2.424333333333334E+009;1.632851660251617E-001;-9.128349274396896E-002;-3.807939589023590E-003;-3.904797835275531E-003;
2.424500000000000E+009;1.634691357612610E-001;-9.287907183170319E-002;-4.186943639069796E-003;-3.632149659097195E-003;
2.424666666666667E+009;1.637600362300873E-001;-9.433430433273315E-002;-4.123215563595295E-003;-3.571963170543313E-003;
2.424833333333334E+009;1.644287556409836E-001;-9.560328722000122E-002;-4.388977307826281E-003;-3.185796318575740E-003;
2.425000000000000E+009;1.647222191095352E-001;-9.678465127944946E-002;-4.241719841957092E-003;-2.997384872287512E-003;
2.425166666666667E+009;1.650831252336502E-001;-9.793861210346222E-002;-4.256275016814470E-003;-2.819984685629606E-003;
2.425333333333334E+009;1.653635948896408E-001;-9.882883727550507E-002;-4.195309244096279E-003;-2.687726169824600E-003;
2.425500000000000E+009;1.658943444490433E-001;-9.975663572549820E-002;-4.107861779630184E-003;-2.320903353393078E-003;
2.425666666666667E+009;1.663434058427811E-001;-1.004480347037315E-001;-4.177310038357973E-003;-2.164559904485941E-003;
2.425833333333334E+009;1.666833907365799E-001;-1.012994796037674E-001;-4.190257750451565E-003;-2.069990383461118E-003;
2.426000000000000E+009;1.670098602771759E-001;-1.016281768679619E-001;-4.113341215997934E-003;-1.827647443860769E-003;
2.426166666666667E+009;1.674934029579163E-001;-1.022357419133186E-001;-4.158759955316782E-003;-1.751120784319937E-003;
2.426333333333334E+009;1.675895601511002E-001;-1.028363108634949E-001;-4.100975580513477E-003;-1.665019895881414E-003;
2.426500000000000E+009;1.679600775241852E-001;-1.030303388834000E-001;-3.892472712323070E-003;-1.529014320112765E-003;
2.426666666666667E+009;1.682943105697632E-001;-1.033356562256813E-001;-3.918927628546953E-003;-1.420943764969707E-003;
2.426833333333334E+009;1.684592962265015E-001;-1.035808697342873E-001;-3.791739000007510E-003;-1.353592495433986E-003;
2.427000000000000E+009;1.684671789407730E-001;-1.037309318780899E-001;-3.695656778290868E-003;-1.207502558827400E-003;
2.427166666666667E+009;1.684737354516983E-001;-1.038681492209435E-001;-3.878353163599968E-003;-1.284106634557247E-003;
2.427333333333334E+009;1.684578210115433E-001;-1.041865721344948E-001;-3.677700180560350E-003;-1.256576040759683E-003;
2.427500000000000E+009;1.682403683662415E-001;-1.042693778872490E-001;-3.715765196830034E-003;-1.101962407119572E-003;
2.427666666666667E+009;1.678321659564972E-001;-1.041855812072754E-001;-3.547590458765626E-003;-9.767849696800113E-004;
