# Version 1.00
#
freq[Hz];re:Trc1_S11;im:Trc1_S11;re:Trc2_S21;im:Trc2_S21;
2.400000000000000E+009;1.688397675752640E-001;4.554608464241028E-002;-2.512510400265455E-003;-1.786620123311877E-003;
2.400166666666667E+009;1.699215024709702E-001;4.458057135343552E-002;-2.607620088383555E-003;-1.816892880015075E-003;
2.400333333333334E+009;1.707785278558731E-001;4.354579746723175E-002;-2.802779432386160E-003;-1.709955977275968E-003;
2.400500000000000E+009;1.719617098569870E-001;4.256952181458473E-002;-2.758910646662116E-003;-1.752188662067056E-003;
2.400666666666667E+009;1.725002676248550E-001;4.159846529364586E-002;-2.856239443644881E-003;-1.682493835687637E-003;
2.400833333333334E+009;1.736125648021698E-001;4.079899936914444E-002;-2.991864690557122E-003;-1.601186813786626E-003;
2.401000000000000E+009;1.742354482412338E-001;4.009868577122688E-002;-3.209457267075777E-003;-1.527726533822715E-003;
2.401166666666667E+009;1.750313639640808E-001;3.921673074364662E-002;-3.300455864518881E-003;-1.392451231367886E-003;
2.401333333333334E+009;1.757675260305405E-001;3.860437870025635E-002;-3.544075647369027E-003;-1.392584526911378E-003;
2.401500000000000E+009;1.766062974929810E-001;3.799518197774887E-002;-3.655317006632686E-003;-1.312799984589219E-003;
2.401666666666667E+009;1.771886199712753E-001;3.753624111413956E-002;-3.790884278714657E-003;-1.060352893546224E-003;
2.401833333333334E+009;1.775585561990738E-001;3.671365231275559E-002;-3.974856343120337E-003;-1.003825105726719E-003;
2.402000000000000E+009;1.779540926218033E-001;3.636015951633453E-002;-4.121783655136824E-003;-7.849558605812490E-004;
2.402166666666667E+009;1.785202473402023E-001;3.562305122613907E-002;-4.328117240220308E-003;-5.538843688555062E-004;
2.402333333333334E+009;1.789336651563644E-001;3.516360372304916E-002;-4.313554149121046E-003;-4.243845469318330E-004;
2.402500000000000E+009;1.794501692056656E-001;3.470301628112793E-002;-4.560222849249840E-003;-8.718447497813031E-005;
2.402666666666667E+009;1.794368177652359E-001;3.399812057614327E-002;-4.496531561017036E-003;-1.543649123050273E-004;
2.402833333333334E+009;1.795644909143448E-001;3.324196115136147E-002;-4.770751576870680E-003;4.178773378953338E-004;
2.403000000000000E+009;1.796147227287293E-001;3.250122815370560E-002;-4.806352779269218E-003;4.598955856636167E-004;
2.403166666666667E+009;1.797595918178558E-001;3.201288357377052E-002;-4.799026064574719E-003;8.068560855463147E-004;
2.403333333333334E+009;1.797112226486206E-001;3.101424500346184E-002;-4.816658794879913E-003;1.046432764269412E-003;
2.403500000000000E+009;1.793628334999085E-001;3.018544800579548E-002;-4.902378655970097E-003;1.428362098522484E-003;
2.403666666666667E+009;1.790470480918884E-001;2.917917631566525E-002;-4.887968301773071E-003;1.654166146181524E-003;
2.403833333333334E+009;1.789187937974930E-001;2.810381911695004E-002;-4.853509832173586E-003;1.759672886691988E-003;
2.404000000000000E+009;1.786071509122849E-001;2.709334529936314E-002;-4.701777826994658E-003;2.181941177695990E-003;
2.404166666666667E+009;1.781783998012543E-001;2.596038952469826E-002;-4.601750988513231E-003;2.462798962369561E-003;
2.404333333333334E+009;1.777412891387940E-001;2.479849383234978E-002;-4.693168681114912E-003;2.740683965384960E-003;
2.404500000000000E+009;1.772954463958740E-001;2.340850979089737E-002;-4.567984957247973E-003;2.912135329097509E-003;
2.404666666666667E+009;1.767961978912354E-001;2.207608707249165E-002;-4.389553330838680E-003;3.214941360056400E-003;
2.404833333333334E+009;1.763305068016052E-001;2.069686912000179E-002;-4.093587398529053E-003;3.507100977003574E-003;
2.405000000000000E+009;1.759222149848938E-001;1.916461996734142E-002;-3.968588542193174E-003;3.855500137433410E-003;
2.405166666666667E+009;1.754611134529114E-001;1.755112037062645E-002;-3.712916281074286E-003;3.915825858712196E-003;
2.405333333333334E+009;1.749933660030365E-001;1.587392576038837E-002;-3.519823076203466E-003;4.166603554040194E-003;
2.405500000000000E+009;1.745757907629013E-001;1.420409418642521E-002;-3.489013295620680E-003;4.354484844952822E-003;
2.405666666666667E+009;1.742387413978577E-001;1.257064938545227E-002;-3.223291365429759E-003;4.577647894620895E-003;
2.405833333333334E+009;1.737123280763626E-001;1.073641981929541E-002;-2.906624227762222E-003;4.698352888226509E-003;
2.406000000000000E+009;1.735590547323227E-001;8.885142393410206E-003;-2.878291532397270E-003;5.034852772951126E-003;
2.406166666666667E+009;1.731856465339661E-001;7.069470360875130E-003;-2.519859233871102E-003;5.080039612948895E-003;
2.406333333333334E+009;1.730999946594238E-001;5.111102480441332E-003;-2.317588077858090E-003;5.297010764479637E-003;
2.406500000000000E+009;1.729533374309540E-001;2.957144519314170E-003;-2.001874614506960E-003;5.443927831947804E-003;
2.406666666666667E+009;1.727256178855896E-001;1.069050747901201E-003;-1.662592752836645E-003;5.389649420976639E-003;
2.406833333333334E+009;1.728727817535400E-001;-1.180947409011424E-003;-1.327286474406719E-003;5.624023266136646E-003;
2.407000000000000E+009;1.729018986225128E-001;-3.190297400578857E-003;-1.077437540516257E-003;5.719995591789484E-003;
2.407166666666667E+009;1.730829030275345E-001;-5.193759687244892E-003;-7.157177315093577E-004;5.806433036923409E-003;
2.407333333333334E+009;1.731188893318176E-001;-7.397109176963568E-003;-4.264440503902733E-004;5.834093317389488E-003;
2.407500000000000E+009;1.734112203121185E-001;-9.431558661162853E-003;-1.147554485214641E-005;5.858478136360645E-003;
2.407666666666667E+009;1.736757457256317E-001;-1.157751586288214E-002;2.226265351055190E-004;5.802835337817669E-003;
2.407833333333334E+009;1.737670898437500E-001;-1.384817156940699E-002;5.364338867366314E-004;5.595757160335779E-003;
2.408000000000000E+009;1.742564290761948E-001;-1.600408926606178E-002;8.000270463526249E-004;5.605459678918123E-003;
2.408166666666667E+009;1.745166033506393E-001;-1.771712489426136E-002;1.250017550773919E-003;5.566084291785955E-003;
2.408333333333334E+009;1.752866506576538E-001;-2.003416046500206E-002;1.475118915550411E-003;5.415490828454495E-003;
2.408500000000000E+009;1.753433495759964E-001;-2.183952927589417E-002;1.648332225158811E-003;5.268004722893238E-003;
2.408666666666667E+009;1.756975501775742E-001;-2.377776429057121E-002;1.866906997747719E-003;5.220648366957903E-003;
2.408833333333334E+009;1.761607080698013E-001;-2.545457519590855E-002;2.119518117979169E-003;5.027083680033684E-003;
2.409000000000000E+009;1.763427108526230E-001;-2.714179269969463E-002;2.385747153311968E-003;4.818797577172518E-003;
2.409166666666667E+009;1.769494116306305E-001;-2.877024374902248E-002;2.482148120179772E-003;4.720741417258978E-003;
2.409333333333334E+009;1.774380356073380E-001;-3.021309338510037E-002;2.770290011540055E-003;4.692117683589459E-003;
2.409500000000000E+009;1.775454878807068E-001;-3.158188611268997E-002;2.989624626934528E-003;4.357900470495224E-003;
2.409666666666667E+009;1.781652569770813E-001;-3.281672671437264E-002;3.265769686549902E-003;4.301062785089016E-003;
2.409833333333334E+009;1.785272061824799E-001;-3.382059559226036E-002;3.434693673625588E-003;4.227520432323217E-003;
2.410000000000000E+009;1.790523827075958E-001;-3.481968119740486E-002;3.496281802654266E-003;3.998173866420984E-003;
2.410166666666667E+009;1.795908659696579E-001;-3.567451238632202E-002;3.721248358488083E-003;3.884241450577974E-003;
2.410333333333334E+009;1.797713190317154E-001;-3.652004897594452E-002;3.885067068040371E-003;3.648295765742660E-003;
2.410500000000000E+009;1.802720725536346E-001;-3.728485479950905E-002;4.117605742067099E-003;3.411964979022741E-003;
2.410666666666667E+009;1.807499229907990E-001;-3.823314234614372E-002;4.230320453643799E-003;3.243173006922007E-003;
2.410833333333334E+009;1.810811907052994E-001;-3.867064416408539E-002;4.446473903954029E-003;3.109338693320751E-003;
2.411000000000000E+009;1.813286393880844E-001;-3.909831121563911E-002;4.583034198731184E-003;2.829486271366477E-003;
2.411166666666667E+009;1.816297769546509E-001;-3.995483741164208E-002;4.792547319084406E-003;2.586203161627054E-003;
2.411333333333334E+009;1.816200911998749E-001;-4.025728628039360E-002;4.919917322695255E-003;2.313682809472084E-003;
2.411500000000000E+009;1.816689968109131E-001;-4.099686816334724E-002;5.057342816144228E-003;1.970845973119140E-003;
2.411666666666667E+009;1.819375306367874E-001;-4.121870175004005E-002;5.136793013662100E-003;1.801001373678446E-003;
2.411833333333334E+009;1.817092597484589E-001;-4.139483347535133E-002;5.164107773452997E-003;1.513149007223547E-003;
2.412000000000000E+009;1.815344840288162E-001;-4.184275865554810E-002;5.233123432844877E-003;1.129029551520944E-003;
2.412166666666667E+009;1.811908930540085E-001;-4.240441322326660E-002;5.227938294410706E-003;9.611886925995350E-004;
2.412333333333334E+009;1.811886578798294E-001;-4.261881858110428E-002;5.229592323303223E-003;3.911849344149232E-004;
2.412500000000000E+009;1.805827468633652E-001;-4.280864074826241E-002;5.142406560480595E-003;1.794725540094078E-004;
2.412666666666667E+009;1.798585653305054E-001;-4.333587363362312E-002;5.210362840443850E-003;-8.405128028243780E-005;
2.412833333333334E+009;1.791996210813522E-001;-4.349965229630470E-002;5.016932263970375E-003;-4.636620869860053E-004;
2.413000000000000E+009;1.784407347440720E-001;-4.387744516134262E-002;4.935918841511011E-003;-7.463859510608017E-004;
2.413166666666667E+009;1.776327639818192E-001;-4.434730112552643E-002;4.853986669331789E-003;-9.559366153553128E-004;
2.413333333333334E+009;1.767299622297287E-001;-4.477087780833244E-002;4.561065230518580E-003;-1.291301334276795E-003;
2.413500000000000E+009;1.759999990463257E-001;-4.530113562941551E-002;4.369744565337896E-003;-1.623124815523624E-003;
2.413666666666667E+009;1.749241203069687E-001;-4.602624475955963E-002;4.160655662417412E-003;-1.864672871306539E-003;
2.413833333333334E+009;1.738590300083160E-001;-4.647972062230110E-002;3.940201830118895E-003;-1.892137923277915E-003;
2.414000000000000E+009;1.726651042699814E-001;-4.707780480384827E-002;3.821251448243856E-003;-2.202180679887533E-003;
2.414166666666667E+009;1.716465204954147E-001;-4.779783263802528E-002;3.342479933053255E-003;-2.381388563662767E-003;
2.414333333333334E+009;1.704355925321579E-001;-4.862269386649132E-002;3.290256019681692E-003;-2.401336561888456E-003;
2.414500000000000E+009;1.693255901336670E-001;-4.948303475975990E-002;2.894818317145109E-003;-2.548785414546728E-003;
2.414666666666667E+009;1.680705398321152E-001;-5.038026720285416E-002;2.755449153482914E-003;-2.438260475173593E-003;
2.414833333333334E+009;1.668122112751007E-001;-5.137777701020241E-002;2.401659730821848E-003;-2.486722078174353E-003;
2.415000000000000E+009;1.656618863344193E-001;-5.254439637064934E-002;2.306953305378556E-003;-2.440240001305938E-003;
2.415166666666667E+009;1.645170599222183E-001;-5.367562919855118E-002;1.960665220394731E-003;-2.424449892714620E-003;
2.415333333333334E+009;1.634492874145508E-001;-5.515607073903084E-002;1.830527791753411E-003;-2.372020157054067E-003;
2.415500000000000E+009;1.622488796710968E-001;-5.635217204689980E-002;1.630526967346668E-003;-2.303997287526727E-003;
2.415666666666667E+009;1.611910164356232E-001;-5.793521180748940E-002;1.449880888685584E-003;-2.106819534674287E-003;
2.415833333333334E+009;1.600431948900223E-001;-5.950526893138886E-002;1.436519785784185E-003;-2.122125122696161E-003;
2.416000000000000E+009;1.589267253875732E-001;-6.113910675048828E-002;1.120767556130886E-003;-2.205716911703348E-003;
2.416166666666667E+009;1.580935269594193E-001;-6.282486021518707E-002;1.064657233655453E-003;-2.034872537478805E-003;
2.416333333333334E+009;1.570023894309998E-001;-6.454636901617050E-002;8.999535930342972E-004;-1.903388183563948E-003;
2.416500000000000E+009;1.561827808618546E-001;-6.657128036022186E-002;7.855988806113601E-004;-1.825800281949341E-003;
2.416666666666667E+009;1.552630215883255E-001;-6.837593019008637E-002;7.999642402864993E-004;-1.791788963600993E-003;
2.416833333333334E+009;1.544061899185181E-001;-7.041531801223755E-002;6.972475675866008E-004;-1.639029593206942E-003;
2.417000000000000E+009;1.535176485776901E-001;-7.235265523195267E-002;8.542088326066732E-004;-1.473077340051532E-003;
2.417166666666667E+009;1.528951376676559E-001;-7.424803078174591E-002;6.656476762145758E-004;-1.516513875685632E-003;
2.417333333333334E+009;1.522990465164185E-001;-7.608801871538162E-002;8.208061335608363E-004;-1.343356794677675E-003;
2.417500000000000E+009;1.517036408185959E-001;-7.815571874380112E-002;7.111022132448852E-004;-1.327524892985821E-003;
2.417666666666667E+009;1.512610167264938E-001;-7.997438311576843E-002;8.804983226582408E-004;-1.168588059954345E-003;
2.417833333333334E+009;1.506536900997162E-001;-8.175865560770035E-002;7.306514307856560E-004;-1.273402362130582E-003;
2.418000000000000E+009;1.502258181571960E-001;-8.368187397718430E-002;8.534865337423980E-004;-1.101045170798898E-003;
2.418166666666667E+009;1.499521434307098E-001;-8.531994372606278E-002;7.068159757182002E-004;-1.100788125768304E-003;
2.418333333333334E+009;1.499670296907425E-001;-8.706750720739365E-002;9.323668200522661E-004;-1.061114948242903E-003;
2.418500000000000E+009;1.497660726308823E-001;-8.853737264871597E-002;8.644264889881015E-004;-1.245948253199458E-003;
2.418666666666667E+009;1.496304869651794E-001;-9.022978693246841E-002;8.506162557750940E-004;-1.231780624948442E-003;
2.418833333333334E+009;1.493071168661118E-001;-9.166651964187622E-002;9.531291434541345E-004;-1.124760019592941E-003;
2.419000000000000E+009;1.494875103235245E-001;-9.291685372591019E-002;9.913720423355699E-004;-1.213066512718797E-003;
2.419166666666667E+009;1.495526432991028E-001;-9.396784752607346E-002;1.011069514788687E-003;-1.319276518188417E-003;
2.419333333333334E+009;1.494472324848175E-001;-9.511224180459976E-002;1.105475239455700E-003;-1.457315287552774E-003;
2.419500000000000E+009;1.496864706277847E-001;-9.636830538511276E-002;1.062814728356898E-003;-1.407110248692334E-003;
2.419666666666667E+009;1.500273793935776E-001;-9.716095030307770E-002;1.092120655812323E-003;-1.482448307797313E-003;
2.419833333333334E+009;1.501702964305878E-001;-9.767422080039978E-002;8.844351395964623E-004;-1.507700653746724E-003;
2.420000000000000E+009;1.504339873790741E-001;-9.858989715576172E-002;9.730650344863534E-004;-1.535770948976278E-003;
2.420166666666667E+009;1.507638692855835E-001;-9.919166564941406E-002;9.025810286402702E-004;-1.564871403388679E-003;
2.420333333333334E+009;1.509744375944138E-001;-9.964466094970703E-002;8.113583317026496E-004;-1.733308774419129E-003;
2.420500000000000E+009;1.513813138008118E-001;-9.978267550468445E-002;8.089705370366573E-004;-1.643745694309473E-003;
2.420666666666667E+009;1.515432000160217E-001;-1.000938042998314E-001;6.727606523782015E-004;-1.821042154915631E-003;
2.420833333333334E+009;1.517504006624222E-001;-1.002452820539475E-001;6.605304079130292E-004;-1.865641912445426E-003;
2.421000000000000E+009;1.519096642732620E-001;-1.003394350409508E-001;5.070490879006684E-004;-1.735097030177712E-003;
2.421166666666667E+009;1.522845923900604E-001;-1.005846410989761E-001;4.043581720907241E-004;-1.879778807051480E-003;
2.421333333333334E+009;1.524098813533783E-001;-1.004214286804199E-001;3.914178232662380E-004;-1.904778880998492E-003;
2.421500000000000E+009;1.524974852800369E-001;-1.002904027700424E-001;1.927016128320247E-004;-1.756348297931254E-003;
2.421666666666667E+009;1.523856073617935E-001;-1.002212464809418E-001;2.067871537292376E-004;-1.956777647137642E-003;
2.421833333333334E+009;1.523544639348984E-001;-1.001611351966858E-001;9.847542969509959E-005;-1.807051827199757E-003;
2.422000000000000E+009;1.522731781005859E-001;-9.976945817470551E-002;-7.438220563926734E-006;-1.866506994701922E-003;
2.422166666666667E+009;1.519700735807419E-001;-9.971489012241364E-002;-6.241282972041518E-005;-1.836069393903017E-003;
2.422333333333334E+009;1.516583114862442E-001;-9.928953647613525E-002;-1.386819494655356E-004;-1.761680003255606E-003;
2.422500000000000E+009;1.511754393577576E-001;-9.910058230161667E-002;-3.476284909993410E-004;-1.840675715357065E-003;
2.422666666666667E+009;1.504350602626801E-001;-9.858284890651703E-002;-3.988322860095650E-004;-1.571984263136983E-003;
2.422833333333334E+009;1.498997658491135E-001;-9.840433299541473E-002;-3.118528693448752E-004;-1.682617352344096E-003;
2.423000000000000E+009;1.490669697523117E-001;-9.809726476669312E-002;-5.517099052667618E-004;-1.422168337740004E-003;
2.423166666666667E+009;1.480194628238678E-001;-9.772122651338577E-002;-3.630596329458058E-004;-1.446385635063052E-003;
2.423333333333334E+009;1.471812874078751E-001;-9.727615863084793E-002;-5.832115421071649E-004;-1.305028097704053E-003;
2.423500000000000E+009;1.460950076580048E-001;-9.710329025983810E-002;-5.898321396671236E-004;-1.292388420552015E-003;
2.423666666666667E+009;1.447036266326904E-001;-9.679219126701355E-002;-3.168782277498394E-004;-1.323129050433636E-003;
2.423833333333334E+009;1.437883973121643E-001;-9.659124910831451E-002;-3.255407500546426E-004;-1.055956934578717E-003;
2.424000000000000E+009;1.422808021306992E-001;-9.619960188865662E-002;-4.001132911071181E-004;-1.140046515502036E-003;
2.424166666666667E+009;1.410083025693893E-001;-9.605443477630615E-002;-3.690325538627803E-004;-1.170197152532637E-003;
2.424333333333334E+009;1.395065337419510E-001;-9.595552831888199E-002;-5.972131039015949E-004;-1.269198488444090E-003;
2.424500000000000E+009;1.383376866579056E-001;-9.598715603351593E-002;-4.003604990430176E-004;-1.159379607997835E-003;
2.424666666666667E+009;1.369597464799881E-001;-9.596998244524002E-002;-4.819759924430400E-004;-1.034055487252772E-003;
2.424833333333334E+009;1.353419870138168E-001;-9.610272943973541E-002;-4.779056471306831E-004;-1.067609176971018E-003;
2.425000000000000E+009;1.341109871864319E-001;-9.652009606361389E-002;-3.262012905906886E-004;-1.124710543081164E-003;
2.425166666666667E+009;1.323896199464798E-001;-9.687561541795731E-002;-5.215144483372569E-004;-1.169266179203987E-003;
2.425333333333334E+009;1.310760229825974E-001;-9.736467152833939E-002;-5.004352424293757E-004;-1.089789788238704E-003;
2.425500000000000E+009;1.295942962169647E-001;-9.812129288911820E-002;-4.618938255589455E-004;-1.151720876805484E-003;
2.425666666666667E+009;1.280284523963928E-001;-9.882986545562744E-002;-6.049190997146070E-004;-1.130850985646248E-003;
2.425833333333334E+009;1.266366392374039E-001;-9.972385317087174E-002;-6.569558754563332E-004;-1.084892312064767E-003;
2.426000000000000E+009;1.252806782722473E-001;-1.008486300706863E-001;-6.128135719336569E-004;-1.007695798762143E-003;
2.426166666666667E+009;1.241428330540657E-001;-1.018637865781784E-001;-5.684976931661367E-004;-8.304784423671663E-004;
2.426333333333334E+009;1.226651221513748E-001;-1.030488759279251E-001;-7.580577512271702E-004;-9.179016924463213E-004;
2.426500000000000E+009;1.215124428272247E-001;-1.043104827404022E-001;-4.236345994286239E-004;-7.464408990927041E-004;
2.426666666666667E+009;1.204474866390228E-001;-1.056731790304184E-001;-5.162192392162979E-004;-6.233457243070006E-004;
2.426833333333334E+009;1.192627176642418E-001;-1.071235388517380E-001;-4.968121647834778E-004;-7.448633550666273E-004;
2.427000000000000E+009;1.181626319885254E-001;-1.087440997362137E-001;-4.754845576826483E-004;-6.847302429378033E-004;
2.427166666666667E+009;1.171599403023720E-001;-1.101856678724289E-001;-4.027842078357935E-004;-5.651884712278843E-004;
2.427333333333334E+009;1.162774637341499E-001;-1.118014380335808E-001;-4.100024816580117E-004;-5.944748991169035E-004;
2.427500000000000E+009;1.156547889113426E-001;-1.135690286755562E-001;-3.056880668736994E-004;-7.409912650473416E-004;
2.427666666666667E+009;1.148185059428215E-001;-1.151858344674110E-001;-3.534292918629944E-004;-6.482283351942897E-004;
