# Version 1.00
#
freq[Hz];re:Trc1_S11;im:Trc1_S11;re:Trc2_S21;im:Trc2_S21;
2.400000000000000E+009;1.688944846391678E-001;4.557351768016815E-002;-2.529641613364220E-003;-1.733798068016768E-003;
2.400166666666667E+009;1.699867248535156E-001;4.473533108830452E-002;-2.514127641916275E-003;-1.692356658168137E-003;
2.400333333333334E+009;1.708395034074783E-001;4.347844049334526E-002;-2.835131250321865E-003;-1.710832468234003E-003;
2.400500000000000E+009;1.718948334455490E-001;4.256735742092133E-002;-2.937270561233163E-003;-1.681659254245460E-003;
2.400666666666667E+009;1.725555062294006E-001;4.151599109172821E-002;-2.955837408080697E-003;-1.642626244574785E-003;
2.400833333333334E+009;1.735877990722656E-001;4.100028052926064E-002;-3.175222314894199E-003;-1.646816497668624E-003;
2.401000000000000E+009;1.742923110723496E-001;4.002662003040314E-002;-3.215655451640487E-003;-1.452890923246741E-003;
2.401166666666667E+009;1.750936508178711E-001;3.936260193586350E-002;-3.417890286073089E-003;-1.355751650407910E-003;
2.401333333333334E+009;1.760181784629822E-001;3.864328190684319E-002;-3.566805971786380E-003;-1.235806499607861E-003;
2.401500000000000E+009;1.766946762800217E-001;3.778058663010597E-002;-3.704629139974713E-003;-1.376276486553252E-003;
2.401666666666667E+009;1.771144270896912E-001;3.750945255160332E-002;-3.816928481683135E-003;-9.992723353207111E-004;
2.401833333333334E+009;1.776710748672485E-001;3.675286844372749E-002;-3.986010793596506E-003;-9.004671010188758E-004;
2.402000000000000E+009;1.782759130001068E-001;3.638014569878578E-002;-4.047963768243790E-003;-6.168794934637845E-004;
2.402166666666667E+009;1.786550432443619E-001;3.556433320045471E-002;-4.428140353411436E-003;-5.048116436228156E-004;
2.402333333333334E+009;1.787566691637039E-001;3.497754782438278E-002;-4.341160412877798E-003;-3.441515727899969E-004;
2.402500000000000E+009;1.792981624603272E-001;3.443457186222076E-002;-4.487823694944382E-003;-6.429788481909782E-005;
2.402666666666667E+009;1.795577257871628E-001;3.390588611364365E-002;-4.462432116270065E-003;9.917862189467996E-005;
2.402833333333334E+009;1.797389835119247E-001;3.318844363093376E-002;-4.513761959969997E-003;4.674824886023998E-004;
2.403000000000000E+009;1.797883510589600E-001;3.244055062532425E-002;-4.620211198925972E-003;7.224240107461810E-004;
2.403166666666667E+009;1.798148453235626E-001;3.175078704953194E-002;-4.797016736119986E-003;9.811939671635628E-004;
2.403333333333334E+009;1.798190325498581E-001;3.099401853978634E-002;-4.673720803111792E-003;1.127859111875296E-003;
2.403500000000000E+009;1.793177574872971E-001;3.013237006962299E-002;-4.664057865738869E-003;1.341798575595021E-003;
2.403666666666667E+009;1.792807132005692E-001;2.928248792886734E-002;-4.909508861601353E-003;1.658831955865026E-003;
2.403833333333334E+009;1.791077852249146E-001;2.816306613385677E-002;-4.806855693459511E-003;1.961002591997385E-003;
2.404000000000000E+009;1.785010099411011E-001;2.704855427145958E-002;-4.836321342736483E-003;2.345427405089140E-003;
2.404166666666667E+009;1.782839149236679E-001;2.588261850178242E-002;-4.627072717994452E-003;2.613887656480074E-003;
2.404333333333334E+009;1.779368072748184E-001;2.477726340293884E-002;-4.570463672280312E-003;2.902981592342258E-003;
2.404500000000000E+009;1.774937510490418E-001;2.339150197803974E-002;-4.383759573101997E-003;3.041106276214123E-003;
2.404666666666667E+009;1.769227385520935E-001;2.198362909257412E-002;-4.356059245765209E-003;3.481850260868669E-003;
2.404833333333334E+009;1.763394474983215E-001;2.066450379788876E-002;-4.207008518278599E-003;3.455572063103318E-003;
2.405000000000000E+009;1.759361475706101E-001;1.907023414969444E-002;-3.935327287763357E-003;3.771941643208265E-003;
2.405166666666667E+009;1.754439026117325E-001;1.755513437092304E-002;-3.746465314179659E-003;3.959623631089926E-003;
2.405333333333334E+009;1.749964207410812E-001;1.586028374731541E-002;-3.523434745147824E-003;4.347541835159063E-003;
2.405500000000000E+009;1.747251152992249E-001;1.431745942682028E-002;-3.538360353559256E-003;4.383309278637171E-003;
2.405666666666667E+009;1.742922961711884E-001;1.250915974378586E-002;-3.269407199695706E-003;4.737893119454384E-003;
2.405833333333334E+009;1.737414002418518E-001;1.082702446728945E-002;-2.972106914967299E-003;4.745586309581995E-003;
2.406000000000000E+009;1.736569553613663E-001;8.809968829154968E-003;-2.807620912790299E-003;4.992220085114241E-003;
2.406166666666667E+009;1.731453984975815E-001;6.986035499721766E-003;-2.486017765477300E-003;5.188341252505779E-003;
2.406333333333334E+009;1.731769293546677E-001;5.146117880940437E-003;-2.285292837768793E-003;5.296507384628058E-003;
2.406500000000000E+009;1.729998439550400E-001;3.154032630845904E-003;-2.045666333287954E-003;5.507302936166525E-003;
2.406666666666667E+009;1.728004664182663E-001;1.085747382603586E-003;-1.576032256707549E-003;5.387568846344948E-003;
2.406833333333334E+009;1.728251427412033E-001;-1.130796852521598E-003;-1.361474394798279E-003;5.522077437490225E-003;
2.407000000000000E+009;1.729422062635422E-001;-3.119054250419140E-003;-1.031471299938858E-003;5.794773809611797E-003;
2.407166666666667E+009;1.730798035860062E-001;-5.167802330106497E-003;-7.431940757669509E-004;5.846664309501648E-003;
2.407333333333334E+009;1.732027083635330E-001;-7.440633606165648E-003;-2.845837443601340E-004;5.742546170949936E-003;
2.407500000000000E+009;1.734535694122315E-001;-9.498699568212032E-003;-1.412662531947717E-004;5.751598626375198E-003;
2.407666666666667E+009;1.736495047807694E-001;-1.163485646247864E-002;1.613300410099328E-004;5.682819988578558E-003;
2.407833333333334E+009;1.739411205053330E-001;-1.388473529368639E-002;4.993861075490713E-004;5.750447977334261E-003;
2.408000000000000E+009;1.743828207254410E-001;-1.598260365426540E-002;7.601331453770399E-004;5.497725214809179E-003;
2.408166666666667E+009;1.746568977832794E-001;-1.781819760799408E-002;1.102976617403328E-003;5.580998957157135E-003;
2.408333333333334E+009;1.751704365015030E-001;-1.987664029002190E-002;1.637718756683171E-003;5.497774109244347E-003;
2.408500000000000E+009;1.754471212625504E-001;-2.194524556398392E-002;1.752353738993406E-003;5.302015226334333E-003;
2.408666666666667E+009;1.758086085319519E-001;-2.392623387277126E-002;1.940802671015263E-003;5.191323813050985E-003;
2.408833333333334E+009;1.761977523565292E-001;-2.564246207475662E-002;2.240147208794951E-003;5.142114590853453E-003;
2.409000000000000E+009;1.765200793743134E-001;-2.744219824671745E-002;2.398849464952946E-003;5.135366227477789E-003;
2.409166666666667E+009;1.770453155040741E-001;-2.891418524086475E-002;2.437001792714000E-003;4.832190927118063E-003;
2.409333333333334E+009;1.773895174264908E-001;-3.022855520248413E-002;2.752041444182396E-003;4.503633361309767E-003;
2.409500000000000E+009;1.775823086500168E-001;-3.177130594849587E-002;3.074246691539884E-003;4.509008955210447E-003;
2.409666666666667E+009;1.781596094369888E-001;-3.284208849072456E-002;3.162250155583024E-003;4.455889575183392E-003;
2.409833333333334E+009;1.785671412944794E-001;-3.391189128160477E-002;3.362765302881599E-003;4.192590247839689E-003;
2.410000000000000E+009;1.790239959955216E-001;-3.496834263205528E-002;3.507652785629034E-003;4.018630832433701E-003;
2.410166666666667E+009;1.795677840709686E-001;-3.566605225205421E-002;3.630952909588814E-003;3.954521380364895E-003;
2.410333333333334E+009;1.798410862684250E-001;-3.657925501465797E-002;3.858748124912381E-003;3.702380228787661E-003;
2.410500000000000E+009;1.803731024265289E-001;-3.724286705255508E-002;4.017882980406284E-003;3.511675400659442E-003;
2.410666666666667E+009;1.805416643619537E-001;-3.834767267107964E-002;4.179629497230053E-003;3.361451439559460E-003;
2.410833333333334E+009;1.810798794031143E-001;-3.884454444050789E-002;4.438186530023813E-003;3.120642155408859E-003;
2.411000000000000E+009;1.813654303550720E-001;-3.930993378162384E-002;4.683487117290497E-003;2.844763454049826E-003;
2.411166666666667E+009;1.814717650413513E-001;-3.984245285391808E-002;4.785830620676279E-003;2.691679866984487E-003;
2.411333333333334E+009;1.815327405929565E-001;-4.038523882627487E-002;4.949715454131365E-003;2.306117676198483E-003;
2.411500000000000E+009;1.815975904464722E-001;-4.090179130434990E-002;4.856671672314405E-003;2.058036625385284E-003;
2.411666666666667E+009;1.818185001611710E-001;-4.142726212739945E-002;5.000346340239048E-003;1.706852461211383E-003;
2.411833333333334E+009;1.816456764936447E-001;-4.154450446367264E-002;5.240852944552898E-003;1.432848395779729E-003;
2.412000000000000E+009;1.816473305225372E-001;-4.192675650119782E-002;5.130473524332047E-003;1.273542293347418E-003;
2.412166666666667E+009;1.810877472162247E-001;-4.230061545968056E-002;5.222351290285587E-003;8.811544976197183E-004;
2.412333333333334E+009;1.811953634023666E-001;-4.255206510424614E-002;5.236608907580376E-003;5.181672167964280E-004;
2.412500000000000E+009;1.803518235683441E-001;-4.297454282641411E-002;5.150703713297844E-003;1.939642534125596E-004;
2.412666666666667E+009;1.798942536115646E-001;-4.341048002243042E-002;5.234281066805124E-003;-1.769845548551530E-004;
2.412833333333334E+009;1.793016791343689E-001;-4.372237622737885E-002;5.293311085551977E-003;-4.331902600824833E-004;
2.413000000000000E+009;1.786406636238098E-001;-4.413406178355217E-002;4.996833857148886E-003;-8.239625021815300E-004;
2.413166666666667E+009;1.778603047132492E-001;-4.440544545650482E-002;4.779453389346600E-003;-1.215824158862233E-003;
2.413333333333334E+009;1.766391098499298E-001;-4.483296349644661E-002;4.634017124772072E-003;-1.391384284943342E-003;
2.413500000000000E+009;1.758627444505692E-001;-4.548243433237076E-002;4.312360659241676E-003;-1.694131875410676E-003;
2.413666666666667E+009;1.749728322029114E-001;-4.582177847623825E-002;4.372656345367432E-003;-1.824818318709731E-003;
2.413833333333334E+009;1.739342957735062E-001;-4.634035006165505E-002;3.986038267612457E-003;-2.045137807726860E-003;
2.414000000000000E+009;1.726116836071014E-001;-4.718534648418427E-002;3.749075112864375E-003;-2.247359137982130E-003;
2.414166666666667E+009;1.714331656694412E-001;-4.788737371563911E-002;3.404388437047601E-003;-2.416483592242003E-003;
2.414333333333334E+009;1.703513711690903E-001;-4.850286990404129E-002;3.351866034790874E-003;-2.490204991772771E-003;
2.414500000000000E+009;1.694079637527466E-001;-4.937689378857613E-002;2.820886205881834E-003;-2.578963292762637E-003;
2.414666666666667E+009;1.680732369422913E-001;-5.031056329607964E-002;2.699004719033837E-003;-2.629305468872190E-003;
2.414833333333334E+009;1.668664366006851E-001;-5.147022008895874E-002;2.474446780979633E-003;-2.646389184519649E-003;
2.415000000000000E+009;1.657354235649109E-001;-5.246557295322418E-002;2.239997731521726E-003;-2.573741134256125E-003;
2.415166666666667E+009;1.644494831562042E-001;-5.373761802911758E-002;2.045144326984882E-003;-2.716459566727281E-003;
2.415333333333334E+009;1.634677201509476E-001;-5.511042848229408E-002;1.792664057575166E-003;-2.554492559283972E-003;
2.415500000000000E+009;1.622574478387833E-001;-5.633011460304260E-002;1.574032939970493E-003;-2.524761483073235E-003;
2.415666666666667E+009;1.611122786998749E-001;-5.801612883806229E-002;1.328152720816433E-003;-2.366489032283425E-003;
2.415833333333334E+009;1.600275337696075E-001;-5.945938080549240E-002;1.141751767136157E-003;-2.378544537350535E-003;
2.416000000000000E+009;1.588848829269409E-001;-6.108334660530090E-002;1.169462339021266E-003;-2.204161603003740E-003;
2.416166666666667E+009;1.580946445465088E-001;-6.281297653913498E-002;1.008549472317100E-003;-2.083773026242852E-003;
2.416333333333334E+009;1.571568846702576E-001;-6.465536355972290E-002;1.016500173136592E-003;-2.042229287326336E-003;
2.416500000000000E+009;1.561005115509033E-001;-6.653962284326553E-002;8.637148421257734E-004;-1.922118128277361E-003;
2.416666666666667E+009;1.552242636680603E-001;-6.835371255874634E-002;5.895226495340467E-004;-1.892926637083292E-003;
2.416833333333334E+009;1.544985771179199E-001;-7.037289440631867E-002;6.715352647006512E-004;-1.773709431290627E-003;
2.417000000000000E+009;1.534785479307175E-001;-7.230950146913528E-002;4.787995421793312E-004;-1.523581682704389E-003;
2.417166666666667E+009;1.528582274913788E-001;-7.416509836912155E-002;6.352640339173377E-004;-1.438273815438151E-003;
2.417333333333334E+009;1.523413211107254E-001;-7.611260563135147E-002;6.162845529615879E-004;-1.286812825128436E-003;
2.417500000000000E+009;1.517034620046616E-001;-7.813541591167450E-002;5.748714902438223E-004;-1.346174511127174E-003;
2.417666666666667E+009;1.512856632471085E-001;-7.984746992588043E-002;6.505178171209991E-004;-1.337729976512492E-003;
2.417833333333334E+009;1.507379859685898E-001;-8.174362033605576E-002;6.744920392520726E-004;-1.228275476023555E-003;
2.418000000000000E+009;1.503809988498688E-001;-8.375508338212967E-002;6.701325764879584E-004;-1.043089432641864E-003;
2.418166666666667E+009;1.500221937894821E-001;-8.513147383928299E-002;6.878532003611326E-004;-1.206862041726708E-003;
2.418333333333334E+009;1.500501185655594E-001;-8.714372664690018E-002;6.937147118151188E-004;-1.208654954098165E-003;
2.418500000000000E+009;1.497329324483872E-001;-8.862125873565674E-002;9.097770671360195E-004;-1.154735218733549E-003;
2.418666666666667E+009;1.497545689344406E-001;-9.022128582000732E-002;7.496867328882217E-004;-1.311127794906497E-003;
2.418833333333334E+009;1.494356989860535E-001;-9.164494276046753E-002;9.396234527230263E-004;-1.316085690632463E-003;
2.419000000000000E+009;1.495517790317535E-001;-9.285371005535126E-002;9.517700527794659E-004;-1.364419702440500E-003;
2.419166666666667E+009;1.496206372976303E-001;-9.408909082412720E-002;9.598617325536907E-004;-1.342413946986198E-003;
2.419333333333334E+009;1.494701802730560E-001;-9.507387876510620E-002;8.703666971996427E-004;-1.382749178446829E-003;
2.419500000000000E+009;1.497551947832108E-001;-9.622353315353394E-002;9.138977620750666E-004;-1.374481944367290E-003;
2.419666666666667E+009;1.500916779041290E-001;-9.734858572483063E-002;8.392891613766551E-004;-1.456698984839022E-003;
2.419833333333334E+009;1.501177251338959E-001;-9.781980514526367E-002;7.445015362463892E-004;-1.485408749431372E-003;
2.420000000000000E+009;1.504527181386948E-001;-9.869411587715149E-002;7.267469190992415E-004;-1.590843196026981E-003;
2.420166666666667E+009;1.506887525320053E-001;-9.913825243711472E-002;6.715487106703222E-004;-1.617401721887291E-003;
2.420333333333334E+009;1.508942991495132E-001;-9.962639212608337E-002;7.989934529177845E-004;-1.715097925625742E-003;
2.420500000000000E+009;1.513606607913971E-001;-9.986702352762222E-002;6.446266197599471E-004;-1.710648066364229E-003;
2.420666666666667E+009;1.515327543020248E-001;-1.001240909099579E-001;5.529875634238124E-004;-1.842101803049445E-003;
2.420833333333334E+009;1.517681181430817E-001;-1.003374680876732E-001;5.189334042370319E-004;-1.892014988698065E-003;
2.421000000000000E+009;1.519104242324829E-001;-1.004745215177536E-001;4.028896510135382E-004;-1.858576899394393E-003;
2.421166666666667E+009;1.520457267761231E-001;-1.005095541477203E-001;3.417979169171304E-004;-1.968726981431246E-003;
2.421333333333334E+009;1.524016708135605E-001;-1.004306226968765E-001;3.888163773808628E-004;-1.954044448211789E-003;
2.421500000000000E+009;1.524853706359863E-001;-1.002665236592293E-001;6.115124415373430E-005;-1.935158739797771E-003;
2.421666666666667E+009;1.523473709821701E-001;-1.002026721835136E-001;1.416584855178371E-004;-2.019762992858887E-003;
2.421833333333334E+009;1.524394452571869E-001;-9.991853684186935E-002;-1.592633925611153E-004;-1.792568247765303E-003;
2.422000000000000E+009;1.522442847490311E-001;-9.976273775100708E-002;-1.436654129065573E-004;-1.959042856469750E-003;
2.422166666666667E+009;1.519459784030914E-001;-9.973229467868805E-002;-9.839828999247402E-005;-1.917180721648037E-003;
2.422333333333334E+009;1.515969932079315E-001;-9.929181635379791E-002;-2.454892091918737E-004;-1.832316163927317E-003;
2.422500000000000E+009;1.511362344026566E-001;-9.896617382764816E-002;-2.874773927032948E-004;-1.724960282444954E-003;
2.422666666666667E+009;1.504400074481964E-001;-9.886413067579269E-002;-4.320471489336342E-004;-1.498126774094999E-003;
2.422833333333334E+009;1.497741937637329E-001;-9.832973778247833E-002;-3.914262633770704E-004;-1.553713576868177E-003;
2.423000000000000E+009;1.489969789981842E-001;-9.809738397598267E-002;-6.181148928590119E-004;-1.387323252856731E-003;
2.423166666666667E+009;1.482149362564087E-001;-9.790716320276260E-002;-5.686681834049523E-004;-1.278191222809255E-003;
2.423333333333334E+009;1.472155898809433E-001;-9.730653464794159E-002;-6.439985008910298E-004;-1.527083572000265E-003;
2.423500000000000E+009;1.460813432931900E-001;-9.704439342021942E-002;-5.349599523469806E-004;-1.286607352085412E-003;
2.423666666666667E+009;1.447051018476486E-001;-9.680894762277603E-002;-6.487547070719302E-004;-1.206933287903667E-003;
2.423833333333334E+009;1.437506824731827E-001;-9.652984887361527E-002;-4.821992479264736E-004;-1.066305791027844E-003;
2.424000000000000E+009;1.422768086194992E-001;-9.619504213333130E-002;-4.970581503584981E-004;-9.406634490005672E-004;
2.424166666666667E+009;1.408971548080444E-001;-9.616960585117340E-002;-5.993301165290177E-004;-1.022421638481319E-003;
2.424333333333334E+009;1.396301537752152E-001;-9.591541439294815E-002;-6.528263911604881E-004;-1.037374604493380E-003;
2.424500000000000E+009;1.382399201393127E-001;-9.601303189992905E-002;-4.151072353124619E-004;-9.451948571950197E-004;
2.424666666666667E+009;1.369204670190811E-001;-9.595458954572678E-002;-5.030024331063032E-004;-9.733128244988620E-004;
2.424833333333334E+009;1.353208720684052E-001;-9.612827748060226E-002;-6.533616688102484E-004;-1.035368186421692E-003;
2.425000000000000E+009;1.339226216077805E-001;-9.652921557426453E-002;-5.416038911789656E-004;-1.092772698029876E-003;
2.425166666666667E+009;1.322854459285736E-001;-9.684931486845017E-002;-6.129085668362677E-004;-9.010435314849019E-004;
2.425333333333334E+009;1.309735476970673E-001;-9.738504886627197E-002;-6.142682977952063E-004;-8.953665383160114E-004;
2.425500000000000E+009;1.296683251857758E-001;-9.819658845663071E-002;-5.871978937648237E-004;-8.252644911408424E-004;
2.425666666666667E+009;1.280780136585236E-001;-9.883823245763779E-002;-6.281944806687534E-004;-9.419360430911183E-004;
2.425833333333334E+009;1.267229318618774E-001;-9.975200146436691E-002;-8.119166595861316E-004;-9.154563886113465E-004;
2.426000000000000E+009;1.252382248640060E-001;-1.008431017398834E-001;-6.446634652093053E-004;-9.042771416716278E-004;
2.426166666666667E+009;1.241162717342377E-001;-1.019322350621223E-001;-5.984303425066173E-004;-6.696610362268984E-004;
2.426333333333334E+009;1.227598488330841E-001;-1.030357852578163E-001;-6.079059676267207E-004;-7.490194402635098E-004;
2.426500000000000E+009;1.215064823627472E-001;-1.043501049280167E-001;-4.969212459400296E-004;-6.359542021527886E-004;
2.426666666666667E+009;1.204273626208305E-001;-1.056897416710854E-001;-4.930348950438201E-004;-6.105902721174061E-004;
2.426833333333334E+009;1.192618981003761E-001;-1.070786491036415E-001;-6.162434001453221E-004;-6.000871653668582E-004;
2.427000000000000E+009;1.181394755840302E-001;-1.087378039956093E-001;-4.270511562936008E-004;-5.724409129470587E-004;
2.427166666666667E+009;1.172337904572487E-001;-1.101077422499657E-001;-3.520080354064703E-004;-5.048368475399911E-004;
2.427333333333334E+009;1.163186654448509E-001;-1.118556559085846E-001;-2.781118964776397E-004;-6.054128753021359E-004;
2.427500000000000E+009;1.156219691038132E-001;-1.134555116295815E-001;-2.750423445831984E-004;-3.338282695040107E-004;
2.427666666666667E+009;1.147558987140656E-001;-1.153348460793495E-001;-2.552306395955384E-004;-4.737327690236270E-004;
