# Version 1.00
#
freq[Hz];re:Trc1_S11;im:Trc1_S11;re:Trc2_S21;im:Trc2_S21;
2.400000000000000E+009;1.689529120922089E-001;4.557317495346069E-002;-3.255959367379546E-003;1.553943147882819E-003;
2.400166666666667E+009;1.699027568101883E-001;4.464450478553772E-002;-3.235629759728909E-003;1.951763289980590E-003;
2.400333333333334E+009;1.708695739507675E-001;4.361743852496147E-002;-3.242430975660682E-003;1.841075834818184E-003;
2.400500000000000E+009;1.718375086784363E-001;4.252269119024277E-002;-3.084400668740273E-003;2.180393552407622E-003;
2.400666666666667E+009;1.726171076297760E-001;4.157638177275658E-002;-3.223192412406206E-003;2.388270804658532E-003;
2.400833333333334E+009;1.736159473657608E-001;4.097814485430718E-002;-2.969964873045683E-003;2.737381961196661E-003;
2.401000000000000E+009;1.740767657756805E-001;4.011615738272667E-002;-2.985448110848665E-003;2.664178842678666E-003;
2.401166666666667E+009;1.750467121601105E-001;3.931444138288498E-002;-2.731152344495058E-003;2.888402435928583E-003;
2.401333333333334E+009;1.759438365697861E-001;3.846881538629532E-002;-2.669833833351731E-003;3.029587212949991E-003;
2.401500000000000E+009;1.764727681875229E-001;3.780709207057953E-002;-2.493418054655194E-003;3.129716264083982E-003;
2.401666666666667E+009;1.770633161067963E-001;3.752797096967697E-002;-2.299470128491521E-003;3.395008621737361E-003;
2.401833333333334E+009;1.776755005121231E-001;3.674773126840591E-002;-2.124151447787881E-003;3.378824098035693E-003;
2.402000000000000E+009;1.780837029218674E-001;3.608684986829758E-002;-1.915818080306053E-003;3.537679323926568E-003;
2.402166666666667E+009;1.784406751394272E-001;3.557997941970825E-002;-1.904509495943785E-003;3.758886829018593E-003;
2.402333333333334E+009;1.790394634008408E-001;3.483407199382782E-002;-1.710867159999907E-003;3.837648080661893E-003;
2.402500000000000E+009;1.794423013925552E-001;3.469245880842209E-002;-1.334131113253534E-003;3.749989205971360E-003;
2.402666666666667E+009;1.793139576911926E-001;3.382116928696632E-002;-1.181999454274774E-003;3.991286270320416E-003;
2.402833333333334E+009;1.795328855514526E-001;3.339497745037079E-002;-1.125812530517578E-003;4.096017219126225E-003;
2.403000000000000E+009;1.798576712608337E-001;3.267778083682060E-002;-9.296663920395076E-004;4.051356576383114E-003;
2.403166666666667E+009;1.798275262117386E-001;3.180348873138428E-002;-4.931553266942501E-004;4.021895583719015E-003;
2.403333333333334E+009;1.795145571231842E-001;3.115522861480713E-002;-3.645301330834627E-004;3.934948239475489E-003;
2.403500000000000E+009;1.795252710580826E-001;3.003934957087040E-002;-5.016526556573808E-004;3.877651644870639E-003;
2.403666666666667E+009;1.793261468410492E-001;2.923783287405968E-002;9.975223292713054E-006;3.744048764929175E-003;
2.403833333333334E+009;1.792183965444565E-001;2.795107848942280E-002;6.731139001203701E-005;3.804048057645559E-003;
2.404000000000000E+009;1.787857115268707E-001;2.708117291331291E-002;3.689860459417105E-004;3.666483331471682E-003;
2.404166666666667E+009;1.782715022563934E-001;2.580891363322735E-002;3.531258553266525E-004;3.457445884123445E-003;
2.404333333333334E+009;1.778100728988648E-001;2.467899769544601E-002;5.259590689092875E-004;3.476712387055159E-003;
2.404500000000000E+009;1.771946549415588E-001;2.322826534509659E-002;4.466059326659888E-004;3.173951059579849E-003;
2.404666666666667E+009;1.768880784511566E-001;2.186708897352219E-002;6.242540548555553E-004;3.283380065113306E-003;
2.404833333333334E+009;1.763052493333817E-001;2.040948159992695E-002;6.879331776872277E-004;3.239191835746169E-003;
2.405000000000000E+009;1.761048585176468E-001;1.898638159036636E-002;7.351122330874205E-004;3.069798462092876E-003;
2.405166666666667E+009;1.754579097032547E-001;1.753507554531097E-002;8.396520861424506E-004;2.900513121858239E-003;
2.405333333333334E+009;1.751387417316437E-001;1.587308384478092E-002;9.647422120906413E-004;2.926726592704654E-003;
2.405500000000000E+009;1.746868789196014E-001;1.412704214453697E-002;8.551307837478817E-004;2.755231224000454E-003;
2.405666666666667E+009;1.742342859506607E-001;1.243018079549074E-002;7.656114175915718E-004;2.602840773761272E-003;
2.405833333333334E+009;1.738259941339493E-001;1.069621276110411E-002;6.868022610433400E-004;2.564621157944202E-003;
2.406000000000000E+009;1.735244989395142E-001;8.541393093764782E-003;8.649590308777988E-004;2.603423548862338E-003;
2.406166666666667E+009;1.731895506381989E-001;6.905269343405962E-003;8.673951961100102E-004;2.677794778719544E-003;
2.406333333333334E+009;1.731378436088562E-001;4.906203597784042E-003;1.087089069187641E-003;2.429318381473422E-003;
2.406500000000000E+009;1.729790568351746E-001;2.951548667624593E-003;9.667488047853112E-004;2.564183669164777E-003;
2.406666666666667E+009;1.727804988622665E-001;7.654940709471703E-004;9.730390156619251E-004;2.422574907541275E-003;
2.406833333333334E+009;1.727883964776993E-001;-1.220194855704904E-003;9.671791922301054E-004;2.471455372869968E-003;
2.407000000000000E+009;1.729206591844559E-001;-3.293114714324474E-003;1.116841565817595E-003;2.537410939112306E-003;
2.407166666666667E+009;1.729969382286072E-001;-5.303164012730122E-003;9.720665402710438E-004;2.575578866526485E-003;
2.407333333333334E+009;1.730156838893890E-001;-7.469105534255505E-003;9.451905498281121E-004;2.517814282327890E-003;
2.407500000000000E+009;1.732251793146133E-001;-9.406862780451775E-003;9.840078419074416E-004;2.523351227864623E-003;
2.407666666666667E+009;1.734776347875595E-001;-1.163678523153067E-002;1.073268475010991E-003;2.654942916706204E-003;
2.407833333333334E+009;1.736923605203629E-001;-1.378704793751240E-002;1.001246622763574E-003;2.647161483764648E-003;
2.408000000000000E+009;1.740633845329285E-001;-1.594225503504276E-002;1.003329758532345E-003;2.799495821818709E-003;
2.408166666666667E+009;1.743635684251785E-001;-1.774510741233826E-002;1.067523728124797E-003;2.767601050436497E-003;
2.408333333333334E+009;1.749444901943207E-001;-1.975059509277344E-002;1.073616906069219E-003;2.992222551256418E-003;
2.408500000000000E+009;1.752221137285233E-001;-2.171113714575768E-002;1.153537770733237E-003;2.827056683599949E-003;
2.408666666666667E+009;1.755726933479309E-001;-2.375198155641556E-002;1.254910603165627E-003;2.885550959035754E-003;
2.408833333333334E+009;1.759716123342514E-001;-2.545410208404064E-002;1.469161361455917E-003;3.137542400509119E-003;
2.409000000000000E+009;1.763899028301239E-001;-2.706165798008442E-002;1.565176527947187E-003;3.004875266924501E-003;
2.409166666666667E+009;1.768479347229004E-001;-2.874438092112541E-002;1.717540319077671E-003;3.115557134151459E-003;
2.409333333333334E+009;1.774722784757614E-001;-3.015500679612160E-002;2.044582273811102E-003;3.109150798991323E-003;
2.409500000000000E+009;1.776013672351837E-001;-3.170118108391762E-002;2.215025946497917E-003;3.242885926738381E-003;
2.409666666666667E+009;1.782040446996689E-001;-3.270762786269188E-002;2.314005512744188E-003;3.140595508739352E-003;
2.409833333333334E+009;1.784923076629639E-001;-3.383718803524971E-002;2.614741679280996E-003;3.080687951296568E-003;
2.410000000000000E+009;1.791463196277618E-001;-3.489638492465019E-002;2.909984206780791E-003;3.076777793467045E-003;
2.410166666666667E+009;1.795182824134827E-001;-3.581288829445839E-002;3.008611500263214E-003;3.052734769880772E-003;
2.410333333333334E+009;1.799153983592987E-001;-3.661615401506424E-002;3.252574475482106E-003;2.913946053013206E-003;
2.410500000000000E+009;1.804184466600418E-001;-3.750792518258095E-002;3.325404832139611E-003;2.725619124248624E-003;
2.410666666666667E+009;1.807026863098145E-001;-3.822824358940125E-002;3.689078148454428E-003;2.692013280466199E-003;
2.410833333333334E+009;1.810005754232407E-001;-3.881598636507988E-002;3.788267727941275E-003;2.468761056661606E-003;
2.411000000000000E+009;1.813328564167023E-001;-3.936677426099777E-002;3.921835217624903E-003;2.341944724321365E-003;
2.411166666666667E+009;1.814363449811935E-001;-4.005850106477737E-002;4.116464871913195E-003;2.272225450724363E-003;
2.411333333333334E+009;1.816521584987640E-001;-4.050535336136818E-002;4.115813877433538E-003;2.038575010374188E-003;
2.411500000000000E+009;1.816834360361099E-001;-4.099116474390030E-002;4.303165245801210E-003;1.948268502019346E-003;
2.411666666666667E+009;1.817214787006378E-001;-4.134677723050118E-002;4.395921248942614E-003;1.739522325806320E-003;
2.411833333333334E+009;1.817042827606201E-001;-4.162083193659782E-002;4.630083218216896E-003;1.391487661749125E-003;
2.412000000000000E+009;1.814679354429245E-001;-4.213686659932137E-002;4.658378660678864E-003;1.098631066270173E-003;
2.412166666666667E+009;1.811275929212570E-001;-4.256799817085266E-002;4.723911173641682E-003;9.600717457942665E-004;
2.412333333333334E+009;1.810145825147629E-001;-4.282759875059128E-002;4.744688048958778E-003;6.161173223517835E-004;
2.412500000000000E+009;1.803323328495026E-001;-4.294667392969132E-002;4.942175466567278E-003;4.519134818110615E-004;
2.412666666666667E+009;1.797122806310654E-001;-4.356788843870163E-002;4.799528047442436E-003;2.408630680292845E-004;
2.412833333333334E+009;1.793411523103714E-001;-4.399067163467407E-002;4.839271772652865E-003;-1.358781009912491E-004;
2.413000000000000E+009;1.784365922212601E-001;-4.430735856294632E-002;4.814605694264174E-003;-3.220647922717035E-004;
2.413166666666667E+009;1.775565743446350E-001;-4.473208263516426E-002;4.734187386929989E-003;-3.937525616493076E-004;
2.413333333333334E+009;1.766873002052307E-001;-4.512400552630425E-002;4.595635458827019E-003;-6.289167795330286E-004;
2.413500000000000E+009;1.756928861141205E-001;-4.578359797596932E-002;4.578005056828260E-003;-9.247596026398242E-004;
2.413666666666667E+009;1.747838109731674E-001;-4.603054746985436E-002;4.341145977377892E-003;-1.031536492519081E-003;
2.413833333333334E+009;1.735999733209610E-001;-4.675802588462830E-002;4.387464374303818E-003;-1.311715575866401E-003;
2.414000000000000E+009;1.723287254571915E-001;-4.734322428703308E-002;4.237429704517126E-003;-1.411235309205949E-003;
2.414166666666667E+009;1.713971048593521E-001;-4.802608117461205E-002;3.991790581494570E-003;-1.527716405689716E-003;
2.414333333333334E+009;1.702335178852081E-001;-4.881403595209122E-002;4.007329698652029E-003;-1.792744151316583E-003;
2.414500000000000E+009;1.691574007272720E-001;-4.954535514116287E-002;3.842086764052510E-003;-1.907959929667413E-003;
2.414666666666667E+009;1.677796393632889E-001;-5.049199238419533E-002;3.610359039157629E-003;-2.113734837621450E-003;
2.414833333333334E+009;1.664738357067108E-001;-5.167844519019127E-002;3.595193149521947E-003;-2.034869277849793E-003;
2.415000000000000E+009;1.654663085937500E-001;-5.260749533772469E-002;3.295034170150757E-003;-2.136908471584320E-003;
2.415166666666667E+009;1.642234921455383E-001;-5.387958139181137E-002;3.188031027093530E-003;-2.330605406314135E-003;
2.415333333333334E+009;1.632237881422043E-001;-5.524344742298126E-002;3.013804554939270E-003;-2.205649856477976E-003;
2.415500000000000E+009;1.619418859481812E-001;-5.656918883323669E-002;3.060146933421493E-003;-2.292349701747298E-003;
2.415666666666667E+009;1.607770621776581E-001;-5.793476104736328E-002;2.844536677002907E-003;-2.377151977270842E-003;
2.415833333333334E+009;1.597377657890320E-001;-5.956632643938065E-002;2.937312703579664E-003;-2.339814789593220E-003;
2.416000000000000E+009;1.586243063211441E-001;-6.127297133207321E-002;2.681516343727708E-003;-2.391853602603078E-003;
2.416166666666667E+009;1.577286273241043E-001;-6.289055198431015E-002;2.629641443490982E-003;-2.385881496593356E-003;
2.416333333333334E+009;1.567050665616989E-001;-6.459758430719376E-002;2.664520870894194E-003;-2.465229947119951E-003;
2.416500000000000E+009;1.558124870061874E-001;-6.643334031105042E-002;2.501486567780376E-003;-2.642569364979863E-003;
2.416666666666667E+009;1.548430323600769E-001;-6.828520447015762E-002;2.421615878120065E-003;-2.374995267018676E-003;
2.416833333333334E+009;1.542781889438629E-001;-7.026493549346924E-002;2.423454308882356E-003;-2.557786880061030E-003;
2.417000000000000E+009;1.532689630985260E-001;-7.221652567386627E-002;2.333459211513400E-003;-2.513374434784055E-003;
2.417166666666667E+009;1.525855362415314E-001;-7.396037876605988E-002;2.282801317051053E-003;-2.569435164332390E-003;
2.417333333333334E+009;1.519633829593658E-001;-7.586585730314255E-002;2.256664680317044E-003;-2.518395194783807E-003;
2.417500000000000E+009;1.514030694961548E-001;-7.787153124809265E-002;2.055779565125704E-003;-2.645334461703897E-003;
2.417666666666667E+009;1.510641276836395E-001;-7.959689199924469E-002;2.148488070815802E-003;-2.811633981764317E-003;
2.417833333333334E+009;1.506366282701492E-001;-8.146508038043976E-002;1.911023515276611E-003;-2.669744892045856E-003;
2.418000000000000E+009;1.501517146825790E-001;-8.340942114591599E-002;1.885166624560952E-003;-2.795582404360175E-003;
2.418166666666667E+009;1.497927457094193E-001;-8.490198105573654E-002;1.888949191197753E-003;-2.720669843256474E-003;
2.418333333333334E+009;1.498849391937256E-001;-8.669440448284149E-002;1.774082076735795E-003;-2.851055003702641E-003;
2.418500000000000E+009;1.495822817087174E-001;-8.837906271219254E-002;1.841619028709829E-003;-2.736633876338601E-003;
2.418666666666667E+009;1.496911346912384E-001;-8.977160602807999E-002;1.802413724362850E-003;-2.914186101406813E-003;
2.418833333333334E+009;1.493813544511795E-001;-9.135629236698151E-002;1.720471191219986E-003;-2.854365156963468E-003;
2.419000000000000E+009;1.493989229202271E-001;-9.268982708454132E-002;1.791309216059744E-003;-2.915527205914259E-003;
2.419166666666667E+009;1.495472192764282E-001;-9.395404160022736E-002;1.730000600218773E-003;-3.064155811443925E-003;
2.419333333333334E+009;1.496082991361618E-001;-9.486549347639084E-002;1.653033308684826E-003;-3.034303896129131E-003;
2.419500000000000E+009;1.497902274131775E-001;-9.608799964189529E-002;1.705421251244843E-003;-3.065894823521376E-003;
2.419666666666667E+009;1.501020342111588E-001;-9.710255265235901E-002;1.641883514821529E-003;-3.249130910262466E-003;
2.419833333333334E+009;1.501879096031189E-001;-9.763837605714798E-002;1.483782427385449E-003;-3.462617285549641E-003;
2.420000000000000E+009;1.505178511142731E-001;-9.844405949115753E-002;1.486355904489756E-003;-3.509148256853223E-003;
2.420166666666667E+009;1.506356298923492E-001;-9.897118806838989E-002;1.575393369421363E-003;-3.503543790429831E-003;
2.420333333333334E+009;1.511242091655731E-001;-9.949057549238205E-002;1.295306836254895E-003;-3.583794459700584E-003;
2.420500000000000E+009;1.513472795486450E-001;-9.981577098369598E-002;1.150106429122388E-003;-3.729680087417364E-003;
2.420666666666667E+009;1.515305042266846E-001;-9.992204606533051E-002;1.051713479682803E-003;-3.884769277647138E-003;
2.420833333333334E+009;1.518225371837616E-001;-1.001529991626740E-001;9.790059411898255E-004;-4.058350808918476E-003;
2.421000000000000E+009;1.519730240106583E-001;-1.002813056111336E-001;9.375560912303627E-004;-4.046215675771236E-003;
2.421166666666667E+009;1.523268818855286E-001;-1.004125028848648E-001;7.849521934986115E-004;-4.059851169586182E-003;
2.421333333333334E+009;1.524767130613327E-001;-1.003816649317741E-001;7.812136900611222E-004;-4.145622719079256E-003;
2.421500000000000E+009;1.524382829666138E-001;-1.002590358257294E-001;3.817110846284777E-004;-4.356808029115200E-003;
2.421666666666667E+009;1.525109410285950E-001;-1.001211106777191E-001;2.111267676809803E-004;-4.312022589147091E-003;
2.421833333333334E+009;1.524956077337265E-001;-9.982588887214661E-002;2.775293542072177E-004;-4.327934235334396E-003;
2.422000000000000E+009;1.521219462156296E-001;-9.967526048421860E-002;3.690625089802779E-005;-4.592330660670996E-003;
2.422166666666667E+009;1.520007401704788E-001;-9.962140023708344E-002;-1.708243362372741E-004;-4.758212715387344E-003;
2.422333333333334E+009;1.516197770833969E-001;-9.915214031934738E-002;-3.271766472607851E-004;-4.601706285029650E-003;
2.422500000000000E+009;1.511620730161667E-001;-9.884490072727203E-002;-4.880206251982600E-004;-4.684259649366140E-003;
2.422666666666667E+009;1.505206823348999E-001;-9.857270121574402E-002;-7.255518576130271E-004;-4.796545952558518E-003;
2.422833333333334E+009;1.499977260828018E-001;-9.835860878229141E-002;-9.920813608914614E-004;-4.797445144504309E-003;
2.423000000000000E+009;1.491210609674454E-001;-9.797641634941101E-002;-1.397990970872343E-003;-4.773488268256187E-003;
2.423166666666667E+009;1.484224200248718E-001;-9.777200222015381E-002;-1.615116605535150E-003;-4.764912184327841E-003;
2.423333333333334E+009;1.474258899688721E-001;-9.732031822204590E-002;-1.786987064406276E-003;-4.769035149365664E-003;
2.423500000000000E+009;1.463500708341599E-001;-9.707835316658020E-002;-1.939856912940741E-003;-4.865746013820171E-003;
2.423666666666667E+009;1.451193988323212E-001;-9.691222757101059E-002;-2.310038078576326E-003;-4.681375809013844E-003;
2.423833333333334E+009;1.440479159355164E-001;-9.672314673662186E-002;-2.489112550392747E-003;-4.694558680057526E-003;
2.424000000000000E+009;1.424990296363831E-001;-9.651318937540054E-002;-2.774347318336368E-003;-4.437686875462532E-003;
2.424166666666667E+009;1.411282867193222E-001;-9.630332142114639E-002;-3.084996715188026E-003;-4.326622001826763E-003;
2.424333333333334E+009;1.399689465761185E-001;-9.622851014137268E-002;-3.340471768751741E-003;-4.392032045871019E-003;
2.424500000000000E+009;1.385120004415512E-001;-9.619864076375961E-002;-3.637117333710194E-003;-4.150412976741791E-003;
2.424666666666667E+009;1.371559500694275E-001;-9.623701870441437E-002;-4.000033717602491E-003;-3.733384655788541E-003;
2.424833333333334E+009;1.355372071266174E-001;-9.659738093614578E-002;-4.208779893815517E-003;-3.628673497587442E-003;
2.425000000000000E+009;1.340462118387222E-001;-9.689960628747940E-002;-4.338472615927458E-003;-3.398846602067351E-003;
2.425166666666667E+009;1.324240416288376E-001;-9.727377444505692E-002;-4.530699457973242E-003;-3.101022448390722E-003;
2.425333333333334E+009;1.310062110424042E-001;-9.776446968317032E-002;-4.617894999682903E-003;-2.819675952196121E-003;
2.425500000000000E+009;1.295272856950760E-001;-9.845428913831711E-002;-4.687396343797445E-003;-2.570729237049818E-003;
2.425666666666667E+009;1.279542744159699E-001;-9.925664961338043E-002;-4.835820756852627E-003;-2.316993195563555E-003;
2.425833333333334E+009;1.265463083982468E-001;-9.996701776981354E-002;-4.775674082338810E-003;-2.020956249907613E-003;
2.426000000000000E+009;1.251043826341629E-001;-1.009448915719986E-001;-4.855853971093893E-003;-1.797025091946125E-003;
2.426166666666667E+009;1.239722073078156E-001;-1.020970568060875E-001;-4.856829997152090E-003;-1.419433974660933E-003;
2.426333333333334E+009;1.226578801870346E-001;-1.032387912273407E-001;-4.737305454909802E-003;-1.057862769812346E-003;
2.426500000000000E+009;1.213737279176712E-001;-1.044925376772881E-001;-4.828219767659903E-003;-8.317977190017700E-004;
2.426666666666667E+009;1.203079894185066E-001;-1.058673709630966E-001;-4.857470281422138E-003;-6.531485705636442E-004;
2.426833333333334E+009;1.191602423787117E-001;-1.071954891085625E-001;-4.613130819052458E-003;-3.122232737950981E-004;
2.427000000000000E+009;1.180985569953919E-001;-1.088219135999680E-001;-4.548603668808937E-003;-9.643301746109501E-005;
2.427166666666667E+009;1.171104758977890E-001;-1.104196459054947E-001;-4.309347365051508E-003;1.210519039887004E-004;
2.427333333333334E+009;1.162162870168686E-001;-1.119746789336205E-001;-4.296673927456141E-003;3.114190767519176E-004;
2.427500000000000E+009;1.154933199286461E-001;-1.135920286178589E-001;-4.007999319583178E-003;4.330855736043304E-004;
2.427666666666667E+009;1.146341785788536E-001;-1.154210045933723E-001;-4.026594106107950E-003;5.659048911184073E-004;
