# Version 1.00
#
freq[Hz];re:Trc1_S11;im:Trc1_S11;re:Trc2_S21;im:Trc2_S21;
2.400000000000000E+009;1.578795164823532E-001;6.196260452270508E-002;2.252215199405327E-004;-1.032272935844958E-003;
2.400166666666667E+009;1.578411608934403E-001;6.045737862586975E-002;7.645122968824580E-005;-1.001279684714973E-003;
2.400333333333334E+009;1.577559709548950E-001;5.857588350772858E-002;3.608424158301204E-004;-1.026635407470167E-003;
2.400500000000000E+009;1.579460799694061E-001;5.655238777399063E-002;2.977812837343663E-004;-1.120420056395233E-003;
2.400666666666667E+009;1.576721072196960E-001;5.481049045920372E-002;4.322619934100658E-004;-1.157522900030017E-003;
2.400833333333334E+009;1.579450964927673E-001;5.289863422513008E-002;3.014990070369095E-004;-1.204687636345625E-003;
2.401000000000000E+009;1.579302251338959E-001;5.070463195443153E-002;4.508879501372576E-004;-1.258407137356699E-003;
2.401166666666667E+009;1.583645492792130E-001;4.867657646536827E-002;4.386269720271230E-004;-1.276866067200899E-003;
2.401333333333334E+009;1.584550142288208E-001;4.670997336506844E-002;4.414982104208320E-004;-1.443087472580373E-003;
2.401500000000000E+009;1.590061336755753E-001;4.457876831293106E-002;3.544327919371426E-004;-1.413877238519490E-003;
2.401666666666667E+009;1.592366695404053E-001;4.283209890127182E-002;5.366475088521838E-004;-1.531718997284770E-003;
2.401833333333334E+009;1.596501320600510E-001;4.091761633753777E-002;3.136850136797875E-004;-1.842475030571222E-003;
2.402000000000000E+009;1.600110828876495E-001;3.894577920436859E-002;1.544640253996477E-004;-1.670230296440423E-003;
2.402166666666667E+009;1.605764329433441E-001;3.675536066293716E-002;3.348226891830564E-004;-1.838967436924577E-003;
2.402333333333334E+009;1.609683930873871E-001;3.496501222252846E-002;1.225262822117657E-004;-1.978287007659674E-003;
2.402500000000000E+009;1.618421822786331E-001;3.331330791115761E-002;2.594496472738683E-004;-2.096742158755660E-003;
2.402666666666667E+009;1.626891791820526E-001;3.141076862812042E-002;-9.038584539666772E-005;-2.038148231804371E-003;
2.402833333333334E+009;1.633161902427673E-001;2.987687475979328E-002;5.704644718207419E-005;-2.168307080864906E-003;
2.403000000000000E+009;1.641017198562622E-001;2.818631753325462E-002;-1.148184674093500E-004;-2.078512217849493E-003;
2.403166666666667E+009;1.651199758052826E-001;2.667357958853245E-002;-1.108615470002405E-004;-2.156869275495410E-003;
2.403333333333334E+009;1.658973395824432E-001;2.527194097638130E-002;-3.785221488215029E-004;-2.233491046354175E-003;
2.403500000000000E+009;1.667401790618897E-001;2.371636778116226E-002;-5.277509335428476E-004;-2.201367402449250E-003;
2.403666666666667E+009;1.676493287086487E-001;2.235401608049870E-002;-6.107761291787028E-004;-2.096640178933740E-003;
2.403833333333334E+009;1.687613427639008E-001;2.109426073729992E-002;-8.125260937958956E-004;-2.351264469325542E-003;
2.404000000000000E+009;1.695323884487152E-001;1.990867219865322E-002;-8.184568723663688E-004;-2.352174604311585E-003;
2.404166666666667E+009;1.705194562673569E-001;1.876308768987656E-002;-1.108323689550161E-003;-2.285891678184271E-003;
2.404333333333334E+009;1.713501662015915E-001;1.788409613072872E-002;-1.239111064933240E-003;-2.206945093348622E-003;
2.404500000000000E+009;1.722668707370758E-001;1.683263666927815E-002;-1.234830706380308E-003;-2.127007115632296E-003;
2.404666666666667E+009;1.732894182205200E-001;1.587595604360104E-002;-1.417249557562172E-003;-2.079333411529660E-003;
2.404833333333334E+009;1.741026192903519E-001;1.514779869467020E-002;-1.529321074485779E-003;-2.184866229072213E-003;
2.405000000000000E+009;1.748936176300049E-001;1.438883040100336E-002;-1.589492429047823E-003;-2.094739815220237E-003;
2.405166666666667E+009;1.757089644670487E-001;1.375912688672543E-002;-1.556364935822785E-003;-1.965831732377410E-003;
2.405333333333334E+009;1.765094548463821E-001;1.302571594715118E-002;-1.742546097375453E-003;-1.996644539758563E-003;
2.405500000000000E+009;1.773473620414734E-001;1.265039574354887E-002;-1.723837107419968E-003;-1.805251464247704E-003;
2.405666666666667E+009;1.778973489999771E-001;1.216237898916006E-002;-1.818106975406408E-003;-1.781920320354402E-003;
2.405833333333334E+009;1.782778948545456E-001;1.173051539808512E-002;-2.011952921748161E-003;-1.564181293360889E-003;
2.406000000000000E+009;1.789393723011017E-001;1.128390338271856E-002;-2.058023819699884E-003;-1.579130301252008E-003;
2.406166666666667E+009;1.791416555643082E-001;1.098003331571817E-002;-2.070529852062464E-003;-1.643039635382593E-003;
2.406333333333334E+009;1.796295195817947E-001;1.060457341372967E-002;-2.046982059255242E-003;-1.419066917151213E-003;
2.406500000000000E+009;1.798938661813736E-001;1.027930155396462E-002;-2.061142353340983E-003;-1.480427337810397E-003;
2.406666666666667E+009;1.800435334444046E-001;9.955272078514099E-003;-2.288775052875280E-003;-1.343557843938470E-003;
2.406833333333334E+009;1.802441030740738E-001;9.574756026268005E-003;-2.283162903040648E-003;-1.185210072435439E-003;
2.407000000000000E+009;1.803663820028305E-001;9.097973816096783E-003;-2.404006896540523E-003;-1.029666396789253E-003;
2.407166666666667E+009;1.804413497447968E-001;8.995156735181809E-003;-2.224902622401714E-003;-9.430156787857413E-004;
2.407333333333334E+009;1.803099215030670E-001;8.439424447715282E-003;-2.337168669328094E-003;-9.231679723598063E-004;
2.407500000000000E+009;1.800663620233536E-001;7.986391894519329E-003;-2.236503874883056E-003;-7.044679950922728E-004;
2.407666666666667E+009;1.799410432577133E-001;7.443693000823259E-003;-2.325486158952117E-003;-5.474531208164990E-004;
2.407833333333334E+009;1.793569028377533E-001;6.854702718555927E-003;-2.251725411042571E-003;-4.111353191547096E-004;
2.408000000000000E+009;1.791343539953232E-001;6.179597228765488E-003;-2.354490570724011E-003;-5.409090081229806E-004;
2.408166666666667E+009;1.787161529064179E-001;5.790251772850752E-003;-2.470761770382524E-003;-2.116196119459346E-004;
2.408333333333334E+009;1.784101426601410E-001;4.873672034591436E-003;-2.212070627138019E-003;-1.535541814519092E-004;
2.408500000000000E+009;1.778315305709839E-001;4.070344846695662E-003;-2.352255629375577E-003;-1.262545556528494E-004;
2.408666666666667E+009;1.773231923580170E-001;3.034581663087010E-003;-2.235570922493935E-003;-2.040192775893956E-004;
2.408833333333334E+009;1.765008419752121E-001;2.127025509253144E-003;-2.162449061870575E-003;1.591434702277184E-004;
2.409000000000000E+009;1.759525090456009E-001;1.079855486750603E-003;-2.098951721563935E-003;1.013208748190664E-004;
2.409166666666667E+009;1.752726733684540E-001;-1.237634132849053E-004;-1.955078914761543E-003;5.847389547852799E-005;
2.409333333333334E+009;1.748075038194656E-001;-1.369301346130669E-003;-1.941952505148947E-003;1.635982043808326E-004;
2.409500000000000E+009;1.741192489862442E-001;-2.743196673691273E-003;-1.804223284125328E-003;1.109872027882375E-004;
2.409666666666667E+009;1.733357459306717E-001;-4.204605240374804E-003;-1.890455838292837E-003;3.145620867144316E-004;
2.409833333333334E+009;1.727022975683212E-001;-5.473310127854347E-003;-1.928149955347180E-003;3.130854165647179E-004;
2.410000000000000E+009;1.721930056810379E-001;-6.794833112508059E-003;-1.833752845413983E-003;3.103827766608447E-004;
2.410166666666667E+009;1.715258061885834E-001;-8.526130579411984E-003;-1.811045571230352E-003;1.804417115636170E-004;
2.410333333333334E+009;1.709022372961044E-001;-1.017422508448362E-002;-1.899072201922536E-003;1.934378233272582E-004;
2.410500000000000E+009;1.704330593347549E-001;-1.184615585952997E-002;-1.753339427523315E-003;2.354237803956494E-004;
2.410666666666667E+009;1.700399667024612E-001;-1.381137222051621E-002;-1.712012104690075E-003;2.924234431702644E-004;
2.410833333333334E+009;1.696134060621262E-001;-1.545801945030689E-002;-1.656288513913751E-003;2.116415125783533E-004;
2.411000000000000E+009;1.692025214433670E-001;-1.718222908675671E-002;-1.779443235136569E-003;3.016573609784246E-004;
2.411166666666667E+009;1.688494533300400E-001;-1.906034350395203E-002;-1.787768444046378E-003;2.753646986093372E-004;
2.411333333333334E+009;1.685917973518372E-001;-2.106941118836403E-002;-1.794754643924534E-003;1.903673983179033E-004;
2.411500000000000E+009;1.682843714952469E-001;-2.312526479363442E-002;-1.812654198147357E-003;1.736995618557558E-004;
2.411666666666667E+009;1.684964895248413E-001;-2.495264820754528E-002;-1.803758088499308E-003;3.028551291208714E-004;
2.411833333333334E+009;1.682788878679276E-001;-2.684471383690834E-002;-1.906225108541548E-003;3.920210874639452E-004;
2.412000000000000E+009;1.683724671602249E-001;-2.877603285014629E-002;-1.915823551826179E-003;3.635822213254869E-004;
2.412166666666667E+009;1.683133989572525E-001;-3.068125993013382E-002;-2.005569636821747E-003;4.623865825124085E-004;
2.412333333333334E+009;1.687746942043304E-001;-3.239653632044792E-002;-2.009787131100893E-003;2.682637132238597E-004;
2.412500000000000E+009;1.688755601644516E-001;-3.446443006396294E-002;-2.150741172954440E-003;5.990306381136179E-004;
2.412666666666667E+009;1.691938340663910E-001;-3.637071698904038E-002;-2.140835393220186E-003;5.958412657491863E-004;
2.412833333333334E+009;1.696596890687943E-001;-3.807990998029709E-002;-2.037419937551022E-003;6.335474899969995E-004;
2.413000000000000E+009;1.698457747697830E-001;-3.982146829366684E-002;-2.136401599273086E-003;6.995365256443620E-004;
2.413166666666667E+009;1.702287346124649E-001;-4.150779545307159E-002;-2.028620103374124E-003;8.754154550842941E-004;
2.413333333333334E+009;1.705338507890701E-001;-4.325420409440994E-002;-2.051535062491894E-003;9.847123874351382E-004;
2.413500000000000E+009;1.712061911821365E-001;-4.476475715637207E-002;-2.204780234023929E-003;9.641032083891332E-004;
2.413666666666667E+009;1.716335266828537E-001;-4.628963768482208E-002;-2.142465440556407E-003;1.112353871576488E-003;
2.413833333333334E+009;1.722044199705124E-001;-4.780305922031403E-002;-2.188684418797493E-003;1.131783355958760E-003;
2.414000000000000E+009;1.725004464387894E-001;-4.912194237112999E-002;-2.212234307080507E-003;1.300354953855276E-003;
2.414166666666667E+009;1.731965094804764E-001;-5.040284246206284E-002;-2.096775220707059E-003;1.191818621009588E-003;
2.414333333333334E+009;1.738154590129852E-001;-5.168462917208672E-002;-2.032994059845805E-003;1.470164163038135E-003;
2.414500000000000E+009;1.743514239788055E-001;-5.266505852341652E-002;-1.994210761040449E-003;1.323996693827212E-003;
2.414666666666667E+009;1.747774630784988E-001;-5.364212393760681E-002;-1.904957927763462E-003;1.607550657354295E-003;
2.414833333333334E+009;1.749763935804367E-001;-5.477295070886612E-002;-1.899147522635758E-003;1.571174128912389E-003;
2.415000000000000E+009;1.755949109792709E-001;-5.552853271365166E-002;-1.953233731910586E-003;1.646763179451227E-003;
2.415166666666667E+009;1.759357452392578E-001;-5.635178834199905E-002;-1.904626376926899E-003;1.985659357160330E-003;
2.415333333333334E+009;1.764052063226700E-001;-5.714611709117889E-002;-1.883805147372186E-003;1.851992448791862E-003;
2.415500000000000E+009;1.767089813947678E-001;-5.758876353502274E-002;-1.712109427899122E-003;1.971693709492683E-003;
2.415666666666667E+009;1.769163459539414E-001;-5.824938789010048E-002;-1.602701260708273E-003;1.999835250899196E-003;
2.415833333333334E+009;1.771199256181717E-001;-5.871637538075447E-002;-1.588622457347810E-003;1.968323485925794E-003;
2.416000000000000E+009;1.771530807018280E-001;-5.909266322851181E-002;-1.644902746193111E-003;2.151377499103546E-003;
2.416166666666667E+009;1.772278845310211E-001;-5.958365648984909E-002;-1.501515274867415E-003;2.169223735108972E-003;
2.416333333333334E+009;1.771782785654068E-001;-5.978488177061081E-002;-1.440838444977999E-003;2.252247650176287E-003;
2.416500000000000E+009;1.771005392074585E-001;-6.040883809328079E-002;-1.298255519941449E-003;2.407811814919114E-003;
2.416666666666667E+009;1.768143624067307E-001;-6.047983467578888E-002;-1.279325108043850E-003;2.400932833552361E-003;
2.416833333333334E+009;1.766034662723541E-001;-6.077176705002785E-002;-1.187862595543265E-003;2.494178479537368E-003;
2.417000000000000E+009;1.760952472686768E-001;-6.097801029682159E-002;-1.158275292254984E-003;2.477135276421905E-003;
2.417166666666667E+009;1.756232678890228E-001;-6.123847886919975E-002;-1.028586179018021E-003;2.594270743429661E-003;
2.417333333333334E+009;1.751644313335419E-001;-6.136569753289223E-002;-8.203748147934675E-004;2.734172623604536E-003;
2.417500000000000E+009;1.744009405374527E-001;-6.190887838602066E-002;-7.278193370439112E-004;2.707337494939566E-003;
2.417666666666667E+009;1.738481968641281E-001;-6.203844770789146E-002;-5.926073645241559E-004;2.574829850345850E-003;
2.417833333333334E+009;1.729608029127121E-001;-6.227014586329460E-002;-6.715147756040096E-004;2.742653945460916E-003;
2.418000000000000E+009;1.720695346593857E-001;-6.285836547613144E-002;-4.595892387442291E-004;2.747866557911038E-003;
2.418166666666667E+009;1.710868030786514E-001;-6.284913420677185E-002;-4.576929786708206E-004;2.690186724066734E-003;
2.418333333333334E+009;1.704436838626862E-001;-6.342675536870956E-002;-5.503062275238335E-004;2.727978862822056E-003;
2.418500000000000E+009;1.693018823862076E-001;-6.398361921310425E-002;-2.386487030889839E-004;2.831918885931373E-003;
2.418666666666667E+009;1.683066785335541E-001;-6.444161385297775E-002;3.136185841867700E-005;2.755686640739441E-003;
2.418833333333334E+009;1.670275181531906E-001;-6.496759504079819E-002;-6.888561529194703E-006;2.754886634647846E-003;
2.419000000000000E+009;1.658475250005722E-001;-6.560251116752625E-002;-3.246496635256335E-005;2.814091276377440E-003;
2.419166666666667E+009;1.647994369268417E-001;-6.627535074949265E-002;1.562694233143702E-004;2.843952504917979E-003;
2.419333333333334E+009;1.634359359741211E-001;-6.676284223794937E-002;3.456608392298222E-004;2.795661566779017E-003;
2.419500000000000E+009;1.624312996864319E-001;-6.780699640512466E-002;5.190818337723613E-004;2.793041756376624E-003;
2.419666666666667E+009;1.613768488168716E-001;-6.872689723968506E-002;4.531509475782514E-004;2.639769343659282E-003;
2.419833333333334E+009;1.599593013525009E-001;-6.968498975038528E-002;6.302124820649624E-004;2.743243938311935E-003;
2.420000000000000E+009;1.590908616781235E-001;-7.071429491043091E-002;6.104518542997539E-004;2.697205403819680E-003;
2.420166666666667E+009;1.580121964216232E-001;-7.199832051992416E-002;8.426031563431025E-004;2.516878070309758E-003;
2.420333333333334E+009;1.569916158914566E-001;-7.313674688339233E-002;9.502726024948061E-004;2.557320753112435E-003;
2.420500000000000E+009;1.558833718299866E-001;-7.416494190692902E-002;9.514422272332013E-004;2.573127625510097E-003;
2.420666666666667E+009;1.549044698476791E-001;-7.549003511667252E-002;9.568055393174291E-004;2.494381740689278E-003;
2.420833333333334E+009;1.542287617921829E-001;-7.695405185222626E-002;1.113518024794757E-003;2.325621200725436E-003;
2.421000000000000E+009;1.532821357250214E-001;-7.843733578920364E-002;1.083764946088195E-003;2.338591963052750E-003;
2.421166666666667E+009;1.526254266500473E-001;-7.977391034364700E-002;1.243764068931341E-003;2.291441196575761E-003;
2.421333333333334E+009;1.519415378570557E-001;-8.163863420486450E-002;1.237593940459192E-003;2.092342125251889E-003;
2.421500000000000E+009;1.513117700815201E-001;-8.308248221874237E-002;1.316390815190971E-003;2.251131692901254E-003;
2.421666666666667E+009;1.508403867483139E-001;-8.460418134927750E-002;1.435884390957654E-003;2.085182815790176E-003;
2.421833333333334E+009;1.505709439516068E-001;-8.635422587394714E-002;1.391599536873400E-003;2.019757404923439E-003;
2.422000000000000E+009;1.501344889402390E-001;-8.802624046802521E-002;1.463944208808243E-003;1.878529787063599E-003;
2.422166666666667E+009;1.498551815748215E-001;-8.968677371740341E-002;1.558902091346681E-003;1.833451096899808E-003;
2.422333333333334E+009;1.497717201709747E-001;-9.124920517206192E-002;1.638231100514531E-003;1.867893035523593E-003;
2.422500000000000E+009;1.495877355337143E-001;-9.290409088134766E-002;1.670745899900794E-003;1.942385337315500E-003;
2.422666666666667E+009;1.494831144809723E-001;-9.457652270793915E-002;1.705833594314754E-003;1.768113579601049E-003;
2.422833333333334E+009;1.496475338935852E-001;-9.636434167623520E-002;1.728796167299151E-003;1.826272462494671E-003;
2.423000000000000E+009;1.496971994638443E-001;-9.807359427213669E-002;1.783803920261562E-003;1.606765901669860E-003;
2.423166666666667E+009;1.499229371547699E-001;-9.937186539173126E-002;1.879417686723173E-003;1.743155880831182E-003;
2.423333333333334E+009;1.503462642431259E-001;-1.008300408720970E-001;1.850603497587144E-003;1.509710215032101E-003;
2.423500000000000E+009;1.505166292190552E-001;-1.026278361678124E-001;1.786378910765052E-003;1.645994954742491E-003;
2.423666666666667E+009;1.508358269929886E-001;-1.041237339377403E-001;2.047652844339609E-003;1.498423982411623E-003;
2.423833333333334E+009;1.513504832983017E-001;-1.055824682116509E-001;1.870015519671142E-003;1.490132650360465E-003;
2.424000000000000E+009;1.517780870199204E-001;-1.066442206501961E-001;1.880535972304642E-003;1.489707268774509E-003;
2.424166666666667E+009;1.519216597080231E-001;-1.079900413751602E-001;1.982124755159020E-003;1.333995489403606E-003;
2.424333333333334E+009;1.525853127241135E-001;-1.091703251004219E-001;2.079603495076299E-003;1.344471238553524E-003;
2.424500000000000E+009;1.530324667692184E-001;-1.104256734251976E-001;2.109999535605311E-003;1.236596726812422E-003;
2.424666666666667E+009;1.537367999553680E-001;-1.113232076168060E-001;2.115462440997362E-003;1.029270817525685E-003;
2.424833333333334E+009;1.537866741418839E-001;-1.121990531682968E-001;2.167689613997936E-003;9.314577328041196E-004;
2.425000000000000E+009;1.543926298618317E-001;-1.132485121488571E-001;2.254995750263333E-003;1.008855761028826E-003;
2.425166666666667E+009;1.545486599206924E-001;-1.140083298087120E-001;2.189691644161940E-003;8.890969329513609E-004;
2.425333333333334E+009;1.550168693065643E-001;-1.146689876914024E-001;2.110951812937856E-003;9.139011381193996E-004;
2.425500000000000E+009;1.554449498653412E-001;-1.155813112854958E-001;2.181442920118570E-003;8.749694097787142E-004;
2.425666666666667E+009;1.555666476488113E-001;-1.160718202590942E-001;2.273131161928177E-003;6.421949947252870E-004;
2.425833333333334E+009;1.558993607759476E-001;-1.166212931275368E-001;2.060606377199292E-003;6.205232930369675E-004;
2.426000000000000E+009;1.559155434370041E-001;-1.171799302101135E-001;2.254350343719125E-003;6.181081407703459E-004;
2.426166666666667E+009;1.563460230827332E-001;-1.175673380494118E-001;2.346882829442620E-003;3.830480272881687E-004;
2.426333333333334E+009;1.563467979431152E-001;-1.178039535880089E-001;2.295628888532519E-003;5.151242366991937E-004;
2.426500000000000E+009;1.562914401292801E-001;-1.181340292096138E-001;2.365703461691737E-003;2.899223472923040E-004;
2.426666666666667E+009;1.562977135181427E-001;-1.182738170027733E-001;2.282087691128254E-003;4.578617808874697E-004;
2.426833333333334E+009;1.559259146451950E-001;-1.184664443135262E-001;2.228366211056709E-003;2.325440727872774E-004;
2.427000000000000E+009;1.556610465049744E-001;-1.187254786491394E-001;2.063199179247022E-003;1.071262813638896E-004;
2.427166666666667E+009;1.552514582872391E-001;-1.188175678253174E-001;2.171574160456657E-003;3.234308314858936E-005;
2.427333333333334E+009;1.546959877014160E-001;-1.189438030123711E-001;2.276320243254304E-003;-1.788127883628476E-005;
2.427500000000000E+009;1.542546153068543E-001;-1.191064789891243E-001;2.326959976926446E-003;-1.023121440084651E-004;
2.427666666666667E+009;1.535258591175079E-001;-1.192891821265221E-001;2.104236977174878E-003;-3.332392952870578E-005;
2.427833333333334E+009;1.526361852884293E-001;-1.193045303225517E-001;2.084293402731419E-003;4.446334423846565E-005;
