# Version 1.00
#
freq[Hz];re:Trc1_S11;im:Trc1_S11;re:Trc2_S21;im:Trc2_S21;
2.400000000000000E+009;1.580887287855148E-001;6.188908591866493E-002;1.398066233377904E-004;-1.190480659715831E-003;
2.400166666666667E+009;1.580382883548737E-001;6.042009592056274E-002;1.034833476296626E-004;-1.137963146902621E-003;
2.400333333333334E+009;1.577537804841995E-001;5.856254324316979E-002;1.570786262163892E-004;-1.081571448594332E-003;
2.400500000000000E+009;1.578701734542847E-001;5.659142509102821E-002;4.577585204970092E-004;-1.199547434225678E-003;
2.400666666666667E+009;1.578568220138550E-001;5.467332899570465E-002;3.862457233481109E-004;-1.354771899059415E-003;
2.400833333333334E+009;1.579263955354691E-001;5.269835144281387E-002;5.044630961492658E-004;-1.161181018687785E-003;
2.401000000000000E+009;1.581424176692963E-001;5.075304955244064E-002;5.576367839239538E-004;-1.383950002491474E-003;
2.401166666666667E+009;1.582548767328262E-001;4.872542247176170E-002;2.754042216110975E-004;-1.332207233645022E-003;
2.401333333333334E+009;1.585192829370499E-001;4.663085937500000E-002;4.140500677749515E-004;-1.502449042163789E-003;
2.401500000000000E+009;1.589586287736893E-001;4.465003311634064E-002;2.896453952416778E-004;-1.406164374202490E-003;
2.401666666666667E+009;1.593069285154343E-001;4.259831830859184E-002;3.905359189957380E-004;-1.617633854039013E-003;
2.401833333333334E+009;1.597373485565186E-001;4.073655977845192E-002;4.211676714476198E-004;-1.710150623694062E-003;
2.402000000000000E+009;1.599568426609039E-001;3.881965205073357E-002;4.093729949090630E-004;-1.845425576902926E-003;
2.402166666666667E+009;1.606641113758087E-001;3.676850348711014E-002;3.096413274761289E-004;-1.887035206891596E-003;
2.402333333333334E+009;1.612165868282318E-001;3.487319871783257E-002;9.126387885771692E-005;-1.976691884920001E-003;
2.402500000000000E+009;1.618500351905823E-001;3.317746520042419E-002;-2.756855110419565E-006;-2.013243502005935E-003;
2.402666666666667E+009;1.625193208456039E-001;3.162100911140442E-002;-1.194863762066234E-005;-2.237812150269747E-003;
2.402833333333334E+009;1.632104068994522E-001;2.980964817106724E-002;-9.004143066704273E-005;-2.285934984683991E-003;
2.403000000000000E+009;1.639919877052307E-001;2.813407592475414E-002;-2.744041848927736E-004;-2.294359263032675E-003;
2.403166666666667E+009;1.650007814168930E-001;2.662041969597340E-002;-3.593807923607528E-004;-2.230436773970723E-003;
2.403333333333334E+009;1.658760309219360E-001;2.522228285670281E-002;-4.996050847694278E-004;-2.326407935470343E-003;
2.403500000000000E+009;1.667646467685700E-001;2.385718189179897E-002;-5.820214282721281E-004;-2.217815490439534E-003;
2.403666666666667E+009;1.677467972040176E-001;2.235926687717438E-002;-7.387332152575254E-004;-2.386203268542886E-003;
2.403833333333334E+009;1.686235517263413E-001;2.108509466052055E-002;-8.011865429580212E-004;-2.352784387767315E-003;
2.404000000000000E+009;1.698039025068283E-001;1.984762959182262E-002;-7.969565340317786E-004;-2.209603786468506E-003;
2.404166666666667E+009;1.705413609743118E-001;1.883257739245892E-002;-1.098899287171662E-003;-2.303760964423418E-003;
2.404333333333334E+009;1.713047325611115E-001;1.775453612208366E-002;-1.285728183574975E-003;-2.290949923917651E-003;
2.404500000000000E+009;1.722933053970337E-001;1.679333485662937E-002;-1.188843278214335E-003;-2.132376190274954E-003;
2.404666666666667E+009;1.731988638639450E-001;1.611626893281937E-002;-1.362486626021564E-003;-2.258702879771590E-003;
2.404833333333334E+009;1.741803139448166E-001;1.523768249899149E-002;-1.453788019716740E-003;-2.079420024529100E-003;
2.405000000000000E+009;1.749120056629181E-001;1.430150121450424E-002;-1.602600910700858E-003;-1.903343014419079E-003;
2.405166666666667E+009;1.757534295320511E-001;1.366791129112244E-002;-1.807958236895502E-003;-1.988315954804421E-003;
2.405333333333334E+009;1.765665858983994E-001;1.305510941892862E-002;-1.739083556458354E-003;-1.968501601368189E-003;
2.405500000000000E+009;1.771771162748337E-001;1.263125706464052E-002;-1.880277646705508E-003;-1.893531763926148E-003;
2.405666666666667E+009;1.777831017971039E-001;1.202774327248335E-002;-2.003571251407266E-003;-1.810360117815435E-003;
2.405833333333334E+009;1.783045381307602E-001;1.165662799030542E-002;-2.023255452513695E-003;-1.750553259626031E-003;
2.406000000000000E+009;1.788276284933090E-001;1.125989574939013E-002;-2.186114201322198E-003;-1.636560074985027E-003;
2.406166666666667E+009;1.792377829551697E-001;1.087242551147938E-002;-2.234174869954586E-003;-1.579629722982645E-003;
2.406333333333334E+009;1.799010038375855E-001;1.052563264966011E-002;-2.222381532192230E-003;-1.446237205527723E-003;
2.406500000000000E+009;1.798782646656036E-001;1.024698372930288E-002;-2.213040832430124E-003;-1.214470481500030E-003;
2.406666666666667E+009;1.799521148204804E-001;9.928189218044281E-003;-2.309336094185710E-003;-1.119605964049697E-003;
2.406833333333334E+009;1.802658289670944E-001;9.541750885546207E-003;-2.375890733674169E-003;-9.825763991102576E-004;
2.407000000000000E+009;1.803673654794693E-001;9.116818197071552E-003;-2.448536455631256E-003;-1.152971526607871E-003;
2.407166666666667E+009;1.803995817899704E-001;8.787074126303196E-003;-2.415752736851573E-003;-8.875098428688943E-004;
2.407333333333334E+009;1.802581846714020E-001;8.298214524984360E-003;-2.384593943133950E-003;-7.568385917693377E-004;
2.407500000000000E+009;1.800030320882797E-001;7.982172071933746E-003;-2.416586503386498E-003;-8.647312060929835E-004;
2.407666666666667E+009;1.799132525920868E-001;7.446105126291513E-003;-2.410328947007656E-003;-6.580282351933420E-004;
2.407833333333334E+009;1.795252114534378E-001;6.803530268371105E-003;-2.493244595825672E-003;-3.903776232618839E-004;
2.408000000000000E+009;1.791635751724243E-001;6.251032929867506E-003;-2.383906394243240E-003;-3.017361159436405E-004;
2.408166666666667E+009;1.787167787551880E-001;5.626169964671135E-003;-2.388645196333528E-003;-3.094520361628383E-004;
2.408333333333334E+009;1.783847659826279E-001;4.854344297200441E-003;-2.264345996081829E-003;-3.061290481127799E-004;
2.408500000000000E+009;1.778738498687744E-001;3.910887055099011E-003;-2.191066276282072E-003;-2.289161202497780E-004;
2.408666666666667E+009;1.772174239158630E-001;3.012608503922820E-003;-2.258271444588900E-003;-5.252994924376253E-006;
2.408833333333334E+009;1.766260862350464E-001;2.075390657410026E-003;-2.284303307533264E-003;1.187970883620437E-005;
2.409000000000000E+009;1.758823692798615E-001;9.968789527192712E-004;-2.117699710652232E-003;1.740871375659481E-004;
2.409166666666667E+009;1.755139529705048E-001;-1.271343353437260E-004;-2.125620143488050E-003;1.140252425102517E-004;
2.409333333333334E+009;1.748417466878891E-001;-1.404952257871628E-003;-2.021608175709844E-003;2.267187519464642E-004;
2.409500000000000E+009;1.740351915359497E-001;-2.909053349867463E-003;-1.941542141139507E-003;1.923983072629198E-004;
2.409666666666667E+009;1.732347011566162E-001;-4.079213831573725E-003;-2.043067710474134E-003;2.346128167118877E-004;
2.409833333333334E+009;1.727126240730286E-001;-5.405054427683353E-003;-1.985381357371807E-003;2.793173189274967E-004;
2.410000000000000E+009;1.720902472734451E-001;-6.964850705116987E-003;-1.816301955841482E-003;2.820027584675700E-004;
2.410166666666667E+009;1.716440618038178E-001;-8.768178522586823E-003;-1.791429589502513E-003;3.155390440952033E-004;
2.410333333333334E+009;1.710080802440643E-001;-1.017004065215588E-002;-1.830949215218425E-003;2.847133146133274E-004;
2.410500000000000E+009;1.703897416591644E-001;-1.186654157936573E-002;-1.760766957886517E-003;1.870427950052545E-004;
2.410666666666667E+009;1.698618233203888E-001;-1.381928846240044E-002;-1.913676853291690E-003;4.576265928335488E-004;
2.410833333333334E+009;1.695572733879089E-001;-1.552240829914808E-002;-1.837749849073589E-003;3.812583163380623E-004;
2.411000000000000E+009;1.690574288368225E-001;-1.733106747269630E-002;-1.912685926072300E-003;2.589370124042034E-004;
2.411166666666667E+009;1.687868684530258E-001;-1.920100674033165E-002;-1.872984925284982E-003;2.215835120296106E-004;
2.411333333333334E+009;1.683378070592880E-001;-2.111979387700558E-002;-1.884952187538147E-003;3.803017898462713E-004;
2.411500000000000E+009;1.683135181665421E-001;-2.312057837843895E-002;-1.807847758755088E-003;3.390162310097367E-004;
2.411666666666667E+009;1.683408766984940E-001;-2.507632784545422E-002;-1.940601854585111E-003;2.139551652362570E-004;
2.411833333333334E+009;1.681663841009140E-001;-2.689271606504917E-002;-1.996661070734263E-003;4.748560895677656E-004;
2.412000000000000E+009;1.681519150733948E-001;-2.892254851758480E-002;-2.171287545934320E-003;4.530527512542903E-004;
2.412166666666667E+009;1.683704107999802E-001;-3.080863878130913E-002;-2.152080880478025E-003;4.683004226535559E-004;
2.412333333333334E+009;1.687476933002472E-001;-3.253282234072685E-002;-2.083300147205591E-003;6.156026502139866E-004;
2.412500000000000E+009;1.688583791255951E-001;-3.425850719213486E-002;-2.150389598682523E-003;5.293836584314704E-004;
2.412666666666667E+009;1.690791398286820E-001;-3.628313913941383E-002;-2.086067805066705E-003;5.720003391616046E-004;
2.412833333333334E+009;1.695538610219955E-001;-3.798367455601692E-002;-2.074085175991058E-003;6.435811519622803E-004;
2.413000000000000E+009;1.698367893695831E-001;-3.985028341412544E-002;-2.207667799666524E-003;8.076208177953959E-004;
2.413166666666667E+009;1.701406985521317E-001;-4.147891700267792E-002;-2.247493015602231E-003;8.579494897276163E-004;
2.413333333333334E+009;1.705025881528854E-001;-4.326568543910980E-002;-2.120579127222300E-003;8.521525887772441E-004;
2.413500000000000E+009;1.711963713169098E-001;-4.471560567617416E-002;-2.187225036323071E-003;9.001446887850761E-004;
2.413666666666667E+009;1.717497855424881E-001;-4.630791768431664E-002;-2.222818788141012E-003;1.239960896782577E-003;
2.413833333333334E+009;1.721409559249878E-001;-4.780973866581917E-002;-2.042269334197044E-003;1.326952362433076E-003;
2.414000000000000E+009;1.726499795913696E-001;-4.909668117761612E-002;-2.104972023516893E-003;1.289653126150370E-003;
2.414166666666667E+009;1.731544584035873E-001;-5.038478225469589E-002;-2.079206751659513E-003;1.369712525047362E-003;
2.414333333333334E+009;1.738275885581970E-001;-5.164114013314247E-002;-1.841547433286905E-003;1.622717478312552E-003;
2.414500000000000E+009;1.743239611387253E-001;-5.282724276185036E-002;-2.121923258528113E-003;1.614284701645374E-003;
2.414666666666667E+009;1.747630685567856E-001;-5.377330258488655E-002;-1.863639336079359E-003;1.668025157414377E-003;
2.414833333333334E+009;1.752269119024277E-001;-5.471881479024887E-002;-1.992014935240150E-003;1.681137713603675E-003;
2.415000000000000E+009;1.756900399923325E-001;-5.551145970821381E-002;-1.832888694480062E-003;1.738343853503466E-003;
2.415166666666667E+009;1.759260743856430E-001;-5.643090978264809E-002;-1.725047943182290E-003;1.868431223556399E-003;
2.415333333333334E+009;1.763948500156403E-001;-5.720677226781845E-002;-1.858196803368628E-003;1.963615184649825E-003;
2.415500000000000E+009;1.766793131828308E-001;-5.773388594388962E-002;-1.840817858465016E-003;2.007002243772149E-003;
2.415666666666667E+009;1.768381744623184E-001;-5.812506377696991E-002;-1.567730330862105E-003;1.970698591321707E-003;
2.415833333333334E+009;1.770997047424316E-001;-5.871545895934105E-002;-1.557269948534668E-003;2.074737800285220E-003;
2.416000000000000E+009;1.771669536828995E-001;-5.918504670262337E-002;-1.524988794699311E-003;2.206064527854323E-003;
2.416166666666667E+009;1.773065626621246E-001;-5.961906909942627E-002;-1.475029741413891E-003;2.403167774900794E-003;
2.416333333333334E+009;1.772398352622986E-001;-5.982390418648720E-002;-1.352638821117580E-003;2.353704301640391E-003;
2.416500000000000E+009;1.770444810390472E-001;-6.030803918838501E-002;-1.268499298021197E-003;2.466676523908973E-003;
2.416666666666667E+009;1.767667382955551E-001;-6.052406877279282E-002;-1.338540227152407E-003;2.399408491328359E-003;
2.416833333333334E+009;1.765546947717667E-001;-6.088097393512726E-002;-1.098057255148888E-003;2.575155813246965E-003;
2.417000000000000E+009;1.761016100645065E-001;-6.117031350731850E-002;-1.026775222271681E-003;2.684401813894510E-003;
2.417166666666667E+009;1.756452023983002E-001;-6.122918426990509E-002;-9.895204566419125E-004;2.681358484551311E-003;
2.417333333333334E+009;1.751379519701004E-001;-6.151472404599190E-002;-8.835892658680677E-004;2.722869627177715E-003;
2.417500000000000E+009;1.744803339242935E-001;-6.194474175572395E-002;-8.440839592367411E-004;2.713577589020133E-003;
2.417666666666667E+009;1.738578975200653E-001;-6.210620328783989E-002;-5.059308023191989E-004;2.737871371209621E-003;
2.417833333333334E+009;1.729807257652283E-001;-6.226912885904312E-002;-6.295118946582079E-004;2.722607227042317E-003;
2.418000000000000E+009;1.720166504383087E-001;-6.278835982084274E-002;-3.802794672083110E-004;2.783236326649785E-003;
2.418166666666667E+009;1.711134165525436E-001;-6.295184046030045E-002;-3.325368161313236E-004;2.749682404100895E-003;
2.418333333333334E+009;1.704777926206589E-001;-6.354328989982605E-002;-2.979284909088165E-004;2.810349455103278E-003;
2.418500000000000E+009;1.693642437458038E-001;-6.388512253761292E-002;-1.914874737849459E-004;2.836899831891060E-003;
2.418666666666667E+009;1.683579385280609E-001;-6.434855610132217E-002;-1.129360825871117E-004;2.802187344059348E-003;
2.418833333333334E+009;1.670842468738556E-001;-6.504540890455246E-002;3.687823664222378E-006;2.768792910501361E-003;
2.419000000000000E+009;1.658203601837158E-001;-6.562839448451996E-002;1.990302844205871E-004;2.807363402098417E-003;
2.419166666666667E+009;1.647995859384537E-001;-6.629050523042679E-002;2.470405888743699E-004;2.817670814692974E-003;
2.419333333333334E+009;1.635600775480270E-001;-6.689428538084030E-002;4.818584711756557E-004;2.820148598402739E-003;
2.419500000000000E+009;1.622531861066818E-001;-6.787388771772385E-002;6.208264967426658E-004;2.768571022897959E-003;
2.419666666666667E+009;1.613763868808746E-001;-6.888366490602493E-002;6.966173532418907E-004;2.641622675582767E-003;
2.419833333333334E+009;1.601496785879135E-001;-6.964622437953949E-002;7.658843533135951E-004;2.660966943949461E-003;
2.420000000000000E+009;1.589365452528000E-001;-7.081552594900131E-002;7.658628746867180E-004;2.630322473123670E-003;
2.420166666666667E+009;1.579251140356064E-001;-7.184899598360062E-002;7.372022955678403E-004;2.640733495354652E-003;
2.420333333333334E+009;1.569513231515884E-001;-7.311265915632248E-002;9.958251612260938E-004;2.586198272183538E-003;
2.420500000000000E+009;1.560755372047424E-001;-7.418052107095718E-002;9.739748202264309E-004;2.599434461444616E-003;
2.420666666666667E+009;1.550827622413635E-001;-7.554799318313599E-002;9.890007786452770E-004;2.484307391569018E-003;
2.420833333333334E+009;1.542335152626038E-001;-7.689820975065231E-002;1.170949661172926E-003;2.417126903310418E-003;
2.421000000000000E+009;1.534409970045090E-001;-7.837731391191483E-002;1.236740499734879E-003;2.291375538334251E-003;
2.421166666666667E+009;1.526169329881668E-001;-7.983817160129547E-002;1.316848094575107E-003;2.244257368147373E-003;
2.421333333333334E+009;1.520795822143555E-001;-8.144960552453995E-002;1.272052875719965E-003;2.295586280524731E-003;
2.421500000000000E+009;1.513784825801849E-001;-8.304025977849960E-002;1.348391640931368E-003;2.140476834028959E-003;
2.421666666666667E+009;1.509326994419098E-001;-8.458422124385834E-002;1.493794261477888E-003;2.056423341855407E-003;
2.421833333333334E+009;1.504121869802475E-001;-8.634787052869797E-002;1.580694224685431E-003;2.065692795440555E-003;
2.422000000000000E+009;1.501935273408890E-001;-8.793002367019653E-002;1.586171099916101E-003;1.902607269585133E-003;
2.422166666666667E+009;1.497505307197571E-001;-8.974421769380570E-002;1.508510787971318E-003;1.942112925462425E-003;
2.422333333333334E+009;1.497850865125656E-001;-9.118221700191498E-002;1.637115259654820E-003;1.861208351328969E-003;
2.422500000000000E+009;1.496147513389587E-001;-9.275079518556595E-002;1.772643416188657E-003;1.732515287585557E-003;
2.422666666666667E+009;1.495442688465118E-001;-9.453289955854416E-002;1.712756929919124E-003;1.767940353602171E-003;
2.422833333333334E+009;1.496583670377731E-001;-9.620267152786255E-002;1.754471566528082E-003;1.796550466679037E-003;
2.423000000000000E+009;1.496594846248627E-001;-9.799956530332565E-002;1.783680054359138E-003;1.840316690504551E-003;
2.423166666666667E+009;1.501313447952271E-001;-9.951044619083405E-002;1.799907186068595E-003;1.647285418584943E-003;
2.423333333333334E+009;1.503279656171799E-001;-1.009943559765816E-001;1.917207846418023E-003;1.535213785246015E-003;
2.423500000000000E+009;1.505023390054703E-001;-1.026001423597336E-001;1.938148518092930E-003;1.484106993302703E-003;
2.423666666666667E+009;1.507920175790787E-001;-1.041628420352936E-001;1.971639925613999E-003;1.568110310472548E-003;
2.423833333333334E+009;1.512967795133591E-001;-1.055869534611702E-001;2.008727053180337E-003;1.442706328816712E-003;
2.424000000000000E+009;1.517355591058731E-001;-1.067204326391220E-001;2.028774470090866E-003;1.212078961543739E-003;
2.424166666666667E+009;1.520307958126068E-001;-1.080672889947891E-001;2.001847140491009E-003;1.282041775994003E-003;
2.424333333333334E+009;1.526584923267365E-001;-1.091633662581444E-001;2.176367910578847E-003;1.231322647072375E-003;
2.424500000000000E+009;1.529602110385895E-001;-1.103712841868401E-001;2.210648963227868E-003;1.154377008788288E-003;
2.424666666666667E+009;1.535707563161850E-001;-1.112685725092888E-001;2.222624607384205E-003;1.144578563980758E-003;
2.424833333333334E+009;1.539046615362167E-001;-1.122346073389053E-001;2.188196405768395E-003;9.874356910586357E-004;
2.425000000000000E+009;1.543896049261093E-001;-1.133037954568863E-001;2.240536967292428E-003;1.020916039124131E-003;
2.425166666666667E+009;1.545960903167725E-001;-1.140563189983368E-001;2.153387526050210E-003;7.657969254069030E-004;
2.425333333333334E+009;1.550248265266419E-001;-1.147800460457802E-001;2.114914357662201E-003;7.908875122666359E-004;
2.425500000000000E+009;1.553852856159210E-001;-1.156337335705757E-001;2.270789816975594E-003;8.038330706767738E-004;
2.425666666666667E+009;1.555891036987305E-001;-1.161580458283424E-001;2.352648880332708E-003;5.512497154995799E-004;
2.425833333333334E+009;1.558746248483658E-001;-1.166846677660942E-001;2.354882424697280E-003;6.270362646318972E-004;
2.426000000000000E+009;1.559846103191376E-001;-1.172145009040833E-001;2.290265634655953E-003;6.057624705135822E-004;
2.426166666666667E+009;1.562956422567368E-001;-1.177544072270393E-001;2.301358152180910E-003;4.462948709260672E-004;
2.426333333333334E+009;1.561800390481949E-001;-1.179452538490295E-001;2.293290803208947E-003;4.546390846371651E-004;
2.426500000000000E+009;1.561961472034454E-001;-1.181106343865395E-001;2.339848782867193E-003;2.489683974999934E-004;
2.426666666666667E+009;1.562207639217377E-001;-1.182234436273575E-001;2.226006472483277E-003;2.214593696407974E-004;
2.426833333333334E+009;1.559204459190369E-001;-1.185659915208817E-001;2.270267112180591E-003;1.420756743755192E-004;
2.427000000000000E+009;1.554770171642304E-001;-1.188153028488159E-001;2.253418089821935E-003;6.536006367241498E-006;
2.427166666666667E+009;1.551488488912582E-001;-1.187895163893700E-001;2.244241302832961E-003;8.029631862882525E-005;
2.427333333333334E+009;1.546633094549179E-001;-1.190384179353714E-001;2.281115856021643E-003;7.152911712182686E-005;
2.427500000000000E+009;1.541201472282410E-001;-1.191300600767136E-001;2.168718026950955E-003;-5.200996747589670E-005;
2.427666666666667E+009;1.534835398197174E-001;-1.193796470761299E-001;2.118486445397139E-003;-5.728307223762386E-005;
