# Version 1.00
#
freq[Hz];re:Trc1_S11;im:Trc1_S11;re:Trc2_S21;im:Trc2_S21;
2.400000000000000E+009;1.581053137779236E-001;6.240152195096016E-002;-2.568853415141348E-005;-1.058385358192027E-003;
2.400166666666667E+009;1.581523865461350E-001;6.078796461224556E-002;-2.897731610573828E-005;-1.079513924196363E-003;
2.400333333333334E+009;1.579339951276779E-001;5.896593257784843E-002;8.824488031677902E-005;-1.025034929625690E-003;
2.400500000000000E+009;1.578739583492279E-001;5.703945830464363E-002;-1.957368476723786E-005;-1.047110999934375E-003;
2.400666666666667E+009;1.578724980354309E-001;5.502367392182350E-002;5.814433461637236E-005;-1.035781810060144E-003;
2.400833333333334E+009;1.580898165702820E-001;5.318186432123184E-002;-2.484830929461168E-006;-1.070609898306429E-003;
2.401000000000000E+009;1.581895798444748E-001;5.108235776424408E-002;2.630198105180170E-005;-1.022630254738033E-003;
2.401166666666667E+009;1.583814173936844E-001;4.898253455758095E-002;2.425434331598808E-006;-1.102773938328028E-003;
2.401333333333334E+009;1.584805548191071E-001;4.688918218016625E-002;-2.837996180460323E-005;-1.167244045063853E-003;
2.401500000000000E+009;1.590493619441986E-001;4.481738433241844E-002;1.475355820730329E-004;-1.188313472084701E-003;
2.401666666666667E+009;1.593051850795746E-001;4.274518415331841E-002;1.236206444445998E-004;-1.150499912910163E-003;
2.401833333333334E+009;1.596136242151260E-001;4.088866338133812E-002;1.781622850103304E-004;-1.090754289180040E-003;
2.402000000000000E+009;1.599015444517136E-001;3.895032033324242E-002;1.176631049020216E-004;-1.143976114690304E-003;
2.402166666666667E+009;1.605549752712250E-001;3.669379279017448E-002;1.736805570544675E-004;-1.305991201661527E-003;
2.402333333333334E+009;1.610776782035828E-001;3.496839478611946E-002;2.275097795063630E-004;-1.172000425867736E-003;
2.402500000000000E+009;1.621256619691849E-001;3.312606737017632E-002;1.607278827577829E-004;-1.391868689097464E-003;
2.402666666666667E+009;1.625674664974213E-001;3.145092353224754E-002;1.732429082039744E-004;-1.339936046861112E-003;
2.402833333333334E+009;1.635082960128784E-001;2.969928458333015E-002;1.866701495600864E-004;-1.400272944010794E-003;
2.403000000000000E+009;1.641199290752411E-001;2.810211479663849E-002;3.029990184586495E-004;-1.463552238419652E-003;
2.403166666666667E+009;1.651077419519424E-001;2.653949148952961E-002;1.082827875507064E-004;-1.494759228080511E-003;
2.403333333333334E+009;1.661298125982285E-001;2.507509663701057E-002;3.381067072041333E-004;-1.370639074593782E-003;
2.403500000000000E+009;1.667791604995728E-001;2.387227676808834E-002;3.575255395844579E-004;-1.532819238491356E-003;
2.403666666666667E+009;1.678381562232971E-001;2.231570705771446E-002;2.091210772050545E-004;-1.679837005212903E-003;
2.403833333333334E+009;1.689206659793854E-001;2.106013335287571E-002;3.071624087169766E-004;-1.663447124883533E-003;
2.404000000000000E+009;1.698726862668991E-001;1.996528916060925E-002;3.590345440898091E-004;-1.894469023682177E-003;
2.404166666666667E+009;1.707897335290909E-001;1.887560822069645E-002;2.575650578364730E-004;-1.723390188999474E-003;
2.404333333333334E+009;1.717205494642258E-001;1.790315285325050E-002;2.111268404405564E-004;-1.865798956714571E-003;
2.404500000000000E+009;1.726291179656982E-001;1.684127561748028E-002;3.279594602645375E-005;-2.115921583026648E-003;
2.404666666666667E+009;1.735437810420990E-001;1.606958732008934E-002;2.078166580758989E-004;-2.089460613206029E-003;
2.404833333333334E+009;1.744344979524612E-001;1.526113227009773E-002;5.724007860408165E-005;-2.150353044271469E-003;
2.405000000000000E+009;1.753084957599640E-001;1.450747437775135E-002;-5.339471317711286E-005;-2.211754443123937E-003;
2.405166666666667E+009;1.759697943925858E-001;1.394217181950808E-002;-2.928699723270256E-005;-2.329259179532528E-003;
2.405333333333334E+009;1.769524067640305E-001;1.315648481249809E-002;-4.217028617858887E-005;-2.404725179076195E-003;
2.405500000000000E+009;1.775456070899963E-001;1.289994455873966E-002;-3.655002510640770E-004;-2.562179928645492E-003;
2.405666666666667E+009;1.781417131423950E-001;1.226125191897154E-002;-2.468771999701858E-004;-2.452531363815069E-003;
2.405833333333334E+009;1.785937398672104E-001;1.201956905424595E-002;-5.560626741498709E-004;-2.640696009621024E-003;
2.406000000000000E+009;1.793301254510880E-001;1.155382953584194E-002;-7.151358295232058E-004;-2.685114741325378E-003;
2.406166666666667E+009;1.795049160718918E-001;1.140687521547079E-002;-7.783678593114018E-004;-2.986136823892593E-003;
2.406333333333334E+009;1.800475418567658E-001;1.093695405870676E-002;-9.925651829689741E-004;-2.743772929534316E-003;
2.406500000000000E+009;1.803299933671951E-001;1.067331060767174E-002;-1.079849549569190E-003;-2.616628538817167E-003;
2.406666666666667E+009;1.804464906454086E-001;1.039755903184414E-002;-1.253371709026396E-003;-2.891649957746267E-003;
2.406833333333334E+009;1.806225329637528E-001;1.001971215009689E-002;-1.354138599708676E-003;-2.847841707989574E-003;
2.407000000000000E+009;1.806770563125610E-001;9.639595635235310E-003;-1.721970387734473E-003;-2.808198565617204E-003;
2.407166666666667E+009;1.807103306055069E-001;9.359646588563919E-003;-1.706990646198392E-003;-2.763763535767794E-003;
2.407333333333334E+009;1.805157065391541E-001;8.969658054411411E-003;-1.846193219535053E-003;-2.881008200347424E-003;
2.407500000000000E+009;1.804119795560837E-001;8.532743901014328E-003;-2.005016664043069E-003;-2.759323222562671E-003;
2.407666666666667E+009;1.802016347646713E-001;8.074099197983742E-003;-2.165808109566569E-003;-2.667869674041867E-003;
2.407833333333334E+009;1.796696186065674E-001;7.428565062582493E-003;-2.351684961467981E-003;-2.582408487796783E-003;
2.408000000000000E+009;1.794194430112839E-001;6.764325313270092E-003;-2.380852121859789E-003;-2.447712467983365E-003;
2.408166666666667E+009;1.789073050022125E-001;6.172450724989176E-003;-2.712658839300275E-003;-2.342471154406667E-003;
2.408333333333334E+009;1.784354299306870E-001;5.466156173497438E-003;-2.821052679792047E-003;-2.352259820327163E-003;
2.408500000000000E+009;1.779504567384720E-001;4.490526393055916E-003;-2.879992593079805E-003;-2.196096116676927E-003;
2.408666666666667E+009;1.773726940155029E-001;3.639316884800792E-003;-2.992257475852966E-003;-2.005151705816388E-003;
2.408833333333334E+009;1.766182184219360E-001;2.695740200579166E-003;-2.987657440826297E-003;-1.905275508761406E-003;
2.409000000000000E+009;1.759804785251617E-001;1.686926698312163E-003;-3.172379685565829E-003;-1.934541738592088E-003;
2.409166666666667E+009;1.754706501960754E-001;4.496074689086527E-004;-3.218336729332805E-003;-1.891595544293523E-003;
2.409333333333334E+009;1.747629940509796E-001;-8.087676833383739E-004;-3.382443450391293E-003;-1.752748037688434E-003;
2.409500000000000E+009;1.739223152399063E-001;-2.258733147755265E-003;-3.520186292007566E-003;-1.496837125159800E-003;
2.409666666666667E+009;1.732821911573410E-001;-3.429958596825600E-003;-3.360307076945901E-003;-1.372816506773233E-003;
2.409833333333334E+009;1.724391579627991E-001;-4.915361292660236E-003;-3.504359629005194E-003;-1.363194896839559E-003;
2.410000000000000E+009;1.720229983329773E-001;-6.463182158768177E-003;-3.497129539027810E-003;-1.207303488627076E-003;
2.410166666666667E+009;1.713545471429825E-001;-8.107591420412064E-003;-3.611321561038494E-003;-1.327256090007722E-003;
2.410333333333334E+009;1.708070635795593E-001;-9.811685420572758E-003;-3.737989813089371E-003;-8.774781599640846E-004;
2.410500000000000E+009;1.703801602125168E-001;-1.145568769425154E-002;-3.912672866135836E-003;-9.765300201252103E-004;
2.410666666666667E+009;1.697187423706055E-001;-1.344517525285482E-002;-3.880591364577413E-003;-9.223298984579742E-004;
2.410833333333334E+009;1.693850159645081E-001;-1.494707819074392E-002;-3.882211400195956E-003;-7.744434406049550E-004;
2.411000000000000E+009;1.690427064895630E-001;-1.697596162557602E-002;-4.044449422508478E-003;-4.702836449723691E-004;
2.411166666666667E+009;1.686060279607773E-001;-1.887946762144566E-002;-4.216504748910666E-003;-5.735109443776310E-004;
2.411333333333334E+009;1.683568209409714E-001;-2.062591351568699E-002;-4.188526887446642E-003;-3.248412685934454E-004;
2.411500000000000E+009;1.681210845708847E-001;-2.278485707938671E-002;-4.272985272109509E-003;-2.222692419309169E-004;
2.411666666666667E+009;1.682283282279968E-001;-2.467799372971058E-002;-4.368747118860483E-003;-5.423690163297579E-005;
2.411833333333334E+009;1.681996881961823E-001;-2.665373310446739E-002;-4.276712425053120E-003;-2.620300392663921E-006;
2.412000000000000E+009;1.682737618684769E-001;-2.876397036015987E-002;-4.464312922209501E-003;1.681466383161023E-004;
2.412166666666667E+009;1.682917922735214E-001;-3.046865202486515E-002;-4.521457012742758E-003;4.549962468445301E-004;
2.412333333333334E+009;1.685254275798798E-001;-3.246947750449181E-002;-4.466311540454626E-003;6.795802037231624E-004;
2.412500000000000E+009;1.687017679214478E-001;-3.430903330445290E-002;-4.517569672316313E-003;7.356611895374954E-004;
2.412666666666667E+009;1.692670136690140E-001;-3.638330101966858E-002;-4.564687609672546E-003;9.383714059367776E-004;
2.412833333333334E+009;1.695193052291870E-001;-3.814164549112320E-002;-4.599243868142366E-003;1.474953489378095E-003;
2.413000000000000E+009;1.699424237012863E-001;-3.983467817306519E-002;-4.518839996308088E-003;1.439086627215147E-003;
2.413166666666667E+009;1.703076064586639E-001;-4.165167361497879E-002;-4.406738560646772E-003;1.826877589337528E-003;
2.413333333333334E+009;1.708110868930817E-001;-4.337061569094658E-002;-4.469871986657381E-003;1.835014903917909E-003;
2.413500000000000E+009;1.713400185108185E-001;-4.488047584891319E-002;-4.296265542507172E-003;2.029006369411945E-003;
2.413666666666667E+009;1.721557080745697E-001;-4.643053933978081E-002;-4.420712590217590E-003;2.453366760164499E-003;
2.413833333333334E+009;1.724827438592911E-001;-4.786380007863045E-002;-4.292722791433334E-003;2.553429687395692E-003;
2.414000000000000E+009;1.729343235492706E-001;-4.932731762528420E-002;-4.120236262679100E-003;2.824434777721763E-003;
2.414166666666667E+009;1.737585216760635E-001;-5.052567645907402E-002;-3.948913421481848E-003;3.065697383135557E-003;
2.414333333333334E+009;1.741491556167603E-001;-5.185072496533394E-002;-3.968475386500359E-003;3.262785496190190E-003;
2.414500000000000E+009;1.749015301465988E-001;-5.294868350028992E-002;-3.691489109769464E-003;3.536739153787494E-003;
2.414666666666667E+009;1.753723174333572E-001;-5.388220399618149E-002;-3.519614925608039E-003;3.623639931902289E-003;
2.414833333333334E+009;1.757548749446869E-001;-5.488524585962296E-002;-3.457288956269622E-003;3.718668594956398E-003;
2.415000000000000E+009;1.762406229972839E-001;-5.590315163135529E-002;-3.338523441925645E-003;4.197633825242519E-003;
2.415166666666667E+009;1.766699999570847E-001;-5.647677183151245E-002;-3.100650617852807E-003;4.094990901648998E-003;
2.415333333333334E+009;1.770904511213303E-001;-5.740502849221230E-002;-2.812667284160852E-003;4.282952286303043E-003;
2.415500000000000E+009;1.773867607116699E-001;-5.782012268900871E-002;-2.685663057491183E-003;4.422369413077831E-003;
2.415666666666667E+009;1.777848899364471E-001;-5.830426514148712E-002;-2.609889488667250E-003;4.435764625668526E-003;
2.415833333333334E+009;1.779576838016510E-001;-5.884368345141411E-002;-2.316010184586048E-003;4.607609938830137E-003;
2.416000000000000E+009;1.779219955205917E-001;-5.920198187232018E-002;-2.300406107679009E-003;4.631933756172657E-003;
2.416166666666667E+009;1.782380342483521E-001;-5.956001952290535E-002;-1.926728873513639E-003;4.871280863881111E-003;
2.416333333333334E+009;1.781512796878815E-001;-5.996075645089150E-002;-1.882003038190305E-003;4.916816018521786E-003;
2.416500000000000E+009;1.779690235853195E-001;-6.015770509839058E-002;-1.543548190966249E-003;4.908548668026924E-003;
2.416666666666667E+009;1.775831282138825E-001;-6.048360466957092E-002;-1.245035673491657E-003;5.009965505450964E-003;
2.416833333333334E+009;1.774380803108215E-001;-6.076717004179955E-002;-9.881220757961273E-004;4.940940998494625E-003;
2.417000000000000E+009;1.769155561923981E-001;-6.087716668844223E-002;-9.305175626650453E-004;5.131838377565146E-003;
2.417166666666667E+009;1.765242964029312E-001;-6.103740260004997E-002;-7.490832358598709E-004;5.099386442452669E-003;
2.417333333333334E+009;1.760216504335403E-001;-6.125658378005028E-002;-5.142836016602814E-004;5.138697568327189E-003;
2.417500000000000E+009;1.751019805669785E-001;-6.164333969354630E-002;-3.388642508070916E-004;5.195717792958021E-003;
2.417666666666667E+009;1.746387779712677E-001;-6.164260208606720E-002;-6.267620483413339E-005;5.098069086670876E-003;
2.417833333333334E+009;1.737472563982010E-001;-6.191213801503182E-002;1.015633170027286E-004;4.994107410311699E-003;
2.418000000000000E+009;1.727814674377441E-001;-6.241218373179436E-002;3.071356622967869E-004;5.210713949054480E-003;
2.418166666666667E+009;1.719416826963425E-001;-6.256157904863358E-002;4.776018904522061E-004;5.148508120328188E-003;
2.418333333333334E+009;1.711903214454651E-001;-6.301824003458023E-002;7.456759340129793E-004;5.031615030020475E-003;
2.418500000000000E+009;1.699794977903366E-001;-6.327272206544876E-002;9.315963834524155E-004;5.075668916106224E-003;
2.418666666666667E+009;1.689423918724060E-001;-6.382270902395248E-002;9.639425552450120E-004;5.050451494753361E-003;
2.418833333333334E+009;1.676801741123200E-001;-6.455591320991516E-002;1.200068974867463E-003;4.870781674981117E-003;
2.419000000000000E+009;1.664420366287231E-001;-6.495989859104157E-002;1.379268127493560E-003;4.881354514509440E-003;
2.419166666666667E+009;1.652770638465881E-001;-6.571153551340103E-002;1.442457316443324E-003;4.805407952517271E-003;
2.419333333333334E+009;1.639113128185272E-001;-6.618330627679825E-002;1.730190240778029E-003;4.643883556127548E-003;
2.419500000000000E+009;1.629031002521515E-001;-6.738021224737167E-002;1.903347554616630E-003;4.656444303691387E-003;
2.419666666666667E+009;1.618328839540482E-001;-6.829617917537689E-002;2.014386700466275E-003;4.635344725102186E-003;
2.419833333333334E+009;1.603708416223526E-001;-6.914030015468597E-002;2.127501880750060E-003;4.497170913964510E-003;
2.420000000000000E+009;1.594110280275345E-001;-7.014919072389603E-002;2.299456391483545E-003;4.428975284099579E-003;
2.420166666666667E+009;1.582475900650024E-001;-7.120966911315918E-002;2.548288553953171E-003;4.354054108262062E-003;
2.420333333333334E+009;1.572751253843308E-001;-7.259439677000046E-002;2.624129876494408E-003;4.259825684130192E-003;
2.420500000000000E+009;1.562193483114243E-001;-7.368872314691544E-002;2.776878187432885E-003;4.173902794718742E-003;
2.420666666666667E+009;1.552055031061173E-001;-7.498753070831299E-002;2.962782513350248E-003;4.039391875267029E-003;
2.420833333333334E+009;1.541665196418762E-001;-7.645234465599060E-002;3.179020946845412E-003;3.887364175170660E-003;
2.421000000000000E+009;1.532742977142334E-001;-7.802879810333252E-002;3.136996878311038E-003;3.801596350967884E-003;
2.421166666666667E+009;1.525372713804245E-001;-7.967563718557358E-002;3.416013903915882E-003;3.561461810022593E-003;
2.421333333333334E+009;1.519643366336823E-001;-8.118536323308945E-002;3.664537332952023E-003;3.437489736825228E-003;
2.421500000000000E+009;1.513054668903351E-001;-8.269743621349335E-002;3.566359635442495E-003;3.339017741382122E-003;
2.421666666666667E+009;1.508401334285736E-001;-8.450072258710861E-002;3.778337268158793E-003;3.224451793357730E-003;
2.421833333333334E+009;1.505596339702606E-001;-8.610939234495163E-002;3.982065711170435E-003;3.265854669734836E-003;
2.422000000000000E+009;1.499261111021042E-001;-8.770269900560379E-002;4.046040121465921E-003;3.054768312722445E-003;
2.422166666666667E+009;1.497477740049362E-001;-8.970274776220322E-002;4.100583028048277E-003;2.829448552802205E-003;
2.422333333333334E+009;1.495988667011261E-001;-9.128846228122711E-002;4.322786815464497E-003;2.591363387182355E-003;
2.422500000000000E+009;1.494276821613312E-001;-9.293653070926666E-002;4.469804931432009E-003;2.537498483434320E-003;
2.422666666666667E+009;1.493967026472092E-001;-9.457331150770187E-002;4.449096042662859E-003;2.283355453982949E-003;
2.422833333333334E+009;1.495058238506317E-001;-9.656129032373428E-002;4.650556482374668E-003;2.138808369636536E-003;
2.423000000000000E+009;1.494940668344498E-001;-9.802699089050293E-002;4.734115209430456E-003;2.035555196925998E-003;
2.423166666666667E+009;1.497498303651810E-001;-9.968367218971252E-002;4.681678954511881E-003;1.745931804180145E-003;
2.423333333333334E+009;1.500560939311981E-001;-1.011334583163261E-001;4.754505585879087E-003;1.548650325275958E-003;
2.423500000000000E+009;1.502419561147690E-001;-1.028024628758431E-001;4.894954618066549E-003;1.435077865608037E-003;
2.423666666666667E+009;1.505159288644791E-001;-1.044050753116608E-001;4.668367095291615E-003;1.351787359453738E-003;
2.423833333333334E+009;1.511476784944534E-001;-1.057893782854080E-001;4.771638195961714E-003;1.082508591935039E-003;
2.424000000000000E+009;1.513671576976776E-001;-1.069882810115814E-001;4.908700007945299E-003;8.874703198671341E-004;
2.424166666666667E+009;1.517654806375504E-001;-1.083258315920830E-001;4.958792589604855E-003;7.387269870378077E-004;
2.424333333333334E+009;1.524968743324280E-001;-1.094362139701843E-001;4.998830147087574E-003;5.931602208875120E-004;
2.424500000000000E+009;1.527562737464905E-001;-1.106233075261116E-001;4.984804894775152E-003;2.276555605931208E-004;
2.424666666666667E+009;1.534241884946823E-001;-1.114825680851936E-001;5.080531351268292E-003;-6.828909681644291E-005;
2.424833333333334E+009;1.536612510681152E-001;-1.125637739896774E-001;5.010915454477072E-003;-2.299577608937398E-004;
2.425000000000000E+009;1.543480455875397E-001;-1.134708821773529E-001;4.910880699753761E-003;-4.289872595109046E-004;
2.425166666666667E+009;1.546414643526077E-001;-1.141689792275429E-001;5.033343099057674E-003;-4.712266963906586E-004;
2.425333333333334E+009;1.550489068031311E-001;-1.149636730551720E-001;5.020155105739832E-003;-8.014968479983509E-004;
2.425500000000000E+009;1.556177139282227E-001;-1.157841533422470E-001;4.839784465730190E-003;-1.070138416253030E-003;
2.425666666666667E+009;1.555955111980438E-001;-1.162447929382324E-001;4.724699538201094E-003;-1.235136995092034E-003;
2.425833333333334E+009;1.559417396783829E-001;-1.168177798390389E-001;4.754492547363043E-003;-1.423474866896868E-003;
2.426000000000000E+009;1.561825126409531E-001;-1.172886863350868E-001;4.574046004563570E-003;-1.490605645813048E-003;
2.426166666666667E+009;1.565480083227158E-001;-1.176535934209824E-001;4.555821418762207E-003;-1.755025237798691E-003;
2.426333333333334E+009;1.564006358385086E-001;-1.178821548819542E-001;4.215824417769909E-003;-1.998894847929478E-003;
2.426500000000000E+009;1.565325260162354E-001;-1.180813163518906E-001;4.322180524468422E-003;-2.077074255794287E-003;
2.426666666666667E+009;1.564869582653046E-001;-1.181587874889374E-001;4.182899836450815E-003;-2.197044901549816E-003;
2.426833333333334E+009;1.562935113906860E-001;-1.183436140418053E-001;4.079367499798536E-003;-2.419088501483202E-003;
2.427000000000000E+009;1.559441685676575E-001;-1.185940951108933E-001;4.000321030616760E-003;-2.470825565978885E-003;
2.427166666666667E+009;1.556460410356522E-001;-1.186172291636467E-001;3.828888526186347E-003;-2.690969966351986E-003;
2.427333333333334E+009;1.551508605480194E-001;-1.186598613858223E-001;3.638906404376030E-003;-2.784718759357929E-003;
2.427500000000000E+009;1.547589004039764E-001;-1.187782660126686E-001;3.616053378209472E-003;-2.811226295307279E-003;
2.427666666666667E+009;1.540289372205734E-001;-1.188346818089485E-001;3.386805299669504E-003;-2.832275582477450E-003;
