# Version 1.00
#
freq[Hz];re:Trc1_S11;im:Trc1_S11;re:Trc2_S21;im:Trc2_S21;
2.400000000000000E+009;1.687120199203491E-001;4.544091597199440E-002;-6.343948189169169E-003;2.841114066541195E-003;
2.400166666666667E+009;1.697264313697815E-001;4.446579888463020E-002;-6.223510019481182E-003;3.215925302356482E-003;
2.400333333333334E+009;1.706006377935410E-001;4.331791028380394E-002;-5.998544860631228E-003;3.617911832407117E-003;
2.400500000000000E+009;1.716086566448212E-001;4.238682985305786E-002;-5.653087515383959E-003;3.848251421004534E-003;
2.400666666666667E+009;1.725200712680817E-001;4.144401103258133E-002;-5.419628228992224E-003;4.156139679253101E-003;
2.400833333333334E+009;1.735126674175263E-001;4.075782746076584E-002;-5.106057506054640E-003;4.436851479113102E-003;
2.401000000000000E+009;1.741529405117035E-001;3.982318937778473E-002;-4.736872855573893E-003;4.595057573169470E-003;
2.401166666666667E+009;1.749318987131119E-001;3.910775482654572E-002;-4.559879191219807E-003;5.107189528644085E-003;
2.401333333333334E+009;1.755065470933914E-001;3.845955058932304E-002;-4.141126293689013E-003;5.111241713166237E-003;
2.401500000000000E+009;1.764965802431107E-001;3.764467313885689E-002;-3.647795412689447E-003;5.318274255841970E-003;
2.401666666666667E+009;1.770247220993042E-001;3.704077377915382E-002;-3.276849631220102E-003;5.340869538486004E-003;
2.401833333333334E+009;1.777264624834061E-001;3.653359785676003E-002;-3.028521314263344E-003;5.612821318209171E-003;
2.402000000000000E+009;1.779681891202927E-001;3.613178059458733E-002;-2.527846023440361E-003;5.785005632787943E-003;
2.402166666666667E+009;1.784297823905945E-001;3.544046729803085E-002;-2.307632705196738E-003;5.878354888409376E-003;
2.402333333333334E+009;1.787556707859039E-001;3.500569611787796E-002;-1.836733776144683E-003;5.773346405476332E-003;
2.402500000000000E+009;1.792518943548203E-001;3.447999432682991E-002;-1.446935464628041E-003;5.882966797798872E-003;
2.402666666666667E+009;1.793687045574188E-001;3.392438963055611E-002;-1.000693184323609E-003;5.565989296883345E-003;
2.402833333333334E+009;1.794171333312988E-001;3.323467820882797E-002;-5.668526864610612E-004;5.670918151736260E-003;
2.403000000000000E+009;1.795444637537003E-001;3.247090801596642E-002;-2.023555862251669E-004;5.606769118458033E-003;
2.403166666666667E+009;1.796018332242966E-001;3.175473585724831E-002;1.129345837398432E-004;5.381417926400900E-003;
2.403333333333334E+009;1.796677559614182E-001;3.096141293644905E-002;5.676965229213238E-004;5.094161722809076E-003;
2.403500000000000E+009;1.793792098760605E-001;3.019850142300129E-002;7.560051744803786E-004;5.048448685556650E-003;
2.403666666666667E+009;1.790910512208939E-001;2.887400053441525E-002;1.058485591784120E-003;4.790627863258123E-003;
2.403833333333334E+009;1.789756566286087E-001;2.817923575639725E-002;1.432606135495007E-003;4.569255281239748E-003;
2.404000000000000E+009;1.785901933908463E-001;2.716121636331081E-002;1.592721790075302E-003;4.088308662176132E-003;
2.404166666666667E+009;1.782035827636719E-001;2.586446516215801E-002;1.770733972080052E-003;3.982887603342533E-003;
2.404333333333334E+009;1.777793020009995E-001;2.492002025246620E-002;1.827160478569567E-003;3.578892908990383E-003;
2.404500000000000E+009;1.773688495159149E-001;2.335426397621632E-002;1.866310252808034E-003;3.252417314797640E-003;
2.404666666666667E+009;1.770071238279343E-001;2.197464182972908E-002;1.866512582637370E-003;3.112748498097062E-003;
2.404833333333334E+009;1.763866841793060E-001;2.062921598553658E-002;1.909057027660310E-003;2.575794002041221E-003;
2.405000000000000E+009;1.759560853242874E-001;1.919645816087723E-002;1.825789106078446E-003;2.484299708157778E-003;
2.405166666666667E+009;1.753260195255280E-001;1.754912734031677E-002;1.962868962436914E-003;2.157814567908645E-003;
2.405333333333334E+009;1.750171482563019E-001;1.573274470865727E-002;1.529503031633794E-003;2.041584812104702E-003;
2.405500000000000E+009;1.745440065860748E-001;1.426429580897093E-002;1.608322025276721E-003;1.753904973156750E-003;
2.405666666666667E+009;1.742582321166992E-001;1.257866248488426E-002;1.522269914858043E-003;1.664777053520083E-003;
2.405833333333334E+009;1.737292408943176E-001;1.086192764341831E-002;1.486674300394952E-003;1.666436204686761E-003;
2.406000000000000E+009;1.735030412673950E-001;8.738514035940170E-003;1.334079192019999E-003;1.467449823394418E-003;
2.406166666666667E+009;1.731799393892288E-001;7.070197723805904E-003;1.114285434596241E-003;1.325151300989091E-003;
2.406333333333334E+009;1.731623709201813E-001;4.950706381350756E-003;9.176832390949130E-004;1.072619925253093E-003;
2.406500000000000E+009;1.728510856628418E-001;2.999937627464533E-003;8.249465026892722E-004;1.051540137268603E-003;
2.406666666666667E+009;1.725966185331345E-001;1.071029342710972E-003;7.121520466171205E-004;1.152963028289378E-003;
2.406833333333334E+009;1.727737635374069E-001;-1.304779318161309E-003;4.668954352382571E-004;1.037840964272618E-003;
2.407000000000000E+009;1.727144867181778E-001;-3.158090403303504E-003;4.229611367918551E-004;1.082365051843226E-003;
2.407166666666667E+009;1.729160398244858E-001;-5.196397192776203E-003;3.048603248316795E-004;1.237310236319900E-003;
2.407333333333334E+009;1.728903204202652E-001;-7.496197242289782E-003;3.116423249593936E-005;1.473518437705934E-003;
2.407500000000000E+009;1.730767488479614E-001;-9.537945501506329E-003;6.654598837485537E-005;1.321917166933417E-003;
2.407666666666667E+009;1.735102385282517E-001;-1.152671780437231E-002;-9.827048779698089E-005;1.265860977582634E-003;
2.407833333333334E+009;1.734607517719269E-001;-1.378202624619007E-002;-2.186122874263674E-004;1.376206870190799E-003;
2.408000000000000E+009;1.739361435174942E-001;-1.578184776008129E-002;-3.218794590793550E-004;1.454410376027226E-003;
2.408166666666667E+009;1.742601692676544E-001;-1.773550920188427E-002;-3.546192601788789E-004;1.743996632285416E-003;
2.408333333333334E+009;1.748367995023727E-001;-1.974830590188503E-002;-4.944301908835769E-004;1.871781074441969E-003;
2.408500000000000E+009;1.752459257841110E-001;-2.171908877789974E-002;-3.679461369756609E-004;2.030028495937586E-003;
2.408666666666667E+009;1.754829138517380E-001;-2.354796044528484E-002;-3.687182907015085E-004;2.292084274813533E-003;
2.408833333333334E+009;1.758301109075546E-001;-2.519117482006550E-002;-2.992034715134651E-004;2.381237922236323E-003;
2.409000000000000E+009;1.762498915195465E-001;-2.701009996235371E-002;-3.428530180826783E-004;2.597105456516147E-003;
2.409166666666667E+009;1.768166422843933E-001;-2.848024293780327E-002;-2.050054754363373E-004;2.814599080011249E-003;
2.409333333333334E+009;1.773190498352051E-001;-2.999472059309483E-002;-4.596852522809058E-005;2.866329858079553E-003;
2.409500000000000E+009;1.775817722082138E-001;-3.149481490254402E-002;2.211753017036244E-004;2.993310336023569E-003;
2.409666666666667E+009;1.780916601419449E-001;-3.253769874572754E-002;3.149814438074827E-004;3.238451667129993E-003;
2.409833333333334E+009;1.786043643951416E-001;-3.358594700694084E-002;4.295336548238993E-004;3.226466709747911E-003;
2.410000000000000E+009;1.791447997093201E-001;-3.477059677243233E-002;6.949374219402671E-004;3.389440942555666E-003;
2.410166666666667E+009;1.795997321605682E-001;-3.562676161527634E-002;9.249103604815900E-004;3.394019324332476E-003;
2.410333333333334E+009;1.800504922866821E-001;-3.637926280498505E-002;1.078336616046727E-003;3.353755921125412E-003;
2.410500000000000E+009;1.805065423250198E-001;-3.732837736606598E-002;1.396911451593041E-003;3.405273891985416E-003;
2.410666666666667E+009;1.807827651500702E-001;-3.809233382344246E-002;1.665071002207696E-003;3.453920595347881E-003;
2.410833333333334E+009;1.812817454338074E-001;-3.869943693280220E-002;1.929385005496442E-003;3.484682878479362E-003;
2.411000000000000E+009;1.815852969884872E-001;-3.925387933850288E-002;2.019416075199843E-003;3.325618570670486E-003;
2.411166666666667E+009;1.817326545715332E-001;-3.990155458450317E-002;2.250414108857513E-003;3.222329076379538E-003;
2.411333333333334E+009;1.817367523908615E-001;-4.029331728816032E-002;2.453317167237401E-003;3.098643152043223E-003;
2.411500000000000E+009;1.819957196712494E-001;-4.110593348741531E-002;2.713637892156839E-003;3.007860155776143E-003;
2.411666666666667E+009;1.821662932634354E-001;-4.145668074488640E-002;2.941470127552748E-003;2.892557531595230E-003;
2.411833333333334E+009;1.820356249809265E-001;-4.167628288269043E-002;3.051082137972117E-003;2.810073550790548E-003;
2.412000000000000E+009;1.818349957466126E-001;-4.224468395113945E-002;3.129037329927087E-003;2.531159203499556E-003;
2.412166666666667E+009;1.813853383064270E-001;-4.255885258316994E-002;3.439653897657991E-003;2.467162441462278E-003;
2.412333333333334E+009;1.812233775854111E-001;-4.284344241023064E-002;3.384255571290851E-003;2.141212578862906E-003;
2.412500000000000E+009;1.806664019823074E-001;-4.324813187122345E-002;3.635823959484696E-003;1.962624723091722E-003;
2.412666666666667E+009;1.802350282669067E-001;-4.364742338657379E-002;3.746251575648785E-003;1.821395708248019E-003;
2.412833333333334E+009;1.796166151762009E-001;-4.400159046053886E-002;3.767579793930054E-003;1.621173578314483E-003;
2.413000000000000E+009;1.788550466299057E-001;-4.452087730169296E-002;3.715176368132234E-003;1.364198396913707E-003;
2.413166666666667E+009;1.779456734657288E-001;-4.496258869767189E-002;3.543202532455325E-003;1.164503279142082E-003;
2.413333333333334E+009;1.769335567951202E-001;-4.545547440648079E-002;3.821006976068020E-003;1.007427694275975E-003;
2.413500000000000E+009;1.760065704584122E-001;-4.592012986540794E-002;3.769259667024016E-003;7.978562498465180E-004;
2.413666666666667E+009;1.751410812139511E-001;-4.639509320259094E-002;3.674119245260954E-003;6.275690975598991E-004;
2.413833333333334E+009;1.739224195480347E-001;-4.700401052832604E-002;3.729926422238350E-003;5.726897506974638E-004;
2.414000000000000E+009;1.725974231958389E-001;-4.768880456686020E-002;3.564761951565743E-003;3.652315353974700E-004;
2.414166666666667E+009;1.716586798429489E-001;-4.839966818690300E-002;3.463388187810779E-003;1.680474233580753E-004;
2.414333333333334E+009;1.703383177518845E-001;-4.910628125071526E-002;3.596224822103977E-003;7.316251867450774E-005;
2.414500000000000E+009;1.692780405282974E-001;-4.996446520090103E-002;3.513812087476254E-003;-2.356507466174662E-004;
2.414666666666667E+009;1.679803133010864E-001;-5.091059207916260E-002;3.448350587859750E-003;-2.623544132802635E-004;
2.414833333333334E+009;1.666825711727142E-001;-5.205060169100761E-002;3.291192930191755E-003;-2.857443760149181E-004;
2.415000000000000E+009;1.654865443706513E-001;-5.288111791014671E-002;3.273178357630968E-003;-4.101562371943146E-004;
2.415166666666667E+009;1.642245203256607E-001;-5.429032817482948E-002;2.983522368595004E-003;-6.161546334624291E-004;
2.415333333333334E+009;1.630614995956421E-001;-5.540436506271362E-002;3.037209156900644E-003;-7.704286836087704E-004;
2.415500000000000E+009;1.618831157684326E-001;-5.675969645380974E-002;2.839954569935799E-003;-6.871622172184289E-004;
2.415666666666667E+009;1.606403738260269E-001;-5.824546888470650E-002;2.696316456422210E-003;-8.430905872955918E-004;
2.415833333333334E+009;1.597706377506256E-001;-5.980277806520462E-002;2.661674516275525E-003;-9.023753809742630E-004;
2.416000000000000E+009;1.584778577089310E-001;-6.153270229697228E-002;2.552176825702190E-003;-8.050918695516884E-004;
2.416166666666667E+009;1.577870249748230E-001;-6.313953548669815E-002;2.429813379421830E-003;-8.231918327510357E-004;
2.416333333333334E+009;1.565598100423813E-001;-6.478352844715118E-002;2.341421786695719E-003;-7.174290949478746E-004;
2.416500000000000E+009;1.557056307792664E-001;-6.670585274696350E-002;2.423919737339020E-003;-8.968982729129493E-004;
2.416666666666667E+009;1.547662466764450E-001;-6.835608184337616E-002;2.335799392312765E-003;-7.051110733300448E-004;
2.416833333333334E+009;1.541055738925934E-001;-7.042520493268967E-002;2.069409238174558E-003;-7.535842014476657E-004;
2.417000000000000E+009;1.531208902597427E-001;-7.247834652662277E-002;2.104974584653974E-003;-7.029062253423035E-004;
2.417166666666667E+009;1.525188982486725E-001;-7.404780387878418E-002;2.021234482526779E-003;-8.287599193863571E-004;
2.417333333333334E+009;1.519023478031158E-001;-7.604417949914932E-002;2.024922519922257E-003;-7.412272971123457E-004;
2.417500000000000E+009;1.512482166290283E-001;-7.803997397422791E-002;1.878692652098835E-003;-7.120642694644630E-004;
2.417666666666667E+009;1.508304923772812E-001;-7.976773381233215E-002;1.958691049367189E-003;-5.973634542897344E-004;
2.417833333333334E+009;1.504909694194794E-001;-8.162730187177658E-002;1.895781373605132E-003;-6.884714821353555E-004;
2.418000000000000E+009;1.499663591384888E-001;-8.361606299877167E-002;1.977801322937012E-003;-4.934299504384399E-004;
2.418166666666667E+009;1.497181206941605E-001;-8.514612913131714E-002;1.881838194094598E-003;-4.534262698143721E-004;
2.418333333333334E+009;1.497824639081955E-001;-8.688116818666458E-002;1.926708151586354E-003;-4.242889990564436E-004;
2.418500000000000E+009;1.493581831455231E-001;-8.849693089723587E-002;2.056535333395004E-003;-3.523754421621561E-004;
2.418666666666667E+009;1.494553536176682E-001;-8.999364823102951E-002;2.125015016645193E-003;-3.951081889681518E-004;
2.418833333333334E+009;1.491679698228836E-001;-9.151480346918106E-002;2.311097225174308E-003;-1.746411580825225E-004;
2.419000000000000E+009;1.491250544786453E-001;-9.279821813106537E-002;2.389238681644201E-003;-3.066046338062733E-004;
2.419166666666667E+009;1.493677645921707E-001;-9.409537911415100E-002;2.606067573651671E-003;-1.004133591777645E-004;
2.419333333333334E+009;1.493030488491058E-001;-9.504328668117523E-002;2.663226798176765E-003;-3.400450805202127E-004;
2.419500000000000E+009;1.495332866907120E-001;-9.622331708669663E-002;2.788900397717953E-003;-3.299850504845381E-004;
2.419666666666667E+009;1.496749669313431E-001;-9.726990014314652E-002;3.029346233233810E-003;-3.109209355898202E-004;
2.419833333333334E+009;1.497787684202194E-001;-9.770982712507248E-002;3.176342928782105E-003;-4.015450249426067E-004;
2.420000000000000E+009;1.501875221729279E-001;-9.860967844724655E-002;3.311363281682134E-003;-6.026106420904398E-004;
2.420166666666667E+009;1.503212004899979E-001;-9.917160868644714E-002;3.470333525910974E-003;-7.735012914054096E-004;
2.420333333333334E+009;1.506374329328537E-001;-9.967840462923050E-002;3.591732820495963E-003;-8.820191142149270E-004;
2.420500000000000E+009;1.509386003017426E-001;-9.992322325706482E-002;3.903846489265561E-003;-1.210987451486290E-003;
2.420666666666667E+009;1.511440426111221E-001;-1.000712960958481E-001;3.807486733421683E-003;-1.287152641452849E-003;
2.420833333333334E+009;1.514029502868652E-001;-1.004072874784470E-001;3.968959674239159E-003;-1.516498043201864E-003;
2.421000000000000E+009;1.514862924814224E-001;-1.003720462322235E-001;4.130051936954260E-003;-1.653535873629153E-003;
2.421166666666667E+009;1.519021987915039E-001;-1.005317345261574E-001;3.967251162976027E-003;-2.159852068871260E-003;
2.421333333333334E+009;1.520740687847138E-001;-1.005195453763008E-001;4.063120577484369E-003;-2.453986788168550E-003;
2.421500000000000E+009;1.519820094108582E-001;-1.001563593745232E-001;4.133791662752628E-003;-2.620820188894868E-003;
2.421666666666667E+009;1.521299779415131E-001;-9.991643577814102E-002;3.994352184236050E-003;-2.830478362739086E-003;
2.421833333333334E+009;1.519532948732376E-001;-9.992038458585739E-002;4.006969742476940E-003;-3.271112916991115E-003;
2.422000000000000E+009;1.517744660377502E-001;-9.966283291578293E-002;4.014839883893728E-003;-3.473225980997086E-003;
2.422166666666667E+009;1.516614109277725E-001;-9.937783330678940E-002;3.801674814894795E-003;-3.779010847210884E-003;
2.422333333333334E+009;1.513070911169052E-001;-9.909071028232575E-002;3.701914101839066E-003;-4.103842191398144E-003;
2.422500000000000E+009;1.504796743392944E-001;-9.870350360870361E-002;3.563457401469350E-003;-4.408791661262512E-003;
2.422666666666667E+009;1.501407027244568E-001;-9.848024696111679E-002;3.263674443587661E-003;-4.714521113783121E-003;
2.422833333333334E+009;1.495993435382843E-001;-9.816907346248627E-002;3.025705227628350E-003;-5.052677355706692E-003;
2.423000000000000E+009;1.488160490989685E-001;-9.773587435483933E-002;2.842553658410907E-003;-5.326141137629747E-003;
2.423166666666667E+009;1.481128633022308E-001;-9.743089973926544E-002;2.646667649969459E-003;-5.281988065689802E-003;
2.423333333333334E+009;1.471832692623138E-001;-9.700138866901398E-002;2.269933000206947E-003;-5.688119214028120E-003;
2.423500000000000E+009;1.460196971893311E-001;-9.689813852310181E-002;1.919486443512142E-003;-5.956222303211689E-003;
2.423666666666667E+009;1.446713805198669E-001;-9.660153836011887E-002;1.567992381751537E-003;-6.131674163043499E-003;
2.423833333333334E+009;1.437045186758041E-001;-9.648071229457855E-002;1.183126471005380E-003;-6.219817791134119E-003;
2.424000000000000E+009;1.424462944269180E-001;-9.613707661628723E-002;9.171185665763915E-004;-6.409987341612577E-003;
2.424166666666667E+009;1.409642547369003E-001;-9.603168070316315E-002;4.092466842848808E-004;-6.369346287101507E-003;
2.424333333333334E+009;1.397938877344132E-001;-9.575342386960983E-002;1.847321545938030E-004;-6.315741222351790E-003;
2.424500000000000E+009;1.383748948574066E-001;-9.583719074726105E-002;-1.925637770909816E-004;-6.335258483886719E-003;
2.424666666666667E+009;1.369372606277466E-001;-9.588544070720673E-002;-6.516359280794859E-004;-6.335346028208733E-003;
2.424833333333334E+009;1.355292946100235E-001;-9.600839018821716E-002;-1.035996596328914E-003;-6.358296610414982E-003;
2.425000000000000E+009;1.340722143650055E-001;-9.652396291494370E-002;-1.436485094018281E-003;-6.210187450051308E-003;
2.425166666666667E+009;1.323067545890808E-001;-9.682580828666687E-002;-1.674922881647945E-003;-6.084220018237829E-003;
2.425333333333334E+009;1.310357898473740E-001;-9.734689444303513E-002;-2.068566856905818E-003;-6.059572566300631E-003;
2.425500000000000E+009;1.296784728765488E-001;-9.803260117769241E-002;-2.300626365467906E-003;-5.715103354305029E-003;
2.425666666666667E+009;1.281119585037231E-001;-9.876274317502976E-002;-2.534847008064389E-003;-5.631732754409313E-003;
2.425833333333334E+009;1.267552524805069E-001;-9.963607043027878E-002;-2.883184235543013E-003;-5.374998319894075E-003;
2.426000000000000E+009;1.254121959209442E-001;-1.006789132952690E-001;-3.213111078366637E-003;-5.134193692356348E-003;
2.426166666666667E+009;1.241484284400940E-001;-1.018606051802635E-001;-3.299427218735218E-003;-4.941046237945557E-003;
2.426333333333334E+009;1.228205263614655E-001;-1.029742360115051E-001;-3.615275491029024E-003;-4.641187377274036E-003;
2.426500000000000E+009;1.216260343790054E-001;-1.042651832103729E-001;-3.736206097528338E-003;-4.348154645413160E-003;
2.426666666666667E+009;1.206019446253777E-001;-1.055063158273697E-001;-3.751611104235053E-003;-3.947669174522162E-003;
2.426833333333334E+009;1.193274930119515E-001;-1.070954129099846E-001;-3.873215056955814E-003;-3.782975021749735E-003;
2.427000000000000E+009;1.182869970798492E-001;-1.087307706475258E-001;-3.887099912390113E-003;-3.362387651577592E-003;
2.427166666666667E+009;1.174155473709106E-001;-1.101578101515770E-001;-3.959769848734140E-003;-3.206291003152728E-003;
2.427333333333334E+009;1.163597255945206E-001;-1.119213402271271E-001;-4.022192675620318E-003;-2.953104907646775E-003;
2.427500000000000E+009;1.156987696886063E-001;-1.135517209768295E-001;-4.056829027831554E-003;-2.848885953426361E-003;
2.427666666666667E+009;1.149247810244560E-001;-1.153123527765274E-001;-3.981914371252060E-003;-2.489783568307757E-003;
2.427833333333334E+009;1.141671240329742E-001;-1.169915497303009E-001;-3.956280648708344E-003;-2.368773333728313E-003;
