# Version 1.00
#
freq[Hz];re:Trc1_S11;im:Trc1_S11;re:Trc2_S21;im:Trc2_S21;
2.400000000000000E+009;1.687074154615402E-001;4.540099203586578E-002;-6.407539360225201E-003;2.678639488294721E-003;
2.400166666666667E+009;1.697463989257813E-001;4.438911750912666E-002;-6.250052247196436E-003;3.124885261058807E-003;
2.400333333333334E+009;1.707538217306137E-001;4.336467012763023E-002;-6.034630816429853E-003;3.458758350461721E-003;
2.400500000000000E+009;1.716523468494415E-001;4.221637547016144E-002;-5.728678312152624E-003;3.821759251877666E-003;
2.400666666666667E+009;1.724160015583038E-001;4.133548960089684E-002;-5.495963152498007E-003;4.185892175883055E-003;
2.400833333333334E+009;1.734926104545593E-001;4.071600362658501E-002;-5.166810937225819E-003;4.362253472208977E-003;
2.401000000000000E+009;1.741862148046494E-001;3.985536098480225E-002;-4.657696932554245E-003;4.596912302076817E-003;
2.401166666666667E+009;1.750191599130631E-001;3.903655707836151E-002;-4.515085369348526E-003;5.022316705435515E-003;
2.401333333333334E+009;1.755053400993347E-001;3.830045834183693E-002;-4.147590138018131E-003;5.039878655225039E-003;
2.401500000000000E+009;1.763313412666321E-001;3.768140450119972E-002;-3.862559795379639E-003;5.397506989538670E-003;
2.401666666666667E+009;1.770169734954834E-001;3.732348605990410E-002;-3.451135708019137E-003;5.503566469997168E-003;
2.401833333333334E+009;1.776196807622910E-001;3.669499605894089E-002;-3.071547951549292E-003;5.670548416674137E-003;
2.402000000000000E+009;1.777678281068802E-001;3.606940805912018E-002;-2.636049641296268E-003;5.720382090657949E-003;
2.402166666666667E+009;1.782186478376389E-001;3.543960303068161E-002;-2.319396939128637E-003;5.794030614197254E-003;
2.402333333333334E+009;1.785879284143448E-001;3.500327840447426E-002;-1.890790415927768E-003;5.841432604938746E-003;
2.402500000000000E+009;1.791941076517105E-001;3.450245410203934E-002;-1.552660483866930E-003;5.859408993273974E-003;
2.402666666666667E+009;1.793089210987091E-001;3.392500057816505E-002;-1.148353563621640E-003;5.809807684272528E-003;
2.402833333333334E+009;1.794669777154923E-001;3.310954943299294E-002;-7.890746346674860E-004;5.825459957122803E-003;
2.403000000000000E+009;1.796404570341110E-001;3.263794258236885E-002;-2.798565546981990E-004;5.553266033530235E-003;
2.403166666666667E+009;1.794997751712799E-001;3.167620301246643E-002;1.336488057859242E-004;5.506246350705624E-003;
2.403333333333334E+009;1.795630156993866E-001;3.095518238842487E-002;5.021031829528511E-004;5.378248635679483E-003;
2.403500000000000E+009;1.792790144681931E-001;3.020473383367062E-002;9.159877663478255E-004;4.960143007338047E-003;
2.403666666666667E+009;1.791133582592011E-001;2.911995537579060E-002;9.391084313392639E-004;4.712847992777824E-003;
2.403833333333334E+009;1.788443028926849E-001;2.797379717230797E-002;1.361670671030879E-003;4.578430671244860E-003;
2.404000000000000E+009;1.785734444856644E-001;2.693910710513592E-002;1.510180532932282E-003;4.352477844804525E-003;
2.404166666666667E+009;1.782791614532471E-001;2.588713541626930E-002;1.722124987281859E-003;4.026386421173811E-003;
2.404333333333334E+009;1.778459697961807E-001;2.458187378942967E-002;1.801160397008061E-003;3.639818402007222E-003;
2.404500000000000E+009;1.772193163633347E-001;2.334115467965603E-002;1.827083411626518E-003;3.279281314462423E-003;
2.404666666666667E+009;1.768428087234497E-001;2.204760164022446E-002;1.979459542781115E-003;2.845528768375516E-003;
2.404833333333334E+009;1.763383299112320E-001;2.060285210609436E-002;2.061471343040466E-003;2.686794148758054E-003;
2.405000000000000E+009;1.757474392652512E-001;1.911438442766666E-002;1.887008780613542E-003;2.620407845824957E-003;
2.405166666666667E+009;1.753959804773331E-001;1.751910150051117E-002;1.744321431033313E-003;2.297042636200786E-003;
2.405333333333334E+009;1.751142889261246E-001;1.590062677860260E-002;1.661574468016625E-003;1.966704614460468E-003;
2.405500000000000E+009;1.746334135532379E-001;1.419816166162491E-002;1.666519674472511E-003;1.841019140556455E-003;
2.405666666666667E+009;1.741402000188828E-001;1.248112041503191E-002;1.653308398090303E-003;1.780187012627721E-003;
2.405833333333334E+009;1.736439615488052E-001;1.077324617654085E-002;1.495857140980661E-003;1.473505515605211E-003;
2.406000000000000E+009;1.735391318798065E-001;8.674461394548416E-003;1.390668330714107E-003;1.182139269076288E-003;
2.406166666666667E+009;1.730952709913254E-001;6.978581659495831E-003;1.193587435409427E-003;1.332867192104459E-003;
2.406333333333334E+009;1.730392128229141E-001;4.938456229865551E-003;1.072502578608692E-003;1.098215812817216E-003;
2.406500000000000E+009;1.728646010160446E-001;2.943403553217650E-003;8.249823004007340E-004;1.226418302394450E-003;
2.406666666666667E+009;1.726287901401520E-001;1.067301491275430E-003;7.408765959553421E-004;1.063389354385436E-003;
2.406833333333334E+009;1.727080643177033E-001;-1.024223980493844E-003;5.826254491694272E-004;1.133920042775571E-003;
2.407000000000000E+009;1.726302355527878E-001;-3.129096468910575E-003;4.329211951699108E-004;1.113180653192103E-003;
2.407166666666667E+009;1.728518009185791E-001;-5.300591699779034E-003;2.611542877275497E-004;1.139561878517270E-003;
2.407333333333334E+009;1.728221327066422E-001;-7.490260992199183E-003;3.986659430665895E-005;1.125545939430594E-003;
2.407500000000000E+009;1.730335503816605E-001;-9.464642964303494E-003;-1.124871705542319E-004;1.241713296622038E-003;
2.407666666666667E+009;1.733526736497879E-001;-1.146906707435846E-002;-8.565307507524267E-005;1.344048650935292E-003;
2.407833333333334E+009;1.733054220676422E-001;-1.380759384483099E-002;-3.076840948779136E-004;1.379559631459415E-003;
2.408000000000000E+009;1.737166792154312E-001;-1.584077067673206E-002;-1.913192536449060E-004;1.551988301798701E-003;
2.408166666666667E+009;1.742206811904907E-001;-1.773656904697418E-002;-4.212191270198673E-004;1.688337069936097E-003;
2.408333333333334E+009;1.747649759054184E-001;-1.964561082422733E-002;-3.844491438940167E-004;1.879760297015309E-003;
2.408500000000000E+009;1.749612241983414E-001;-2.155414037406445E-002;-4.558601067401469E-004;2.060299040749669E-003;
2.408666666666667E+009;1.754825711250305E-001;-2.357926219701767E-002;-3.704572445712984E-004;2.204408869147301E-003;
2.408833333333334E+009;1.757597327232361E-001;-2.531059458851814E-002;-3.967567754443735E-004;2.666041953489184E-003;
2.409000000000000E+009;1.763260960578919E-001;-2.676546387374401E-002;-2.920450933743268E-004;2.577759092673659E-003;
2.409166666666667E+009;1.767327040433884E-001;-2.837277017533779E-002;-1.849867403507233E-004;2.783846342936158E-003;
2.409333333333334E+009;1.773966550827026E-001;-3.004594333469868E-002;-1.299567666137591E-004;2.908099209889770E-003;
2.409500000000000E+009;1.776597350835800E-001;-3.138784319162369E-002;1.165787325589918E-004;2.956966171041131E-003;
2.409666666666667E+009;1.782091408967972E-001;-3.259504958987236E-002;2.076985256280750E-004;3.192929085344076E-003;
2.409833333333334E+009;1.784341335296631E-001;-3.358406201004982E-002;5.073280190117657E-004;3.339425195008516E-003;
2.410000000000000E+009;1.790504008531570E-001;-3.467313200235367E-002;7.937612826935947E-004;3.423511283472180E-003;
2.410166666666667E+009;1.795512586832047E-001;-3.563148528337479E-002;9.067964856512845E-004;3.318097442388535E-003;
2.410333333333334E+009;1.801159530878067E-001;-3.649747744202614E-002;1.122151734307408E-003;3.357670269906521E-003;
2.410500000000000E+009;1.804330050945282E-001;-3.719627484679222E-002;1.400672597810626E-003;3.433800768107176E-003;
2.410666666666667E+009;1.808176487684250E-001;-3.805660828948021E-002;1.672112615779042E-003;3.412891412153840E-003;
2.410833333333334E+009;1.811435818672180E-001;-3.860455378890038E-002;1.823860569857061E-003;3.305746475234628E-003;
2.411000000000000E+009;1.814675182104111E-001;-3.937954828143120E-002;2.028183080255985E-003;3.289395011961460E-003;
2.411166666666667E+009;1.817587465047836E-001;-3.980153426527977E-002;2.314923098310828E-003;3.395174164324999E-003;
2.411333333333334E+009;1.817821115255356E-001;-4.036425054073334E-002;2.447160426527262E-003;3.219285747036338E-003;
2.411500000000000E+009;1.819041371345520E-001;-4.090571030974388E-002;2.712568035349250E-003;3.049501683562994E-003;
2.411666666666667E+009;1.820124089717865E-001;-4.130927845835686E-002;2.866317750886083E-003;2.930038841441274E-003;
2.411833333333334E+009;1.818895339965820E-001;-4.175722971558571E-002;2.849049866199493E-003;2.767316764220595E-003;
2.412000000000000E+009;1.819332987070084E-001;-4.217831790447235E-002;3.163934452459216E-003;2.487642224878073E-003;
2.412166666666667E+009;1.813771277666092E-001;-4.267699271440506E-002;3.361971117556095E-003;2.509530866518617E-003;
2.412333333333334E+009;1.814882904291153E-001;-4.275191202759743E-002;3.417985513806343E-003;2.205222379416227E-003;
2.412500000000000E+009;1.807593554258347E-001;-4.315851256251335E-002;3.448535455390811E-003;1.905331271700561E-003;
2.412666666666667E+009;1.802001893520355E-001;-4.375896230340004E-002;3.495045239105821E-003;1.901395968161523E-003;
2.412833333333334E+009;1.795147657394409E-001;-4.419609531760216E-002;3.807885572314262E-003;1.596573740243912E-003;
2.413000000000000E+009;1.787584424018860E-001;-4.466043412685394E-002;3.743559354916215E-003;1.379270106554031E-003;
2.413166666666667E+009;1.779137849807739E-001;-4.475703835487366E-002;3.642476862296462E-003;1.268472056835890E-003;
2.413333333333334E+009;1.769621074199677E-001;-4.531592503190041E-002;3.815222764387727E-003;1.063661300577223E-003;
2.413500000000000E+009;1.759153008460999E-001;-4.572053998708725E-002;3.754077712073922E-003;8.702475461177528E-004;
2.413666666666667E+009;1.750250011682510E-001;-4.629661142826080E-002;3.682426642626524E-003;7.558709476143122E-004;
2.413833333333334E+009;1.737935841083527E-001;-4.686954617500305E-002;3.657598281279206E-003;4.195194051135331E-004;
2.414000000000000E+009;1.726171225309372E-001;-4.766262695193291E-002;3.614655230194330E-003;3.532886039465666E-004;
2.414166666666667E+009;1.716805398464203E-001;-4.836848005652428E-002;3.603815101087093E-003;1.370753452647477E-004;
2.414333333333334E+009;1.702343970537186E-001;-4.925182834267616E-002;3.522896673530340E-003;7.576095958938822E-005;
2.414500000000000E+009;1.692770570516586E-001;-4.990662634372711E-002;3.317865310236812E-003;-1.229309127666056E-004;
2.414666666666667E+009;1.680152863264084E-001;-5.084028840065002E-002;3.321471856907010E-003;-2.644138003233820E-004;
2.414833333333334E+009;1.666728854179382E-001;-5.200869962573052E-002;3.325755009427667E-003;-3.548653039615601E-004;
2.415000000000000E+009;1.654941439628601E-001;-5.308081954717636E-002;3.276105737313628E-003;-4.300483269616962E-004;
2.415166666666667E+009;1.642362475395203E-001;-5.423780903220177E-002;3.027807222679257E-003;-6.140287732705474E-004;
2.415333333333334E+009;1.631601601839066E-001;-5.554816871881485E-002;2.874654252082110E-003;-6.283311522565782E-004;
2.415500000000000E+009;1.619892567396164E-001;-5.685333907604218E-002;2.812616061419249E-003;-6.139935576356947E-004;
2.415666666666667E+009;1.608106642961502E-001;-5.817595124244690E-002;2.714770846068859E-003;-6.493908003903925E-004;
2.415833333333334E+009;1.596350520849228E-001;-5.978858098387718E-002;2.637200057506561E-003;-6.707540014758706E-004;
2.416000000000000E+009;1.584964394569397E-001;-6.144073233008385E-002;2.480399562045932E-003;-7.163468981161714E-004;
2.416166666666667E+009;1.577329337596893E-001;-6.318332999944687E-002;2.442544559016824E-003;-7.673369254916906E-004;
2.416333333333334E+009;1.566154211759567E-001;-6.479269266128540E-002;2.292097080498934E-003;-6.577077438123524E-004;
2.416500000000000E+009;1.556640565395355E-001;-6.666432321071625E-002;2.198499860242009E-003;-7.595255156047642E-004;
2.416666666666667E+009;1.547853946685791E-001;-6.844156235456467E-002;2.262278459966183E-003;-6.508123478852212E-004;
2.416833333333334E+009;1.541386097669601E-001;-7.047942280769348E-002;2.146156970411539E-003;-7.330880616791546E-004;
2.417000000000000E+009;1.531350016593933E-001;-7.243607938289642E-002;2.208810299634934E-003;-7.135460036806762E-004;
2.417166666666667E+009;1.525412201881409E-001;-7.423448562622070E-002;2.149619860574603E-003;-6.231588195078075E-004;
2.417333333333334E+009;1.519172787666321E-001;-7.595120370388031E-002;2.073921263217926E-003;-4.994720802642405E-004;
2.417500000000000E+009;1.511919647455216E-001;-7.807746529579163E-002;2.130265580490232E-003;-6.619704072363675E-004;
2.417666666666667E+009;1.508513689041138E-001;-7.985755801200867E-002;2.090328373014927E-003;-4.236128879711032E-004;
2.417833333333334E+009;1.504415124654770E-001;-8.158340305089951E-002;1.983126159757376E-003;-4.151113098487258E-004;
2.418000000000000E+009;1.499105244874954E-001;-8.356720209121704E-002;2.065396867692471E-003;-4.228677134960890E-004;
2.418166666666667E+009;1.497230529785156E-001;-8.511309325695038E-002;2.039313316345215E-003;-4.037301114294678E-004;
2.418333333333334E+009;1.497075855731964E-001;-8.692093193531036E-002;2.030419418588281E-003;-3.287332074251026E-004;
2.418500000000000E+009;1.494658440351486E-001;-8.851116895675659E-002;2.085860585793853E-003;-3.223009989596903E-004;
2.418666666666667E+009;1.494438350200653E-001;-9.004866331815720E-002;2.153028966858983E-003;-3.829745110124350E-004;
2.418833333333334E+009;1.492145210504532E-001;-9.148897975683212E-002;2.371360315009952E-003;-3.249059664085507E-004;
2.419000000000000E+009;1.491157263517380E-001;-9.282138198614121E-002;2.406248589977622E-003;-1.196188750327565E-004;
2.419166666666667E+009;1.492673158645630E-001;-9.410764276981354E-002;2.633254509419203E-003;-3.042833704967052E-004;
2.419333333333334E+009;1.491982787847519E-001;-9.502013772726059E-002;2.685261424630880E-003;-2.300362830283120E-004;
2.419500000000000E+009;1.493235677480698E-001;-9.639161825180054E-002;2.804492367431521E-003;-3.006404149346054E-004;
2.419666666666667E+009;1.497593522071838E-001;-9.716259688138962E-002;3.027081256732345E-003;-3.252816095482558E-004;
2.419833333333334E+009;1.497730016708374E-001;-9.797061234712601E-002;3.183624474331737E-003;-3.934420819859952E-004;
2.420000000000000E+009;1.502494066953659E-001;-9.855687618255615E-002;3.363503376021981E-003;-6.291577010415494E-004;
2.420166666666667E+009;1.502200961112976E-001;-9.918295592069626E-002;3.521040547639132E-003;-5.559714627452195E-004;
2.420333333333334E+009;1.507106125354767E-001;-9.974327683448792E-002;3.659993642941117E-003;-8.412832394242287E-004;
2.420500000000000E+009;1.509608477354050E-001;-9.991147369146347E-002;3.837252035737038E-003;-1.194330514408648E-003;
2.420666666666667E+009;1.511787176132202E-001;-1.000834479928017E-001;3.840119345113635E-003;-1.324370969086886E-003;
2.420833333333334E+009;1.513426452875137E-001;-1.003354042768478E-001;3.944832365959883E-003;-1.464400324039161E-003;
2.421000000000000E+009;1.514450162649155E-001;-1.005247160792351E-001;4.066664259880781E-003;-1.702039269730449E-003;
2.421166666666667E+009;1.518109738826752E-001;-1.004746109247208E-001;4.189948085695505E-003;-2.128065098077059E-003;
2.421333333333334E+009;1.519751101732254E-001;-1.003914698958397E-001;4.151490051299334E-003;-2.330361865460873E-003;
2.421500000000000E+009;1.518250703811646E-001;-1.003111526370049E-001;4.164237994700670E-003;-2.588597824797034E-003;
2.421666666666667E+009;1.520041525363922E-001;-1.001352220773697E-001;4.223602358251810E-003;-2.730940468609333E-003;
2.421833333333334E+009;1.520589888095856E-001;-9.996406733989716E-002;4.090906120836735E-003;-3.061193739995360E-003;
2.422000000000000E+009;1.517926454544067E-001;-9.968568384647369E-002;4.021430388092995E-003;-3.575875889509916E-003;
2.422166666666667E+009;1.514703184366226E-001;-9.946415573358536E-002;3.792753443121910E-003;-3.707142313942313E-003;
2.422333333333334E+009;1.511715650558472E-001;-9.908664971590042E-002;3.845019498839974E-003;-4.082981031388044E-003;
2.422500000000000E+009;1.508085578680039E-001;-9.870900213718414E-002;3.758105682209134E-003;-4.470354411751032E-003;
2.422666666666667E+009;1.502497494220734E-001;-9.842052310705185E-002;3.525015665218234E-003;-4.627511370927095E-003;
2.422833333333334E+009;1.496940702199936E-001;-9.817253798246384E-002;3.330790437757969E-003;-5.019747652113438E-003;
2.423000000000000E+009;1.487159579992294E-001;-9.779663383960724E-002;3.089413978159428E-003;-5.292235407978296E-003;
2.423166666666667E+009;1.480324566364288E-001;-9.755269438028336E-002;2.606879919767380E-003;-5.448177922517061E-003;
2.423333333333334E+009;1.472074538469315E-001;-9.705861657857895E-002;2.283705398440361E-003;-5.935268010944128E-003;
2.423500000000000E+009;1.461139470338821E-001;-9.697134792804718E-002;1.832846435718238E-003;-5.890872795134783E-003;
2.423666666666667E+009;1.447211652994156E-001;-9.658916294574738E-002;1.655286876484752E-003;-6.108599249273539E-003;
2.423833333333334E+009;1.436216533184052E-001;-9.623914957046509E-002;1.305264420807362E-003;-6.342973560094833E-003;
2.424000000000000E+009;1.423960328102112E-001;-9.595849364995956E-002;1.138468272984028E-003;-6.364427506923676E-003;
2.424166666666667E+009;1.409719884395599E-001;-9.588494151830673E-002;5.231873947195709E-004;-6.503636483103037E-003;
2.424333333333334E+009;1.396822780370712E-001;-9.586342424154282E-002;2.571303339209408E-004;-6.417619064450264E-003;
2.424500000000000E+009;1.383133232593536E-001;-9.585143625736237E-002;1.668678305577487E-005;-6.320182234048843E-003;
2.424666666666667E+009;1.370361745357513E-001;-9.590294212102890E-002;-4.336994024924934E-004;-6.488480605185032E-003;
2.424833333333334E+009;1.353993713855743E-001;-9.615976363420487E-002;-8.544470183551312E-004;-6.382814142853022E-003;
2.425000000000000E+009;1.340688019990921E-001;-9.639403969049454E-002;-1.089805620722473E-003;-6.139794364571571E-003;
2.425166666666667E+009;1.323746591806412E-001;-9.683889895677567E-002;-1.603271928615868E-003;-6.241527851670981E-003;
2.425333333333334E+009;1.310785859823227E-001;-9.738507121801376E-002;-1.893633627332747E-003;-6.036800798028708E-003;
2.425500000000000E+009;1.296445876359940E-001;-9.810219705104828E-002;-2.256370848044753E-003;-5.908460356295109E-003;
2.425666666666667E+009;1.280987858772278E-001;-9.875075519084930E-002;-2.469608793035150E-003;-5.697954446077347E-003;
2.425833333333334E+009;1.266875565052033E-001;-9.957295656204224E-002;-2.647630404680967E-003;-5.534502211958170E-003;
2.426000000000000E+009;1.253367662429810E-001;-1.007147654891014E-001;-2.948946086689830E-003;-5.225251428782940E-003;
2.426166666666667E+009;1.241279244422913E-001;-1.016788631677628E-001;-3.166895126923919E-003;-5.043678451329470E-003;
2.426333333333334E+009;1.227612942457199E-001;-1.029541492462158E-001;-3.523850347846746E-003;-4.740774631500244E-003;
2.426500000000000E+009;1.216566562652588E-001;-1.042672321200371E-001;-3.556488547474146E-003;-4.382163286209106E-003;
2.426666666666667E+009;1.206409558653832E-001;-1.055244579911232E-001;-3.754838602617383E-003;-4.245303105562925E-003;
2.426833333333334E+009;1.194360628724098E-001;-1.070507913827896E-001;-3.722234861925244E-003;-4.003365524113178E-003;
2.427000000000000E+009;1.183402687311173E-001;-1.085993200540543E-001;-3.814589930698276E-003;-3.575277514755726E-003;
2.427166666666667E+009;1.173222064971924E-001;-1.101844981312752E-001;-3.841503057628870E-003;-3.315214533358812E-003;
2.427333333333334E+009;1.164900213479996E-001;-1.118690073490143E-001;-3.905188292264938E-003;-3.095173044130206E-003;
2.427500000000000E+009;1.157277971506119E-001;-1.136019527912140E-001;-3.869948210194707E-003;-3.058331785723567E-003;
2.427666666666667E+009;1.148827150464058E-001;-1.153328791260719E-001;-3.945656120777130E-003;-2.591042080894113E-003;
2.427833333333334E+009;1.141590997576714E-001;-1.170414015650749E-001;-3.882081015035510E-003;-2.585134701803327E-003;
