# Version 1.00
#
freq[Hz];re:Trc1_S11;im:Trc1_S11;re:Trc2_S21;im:Trc2_S21;
2.400000000000000E+009;1.686803400516510E-001;4.549399018287659E-002;-6.420756690204144E-003;2.668789355084300E-003;
2.400166666666667E+009;1.697567254304886E-001;4.446319863200188E-002;-6.121385842561722E-003;3.022112185135484E-003;
2.400333333333334E+009;1.707941889762878E-001;4.324498400092125E-002;-5.851236172020435E-003;3.391812322661281E-003;
2.400500000000000E+009;1.717821359634399E-001;4.235950857400894E-002;-5.670208483934403E-003;3.836532123386860E-003;
2.400666666666667E+009;1.724097728729248E-001;4.132080450654030E-002;-5.435754545032978E-003;4.019113723188639E-003;
2.400833333333334E+009;1.734707951545715E-001;4.048947617411614E-002;-5.189604125916958E-003;4.480032715946436E-003;
2.401000000000000E+009;1.741975396871567E-001;3.984319418668747E-002;-4.829633515328169E-003;4.608836956322193E-003;
2.401166666666667E+009;1.749679744243622E-001;3.897320106625557E-002;-4.504946991801262E-003;4.874147009104490E-003;
2.401333333333334E+009;1.754155158996582E-001;3.831360489130020E-002;-4.014449194073677E-003;5.061059258878231E-003;
2.401500000000000E+009;1.763765364885330E-001;3.777419403195381E-002;-3.831698326393962E-003;5.326074082404375E-003;
2.401666666666667E+009;1.769519150257111E-001;3.738726675510407E-002;-3.470516297966242E-003;5.585300736129284E-003;
2.401833333333334E+009;1.776606142520905E-001;3.668915852904320E-002;-3.038729075342417E-003;5.529413465410471E-003;
2.402000000000000E+009;1.779521554708481E-001;3.606344386935234E-002;-2.676103962585330E-003;5.780804436653853E-003;
2.402166666666667E+009;1.783062517642975E-001;3.547667711973190E-002;-2.294534351676703E-003;5.732493475079536E-003;
2.402333333333334E+009;1.787745058536530E-001;3.494702279567719E-002;-1.997485058382154E-003;5.755319260060787E-003;
2.402500000000000E+009;1.791675537824631E-001;3.436109423637390E-002;-1.502942293882370E-003;5.871021654456854E-003;
2.402666666666667E+009;1.793132126331329E-001;3.386145457625389E-002;-1.138689462095499E-003;5.640128627419472E-003;
2.402833333333334E+009;1.795323640108109E-001;3.332855179905891E-002;-6.807298050262034E-004;5.662433337420225E-003;
2.403000000000000E+009;1.796556711196899E-001;3.253989294171333E-002;-3.577197203412652E-004;5.594501271843910E-003;
2.403166666666667E+009;1.795641183853149E-001;3.172086551785469E-002;7.779400766594335E-005;5.405839532613754E-003;
2.403333333333334E+009;1.795764118432999E-001;3.108883462846279E-002;4.580376262310892E-004;5.385278258472681E-003;
2.403500000000000E+009;1.793178021907806E-001;3.020324558019638E-002;6.227213307283819E-004;5.105339922010899E-003;
2.403666666666667E+009;1.791087388992310E-001;2.917879261076450E-002;1.006237696856260E-003;5.046408623456955E-003;
2.403833333333334E+009;1.790312528610230E-001;2.819346822798252E-002;1.157616032287478E-003;4.537958186119795E-003;
2.404000000000000E+009;1.786607950925827E-001;2.697410993278027E-002;1.579062780365348E-003;4.326475318521261E-003;
2.404166666666667E+009;1.782253831624985E-001;2.584595791995525E-002;1.702305860817432E-003;3.963686060160399E-003;
2.404333333333334E+009;1.779839545488358E-001;2.483406849205494E-002;1.758939237333834E-003;3.718414343893528E-003;
2.404500000000000E+009;1.773992031812668E-001;2.319855801761150E-002;1.689291675575078E-003;3.447055350989103E-003;
2.404666666666667E+009;1.768974661827087E-001;2.210780791938305E-002;1.843435340560973E-003;3.055056557059288E-003;
2.404833333333334E+009;1.763796359300613E-001;2.060335688292980E-002;1.951551414094865E-003;2.831391058862209E-003;
2.405000000000000E+009;1.759703606367111E-001;1.901372894644737E-002;1.773600699380040E-003;2.416010480374098E-003;
2.405166666666667E+009;1.754276454448700E-001;1.743740402162075E-002;1.794806797988713E-003;2.159624360501766E-003;
2.405333333333334E+009;1.750803738832474E-001;1.576178520917893E-002;1.598608912900090E-003;2.036692807450891E-003;
2.405500000000000E+009;1.746044903993607E-001;1.413933560252190E-002;1.712680794298649E-003;1.927913282997906E-003;
2.405666666666667E+009;1.743546426296234E-001;1.248298771679401E-002;1.462911488488317E-003;1.793963951058686E-003;
2.405833333333334E+009;1.737280637025833E-001;1.068806089460850E-002;1.532854745164514E-003;1.540366094559431E-003;
2.406000000000000E+009;1.735166460275650E-001;8.608273230493069E-003;1.096241758204997E-003;1.336430897936225E-003;
2.406166666666667E+009;1.732001751661301E-001;6.937374826520681E-003;1.126728951931000E-003;1.442405977286398E-003;
2.406333333333334E+009;1.729835271835327E-001;4.940610844641924E-003;1.006226404570043E-003;1.143078901804984E-003;
2.406500000000000E+009;1.727236360311508E-001;2.886672969907522E-003;7.976138149388135E-004;1.116154016926885E-003;
2.406666666666667E+009;1.725483387708664E-001;8.640849264338613E-004;6.491044769063592E-004;1.099441200494766E-003;
2.406833333333334E+009;1.725825965404511E-001;-1.172771793790162E-003;7.096580811776221E-004;1.188061665743589E-003;
2.407000000000000E+009;1.725800633430481E-001;-3.353649284690619E-003;3.321070689707995E-004;1.243421458639205E-003;
2.407166666666667E+009;1.727247387170792E-001;-5.290398374199867E-003;2.671869879122824E-004;1.300401752814651E-003;
2.407333333333334E+009;1.727885752916336E-001;-7.455632090568543E-003;1.047023542923853E-004;1.167592126876116E-003;
2.407500000000000E+009;1.729885935783386E-001;-9.570841677486897E-003;7.164991257013753E-005;1.355235581286252E-003;
2.407666666666667E+009;1.732020825147629E-001;-1.151688210666180E-002;-1.118071886594407E-004;1.281433156691492E-003;
2.407833333333334E+009;1.733509451150894E-001;-1.373597234487534E-002;-9.734361810842529E-005;1.354073756374419E-003;
2.408000000000000E+009;1.737407147884369E-001;-1.592790521681309E-002;-3.547277883626521E-004;1.652219798415899E-003;
2.408166666666667E+009;1.741539239883423E-001;-1.766995154321194E-002;-3.698787768371403E-004;1.729065785184503E-003;
2.408333333333334E+009;1.747349053621292E-001;-1.976278983056545E-002;-4.781988391187042E-004;1.919515198096633E-003;
2.408500000000000E+009;1.750657260417938E-001;-2.168435789644718E-002;-2.387669374002144E-004;2.229522913694382E-003;
2.408666666666667E+009;1.754917204380035E-001;-2.343451976776123E-002;-1.637593377381563E-004;2.252403181046248E-003;
2.408833333333334E+009;1.757136434316635E-001;-2.534499764442444E-002;-2.205565397161990E-004;2.457057125866413E-003;
2.409000000000000E+009;1.762144267559052E-001;-2.691881358623505E-002;-1.459416525904089E-004;2.599665196612477E-003;
2.409166666666667E+009;1.767734587192535E-001;-2.857343293726444E-002;-1.403545902576298E-004;2.656782278791070E-003;
2.409333333333334E+009;1.772759705781937E-001;-3.005275689065456E-002;1.423447247361764E-004;2.953893039375544E-003;
2.409500000000000E+009;1.775250136852264E-001;-3.134118765592575E-002;2.402141690254211E-004;3.054619766771793E-003;
2.409666666666667E+009;1.779836118221283E-001;-3.253026679158211E-002;1.815982832340524E-004;3.233149647712708E-003;
2.409833333333334E+009;1.783934384584427E-001;-3.367611393332481E-002;6.354718352667987E-004;3.308745101094246E-003;
2.410000000000000E+009;1.790600419044495E-001;-3.457383438944817E-002;7.665430312044919E-004;3.393169259652495E-003;
2.410166666666667E+009;1.794070601463318E-001;-3.550096601247788E-002;9.824248263612390E-004;3.398465923964977E-003;
2.410333333333334E+009;1.799751818180084E-001;-3.649869188666344E-002;1.042245887219906E-003;3.419908694922924E-003;
2.410500000000000E+009;1.805294007062912E-001;-3.728781268000603E-002;1.294993446208537E-003;3.374815220013261E-003;
2.410666666666667E+009;1.808275431394577E-001;-3.806855529546738E-002;1.459236955270171E-003;3.362017450854182E-003;
2.410833333333334E+009;1.811973005533218E-001;-3.875192999839783E-002;1.871060347184539E-003;3.336748573929071E-003;
2.411000000000000E+009;1.815104037523270E-001;-3.922355547547340E-002;2.009230665862560E-003;3.292370820418000E-003;
2.411166666666667E+009;1.816790848970413E-001;-3.992034122347832E-002;2.340207342058420E-003;3.287788713350892E-003;
2.411333333333334E+009;1.819200217723846E-001;-4.024282470345497E-002;2.449702471494675E-003;3.055397421121597E-003;
2.411500000000000E+009;1.818827539682388E-001;-4.093318805098534E-002;2.764394739642739E-003;3.007747000083327E-003;
2.411666666666667E+009;1.820562481880188E-001;-4.118303954601288E-002;3.070093225687742E-003;2.858401043340564E-003;
2.411833333333334E+009;1.818706840276718E-001;-4.167323559522629E-002;3.041150514036417E-003;2.693735761567950E-003;
2.412000000000000E+009;1.820205748081207E-001;-4.216292873024941E-002;3.145526628941298E-003;2.537620253860951E-003;
2.412166666666667E+009;1.815411299467087E-001;-4.248766973614693E-002;3.263549879193306E-003;2.373008523136377E-003;
2.412333333333334E+009;1.812640279531479E-001;-4.284916818141937E-002;3.467617789283395E-003;2.137165749445558E-003;
2.412500000000000E+009;1.806919723749161E-001;-4.332360997796059E-002;3.555709728971124E-003;2.018934348598123E-003;
2.412666666666667E+009;1.802191883325577E-001;-4.381160810589790E-002;3.540534526109695E-003;1.763188978657126E-003;
2.412833333333334E+009;1.795425415039063E-001;-4.401556402444840E-002;3.659524489194155E-003;1.621561124920845E-003;
2.413000000000000E+009;1.787019819021225E-001;-4.439876973628998E-002;3.684085793793201E-003;1.265959581360221E-003;
2.413166666666667E+009;1.778831928968430E-001;-4.485209286212921E-002;3.705608891323209E-003;1.251460867933929E-003;
2.413333333333334E+009;1.768688112497330E-001;-4.528614878654480E-002;3.632895881310105E-003;9.559227619320154E-004;
2.413500000000000E+009;1.759716272354126E-001;-4.586708545684815E-002;3.555234987288714E-003;7.227989844977856E-004;
2.413666666666667E+009;1.751229614019394E-001;-4.644852876663208E-002;3.736639628186822E-003;6.433932576328516E-004;
2.413833333333334E+009;1.739875525236130E-001;-4.693891480565071E-002;3.532174509018660E-003;4.235690284986049E-004;
2.414000000000000E+009;1.727506816387177E-001;-4.765952378511429E-002;3.640044946223497E-003;2.048321621259674E-004;
2.414166666666667E+009;1.715649664402008E-001;-4.820544645190239E-002;3.583389101549983E-003;-2.150269756384660E-005;
2.414333333333334E+009;1.705339401960373E-001;-4.919589310884476E-002;3.425349248573184E-003;-1.030992007144960E-005;
2.414500000000000E+009;1.693409383296967E-001;-4.998584836721420E-002;3.248571418225765E-003;-1.695162209216505E-004;
2.414666666666667E+009;1.680515855550766E-001;-5.095463246107101E-002;3.242444479838014E-003;-4.436387680470944E-004;
2.414833333333334E+009;1.666992753744125E-001;-5.180698633193970E-002;3.094933461397886E-003;-3.803821164183319E-004;
2.415000000000000E+009;1.654758453369141E-001;-5.285615101456642E-002;3.097249893471599E-003;-4.904740490019321E-004;
2.415166666666667E+009;1.642491966485977E-001;-5.416683852672577E-002;2.958137774839997E-003;-5.272856215015054E-004;
2.415333333333334E+009;1.630956381559372E-001;-5.552058294415474E-002;2.857538172975183E-003;-5.972768412902951E-004;
2.415500000000000E+009;1.620269715785980E-001;-5.686124041676521E-002;2.700734883546829E-003;-6.628489936701953E-004;
2.415666666666667E+009;1.606889963150024E-001;-5.820390954613686E-002;2.614099765196443E-003;-6.291055469773710E-004;
2.415833333333334E+009;1.597447991371155E-001;-5.974741280078888E-002;2.664347179234028E-003;-6.719575612805784E-004;
2.416000000000000E+009;1.585616320371628E-001;-6.149698048830032E-002;2.546069910749793E-003;-8.657439611852169E-004;
2.416166666666667E+009;1.576920300722122E-001;-6.308975070714951E-002;2.535802312195301E-003;-8.776579052209854E-004;
2.416333333333334E+009;1.566764861345291E-001;-6.476007401943207E-002;2.331736264750361E-003;-6.482119206339121E-004;
2.416500000000000E+009;1.556499749422073E-001;-6.669919192790985E-002;2.247750293463469E-003;-7.704204763285816E-004;
2.416666666666667E+009;1.546842157840729E-001;-6.839628517627716E-002;2.120773307979107E-003;-7.704927702434361E-004;
2.416833333333334E+009;1.540338397026062E-001;-7.043565809726715E-002;2.149525331333280E-003;-7.682399009354413E-004;
2.417000000000000E+009;1.531305164098740E-001;-7.240886241197586E-002;2.153571927919984E-003;-7.383040501736105E-004;
2.417166666666667E+009;1.524110287427902E-001;-7.419353723526001E-002;2.031178912147880E-003;-6.587055977433920E-004;
2.417333333333334E+009;1.519484817981720E-001;-7.600875943899155E-002;2.130992477759719E-003;-6.760620162822306E-004;
2.417500000000000E+009;1.512614935636520E-001;-7.802247256040573E-002;1.888953382149339E-003;-6.718431832268834E-004;
2.417666666666667E+009;1.509171128273010E-001;-7.973156124353409E-002;2.003677422180772E-003;-5.417865468189120E-004;
2.417833333333334E+009;1.504572033882141E-001;-8.165222406387329E-002;1.971352612599731E-003;-6.013314705342054E-004;
2.418000000000000E+009;1.500414311885834E-001;-8.360251039266586E-002;1.914308406412602E-003;-4.390098329167813E-004;
2.418166666666667E+009;1.496584266424179E-001;-8.508128672838211E-002;2.061139093711972E-003;-4.173409834038466E-004;
2.418333333333334E+009;1.496777534484863E-001;-8.701202273368835E-002;2.139017218723893E-003;-3.795216616708785E-004;
2.418500000000000E+009;1.493644118309021E-001;-8.848769217729569E-002;2.135517541319132E-003;-2.980403078254312E-004;
2.418666666666667E+009;1.493376791477203E-001;-8.994635939598084E-002;2.117565367370844E-003;-2.108318003593013E-004;
2.418833333333334E+009;1.491966843605042E-001;-9.153903275728226E-002;2.232025144621730E-003;-2.842605463229120E-004;
2.419000000000000E+009;1.491119116544724E-001;-9.291187673807144E-002;2.590011106804013E-003;-1.061247457982972E-004;
2.419166666666667E+009;1.493190675973892E-001;-9.401609748601914E-002;2.618106547743082E-003;-2.291964046889916E-004;
2.419333333333334E+009;1.492953002452850E-001;-9.500624984502792E-002;2.664248459041119E-003;-2.806273405440152E-004;
2.419500000000000E+009;1.494899541139603E-001;-9.633541852235794E-002;2.744666533544660E-003;-2.327911206521094E-004;
2.419666666666667E+009;1.498471200466156E-001;-9.711402654647827E-002;3.025803482159972E-003;-3.421885194256902E-004;
2.419833333333334E+009;1.498112678527832E-001;-9.786510467529297E-002;3.149202791973949E-003;-3.987889504060149E-004;
2.420000000000000E+009;1.500846445560455E-001;-9.847336262464523E-002;3.354307031258941E-003;-5.529859336093068E-004;
2.420166666666667E+009;1.505030393600464E-001;-9.908397495746613E-002;3.500243881717324E-003;-7.376451976597309E-004;
2.420333333333334E+009;1.506436914205551E-001;-9.959927201271057E-002;3.669419325888157E-003;-7.914267480373383E-004;
2.420500000000000E+009;1.510201990604401E-001;-9.984392672777176E-002;3.711704863235354E-003;-1.075207721441984E-003;
2.420666666666667E+009;1.511261016130447E-001;-1.000974178314209E-001;3.634221618995071E-003;-1.217529410496354E-003;
2.420833333333334E+009;1.514155864715576E-001;-1.003314405679703E-001;3.941410221159458E-003;-1.430087606422603E-003;
2.421000000000000E+009;1.514427214860916E-001;-1.004996001720429E-001;4.029450472444296E-003;-1.796414027921855E-003;
2.421166666666667E+009;1.518280655145645E-001;-1.004243269562721E-001;4.022145178169012E-003;-1.974523533135653E-003;
2.421333333333334E+009;1.521116346120834E-001;-1.006072387099266E-001;4.149316344410181E-003;-2.329989569261670E-003;
2.421500000000000E+009;1.519348323345184E-001;-1.002874523401260E-001;4.081272054463625E-003;-2.503380412235856E-003;
2.421666666666667E+009;1.519499123096466E-001;-1.000749021768570E-001;4.166871774941683E-003;-2.903187181800604E-003;
2.421833333333334E+009;1.519526988267899E-001;-9.979678690433502E-002;4.013575613498688E-003;-3.242610720917583E-003;
2.422000000000000E+009;1.517723500728607E-001;-9.975212812423706E-002;3.992050420492888E-003;-3.537059528753161E-003;
2.422166666666667E+009;1.515824347734451E-001;-9.953081607818604E-002;3.927028272300959E-003;-3.838162636384368E-003;
2.422333333333334E+009;1.512026786804199E-001;-9.909632056951523E-002;3.885899204760790E-003;-4.131264518946409E-003;
2.422500000000000E+009;1.508270055055618E-001;-9.877512603998184E-002;3.624290227890015E-003;-4.415461327880621E-003;
2.422666666666667E+009;1.502072811126709E-001;-9.859441220760346E-002;3.411820856854320E-003;-4.824805539101362E-003;
2.422833333333334E+009;1.496076136827469E-001;-9.820948541164398E-002;3.099505091086030E-003;-5.092551000416279E-003;
2.423000000000000E+009;1.486410349607468E-001;-9.787195920944214E-002;2.861776389181614E-003;-5.313418805599213E-003;
2.423166666666667E+009;1.478841602802277E-001;-9.755628556013107E-002;2.673243870958686E-003;-5.636001471430063E-003;
2.423333333333334E+009;1.472149938344955E-001;-9.692895412445068E-002;2.382154110819101E-003;-5.783314816653729E-003;
2.423500000000000E+009;1.460932940244675E-001;-9.688008576631546E-002;1.992341829463840E-003;-5.991562269628048E-003;
2.423666666666667E+009;1.447611153125763E-001;-9.676606208086014E-002;1.702755806036294E-003;-6.045229267328978E-003;
2.423833333333334E+009;1.437861323356628E-001;-9.645136445760727E-002;1.434606732800603E-003;-6.263846997171640E-003;
2.424000000000000E+009;1.424119621515274E-001;-9.608630836009979E-002;9.328968590125442E-004;-6.268683820962906E-003;
2.424166666666667E+009;1.410415470600128E-001;-9.610496461391449E-002;6.927050417289138E-004;-6.347912829369307E-003;
2.424333333333334E+009;1.397772282361984E-001;-9.585313498973846E-002;2.269091783091426E-004;-6.348921451717615E-003;
2.424500000000000E+009;1.383732408285141E-001;-9.600201994180679E-002;-6.055934136384167E-005;-6.483148783445358E-003;
2.424666666666667E+009;1.370849758386612E-001;-9.593515098094940E-002;-4.147621511947364E-004;-6.382384803146124E-003;
2.424833333333334E+009;1.354458928108215E-001;-9.623295068740845E-002;-8.976211538538337E-004;-6.336702499538660E-003;
2.425000000000000E+009;1.340114772319794E-001;-9.644389897584915E-002;-1.305670128203929E-003;-6.158366333693266E-003;
2.425166666666667E+009;1.325321048498154E-001;-9.686976671218872E-002;-1.422963570803404E-003;-6.117972545325756E-003;
2.425333333333334E+009;1.310673505067825E-001;-9.733542799949646E-002;-1.924425945617259E-003;-6.112799048423767E-003;
2.425500000000000E+009;1.295446008443832E-001;-9.807114303112030E-002;-2.212570980191231E-003;-5.746851209551096E-003;
2.425666666666667E+009;1.281310617923737E-001;-9.882590919733048E-002;-2.527977572754026E-003;-5.638308357447386E-003;
2.425833333333334E+009;1.267413944005966E-001;-9.963101893663406E-002;-2.901449566707015E-003;-5.350403953343630E-003;
2.426000000000000E+009;1.253641545772553E-001;-1.006307229399681E-001;-3.026721300557256E-003;-5.138352513313294E-003;
2.426166666666667E+009;1.242210119962692E-001;-1.018659546971321E-001;-3.393779974430800E-003;-4.844194743782282E-003;
2.426333333333334E+009;1.227146312594414E-001;-1.029520481824875E-001;-3.463383764028549E-003;-4.608384333550930E-003;
2.426500000000000E+009;1.217020675539970E-001;-1.042649298906326E-001;-3.672513179481030E-003;-4.396716598421335E-003;
2.426666666666667E+009;1.205531433224678E-001;-1.055130735039711E-001;-3.861331846565008E-003;-3.993500955402851E-003;
2.426833333333334E+009;1.194041669368744E-001;-1.071152538061142E-001;-3.766928100958467E-003;-3.947211895138025E-003;
2.427000000000000E+009;1.183511391282082E-001;-1.086535900831223E-001;-3.845603438094258E-003;-3.550850087776780E-003;
2.427166666666667E+009;1.173865720629692E-001;-1.100785136222839E-001;-3.892553970217705E-003;-3.332765307277441E-003;
2.427333333333334E+009;1.164082214236260E-001;-1.118373498320580E-001;-4.022979177534580E-003;-3.141977125778794E-003;
2.427500000000000E+009;1.156923919916153E-001;-1.135570630431175E-001;-3.912566695362330E-003;-2.736864611506462E-003;
2.427666666666667E+009;1.148489862680435E-001;-1.153769418597221E-001;-3.952756524085999E-003;-2.612884389236569E-003;
2.427833333333334E+009;1.141720414161682E-001;-1.170197576284409E-001;-3.888578154146671E-003;-2.444430487230420E-003;
