# Version 1.00
#
freq[Hz];re:Trc1_S11;im:Trc1_S11;re:Trc2_S21;im:Trc2_S21;
2.400000000000000E+009;1.585182696580887E-001;6.302782893180847E-002;-5.289186257869005E-003;1.546986051835120E-003;
2.400166666666667E+009;1.582306623458862E-001;6.141755729913712E-002;-4.959922749549151E-003;1.623241580091417E-003;
2.400333333333334E+009;1.580743193626404E-001;5.950034409761429E-002;-5.039521958678961E-003;1.922940369695425E-003;
2.400500000000000E+009;1.581417173147202E-001;5.775115266442299E-002;-4.893089644610882E-003;1.946128322742879E-003;
2.400666666666667E+009;1.581231653690338E-001;5.578800290822983E-002;-4.702547565102577E-003;2.123445505276322E-003;
2.400833333333334E+009;1.581053286790848E-001;5.373632535338402E-002;-4.652546718716621E-003;2.210614271461964E-003;
2.401000000000000E+009;1.582105159759522E-001;5.159727111458778E-002;-4.330689553171396E-003;2.410410670563579E-003;
2.401166666666667E+009;1.582696288824081E-001;4.960118234157562E-002;-4.230880178511143E-003;2.487611724063754E-003;
2.401333333333334E+009;1.584484130144119E-001;4.746795818209648E-002;-3.967148717492819E-003;2.478495705872774E-003;
2.401500000000000E+009;1.585714668035507E-001;4.540226608514786E-002;-3.988148178905249E-003;2.652680035680533E-003;
2.401666666666667E+009;1.588558256626129E-001;4.349390044808388E-002;-3.662150818854570E-003;2.818921580910683E-003;
2.401833333333334E+009;1.593649089336395E-001;4.133824259042740E-002;-3.670283593237400E-003;2.826423151418567E-003;
2.402000000000000E+009;1.594624221324921E-001;3.935301303863525E-002;-3.623891156166792E-003;2.930423477664590E-003;
2.402166666666667E+009;1.600465178489685E-001;3.725583106279373E-002;-3.343648742884398E-003;2.990829991176724E-003;
2.402333333333334E+009;1.606926769018173E-001;3.528254106640816E-002;-3.227694192901254E-003;3.194974269717932E-003;
2.402500000000000E+009;1.613999009132385E-001;3.337915614247322E-002;-3.149560885503888E-003;3.155127866193652E-003;
2.402666666666667E+009;1.617957353591919E-001;3.156436234712601E-002;-2.864517970010638E-003;3.105670213699341E-003;
2.402833333333334E+009;1.627318710088730E-001;2.997980639338493E-002;-2.726265462115407E-003;3.175335237756372E-003;
2.403000000000000E+009;1.633831113576889E-001;2.829115651547909E-002;-2.568532014265657E-003;3.394706873223186E-003;
2.403166666666667E+009;1.643788069486618E-001;2.632521651685238E-002;-2.247069729492068E-003;3.323932643979788E-003;
2.403333333333334E+009;1.652103066444397E-001;2.507728338241577E-002;-2.288545249029994E-003;3.290181048214436E-003;
2.403500000000000E+009;1.660003364086151E-001;2.354231104254723E-002;-2.112795365974307E-003;3.479537554085255E-003;
2.403666666666667E+009;1.669459044933319E-001;2.220970578491688E-002;-2.278104657307267E-003;3.500789869576693E-003;
2.403833333333334E+009;1.679319143295288E-001;2.089684270322323E-002;-1.850282307714224E-003;3.595489775761962E-003;
2.404000000000000E+009;1.689963042736054E-001;1.950247026979923E-002;-1.861642231233418E-003;3.520856378600001E-003;
2.404166666666667E+009;1.699295639991760E-001;1.829936541616917E-002;-1.421973924152553E-003;3.614137880504131E-003;
2.404333333333334E+009;1.708404719829559E-001;1.728367805480957E-002;-1.417757710441947E-003;3.422928974032402E-003;
2.404500000000000E+009;1.717766523361206E-001;1.613321714103222E-002;-1.395665458403528E-003;3.553947899490595E-003;
2.404666666666667E+009;1.728268116712570E-001;1.542215980589390E-002;-1.108415657654405E-003;3.449154086410999E-003;
2.404833333333334E+009;1.736720800399780E-001;1.445184182375670E-002;-9.808754548430443E-004;3.477413672953844E-003;
2.405000000000000E+009;1.747499555349350E-001;1.375410892069340E-002;-9.471898665651679E-004;3.739365143701434E-003;
2.405166666666667E+009;1.755317598581314E-001;1.299724727869034E-002;-7.759702857583761E-004;3.595382208004594E-003;
2.405333333333334E+009;1.764703094959259E-001;1.244658511132002E-002;-5.436273058876395E-004;3.574688918888569E-003;
2.405500000000000E+009;1.771244704723358E-001;1.186771132051945E-002;-4.984819097444415E-004;3.371269209310412E-003;
2.405666666666667E+009;1.777592897415161E-001;1.148912124335766E-002;-3.707802097778767E-004;3.612034255638719E-003;
2.405833333333334E+009;1.782606691122055E-001;1.096763368695974E-002;-2.212598192272708E-004;3.424175549298525E-003;
2.406000000000000E+009;1.790642440319061E-001;1.054432336241007E-002;-6.985818617977202E-005;3.411233192309737E-003;
2.406166666666667E+009;1.794481575489044E-001;1.026743464171886E-002;2.489604521542788E-004;3.213894320651889E-003;
2.406333333333334E+009;1.800289303064346E-001;9.898161515593529E-003;1.788936933735386E-004;3.280064091086388E-003;
2.406500000000000E+009;1.803563684225082E-001;9.508460760116577E-003;4.645541193895042E-004;3.188204253092408E-003;
2.406666666666667E+009;1.804985105991364E-001;9.215650148689747E-003;5.755547899752855E-004;2.999796764925122E-003;
2.406833333333334E+009;1.807539761066437E-001;8.830428123474121E-003;7.116050110198557E-004;2.899836283177137E-003;
2.407000000000000E+009;1.809327602386475E-001;8.542059920728207E-003;7.295307004824281E-004;2.889445051550865E-003;
2.407166666666667E+009;1.810356229543686E-001;8.270082995295525E-003;6.696576019749045E-004;2.766863675788045E-003;
2.407333333333334E+009;1.808859854936600E-001;7.831183262169361E-003;7.788591901771724E-004;2.701614750549197E-003;
2.407500000000000E+009;1.806774288415909E-001;7.497012149542570E-003;1.017456175759435E-003;2.574600279331207E-003;
2.407666666666667E+009;1.804614961147308E-001;7.072502281516790E-003;1.034232438541949E-003;2.581931883469224E-003;
2.407833333333334E+009;1.799893975257874E-001;6.557083688676357E-003;1.140388310886920E-003;2.221768023446202E-003;
2.408000000000000E+009;1.798203587532044E-001;6.023516878485680E-003;1.179378363303840E-003;2.275921171531081E-003;
2.408166666666667E+009;1.793613731861115E-001;5.534383468329907E-003;1.089414814487100E-003;2.169007901102305E-003;
2.408333333333334E+009;1.790401786565781E-001;4.917440004646778E-003;1.247687963768840E-003;1.930756494402885E-003;
2.408500000000000E+009;1.784361600875855E-001;3.947325050830841E-003;1.231833826750517E-003;1.723877387121320E-003;
2.408666666666667E+009;1.779635995626450E-001;3.192490898072720E-003;1.277203555218875E-003;1.743692322634161E-003;
2.408833333333334E+009;1.770552992820740E-001;2.351164584979415E-003;1.261060358956456E-003;1.695153536275029E-003;
2.409000000000000E+009;1.763846278190613E-001;1.408874057233334E-003;1.240978832356632E-003;1.542705460451543E-003;
2.409166666666667E+009;1.759353280067444E-001;2.766352263279259E-004;1.240639598108828E-003;1.468726899474859E-003;
2.409333333333334E+009;1.752829402685165E-001;-8.602928137406707E-004;1.226436346769333E-003;1.346688601188362E-003;
2.409500000000000E+009;1.744610965251923E-001;-2.228656318038702E-003;1.149289309978485E-003;1.270432723686099E-003;
2.409666666666667E+009;1.736595183610916E-001;-3.431467106565833E-003;1.100308960303664E-003;1.258632633835077E-003;
2.409833333333334E+009;1.730037033557892E-001;-4.686192143708468E-003;1.182781765237451E-003;1.126420102082193E-003;
2.410000000000000E+009;1.723480969667435E-001;-6.207844708114862E-003;1.116858678869903E-003;8.675893768668175E-004;
2.410166666666667E+009;1.716859787702560E-001;-7.628854364156723E-003;9.486260241828859E-004;9.191656135953963E-004;
2.410333333333334E+009;1.709481328725815E-001;-9.293830953538418E-003;9.300063829869032E-004;8.394038886763156E-004;
2.410500000000000E+009;1.705197691917419E-001;-1.098576653748751E-002;8.997737895697355E-004;8.751309360377491E-004;
2.410666666666667E+009;1.700024455785751E-001;-1.276728231459856E-002;8.511265041306615E-004;8.677140576764941E-004;
2.410833333333334E+009;1.695671081542969E-001;-1.450449880212545E-002;7.664264994673431E-004;7.709811907261610E-004;
2.411000000000000E+009;1.691843271255493E-001;-1.619828492403030E-002;7.131424499675632E-004;7.065189420245588E-004;
2.411166666666667E+009;1.687704324722290E-001;-1.822660677134991E-002;7.154033519327641E-004;7.775108679197729E-004;
2.411333333333334E+009;1.683085858821869E-001;-2.008813992142677E-002;6.057823775336146E-004;8.010523160919547E-004;
2.411500000000000E+009;1.681189686059952E-001;-2.198162116110325E-002;5.771964788436890E-004;6.542314658872783E-004;
2.411666666666667E+009;1.681453585624695E-001;-2.388601005077362E-002;5.361657240428031E-004;6.586480303667486E-004;
2.411833333333334E+009;1.679581254720688E-001;-2.571832202374935E-002;6.575729930773377E-004;8.217809372581542E-004;
2.412000000000000E+009;1.680547147989273E-001;-2.799631655216217E-002;6.186267128214240E-004;8.329321863129735E-004;
2.412166666666667E+009;1.680294722318649E-001;-2.981134876608849E-002;4.168139712419361E-004;7.957785273902118E-004;
2.412333333333334E+009;1.683497130870819E-001;-3.166368603706360E-002;4.792263498529792E-004;7.148848962970078E-004;
2.412500000000000E+009;1.685733050107956E-001;-3.361113741993904E-002;3.459008585195988E-004;8.310310076922178E-004;
2.412666666666667E+009;1.686786115169525E-001;-3.577528148889542E-002;3.537150914780796E-004;8.331941207870841E-004;
2.412833333333334E+009;1.691754907369614E-001;-3.738395497202873E-002;4.059475613757968E-004;8.885785355232656E-004;
2.413000000000000E+009;1.693872958421707E-001;-3.924772143363953E-002;1.701789733488113E-004;7.679846021346748E-004;
2.413166666666667E+009;1.698763221502304E-001;-4.106230661273003E-002;3.088469093199819E-004;7.905935053713620E-004;
2.413333333333334E+009;1.701901406049728E-001;-4.293205589056015E-002;2.632365794852376E-004;9.403438307344914E-004;
2.413500000000000E+009;1.707483679056168E-001;-4.444306343793869E-002;2.868563751690090E-004;8.330772980116308E-004;
2.413666666666667E+009;1.713551580905914E-001;-4.594729840755463E-002;1.559936063131318E-004;9.484330075792968E-004;
2.413833333333334E+009;1.716209203004837E-001;-4.754232987761498E-002;2.734624431468546E-004;9.691264713183045E-004;
2.414000000000000E+009;1.722445338964462E-001;-4.916958510875702E-002;2.371969894738868E-004;1.057238085195422E-003;
2.414166666666667E+009;1.729117333889008E-001;-5.028008669614792E-002;1.951799349626526E-004;8.305425872094929E-004;
2.414333333333334E+009;1.734636425971985E-001;-5.176423117518425E-002;7.749190990580246E-005;9.323585545644164E-004;
2.414500000000000E+009;1.741020083427429E-001;-5.278513208031654E-002;1.939174835570157E-004;1.001980272121728E-003;
2.414666666666667E+009;1.744429022073746E-001;-5.378253385424614E-002;2.674453717190772E-004;1.044375239871442E-003;
2.414833333333334E+009;1.750326752662659E-001;-5.493466183543205E-002;1.076990738511086E-004;1.025221310555935E-003;
2.415000000000000E+009;1.753876954317093E-001;-5.577906966209412E-002;2.341097133466974E-004;1.100049703381956E-003;
2.415166666666667E+009;1.758721172809601E-001;-5.680140480399132E-002;2.521022688597441E-004;1.122782356105745E-003;
2.415333333333334E+009;1.763788014650345E-001;-5.749692395329475E-002;1.678356202319264E-004;1.211332506500185E-003;
2.415500000000000E+009;1.767340898513794E-001;-5.812384188175201E-002;2.440689859213308E-004;1.224141567945480E-003;
2.415666666666667E+009;1.769481301307678E-001;-5.863525718450546E-002;3.338163078296930E-004;1.375481486320496E-003;
2.415833333333334E+009;1.773187369108200E-001;-5.927914008498192E-002;1.494039897806943E-004;1.140044303610921E-003;
2.416000000000000E+009;1.772729605436325E-001;-5.974570661783218E-002;2.332578151253983E-004;1.285208389163017E-003;
2.416166666666667E+009;1.775411516427994E-001;-6.001485511660576E-002;3.338229726068676E-004;1.285109901800752E-003;
2.416333333333334E+009;1.774534434080124E-001;-6.041755899786949E-002;4.125503764953464E-004;1.266158302314580E-003;
2.416500000000000E+009;1.774821132421494E-001;-6.080246716737747E-002;3.159187326673418E-004;1.329898252151907E-003;
2.416666666666667E+009;1.772036403417587E-001;-6.095705181360245E-002;3.581074415706098E-004;1.453058677725494E-003;
2.416833333333334E+009;1.772069334983826E-001;-6.128555908799171E-002;4.301748413126916E-004;1.572816283442080E-003;
2.417000000000000E+009;1.766900271177292E-001;-6.157644838094711E-002;4.252144135534763E-004;1.621775329113007E-003;
2.417166666666667E+009;1.762922406196594E-001;-6.172501668334007E-002;5.441055400297046E-004;1.566912629641593E-003;
2.417333333333334E+009;1.757708191871643E-001;-6.175165250897408E-002;4.869115655310452E-004;1.596609479747713E-003;
2.417500000000000E+009;1.752662956714630E-001;-6.230256706476212E-002;5.051800981163979E-004;1.508855028077960E-003;
2.417666666666667E+009;1.745519638061523E-001;-6.239406019449234E-002;6.093163974583149E-004;1.687106792815030E-003;
2.417833333333334E+009;1.738328337669373E-001;-6.253349035978317E-002;7.439011242240667E-004;1.550363725982606E-003;
2.418000000000000E+009;1.728254109621048E-001;-6.298133730888367E-002;8.391811861656606E-004;1.780126709491015E-003;
2.418166666666667E+009;1.720530241727829E-001;-6.317727267742157E-002;7.937390473671258E-004;1.696128980256617E-003;
2.418333333333334E+009;1.712991297245026E-001;-6.349424272775650E-002;8.575241081416607E-004;1.856889342889190E-003;
2.418500000000000E+009;1.701606214046478E-001;-6.404292583465576E-002;8.923939312808216E-004;1.778988982550800E-003;
2.418666666666667E+009;1.690527200698853E-001;-6.430718302726746E-002;1.032636500895023E-003;2.015745500102639E-003;
2.418833333333334E+009;1.678733378648758E-001;-6.496635079383850E-002;1.102165202610195E-003;1.862253644503653E-003;
2.419000000000000E+009;1.667442619800568E-001;-6.550437957048416E-002;1.048086909577251E-003;1.936825108714402E-003;
2.419166666666667E+009;1.655250340700150E-001;-6.613381206989288E-002;1.251783105544746E-003;1.745034591294825E-003;
2.419333333333334E+009;1.642019599676132E-001;-6.663212180137634E-002;1.230438356287777E-003;1.924706157296896E-003;
2.419500000000000E+009;1.630365550518036E-001;-6.742966175079346E-002;1.336572575382888E-003;1.998850144445896E-003;
2.419666666666667E+009;1.620244532823563E-001;-6.845261901617050E-002;1.518521574325860E-003;1.928183599375188E-003;
2.419833333333334E+009;1.606999635696411E-001;-6.920494884252548E-002;1.664834795519710E-003;1.967108808457851E-003;
2.420000000000000E+009;1.597225069999695E-001;-7.029753923416138E-002;1.539306947961450E-003;2.132566878572106E-003;
2.420166666666667E+009;1.585481911897659E-001;-7.143310457468033E-002;1.706373179331422E-003;2.178907394409180E-003;
2.420333333333334E+009;1.574803739786148E-001;-7.249343395233154E-002;1.864082296378911E-003;1.895448775030673E-003;
2.420500000000000E+009;1.564649343490601E-001;-7.361657172441483E-002;2.073899377137423E-003;2.039360115304589E-003;
2.420666666666667E+009;1.555247604846954E-001;-7.487148791551590E-002;1.987459603697062E-003;2.048139926046133E-003;
2.420833333333334E+009;1.546162068843842E-001;-7.639148831367493E-002;2.209913451224566E-003;2.035385696217418E-003;
2.421000000000000E+009;1.536610424518585E-001;-7.785739749670029E-002;2.295105485245585E-003;1.840972807258368E-003;
2.421166666666667E+009;1.528082191944122E-001;-7.939792424440384E-002;2.455631503835321E-003;1.882176264189184E-003;
2.421333333333334E+009;1.522692441940308E-001;-8.100675046443939E-002;2.518022665753961E-003;1.831595320254564E-003;
2.421500000000000E+009;1.513721793889999E-001;-8.244659006595612E-002;2.715279581025243E-003;1.715680351480842E-003;
2.421666666666667E+009;1.509588360786438E-001;-8.408183604478836E-002;2.802759641781449E-003;1.640478847548366E-003;
2.421833333333334E+009;1.504698097705841E-001;-8.574461936950684E-002;3.104651346802712E-003;1.501763588748872E-003;
2.422000000000000E+009;1.500472277402878E-001;-8.738727867603302E-002;2.975442679598928E-003;1.496781362220645E-003;
2.422166666666667E+009;1.496917009353638E-001;-8.921579271554947E-002;3.146727569401264E-003;1.312237465754151E-003;
2.422333333333334E+009;1.494892835617065E-001;-9.072528779506683E-002;3.272671950981021E-003;1.039782771840692E-003;
2.422500000000000E+009;1.492241919040680E-001;-9.236332774162293E-002;3.356076544150710E-003;1.049273763783276E-003;
2.422666666666667E+009;1.491178572177887E-001;-9.423733502626419E-002;3.409983590245247E-003;1.061133109033108E-003;
2.422833333333334E+009;1.492056250572205E-001;-9.600758552551270E-002;3.476938931271434E-003;7.855758303776383E-004;
2.423000000000000E+009;1.492411196231842E-001;-9.749862551689148E-002;3.499749815091491E-003;6.438805139623582E-004;
2.423166666666667E+009;1.496644616127014E-001;-9.915744513273239E-002;3.462469205260277E-003;5.629336810670793E-004;
2.423333333333334E+009;1.498986631631851E-001;-1.006686091423035E-001;3.724827431142330E-003;3.418655833229423E-004;
2.423500000000000E+009;1.501036286354065E-001;-1.023252084851265E-001;3.637594869360328E-003;1.352506806142628E-004;
2.423666666666667E+009;1.502795368432999E-001;-1.038489192724228E-001;3.746744012460113E-003;1.242353901034221E-004;
2.423833333333334E+009;1.508729010820389E-001;-1.054922863841057E-001;3.621801733970642E-003;-2.225247772003058E-005;
2.424000000000000E+009;1.511710137128830E-001;-1.066556200385094E-001;3.808996872976422E-003;-1.682399015408009E-004;
2.424166666666667E+009;1.514908969402313E-001;-1.080391481518745E-001;3.760108258575201E-003;-5.424398113973439E-004;
2.424333333333334E+009;1.521908640861511E-001;-1.092759668827057E-001;3.588292980566621E-003;-7.489992422051728E-004;
2.424500000000000E+009;1.525222808122635E-001;-1.104744970798492E-001;3.679487854242325E-003;-9.276903001591563E-004;
2.424666666666667E+009;1.531614065170288E-001;-1.113274022936821E-001;3.669025609269738E-003;-8.460742537863553E-004;
2.424833333333334E+009;1.535284221172333E-001;-1.125639826059341E-001;3.665259806439281E-003;-1.163058797828853E-003;
2.425000000000000E+009;1.541177779436112E-001;-1.134420782327652E-001;3.456286853179336E-003;-1.201784820295870E-003;
2.425166666666667E+009;1.542348861694336E-001;-1.143268868327141E-001;3.476624609902501E-003;-1.484033185988665E-003;
2.425333333333334E+009;1.548798680305481E-001;-1.149320825934410E-001;3.315061330795288E-003;-1.519941724836826E-003;
2.425500000000000E+009;1.552646607160568E-001;-1.157525330781937E-001;3.292575012892485E-003;-1.768627204000950E-003;
2.425666666666667E+009;1.554758548736572E-001;-1.164730042219162E-001;3.246463602408767E-003;-1.753290533088148E-003;
2.425833333333334E+009;1.559372544288635E-001;-1.170092672109604E-001;3.094959538429976E-003;-1.935779233463109E-003;
2.426000000000000E+009;1.559560596942902E-001;-1.175721809267998E-001;3.136717248708010E-003;-1.868365914560854E-003;
2.426166666666667E+009;1.563351154327393E-001;-1.180176809430122E-001;2.873951802030206E-003;-2.120439894497395E-003;
2.426333333333334E+009;1.563026756048203E-001;-1.182787418365479E-001;2.867149654775858E-003;-2.137275179848075E-003;
2.426500000000000E+009;1.562903076410294E-001;-1.185012385249138E-001;2.696423791348934E-003;-2.309296280145645E-003;
2.426666666666667E+009;1.564337015151978E-001;-1.186815202236176E-001;2.566192066296935E-003;-2.261663554236293E-003;
2.426833333333334E+009;1.561258882284164E-001;-1.189771816134453E-001;2.440672367811203E-003;-2.442332450300455E-003;
2.427000000000000E+009;1.558461785316467E-001;-1.192130818963051E-001;2.427687635645270E-003;-2.375175943598151E-003;
2.427166666666667E+009;1.555975228548050E-001;-1.191339492797852E-001;2.385110128670931E-003;-2.397797768935561E-003;
2.427333333333334E+009;1.550859957933426E-001;-1.192860826849937E-001;2.387029118835926E-003;-2.359752077609301E-003;
2.427500000000000E+009;1.546985059976578E-001;-1.194750145077705E-001;2.279159380123019E-003;-2.609451534226537E-003;
2.427666666666667E+009;1.539253443479538E-001;-1.196241080760956E-001;2.125467406585813E-003;-2.555505372583866E-003;
2.427833333333334E+009;1.531583219766617E-001;-1.196253076195717E-001;2.120918594300747E-003;-2.691439585760236E-003;
