# Version 1.00
#
freq[Hz];re:Trc1_S11;im:Trc1_S11;re:Trc2_S21;im:Trc2_S21;
2.400000000000000E+009;1.585337221622467E-001;6.305600702762604E-002;-5.142985843122006E-003;1.583990640938282E-003;
2.400166666666667E+009;1.582407504320145E-001;6.147548556327820E-002;-4.995628260076046E-003;1.561751589179039E-003;
2.400333333333334E+009;1.580959558486939E-001;5.976006388664246E-002;-4.904672503471375E-003;1.895929686725140E-003;
2.400500000000000E+009;1.581063717603684E-001;5.761861056089401E-002;-4.891478456556797E-003;2.104943618178368E-003;
2.400666666666667E+009;1.579206436872482E-001;5.561412870883942E-002;-4.632567055523396E-003;2.180034760385752E-003;
2.400833333333334E+009;1.580305397510529E-001;5.389104783535004E-002;-4.543883726000786E-003;2.301126252859831E-003;
2.401000000000000E+009;1.581239849328995E-001;5.161790549755096E-002;-4.456876311451197E-003;2.300232648849487E-003;
2.401166666666667E+009;1.583030372858048E-001;4.964458197355270E-002;-4.226973745971918E-003;2.566531533375382E-003;
2.401333333333334E+009;1.583501100540161E-001;4.752812907099724E-002;-3.996311686933041E-003;2.563434420153499E-003;
2.401500000000000E+009;1.586928218603134E-001;4.544641450047493E-002;-3.870329819619656E-003;2.726273844018579E-003;
2.401666666666667E+009;1.589120775461197E-001;4.343248903751373E-002;-3.689083037897945E-003;2.797757042571902E-003;
2.401833333333334E+009;1.591715812683106E-001;4.128852114081383E-002;-3.415446495637298E-003;2.972960239276290E-003;
2.402000000000000E+009;1.597027927637100E-001;3.939792513847351E-002;-3.463683417066932E-003;2.841751789674163E-003;
2.402166666666667E+009;1.600507497787476E-001;3.717719390988350E-002;-3.333341330289841E-003;3.025950863957405E-003;
2.402333333333334E+009;1.606003046035767E-001;3.516500815749168E-002;-3.108602482825518E-003;3.145112656056881E-003;
2.402500000000000E+009;1.613125503063202E-001;3.341946750879288E-002;-3.056377405300736E-003;3.246984677389264E-003;
2.402666666666667E+009;1.619627028703690E-001;3.163515031337738E-002;-3.050094703212380E-003;3.138580825179815E-003;
2.402833333333334E+009;1.626508980989456E-001;2.975548245012760E-002;-2.852138830348849E-003;3.293981309980154E-003;
2.403000000000000E+009;1.634148955345154E-001;2.815679460763931E-002;-2.578828250989318E-003;3.278122749179602E-003;
2.403166666666667E+009;1.643309146165848E-001;2.654260210692883E-002;-2.447960199788213E-003;3.474473254755139E-003;
2.403333333333334E+009;1.652202904224396E-001;2.489661425352097E-002;-2.264770679175854E-003;3.304419340565801E-003;
2.403500000000000E+009;1.660595238208771E-001;2.356963232159615E-002;-2.198871923610568E-003;3.480976447463036E-003;
2.403666666666667E+009;1.669241487979889E-001;2.197064273059368E-002;-2.014838624745607E-003;3.445622278377414E-003;
2.403833333333334E+009;1.678492277860642E-001;2.066953666508198E-002;-1.862533972598612E-003;3.481321269646287E-003;
2.404000000000000E+009;1.690393835306168E-001;1.957443356513977E-002;-1.846308121457696E-003;3.618317423388362E-003;
2.404166666666667E+009;1.699382066726685E-001;1.839647442102432E-002;-1.749452436342835E-003;3.680868307128549E-003;
2.404333333333334E+009;1.710144579410553E-001;1.719282008707523E-002;-1.416820567101240E-003;3.580319229513407E-003;
2.404500000000000E+009;1.717849075794220E-001;1.607823930680752E-002;-1.344427233561873E-003;3.467485541477799E-003;
2.404666666666667E+009;1.728228926658630E-001;1.535085123032332E-002;-1.102967769838870E-003;3.495757700875402E-003;
2.404833333333334E+009;1.737771779298782E-001;1.454883068799973E-002;-1.070611062459648E-003;3.556723240762949E-003;
2.405000000000000E+009;1.745834052562714E-001;1.366803888231516E-002;-9.720716043375433E-004;3.492161631584168E-003;
2.405166666666667E+009;1.755260676145554E-001;1.310119032859802E-002;-6.813059444539249E-004;3.486013272777200E-003;
2.405333333333334E+009;1.763178408145905E-001;1.229489408433437E-002;-5.362883675843477E-004;3.540992038324475E-003;
2.405500000000000E+009;1.771209537982941E-001;1.185067929327488E-002;-5.758574698120356E-004;3.603339660912752E-003;
2.405666666666667E+009;1.776705682277679E-001;1.122896280139685E-002;-4.478945629671216E-004;3.484009765088558E-003;
2.405833333333334E+009;1.783479601144791E-001;1.093253772705793E-002;-9.955589484889060E-005;3.347131889313459E-003;
2.406000000000000E+009;1.789334565401077E-001;1.051622908562422E-002;-1.758383150445297E-004;3.217775607481599E-003;
2.406166666666667E+009;1.793012619018555E-001;1.035131793469191E-002;1.512748276581988E-004;3.460293868556619E-003;
2.406333333333334E+009;1.799904555082321E-001;1.007612235844135E-002;2.602667955216020E-004;3.352209227159619E-003;
2.406500000000000E+009;1.801277548074722E-001;9.628343395888805E-003;1.965798583114520E-004;3.119172994047403E-003;
2.406666666666667E+009;1.803431957960129E-001;9.420321322977543E-003;5.775497993454337E-004;3.192245494574308E-003;
2.406833333333334E+009;1.805636435747147E-001;8.972368203103542E-003;5.888938321731985E-004;2.858052263036370E-003;
2.407000000000000E+009;1.807819902896881E-001;8.670045994222164E-003;6.122100749053061E-004;3.064966294914484E-003;
2.407166666666667E+009;1.809213906526566E-001;8.542958647012711E-003;8.088006870821118E-004;2.918649232015014E-003;
2.407333333333334E+009;1.807935237884522E-001;7.886329665780067E-003;9.004707098938525E-004;2.637648023664951E-003;
2.407500000000000E+009;1.806185841560364E-001;7.719781715422869E-003;8.906884468160570E-004;2.464230405166745E-003;
2.407666666666667E+009;1.804873794317246E-001;7.183325476944447E-003;9.830396156758070E-004;2.491206862032414E-003;
2.407833333333334E+009;1.799930930137634E-001;6.515068467706442E-003;1.142012421041727E-003;2.370145404711366E-003;
2.408000000000000E+009;1.798370480537415E-001;6.078612059354782E-003;1.178977196104825E-003;2.232791390269995E-003;
2.408166666666667E+009;1.793164014816284E-001;5.629016552120447E-003;1.284768222831190E-003;2.078240271657705E-003;
2.408333333333334E+009;1.790256202220917E-001;4.931879695504904E-003;1.246632426045835E-003;1.969405449926853E-003;
2.408500000000000E+009;1.783602088689804E-001;4.166928585618734E-003;1.310364925302565E-003;1.944400835782290E-003;
2.408666666666667E+009;1.778334081172943E-001;3.220980288460851E-003;1.251652720384300E-003;1.746338442899287E-003;
2.408833333333334E+009;1.773800849914551E-001;2.338390564545989E-003;1.291484921239317E-003;1.551019842736423E-003;
2.409000000000000E+009;1.764742285013199E-001;1.407050178386271E-003;1.253545982763171E-003;1.537007628940046E-003;
2.409166666666667E+009;1.759668588638306E-001;3.765913133975118E-004;1.269728178158402E-003;1.311276690103114E-003;
2.409333333333334E+009;1.752817779779434E-001;-7.453952566720545E-004;1.176471821963787E-003;1.236474025063217E-003;
2.409500000000000E+009;1.745049357414246E-001;-2.305445726960897E-003;1.157022896222770E-003;1.186233712360263E-003;
2.409666666666667E+009;1.735508143901825E-001;-3.381177550181747E-003;1.072294311597943E-003;9.940818417817354E-004;
2.409833333333334E+009;1.727883517742157E-001;-4.665285814553499E-003;1.070468570105732E-003;1.102235517464578E-003;
2.410000000000000E+009;1.724353134632111E-001;-6.238733418285847E-003;9.745184215717018E-004;1.061734743416309E-003;
2.410166666666667E+009;1.716639846563339E-001;-7.710170932114124E-003;9.721297537907958E-004;8.830272126942873E-004;
2.410333333333334E+009;1.709434241056442E-001;-9.429221041500568E-003;7.426199736073613E-004;8.216217975132167E-004;
2.410500000000000E+009;1.704590618610382E-001;-1.106591150164604E-002;7.977054920047522E-004;9.817224927246571E-004;
2.410666666666667E+009;1.698766946792603E-001;-1.280981674790382E-002;7.073734886944294E-004;7.505345274694264E-004;
2.410833333333334E+009;1.695380508899689E-001;-1.444092672318220E-002;6.431613583117724E-004;8.080796687863767E-004;
2.411000000000000E+009;1.690181642770767E-001;-1.647374778985977E-002;5.610133521258831E-004;7.092055166140199E-004;
2.411166666666667E+009;1.684726327657700E-001;-1.820647716522217E-002;4.946119152009487E-004;6.299584638327360E-004;
2.411333333333334E+009;1.682887971401215E-001;-2.004295587539673E-002;6.503708427771926E-004;7.960473885759711E-004;
2.411500000000000E+009;1.680609881877899E-001;-2.216387726366520E-002;4.098850768059492E-004;6.879591383039951E-004;
2.411666666666667E+009;1.680804640054703E-001;-2.391396462917328E-002;3.923806070815772E-004;6.095509161241353E-004;
2.411833333333334E+009;1.678530126810074E-001;-2.572242915630341E-002;2.820534282363951E-004;7.103956886567175E-004;
2.412000000000000E+009;1.680602282285690E-001;-2.787744812667370E-002;3.788093745242804E-004;7.983628893271089E-004;
2.412166666666667E+009;1.679496169090271E-001;-2.992683649063110E-002;3.377551911398768E-004;7.376158027909696E-004;
2.412333333333334E+009;1.684356182813644E-001;-3.159758076071739E-002;4.273791564628482E-004;7.548283901996911E-004;
2.412500000000000E+009;1.682119518518448E-001;-3.360093012452126E-002;3.472977259662002E-004;7.497388869524002E-004;
2.412666666666667E+009;1.685998290777206E-001;-3.565180301666260E-002;3.297252405900508E-004;6.702809478156269E-004;
2.412833333333334E+009;1.691219657659531E-001;-3.758648782968521E-002;2.560600987635553E-004;8.468557498417795E-004;
2.413000000000000E+009;1.694663316011429E-001;-3.917506337165833E-002;1.417917810613290E-004;7.224546279758215E-004;
2.413166666666667E+009;1.696846336126328E-001;-4.101198166608810E-002;2.387567219557241E-004;9.188436088152230E-004;
2.413333333333334E+009;1.701269596815109E-001;-4.273534566164017E-002;4.898263432551175E-005;9.110805694945157E-004;
2.413500000000000E+009;1.706686168909073E-001;-4.458263143897057E-002;2.232489350717515E-004;8.466654107905924E-004;
2.413666666666667E+009;1.713099926710129E-001;-4.611527547240257E-002;2.163559402106330E-004;9.783396963030100E-004;
2.413833333333334E+009;1.717517673969269E-001;-4.763943701982498E-002;3.062835603486747E-004;1.006916980259121E-003;
2.414000000000000E+009;1.722447872161865E-001;-4.906393215060234E-002;5.067703750682995E-005;1.073680468834937E-003;
2.414166666666667E+009;1.728864908218384E-001;-5.027564615011215E-002;2.498495450709015E-004;8.016890496946871E-004;
2.414333333333334E+009;1.734161078929901E-001;-5.171134695410729E-002;1.475167809985578E-004;8.211675449274480E-004;
2.414500000000000E+009;1.741828024387360E-001;-5.295481905341148E-002;1.630130282137543E-004;1.099846092984080E-003;
2.414666666666667E+009;1.745286136865616E-001;-5.390810593962669E-002;4.756156704388559E-005;1.049865735694766E-003;
2.414833333333334E+009;1.750320494174957E-001;-5.496874824166298E-002;1.649243931751698E-004;1.176748657599092E-003;
2.415000000000000E+009;1.754412204027176E-001;-5.591752380132675E-002;1.999988307943568E-004;1.019330113194883E-003;
2.415166666666667E+009;1.758670657873154E-001;-5.674234777688980E-002;1.472317526349798E-004;1.175746670924127E-003;
2.415333333333334E+009;1.763028949499130E-001;-5.752525106072426E-002;1.003413708531298E-004;1.246558153070509E-003;
2.415500000000000E+009;1.766549795866013E-001;-5.823185294866562E-002;2.555361716076732E-004;1.238651573657990E-003;
2.415666666666667E+009;1.769932210445404E-001;-5.859892442822456E-002;8.893826452549547E-005;1.339736161753535E-003;
2.415833333333334E+009;1.772867888212204E-001;-5.935558676719666E-002;1.077091510524042E-004;1.392074394971132E-003;
2.416000000000000E+009;1.771947294473648E-001;-5.970671772956848E-002;1.697160187177360E-004;1.338100642897189E-003;
2.416166666666667E+009;1.775573194026947E-001;-6.010227277874947E-002;3.088437952101231E-004;1.486969878897071E-003;
2.416333333333334E+009;1.775161176919937E-001;-6.037483736872673E-002;2.067957975668833E-004;1.334147527813911E-003;
2.416500000000000E+009;1.773664504289627E-001;-6.075302511453629E-002;2.827495918609202E-004;1.435118378140032E-003;
2.416666666666667E+009;1.773152798414230E-001;-6.097324565052986E-002;4.361842293292284E-004;1.476629986427724E-003;
2.416833333333334E+009;1.771315187215805E-001;-6.141255795955658E-002;3.927071520593017E-004;1.456010737456381E-003;
2.417000000000000E+009;1.765932738780975E-001;-6.158924847841263E-002;4.016961902379990E-004;1.522637787275016E-003;
2.417166666666667E+009;1.762482374906540E-001;-6.170686334371567E-002;5.909507162868977E-004;1.655624597333372E-003;
2.417333333333334E+009;1.758675426244736E-001;-6.198284029960632E-002;3.968770324718207E-004;1.660330570302904E-003;
2.417500000000000E+009;1.750415414571762E-001;-6.218108534812927E-002;6.089551607146859E-004;1.633534207940102E-003;
2.417666666666667E+009;1.745914518833160E-001;-6.227434799075127E-002;5.280296318233013E-004;1.618163543753326E-003;
2.417833333333334E+009;1.738450527191162E-001;-6.252268701791763E-002;6.994958966970444E-004;1.768656889908016E-003;
2.418000000000000E+009;1.729282289743424E-001;-6.280720233917236E-002;6.148372194729745E-004;1.639412133954465E-003;
2.418166666666667E+009;1.719821542501450E-001;-6.312839686870575E-002;6.852632504887879E-004;1.822611666284502E-003;
2.418333333333334E+009;1.713571697473526E-001;-6.354427337646484E-002;7.410214166156948E-004;1.957928296178579E-003;
2.418500000000000E+009;1.701154261827469E-001;-6.397626549005508E-002;9.295127820223570E-004;1.822268823161721E-003;
2.418666666666667E+009;1.691726595163345E-001;-6.447894871234894E-002;1.103023998439312E-003;1.931087230332196E-003;
2.418833333333334E+009;1.679874658584595E-001;-6.485487520694733E-002;1.022825832478702E-003;1.754787517711520E-003;
2.419000000000000E+009;1.667214781045914E-001;-6.542561948299408E-002;1.080919755622745E-003;2.060043159872294E-003;
2.419166666666667E+009;1.655964553356171E-001;-6.614681333303452E-002;1.084494637325406E-003;1.978280721232295E-003;
2.419333333333334E+009;1.642910689115524E-001;-6.655804067850113E-002;1.237740507349372E-003;1.844301121309400E-003;
2.419500000000000E+009;1.631942242383957E-001;-6.737541407346726E-002;1.242119004018605E-003;2.082132967188954E-003;
2.419666666666667E+009;1.621014624834061E-001;-6.857132166624069E-002;1.409490359947085E-003;1.971232006326318E-003;
2.419833333333334E+009;1.608260273933411E-001;-6.929901987314224E-002;1.444285502657294E-003;1.978857209905982E-003;
2.420000000000000E+009;1.597109735012054E-001;-7.035893946886063E-002;1.462803338654339E-003;2.061086473986507E-003;
2.420166666666667E+009;1.585918366909027E-001;-7.138109207153320E-002;1.800826867111027E-003;2.040560357272625E-003;
2.420333333333334E+009;1.574054360389710E-001;-7.256431132555008E-002;1.995996339246631E-003;2.012797864153981E-003;
2.420500000000000E+009;1.565224081277847E-001;-7.381291687488556E-002;1.887717167846859E-003;2.044098451733589E-003;
2.420666666666667E+009;1.552329957485199E-001;-7.485527545213699E-002;2.088724402710795E-003;1.948604010976851E-003;
2.420833333333334E+009;1.545405685901642E-001;-7.640130072832108E-002;2.067379653453827E-003;2.086409367620945E-003;
2.421000000000000E+009;1.535555273294449E-001;-7.798695564270020E-002;2.288186922669411E-003;1.850449945777655E-003;
2.421166666666667E+009;1.527251899242401E-001;-7.941477745771408E-002;2.442884258925915E-003;1.890911022201181E-003;
2.421333333333334E+009;1.522602736949921E-001;-8.079200983047485E-002;2.465024590492249E-003;1.826743478886783E-003;
2.421500000000000E+009;1.514367461204529E-001;-8.222154527902603E-002;2.675026655197144E-003;1.702544861473143E-003;
2.421666666666667E+009;1.508801877498627E-001;-8.401401340961456E-002;2.816434018313885E-003;1.769182621501386E-003;
2.421833333333334E+009;1.503941714763641E-001;-8.576825261116028E-002;2.981417113915086E-003;1.617705449461937E-003;
2.422000000000000E+009;1.499694138765335E-001;-8.735857903957367E-002;3.149808151647449E-003;1.411007484421134E-003;
2.422166666666667E+009;1.496835201978684E-001;-8.913802355527878E-002;3.130215685814619E-003;1.482766470871866E-003;
2.422333333333334E+009;1.494838595390320E-001;-9.085717052221298E-002;3.257509088143706E-003;1.271028770133853E-003;
2.422500000000000E+009;1.491742730140686E-001;-9.225235134363174E-002;3.316503483802080E-003;1.094693900085986E-003;
2.422666666666667E+009;1.490093320608139E-001;-9.413588047027588E-002;3.518507350236177E-003;1.034331740811467E-003;
2.422833333333334E+009;1.493344008922577E-001;-9.581349045038223E-002;3.615899011492729E-003;8.650122326798737E-004;
2.423000000000000E+009;1.492596417665482E-001;-9.764482080936432E-002;3.546455875039101E-003;6.768159219063819E-004;
2.423166666666667E+009;1.495593339204788E-001;-9.924278408288956E-002;3.796958830207586E-003;4.111627058591694E-004;
2.423333333333334E+009;1.497534066438675E-001;-1.006653979420662E-001;3.810007823631167E-003;3.468731301836669E-004;
2.423500000000000E+009;1.499454677104950E-001;-1.022875681519508E-001;3.851262154057622E-003;1.590943720657378E-004;
2.423666666666667E+009;1.502371430397034E-001;-1.038413047790527E-001;3.719181520864368E-003;7.636333612026647E-005;
2.423833333333334E+009;1.508164703845978E-001;-1.053095161914825E-001;3.687609452754259E-003;-1.174307326436974E-004;
2.424000000000000E+009;1.509672403335571E-001;-1.066068261861801E-001;3.717126557603478E-003;-2.117133699357510E-004;
2.424166666666667E+009;1.515808552503586E-001;-1.080094799399376E-001;3.873600857332349E-003;-5.870102322660387E-004;
2.424333333333334E+009;1.520879119634628E-001;-1.091751679778099E-001;3.683135611936450E-003;-7.345686317421496E-004;
2.424500000000000E+009;1.525937318801880E-001;-1.104573383927345E-001;3.672629129141569E-003;-8.587179472669959E-004;
2.424666666666667E+009;1.531380265951157E-001;-1.112381964921951E-001;3.681224305182695E-003;-9.342652047052980E-004;
2.424833333333334E+009;1.535208970308304E-001;-1.125354841351509E-001;3.616051515564323E-003;-9.974034037441015E-004;
2.425000000000000E+009;1.541040390729904E-001;-1.134587824344635E-001;3.591368673369288E-003;-1.308430451899767E-003;
2.425166666666667E+009;1.543967425823212E-001;-1.143257915973663E-001;3.423449350520968E-003;-1.404700102284551E-003;
2.425333333333334E+009;1.548945903778076E-001;-1.151030585169792E-001;3.514447482302785E-003;-1.483011757954955E-003;
2.425500000000000E+009;1.552994251251221E-001;-1.158693060278893E-001;3.214936703443527E-003;-1.569632324390113E-003;
2.425666666666667E+009;1.554730236530304E-001;-1.164589300751686E-001;3.245941363275051E-003;-1.785032800398767E-003;
2.425833333333334E+009;1.557610780000687E-001;-1.170047596096993E-001;3.203027183189988E-003;-1.956139691174030E-003;
2.426000000000000E+009;1.559778004884720E-001;-1.176860257983208E-001;3.089786740019918E-003;-1.947758020833135E-003;
2.426166666666667E+009;1.563203334808350E-001;-1.179702430963516E-001;3.094795392826200E-003;-2.019168809056282E-003;
2.426333333333334E+009;1.562991589307785E-001;-1.183863729238510E-001;2.832810161635280E-003;-2.097161719575524E-003;
2.426500000000000E+009;1.563944369554520E-001;-1.186417788267136E-001;2.671140246093273E-003;-2.139695454388857E-003;
2.426666666666667E+009;1.562960445880890E-001;-1.187114939093590E-001;2.823838032782078E-003;-2.216299762949348E-003;
2.426833333333334E+009;1.561066210269928E-001;-1.190554499626160E-001;2.591136842966080E-003;-2.343988278880715E-003;
2.427000000000000E+009;1.558945327997208E-001;-1.191348433494568E-001;2.569239120930433E-003;-2.343810396268964E-003;
2.427166666666667E+009;1.554479897022247E-001;-1.192174777388573E-001;2.454230794683099E-003;-2.434143098071218E-003;
2.427333333333334E+009;1.550067961215973E-001;-1.194545552134514E-001;2.254834864288569E-003;-2.445660531520844E-003;
2.427500000000000E+009;1.546543091535568E-001;-1.195582076907158E-001;2.395823597908020E-003;-2.617527265101671E-003;
2.427666666666667E+009;1.539430022239685E-001;-1.196409538388252E-001;2.287159441038966E-003;-2.438351977616549E-003;
2.427833333333334E+009;1.530656814575195E-001;-1.196900978684425E-001;2.206643810495734E-003;-2.505127107724547E-003;
