# Version 1.00
#
freq[Hz];re:Trc1_S11;im:Trc1_S11;re:Trc2_S21;im:Trc2_S21;
2.400000000000000E+009;1.560111939907074E-001;6.018428131937981E-002;-5.652389489114285E-003;8.897838997654617E-004;
2.400166666666667E+009;1.564258635044098E-001;5.844854190945625E-002;-5.576746072620153E-003;1.137313782237470E-003;
2.400333333333334E+009;1.562825441360474E-001;5.638321116566658E-002;-5.655378103256226E-003;1.245995284989476E-003;
2.400500000000000E+009;1.563867479562759E-001;5.433885008096695E-002;-5.684019532054663E-003;1.312553649768233E-003;
2.400666666666667E+009;1.565065681934357E-001;5.229558423161507E-002;-5.534530617296696E-003;1.493220799602568E-003;
2.400833333333334E+009;1.571324765682221E-001;5.050124228000641E-002;-5.494789686053991E-003;1.818714081309736E-003;
2.401000000000000E+009;1.572872400283814E-001;4.837711527943611E-002;-5.433237645775080E-003;1.897959387861192E-003;
2.401166666666667E+009;1.576553434133530E-001;4.622430354356766E-002;-5.421938374638557E-003;2.073410898447037E-003;
2.401333333333334E+009;1.580606549978256E-001;4.409769177436829E-002;-5.466590169817209E-003;2.198834437876940E-003;
2.401500000000000E+009;1.586830466985703E-001;4.227149486541748E-002;-5.331545136868954E-003;2.350302645936608E-003;
2.401666666666667E+009;1.593246906995773E-001;4.042821750044823E-002;-5.119073204696178E-003;2.644428517669439E-003;
2.401833333333334E+009;1.598840206861496E-001;3.834790736436844E-002;-5.244012922048569E-003;2.745216246694326E-003;
2.402000000000000E+009;1.603903025388718E-001;3.650391101837158E-002;-5.254843737930059E-003;3.141456050798297E-003;
2.402166666666667E+009;1.610510349273682E-001;3.471365943551064E-002;-5.060590803623200E-003;3.249783534556627E-003;
2.402333333333334E+009;1.618510484695435E-001;3.282129392027855E-002;-4.917856305837631E-003;3.307139966636896E-003;
2.402500000000000E+009;1.629572063684464E-001;3.119038790464401E-002;-4.883626475930214E-003;3.579139476642013E-003;
2.402666666666667E+009;1.636579781770706E-001;2.971737645566464E-002;-4.659623838961124E-003;3.813766874372959E-003;
2.402833333333334E+009;1.644684076309204E-001;2.826320938766003E-002;-4.727100953459740E-003;3.896295558661223E-003;
2.403000000000000E+009;1.654793024063110E-001;2.667334862053394E-002;-4.350717179477215E-003;4.131286405026913E-003;
2.403166666666667E+009;1.664036959409714E-001;2.535958588123322E-002;-4.453582689166069E-003;4.319791682064533E-003;
2.403333333333334E+009;1.674662530422211E-001;2.423360943794251E-002;-4.145773127675057E-003;4.446720238775015E-003;
2.403500000000000E+009;1.682169139385223E-001;2.305541001260281E-002;-3.952069673687220E-003;4.753596149384975E-003;
2.403666666666667E+009;1.692949086427689E-001;2.192069217562676E-002;-3.650470869615674E-003;4.796940367668867E-003;
2.403833333333334E+009;1.703569442033768E-001;2.102736569941044E-002;-3.524130675941706E-003;5.064392462372780E-003;
2.404000000000000E+009;1.711916178464890E-001;2.003898844122887E-002;-3.457736922428012E-003;5.255145486444235E-003;
2.404166666666667E+009;1.722259819507599E-001;1.896867342293263E-002;-3.081771079450846E-003;5.207206122577190E-003;
2.404333333333334E+009;1.730621755123138E-001;1.830019615590572E-002;-2.908198395743966E-003;5.353284999728203E-003;
2.404500000000000E+009;1.738609373569489E-001;1.734373345971108E-002;-2.802852541208267E-003;5.366398021578789E-003;
2.404666666666667E+009;1.746652722358704E-001;1.707097887992859E-002;-2.560315653681755E-003;5.621760617941618E-003;
2.404833333333334E+009;1.755197644233704E-001;1.641667447984219E-002;-2.342601539567113E-003;5.654170643538237E-003;
2.405000000000000E+009;1.762832999229431E-001;1.595571450889111E-002;-2.207791432738304E-003;5.808532703667879E-003;
2.405166666666667E+009;1.769188344478607E-001;1.532584242522717E-002;-1.829864573664963E-003;5.762352142482996E-003;
2.405333333333334E+009;1.775918751955032E-001;1.485570427030325E-002;-1.702396781183779E-003;5.876704584807158E-003;
2.405500000000000E+009;1.781488656997681E-001;1.476899720728397E-002;-1.330780214630067E-003;6.040430627763271E-003;
2.405666666666667E+009;1.785838156938553E-001;1.438796520233154E-002;-1.051837578415871E-003;5.938725080341101E-003;
2.405833333333334E+009;1.788607388734818E-001;1.407985948026180E-002;-1.028035534545779E-003;6.025115493685007E-003;
2.406000000000000E+009;1.793072223663330E-001;1.371469255536795E-002;-6.651166477240622E-004;6.104975473135710E-003;
2.406166666666667E+009;1.795115768909454E-001;1.356629654765129E-002;-3.685719275381416E-004;5.942808929830790E-003;
2.406333333333334E+009;1.797812432050705E-001;1.319422665983439E-002;-1.718563580652699E-004;5.947688594460487E-003;
2.406500000000000E+009;1.797710508108139E-001;1.302142813801765E-002;5.788750786450692E-005;6.033769343048334E-003;
2.406666666666667E+009;1.796908229589462E-001;1.268895342946053E-002;2.843338588718325E-004;6.099572870880365E-003;
2.406833333333334E+009;1.796380877494812E-001;1.228700671344996E-002;5.150074721314013E-004;5.947576835751534E-003;
2.407000000000000E+009;1.797621697187424E-001;1.187613420188427E-002;8.823536336421967E-004;5.786153953522444E-003;
2.407166666666667E+009;1.794850081205368E-001;1.147359889000654E-002;8.949889452196658E-004;5.647839512676001E-003;
2.407333333333334E+009;1.790062487125397E-001;1.102174725383520E-002;1.100077643059194E-003;5.683234427124262E-003;
2.407500000000000E+009;1.787750124931335E-001;1.048903726041317E-002;1.366199227049947E-003;5.564849823713303E-003;
2.407666666666667E+009;1.784460246562958E-001;9.924207814037800E-003;1.513326657004654E-003;5.485769826918840E-003;
2.407833333333334E+009;1.776407659053803E-001;9.017769247293472E-003;1.811897731386125E-003;5.378662142902613E-003;
2.408000000000000E+009;1.772176325321198E-001;8.225797675549984E-003;1.876795082353056E-003;5.227813031524420E-003;
2.408166666666667E+009;1.767559796571732E-001;7.573758717626333E-003;2.033019671216607E-003;5.183503031730652E-003;
2.408333333333334E+009;1.762878000736237E-001;6.544064730405808E-003;2.167597413063049E-003;5.040589720010757E-003;
2.408500000000000E+009;1.756096333265305E-001;5.503220483660698E-003;2.253952901810408E-003;4.977981559932232E-003;
2.408666666666667E+009;1.750053018331528E-001;4.125291015952826E-003;2.498938469216228E-003;4.825873300433159E-003;
2.408833333333334E+009;1.741921901702881E-001;3.174939658492804E-003;2.466274192556739E-003;4.731822293251753E-003;
2.409000000000000E+009;1.735585927963257E-001;1.952387741766870E-003;2.721308963373303E-003;4.535044077783823E-003;
2.409166666666667E+009;1.729547530412674E-001;7.000619079917669E-004;2.831047400832176E-003;4.416188690811396E-003;
2.409333333333334E+009;1.723111420869827E-001;-9.894167305901647E-004;2.926044631749392E-003;4.363402724266052E-003;
2.409500000000000E+009;1.716299057006836E-001;-2.673242939636111E-003;3.078046487644315E-003;4.174714908003807E-003;
2.409666666666667E+009;1.710163801908493E-001;-4.220425151288509E-003;3.061975119635463E-003;4.093269817531109E-003;
2.409833333333334E+009;1.703032702207565E-001;-5.725921131670475E-003;3.234377829357982E-003;3.834748174995184E-003;
2.410000000000000E+009;1.698147058486939E-001;-7.334259338676930E-003;3.275970229879022E-003;3.884326200932264E-003;
2.410166666666667E+009;1.693894118070602E-001;-9.231355972588062E-003;3.436969360336661E-003;3.741724882274866E-003;
2.410333333333334E+009;1.688145697116852E-001;-1.096654217690229E-002;3.578957403078675E-003;3.493889467790723E-003;
2.410500000000000E+009;1.685766130685806E-001;-1.299008820205927E-002;3.611979540437460E-003;3.406675066798925E-003;
2.410666666666667E+009;1.682037860155106E-001;-1.489673834294081E-002;3.659995272755623E-003;3.307264298200607E-003;
2.410833333333334E+009;1.680267155170441E-001;-1.677333004772663E-002;3.792576491832733E-003;3.151333192363381E-003;
2.411000000000000E+009;1.677792221307755E-001;-1.867943629622459E-002;3.979854285717011E-003;2.956984099000692E-003;
2.411166666666667E+009;1.674888879060745E-001;-2.074225246906281E-002;3.886479185894132E-003;2.798912581056356E-003;
2.411333333333334E+009;1.676070988178253E-001;-2.255239710211754E-002;3.948510624468327E-003;2.624598564580083E-003;
2.411500000000000E+009;1.676087677478790E-001;-2.482140995562077E-002;4.107626620680094E-003;2.586422022432089E-003;
2.411666666666667E+009;1.677692532539368E-001;-2.657890506088734E-002;4.011997953057289E-003;2.477829111739993E-003;
2.411833333333334E+009;1.679120957851410E-001;-2.841559983789921E-002;4.188511986285448E-003;2.237342298030853E-003;
2.412000000000000E+009;1.683452874422073E-001;-3.052736632525921E-002;4.255391657352448E-003;2.077067270874977E-003;
2.412166666666667E+009;1.685537993907929E-001;-3.234248235821724E-002;4.268737044185400E-003;1.858287840150297E-003;
2.412333333333334E+009;1.690272688865662E-001;-3.424008563160896E-002;4.185104276984930E-003;1.766235916875303E-003;
2.412500000000000E+009;1.693741083145142E-001;-3.600257262587547E-002;4.241088870912790E-003;1.531490357592702E-003;
2.412666666666667E+009;1.699745208024979E-001;-3.794025257229805E-002;4.301971290260553E-003;1.544949016533792E-003;
2.412833333333334E+009;1.703260391950607E-001;-3.957748040556908E-002;4.268475808203220E-003;1.291319844312966E-003;
2.413000000000000E+009;1.709112673997879E-001;-4.120847210288048E-002;4.205966368317604E-003;1.175381126813591E-003;
2.413166666666667E+009;1.715422123670578E-001;-4.271327331662178E-002;4.263980779796839E-003;9.622728684917092E-004;
2.413333333333334E+009;1.720422953367233E-001;-4.428985714912415E-002;4.237507469952107E-003;8.276557200588286E-004;
2.413500000000000E+009;1.726745069026947E-001;-4.557504504919052E-002;4.244945943355560E-003;6.915738922543824E-004;
2.413666666666667E+009;1.733933836221695E-001;-4.731285944581032E-002;4.300853237509728E-003;5.348326521925628E-004;
2.413833333333334E+009;1.738708466291428E-001;-4.843442514538765E-002;4.177392460405827E-003;3.817077958956361E-004;
2.414000000000000E+009;1.744947284460068E-001;-4.954658076167107E-002;4.120795987546444E-003;4.124673432670534E-004;
2.414166666666667E+009;1.751050949096680E-001;-5.066655948758125E-002;4.145442508161068E-003;1.081754744518548E-004;
2.414333333333334E+009;1.757220178842545E-001;-5.166805163025856E-002;3.884908743202686E-003;6.818210385972634E-005;
2.414500000000000E+009;1.762837916612625E-001;-5.262678489089012E-002;3.807079512625933E-003;-2.320153434993699E-004;
2.414666666666667E+009;1.768450736999512E-001;-5.341492593288422E-002;3.805810818448663E-003;-2.753379521891475E-004;
2.414833333333334E+009;1.771785169839859E-001;-5.414449051022530E-002;3.731484524905682E-003;-2.741476637311280E-004;
2.415000000000000E+009;1.774794757366180E-001;-5.479055643081665E-002;3.561562392860651E-003;-3.802271094173193E-004;
2.415166666666667E+009;1.778879910707474E-001;-5.547371879220009E-002;3.611394204199314E-003;-5.460979882627726E-004;
2.415333333333334E+009;1.783979982137680E-001;-5.612809956073761E-002;3.621888346970081E-003;-5.089051555842161E-004;
2.415500000000000E+009;1.784338057041168E-001;-5.643247067928314E-002;3.570470260456204E-003;-6.454384420067072E-004;
2.415666666666667E+009;1.787150651216507E-001;-5.680013820528984E-002;3.657386638224125E-003;-6.173457950353622E-004;
2.415833333333334E+009;1.787821501493454E-001;-5.725494772195816E-002;3.506100503727794E-003;-9.378686081618071E-004;
2.416000000000000E+009;1.784966737031937E-001;-5.751718953251839E-002;3.421389032155275E-003;-8.797843474894762E-004;
2.416166666666667E+009;1.786787807941437E-001;-5.768402293324471E-002;3.380205249413848E-003;-8.888425072655082E-004;
2.416333333333334E+009;1.784228980541229E-001;-5.791801959276199E-002;3.403856884688139E-003;-1.093991450034082E-003;
2.416500000000000E+009;1.780899018049240E-001;-5.820468440651894E-002;3.182727843523026E-003;-1.047386438585818E-003;
2.416666666666667E+009;1.776063889265060E-001;-5.829869955778122E-002;3.309334628283978E-003;-1.100839232094586E-003;
2.416833333333334E+009;1.773129999637604E-001;-5.869882926344872E-002;3.280054312199354E-003;-1.199429272674024E-003;
2.417000000000000E+009;1.765420138835907E-001;-5.886410921812058E-002;3.031977917999029E-003;-1.288474886678159E-003;
2.417166666666667E+009;1.757427453994751E-001;-5.899144709110260E-002;3.144615096971393E-003;-1.379446825012565E-003;
2.417333333333334E+009;1.750527471303940E-001;-5.927762016654015E-002;3.048235317692161E-003;-1.326577621512115E-003;
2.417500000000000E+009;1.742883771657944E-001;-5.963329598307610E-002;3.053639549762011E-003;-1.317429705522955E-003;
2.417666666666667E+009;1.734887063503265E-001;-5.979961156845093E-002;3.035220783203840E-003;-1.492924289777875E-003;
2.417833333333334E+009;1.725056320428848E-001;-6.004838645458221E-002;3.041379153728485E-003;-1.611045212484896E-003;
2.418000000000000E+009;1.713765859603882E-001;-6.065053865313530E-002;2.938566496595740E-003;-1.612632884643972E-003;
2.418166666666667E+009;1.702781021595001E-001;-6.103928387165070E-002;2.921685343608260E-003;-1.642876653932035E-003;
2.418333333333334E+009;1.693738996982575E-001;-6.154943257570267E-002;2.957785734906793E-003;-1.659138826653361E-003;
2.418500000000000E+009;1.680756062269211E-001;-6.208635121583939E-002;2.878684317693114E-003;-1.894751447252929E-003;
2.418666666666667E+009;1.669470369815826E-001;-6.286761164665222E-002;2.784897806122899E-003;-2.051776507869363E-003;
2.418833333333334E+009;1.655988097190857E-001;-6.352629512548447E-002;2.614531433209777E-003;-1.962357666343451E-003;
2.419000000000000E+009;1.642338484525681E-001;-6.421051919460297E-002;2.649484435096383E-003;-2.229559235274792E-003;
2.419166666666667E+009;1.631377339363098E-001;-6.513997912406921E-002;2.547149313613772E-003;-2.168959705159068E-003;
2.419333333333334E+009;1.617859899997711E-001;-6.586882472038269E-002;2.531633013859391E-003;-2.243018709123135E-003;
2.419500000000000E+009;1.605092585086823E-001;-6.706869602203369E-002;2.374219242483378E-003;-2.310542389750481E-003;
2.419666666666667E+009;1.594784855842590E-001;-6.816714257001877E-002;2.169983694329858E-003;-2.417267533019185E-003;
2.419833333333334E+009;1.582057923078537E-001;-6.925699114799500E-002;2.208104589954019E-003;-2.368365880101919E-003;
2.420000000000000E+009;1.571836173534393E-001;-7.049804925918579E-002;2.042473759502173E-003;-2.384306862950325E-003;
2.420166666666667E+009;1.561161279678345E-001;-7.186944037675858E-002;2.047541318461299E-003;-2.571586985141039E-003;
2.420333333333334E+009;1.550968885421753E-001;-7.318827509880066E-002;1.932470826432109E-003;-2.417775336652994E-003;
2.420500000000000E+009;1.542718410491943E-001;-7.457422465085983E-002;1.725508249364793E-003;-2.613929100334644E-003;
2.420666666666667E+009;1.533255577087402E-001;-7.599849998950958E-002;1.663239207118750E-003;-2.726708305999637E-003;
2.420833333333334E+009;1.524909436702728E-001;-7.760302722454071E-002;1.603402546606958E-003;-2.606321591883898E-003;
2.421000000000000E+009;1.517439782619476E-001;-7.918562740087509E-002;1.402102760039270E-003;-2.769800368696451E-003;
2.421166666666667E+009;1.511800438165665E-001;-8.073066174983978E-002;1.442878390662372E-003;-2.779664704576135E-003;
2.421333333333334E+009;1.506916433572769E-001;-8.252919465303421E-002;1.231603673659265E-003;-2.743386430665851E-003;
2.421500000000000E+009;1.501298397779465E-001;-8.399814367294312E-002;1.171293202787638E-003;-2.839200431481004E-003;
2.421666666666667E+009;1.499241292476654E-001;-8.561902493238449E-002;1.053612795658410E-003;-2.718653064221144E-003;
2.421833333333334E+009;1.496688127517700E-001;-8.745815604925156E-002;9.747091098688543E-004;-2.863674191758037E-003;
2.422000000000000E+009;1.493780463933945E-001;-8.910927921533585E-002;8.724548388272524E-004;-2.756537636741996E-003;
2.422166666666667E+009;1.492184251546860E-001;-9.112104773521423E-002;7.790007512085140E-004;-2.872139913961291E-003;
2.422333333333334E+009;1.494466215372086E-001;-9.235485643148422E-002;7.647310267202556E-004;-2.726127859205008E-003;
2.422500000000000E+009;1.494599580764771E-001;-9.412548691034317E-002;6.604584632441402E-004;-2.734919544309378E-003;
2.422666666666667E+009;1.494717597961426E-001;-9.582906961441040E-002;4.128271539229900E-004;-2.728912280872464E-003;
2.422833333333334E+009;1.497450619935989E-001;-9.755021333694458E-002;4.944372922182083E-004;-2.604746026918292E-003;
2.423000000000000E+009;1.500223278999329E-001;-9.893149137496948E-002;2.306240057805553E-004;-2.516952576115727E-003;
2.423166666666667E+009;1.505443453788757E-001;-1.004938110709190E-001;2.006500581046566E-004;-2.579041291028261E-003;
2.423333333333334E+009;1.508918702602387E-001;-1.018881276249886E-001;6.426276377169415E-005;-2.634726930409670E-003;
2.423500000000000E+009;1.513454467058182E-001;-1.032250076532364E-001;2.230937825515866E-004;-2.505101030692458E-003;
2.423666666666667E+009;1.515634208917618E-001;-1.048202216625214E-001;8.412999886786565E-005;-2.550810109823942E-003;
2.423833333333334E+009;1.522802561521530E-001;-1.059340313076973E-001;4.218823596602306E-005;-2.272418700158596E-003;
2.424000000000000E+009;1.527275741100311E-001;-1.070368364453316E-001;-4.582393557939213E-006;-2.269596327096224E-003;
2.424166666666667E+009;1.530778408050537E-001;-1.082911416888237E-001;-2.858631196431816E-004;-2.216183114796877E-003;
2.424333333333334E+009;1.537014544010162E-001;-1.093470230698586E-001;-5.664921991410665E-005;-2.361969090998173E-003;
2.424500000000000E+009;1.543705761432648E-001;-1.103493198752403E-001;-1.890466955956072E-004;-2.241923008114100E-003;
2.424666666666667E+009;1.548528671264648E-001;-1.111034899950028E-001;-1.777114521246404E-004;-2.201329683884978E-003;
2.424833333333334E+009;1.552896797657013E-001;-1.119258254766464E-001;-1.021239004330710E-004;-1.975529128685594E-003;
2.425000000000000E+009;1.558004915714264E-001;-1.127506196498871E-001;-2.614205295685679E-004;-1.847332110628486E-003;
2.425166666666667E+009;1.560836583375931E-001;-1.133856102824211E-001;-1.410704862792045E-004;-1.948176766745746E-003;
2.425333333333334E+009;1.563876420259476E-001;-1.140691861510277E-001;-3.137401363346726E-004;-1.966357463970780E-003;
2.425500000000000E+009;1.567437946796417E-001;-1.146265342831612E-001;-2.082934370264411E-004;-1.875146059319377E-003;
2.425666666666667E+009;1.569099724292755E-001;-1.150315552949905E-001;-1.609769533388317E-004;-1.890286686830223E-003;
2.425833333333334E+009;1.570575833320618E-001;-1.154059916734695E-001;-3.102634509559721E-004;-1.805800478905439E-003;
2.426000000000000E+009;1.571162641048431E-001;-1.158592849969864E-001;-1.133389669121243E-004;-1.972245052456856E-003;
2.426166666666667E+009;1.572286337614059E-001;-1.160581484436989E-001;-3.142092609778047E-004;-1.892635482363403E-003;
2.426333333333334E+009;1.569610536098480E-001;-1.163219660520554E-001;-1.749158109305427E-004;-1.842864090576768E-003;
2.426500000000000E+009;1.568776518106461E-001;-1.164450123906136E-001;-2.549464988987893E-004;-1.798530924133956E-003;
2.426666666666667E+009;1.567994058132172E-001;-1.165789291262627E-001;-3.320199029985815E-004;-1.672219717875123E-003;
2.426833333333334E+009;1.563400328159332E-001;-1.167680770158768E-001;-3.170015115756542E-004;-1.779654645361006E-003;
2.427000000000000E+009;1.558044254779816E-001;-1.169025599956513E-001;-3.087573859374970E-004;-1.726958085782826E-003;
2.427166666666667E+009;1.554105579853058E-001;-1.168214455246925E-001;-4.336675337981433E-004;-1.903175492770970E-003;
2.427333333333334E+009;1.546593308448792E-001;-1.170846745371819E-001;-3.142400237265974E-004;-1.834114664234221E-003;
2.427500000000000E+009;1.540404707193375E-001;-1.172016412019730E-001;-2.728164254222065E-004;-1.820003497414291E-003;
2.427666666666667E+009;1.532216966152191E-001;-1.173638775944710E-001;-4.062938969582319E-004;-1.808683737181127E-003;
2.427833333333334E+009;1.520687192678452E-001;-1.175573170185089E-001;-3.131378034595400E-004;-1.760043669492006E-003;
