# Version 1.00
#
freq[Hz];re:Trc1_S11;im:Trc1_S11;re:Trc2_S21;im:Trc2_S21;
2.400000000000000E+009;1.561136990785599E-001;6.025204807519913E-002;-5.727989133447409E-003;9.291880996897817E-004;
2.400166666666667E+009;1.562444120645523E-001;5.843453109264374E-002;-5.643537733703852E-003;1.021264470182359E-003;
2.400333333333334E+009;1.563450545072556E-001;5.637742206454277E-002;-5.634779576212168E-003;1.237362273968756E-003;
2.400500000000000E+009;1.566118896007538E-001;5.441386997699738E-002;-5.561370402574539E-003;1.447802525945008E-003;
2.400666666666667E+009;1.567414849996567E-001;5.239302664995194E-002;-5.537982098758221E-003;1.645316020585597E-003;
2.400833333333334E+009;1.569984108209610E-001;5.036356300115585E-002;-5.520767532289028E-003;1.850301166996360E-003;
2.401000000000000E+009;1.574161350727081E-001;4.835338518023491E-002;-5.491289775818586E-003;1.960465917363763E-003;
2.401166666666667E+009;1.577932685613632E-001;4.607304558157921E-002;-5.378260277211666E-003;2.260830020532012E-003;
2.401333333333334E+009;1.581919193267822E-001;4.414163157343864E-002;-5.508979782462120E-003;2.221975708380342E-003;
2.401500000000000E+009;1.588641107082367E-001;4.216521233320236E-002;-5.374521017074585E-003;2.516723005101085E-003;
2.401666666666667E+009;1.594335138797760E-001;4.019036144018173E-002;-5.229194648563862E-003;2.671855268999934E-003;
2.401833333333334E+009;1.598324775695801E-001;3.811186552047730E-002;-5.174495745450258E-003;2.908399328589439E-003;
2.402000000000000E+009;1.604809165000916E-001;3.647043555974960E-002;-5.013174843043089E-003;2.984250662848353E-003;
2.402166666666667E+009;1.611042767763138E-001;3.484329208731651E-002;-4.946113098412752E-003;3.260875120759010E-003;
2.402333333333334E+009;1.620392501354218E-001;3.288217261433601E-002;-5.050227511674166E-003;3.392240265384316E-003;
2.402500000000000E+009;1.628979295492172E-001;3.120314329862595E-002;-4.823861178010702E-003;3.581280121579766E-003;
2.402666666666667E+009;1.636092364788055E-001;2.979928068816662E-002;-4.579071421176195E-003;3.836642019450665E-003;
2.402833333333334E+009;1.646052598953247E-001;2.837877534329891E-002;-4.532719962298870E-003;3.869738662615418E-003;
2.403000000000000E+009;1.656080782413483E-001;2.691754698753357E-002;-4.356326069682837E-003;4.059770610183477E-003;
2.403166666666667E+009;1.664804667234421E-001;2.549582347273827E-002;-4.285889677703381E-003;4.256687127053738E-003;
2.403333333333334E+009;1.674008965492249E-001;2.417986094951630E-002;-4.043136723339558E-003;4.460650496184826E-003;
2.403500000000000E+009;1.683460026979446E-001;2.290663123130798E-002;-3.825620515272021E-003;4.551501013338566E-003;
2.403666666666667E+009;1.693917363882065E-001;2.191360667347908E-002;-3.872014814987779E-003;4.784780554473400E-003;
2.403833333333334E+009;1.704433113336563E-001;2.085185796022415E-002;-3.572812303900719E-003;4.929156042635441E-003;
2.404000000000000E+009;1.714449971914291E-001;1.995385624468327E-002;-3.413124475628138E-003;5.113884340971708E-003;
2.404166666666667E+009;1.724418997764587E-001;1.894808560609818E-002;-3.202730091288686E-003;5.216155666857958E-003;
2.404333333333334E+009;1.734104007482529E-001;1.847993023693562E-002;-2.913354896008968E-003;5.173448007553816E-003;
2.404500000000000E+009;1.741192191839218E-001;1.759945228695869E-002;-2.909115282818675E-003;5.514433607459068E-003;
2.404666666666667E+009;1.749377101659775E-001;1.703117787837982E-002;-2.716381335631013E-003;5.595513619482517E-003;
2.404833333333334E+009;1.756598651409149E-001;1.650559715926647E-002;-2.366048283874989E-003;5.762320943176746E-003;
2.405000000000000E+009;1.764210313558579E-001;1.587840169668198E-002;-2.075990661978722E-003;5.635783541947603E-003;
2.405166666666667E+009;1.770799756050110E-001;1.533644832670689E-002;-1.977245556190610E-003;5.917607340961695E-003;
2.405333333333334E+009;1.776982098817825E-001;1.488975994288921E-002;-1.545878592878580E-003;5.737865343689919E-003;
2.405500000000000E+009;1.783609241247177E-001;1.470864005386829E-002;-1.351815182715654E-003;6.039672065526247E-003;
2.405666666666667E+009;1.787387579679489E-001;1.430001761764288E-002;-1.207993482239544E-003;5.999795626848936E-003;
2.405833333333334E+009;1.791551560163498E-001;1.414543576538563E-002;-9.760856628417969E-004;6.016313098371029E-003;
2.406000000000000E+009;1.793441027402878E-001;1.372065115720034E-002;-7.013166323304176E-004;6.021110806614161E-003;
2.406166666666667E+009;1.795891821384430E-001;1.348387077450752E-002;-2.858707739505917E-004;5.931880325078964E-003;
2.406333333333334E+009;1.799611449241638E-001;1.316501479595900E-002;-2.587378257885575E-004;5.981245543807745E-003;
2.406500000000000E+009;1.799350380897522E-001;1.288842037320137E-002;6.820809358032420E-005;6.027663592249155E-003;
2.406666666666667E+009;1.797310709953308E-001;1.253136061131954E-002;4.366627254057676E-004;5.895288195461035E-003;
2.406833333333334E+009;1.798755973577499E-001;1.219468563795090E-002;6.021756562404335E-004;5.801629275083542E-003;
2.407000000000000E+009;1.796484738588333E-001;1.186695136129856E-002;6.789062754251063E-004;5.649637896567583E-003;
2.407166666666667E+009;1.796147078275681E-001;1.150145102292299E-002;1.027930760756135E-003;5.736796185374260E-003;
2.407333333333334E+009;1.793332844972611E-001;1.079779397696257E-002;1.184695982374251E-003;5.584494210779667E-003;
2.407500000000000E+009;1.788155585527420E-001;1.034615095704794E-002;1.407863339409232E-003;5.496239289641380E-003;
2.407666666666667E+009;1.784745603799820E-001;9.806462563574314E-003;1.401317771524191E-003;5.472934804856777E-003;
2.407833333333334E+009;1.778512746095657E-001;8.948192000389099E-003;1.573627698235214E-003;5.183252505958080E-003;
2.408000000000000E+009;1.774551421403885E-001;8.053036406636238E-003;1.746745081618428E-003;5.274591967463493E-003;
2.408166666666667E+009;1.767451614141464E-001;7.411825470626354E-003;1.941479975357652E-003;4.971258807927370E-003;
2.408333333333334E+009;1.763862371444702E-001;6.490903906524181E-003;2.269208664074540E-003;4.951165057718754E-003;
2.408500000000000E+009;1.756778210401535E-001;5.442778114229441E-003;2.267787465825677E-003;4.805482923984528E-003;
2.408666666666667E+009;1.751057952642441E-001;4.202205687761307E-003;2.256391337141395E-003;4.776562564074993E-003;
2.408833333333334E+009;1.742495000362396E-001;3.099186345934868E-003;2.560963621363044E-003;4.596916027367115E-003;
2.409000000000000E+009;1.736175417900085E-001;1.781736500561237E-003;2.721480326727033E-003;4.460634198039770E-003;
2.409166666666667E+009;1.729442924261093E-001;3.947761433664709E-004;2.696363721042872E-003;4.414306487888098E-003;
2.409333333333334E+009;1.723305583000183E-001;-1.179055543616414E-003;2.803069073706865E-003;4.277200438082218E-003;
2.409500000000000E+009;1.715495288372040E-001;-2.651699585840106E-003;2.947805449366570E-003;4.112165421247482E-003;
2.409666666666667E+009;1.709025353193283E-001;-4.160283599048853E-003;3.042209893465042E-003;4.003272391855717E-003;
2.409833333333334E+009;1.702462881803513E-001;-5.737825296819210E-003;3.128906013444066E-003;3.747618757188320E-003;
2.410000000000000E+009;1.700048744678497E-001;-7.546537555754185E-003;3.208827693015337E-003;3.796125994995236E-003;
2.410166666666667E+009;1.694780737161636E-001;-9.310280904173851E-003;3.287282306700945E-003;3.615585621446371E-003;
2.410333333333334E+009;1.688179969787598E-001;-1.105727721005678E-002;3.514867043122649E-003;3.637811867520213E-003;
2.410500000000000E+009;1.685343086719513E-001;-1.302641443908215E-002;3.574688918888569E-003;3.354225540533662E-003;
2.410666666666667E+009;1.682055145502091E-001;-1.498777046799660E-002;3.626753343269229E-003;3.091300837695599E-003;
2.410833333333334E+009;1.679862141609192E-001;-1.685701310634613E-002;3.603412536904216E-003;3.060020739212632E-003;
2.411000000000000E+009;1.677574068307877E-001;-1.886765286326408E-002;3.860236145555973E-003;2.831186866387725E-003;
2.411166666666667E+009;1.676838099956513E-001;-2.081455662846565E-002;3.828594228252769E-003;2.766173798590899E-003;
2.411333333333334E+009;1.678050905466080E-001;-2.279453724622726E-002;3.771850606426597E-003;2.704679965972900E-003;
2.411500000000000E+009;1.675686538219452E-001;-2.472698688507080E-002;4.065860062837601E-003;2.512304345145822E-003;
2.411666666666667E+009;1.678571850061417E-001;-2.679401263594627E-002;4.141987301409245E-003;2.376955933868885E-003;
2.411833333333334E+009;1.679751276969910E-001;-2.862047590315342E-002;3.980250097811222E-003;2.223966410383582E-003;
2.412000000000000E+009;1.682046949863434E-001;-3.061490878462791E-002;4.140617325901985E-003;1.987216062843800E-003;
2.412166666666667E+009;1.685449630022049E-001;-3.235471621155739E-002;4.162980709224939E-003;1.859397045336664E-003;
2.412333333333334E+009;1.691761761903763E-001;-3.441308438777924E-002;4.146913532167673E-003;1.883375109173358E-003;
2.412500000000000E+009;1.694910526275635E-001;-3.607558459043503E-002;4.224345088005066E-003;1.616256311535835E-003;
2.412666666666667E+009;1.698604971170425E-001;-3.803185746073723E-002;4.070201423019171E-003;1.457608537748456E-003;
2.412833333333334E+009;1.704002767801285E-001;-3.972877934575081E-002;4.218020010739565E-003;1.278908108361065E-003;
2.413000000000000E+009;1.710153371095657E-001;-4.126218333840370E-002;4.194268025457859E-003;1.166799571365118E-003;
2.413166666666667E+009;1.714258939027786E-001;-4.298471659421921E-002;4.258880857378244E-003;9.987730300053954E-004;
2.413333333333334E+009;1.722296178340912E-001;-4.453427344560623E-002;4.248064476996660E-003;9.511912357993424E-004;
2.413500000000000E+009;1.725918501615524E-001;-4.593193158507347E-002;4.209655802696943E-003;8.056218503043056E-004;
2.413666666666667E+009;1.734949350357056E-001;-4.719565063714981E-002;4.131787922233343E-003;5.101706483401358E-004;
2.413833333333334E+009;1.738760471343994E-001;-4.848625510931015E-002;4.087942652404308E-003;4.841842455789447E-004;
2.414000000000000E+009;1.745227426290512E-001;-4.971180111169815E-002;4.131102468818426E-003;3.224138636142016E-004;
2.414166666666667E+009;1.751271188259125E-001;-5.094186961650848E-002;4.063512664288282E-003;1.484248641645536E-004;
2.414333333333334E+009;1.756327152252197E-001;-5.186405777931213E-002;3.909398335963488E-003;3.443656169110909E-005;
2.414500000000000E+009;1.764452010393143E-001;-5.259856954216957E-002;3.942204639315605E-003;-2.481577685102820E-004;
2.414666666666667E+009;1.768287867307663E-001;-5.348930135369301E-002;3.917427267879248E-003;-1.249846827704459E-004;
2.414833333333334E+009;1.771342009305954E-001;-5.431855842471123E-002;3.869696054607630E-003;-3.106845542788506E-004;
2.415000000000000E+009;1.776228249073029E-001;-5.497343838214874E-002;3.789819544181228E-003;-4.698354168795049E-004;
2.415166666666667E+009;1.779066622257233E-001;-5.558935925364494E-002;3.578121773898602E-003;-4.260753630660474E-004;
2.415333333333334E+009;1.783161014318466E-001;-5.623605474829674E-002;3.569983178749681E-003;-4.926226683892310E-004;
2.415500000000000E+009;1.783792674541473E-001;-5.653453618288040E-002;3.563074395060539E-003;-5.697665037587285E-004;
2.415666666666667E+009;1.784729957580566E-001;-5.681597068905830E-002;3.622462041676045E-003;-6.349903997033835E-004;
2.415833333333334E+009;1.786529868841171E-001;-5.720682814717293E-002;3.392449114471674E-003;-8.180719451047480E-004;
2.416000000000000E+009;1.785053610801697E-001;-5.767318606376648E-002;3.341369098052383E-003;-7.743609021417797E-004;
2.416166666666667E+009;1.785250157117844E-001;-5.785461515188217E-002;3.317703725770116E-003;-9.182029170915484E-004;
2.416333333333334E+009;1.781665533781052E-001;-5.807824060320854E-002;3.259305842220783E-003;-1.015711575746536E-003;
2.416500000000000E+009;1.780635565519333E-001;-5.833619460463524E-002;3.287681844085455E-003;-9.929595980793238E-004;
2.416666666666667E+009;1.773722618818283E-001;-5.849007889628410E-002;3.291360335424542E-003;-1.141952932812274E-003;
2.416833333333334E+009;1.771159172058106E-001;-5.873941630125046E-002;3.158744191750884E-003;-1.269984408281744E-003;
2.417000000000000E+009;1.763481050729752E-001;-5.891450867056847E-002;3.093622857704759E-003;-1.192902447655797E-003;
2.417166666666667E+009;1.758079677820206E-001;-5.904877930879593E-002;3.272436792030931E-003;-1.156019512563944E-003;
2.417333333333334E+009;1.751407831907272E-001;-5.925235152244568E-002;3.129604505375028E-003;-1.219364930875599E-003;
2.417500000000000E+009;1.741996407508850E-001;-5.976590141654015E-002;3.108865814283490E-003;-1.351375482045114E-003;
2.417666666666667E+009;1.733024418354034E-001;-5.989522486925125E-002;2.963582985103130E-003;-1.391371246427298E-003;
2.417833333333334E+009;1.724022030830383E-001;-6.028024107217789E-002;3.204351989552379E-003;-1.475523458793759E-003;
2.418000000000000E+009;1.712376326322556E-001;-6.085422635078430E-002;2.989946631714702E-003;-1.595247769728303E-003;
2.418166666666667E+009;1.701398789882660E-001;-6.098373234272003E-002;2.935837255790830E-003;-1.682405476458371E-003;
2.418333333333334E+009;1.692674458026886E-001;-6.159334629774094E-002;2.839281456544995E-003;-1.826328691095114E-003;
2.418500000000000E+009;1.679451614618301E-001;-6.213042140007019E-002;2.898910082876682E-003;-1.796420314349234E-003;
2.418666666666667E+009;1.668809205293655E-001;-6.273359060287476E-002;2.763581462204456E-003;-1.929215271957219E-003;
2.418833333333334E+009;1.654732972383499E-001;-6.354284286499023E-002;2.708092331886292E-003;-1.948376768268645E-003;
2.419000000000000E+009;1.642872393131256E-001;-6.425551325082779E-002;2.561140572652221E-003;-2.133750356733799E-003;
2.419166666666667E+009;1.630955189466476E-001;-6.515271216630936E-002;2.523623639717698E-003;-2.185220131650567E-003;
2.419333333333334E+009;1.615761220455170E-001;-6.591969728469849E-002;2.448622835800052E-003;-2.199106384068728E-003;
2.419500000000000E+009;1.604449003934860E-001;-6.705048680305481E-002;2.451096428558230E-003;-2.353725256398320E-003;
2.419666666666667E+009;1.594363749027252E-001;-6.814290583133698E-002;2.304937224835157E-003;-2.351673319935799E-003;
2.419833333333334E+009;1.581361442804337E-001;-6.916835904121399E-002;2.196752233430743E-003;-2.324205823242664E-003;
2.420000000000000E+009;1.572179794311523E-001;-7.053676247596741E-002;2.173718297854066E-003;-2.386068692430854E-003;
2.420166666666667E+009;1.560967117547989E-001;-7.171823829412460E-002;1.978893764317036E-003;-2.518032677471638E-003;
2.420333333333334E+009;1.551099866628647E-001;-7.326491922140122E-002;1.817035488784313E-003;-2.524301642552018E-003;
2.420500000000000E+009;1.542365550994873E-001;-7.443589717149735E-002;1.950149773620069E-003;-2.621370367705822E-003;
2.420666666666667E+009;1.533515304327011E-001;-7.585646957159042E-002;1.753441407345235E-003;-2.610147697851062E-003;
2.420833333333334E+009;1.525319814682007E-001;-7.761213183403015E-002;1.589325722306967E-003;-2.509763231500983E-003;
2.421000000000000E+009;1.517917513847351E-001;-7.921645045280457E-002;1.572472043335438E-003;-2.748488681390882E-003;
2.421166666666667E+009;1.512468755245209E-001;-8.072368055582047E-002;1.424427260644734E-003;-2.700091339647770E-003;
2.421333333333334E+009;1.507034003734589E-001;-8.237897604703903E-002;1.392975449562073E-003;-2.577970502898097E-003;
2.421500000000000E+009;1.501896828413010E-001;-8.399975299835205E-002;1.248388318344951E-003;-2.774647902697325E-003;
2.421666666666667E+009;1.499131172895432E-001;-8.587370067834854E-002;1.149603398516774E-003;-2.763594733551145E-003;
2.421833333333334E+009;1.497013717889786E-001;-8.737897872924805E-002;1.074438914656639E-003;-2.697710646316409E-003;
2.422000000000000E+009;1.494534015655518E-001;-8.910407871007919E-002;8.587189367972314E-004;-2.730596344918013E-003;
2.422166666666667E+009;1.492360830307007E-001;-9.094367921352387E-002;8.648999501019716E-004;-2.689145505428314E-003;
2.422333333333334E+009;1.493969261646271E-001;-9.254933148622513E-002;7.470897980965674E-004;-2.786270342767239E-003;
2.422500000000000E+009;1.493155360221863E-001;-9.409883618354797E-002;6.521167815662921E-004;-2.764396369457245E-003;
2.422666666666667E+009;1.495620310306549E-001;-9.578831493854523E-002;5.153851234354079E-004;-2.671072725206614E-003;
2.422833333333334E+009;1.498143374919891E-001;-9.741637855768204E-002;3.607262333389372E-004;-2.695235190913081E-003;
2.423000000000000E+009;1.500519961118698E-001;-9.901971369981766E-002;4.199179238639772E-004;-2.615018514916301E-003;
2.423166666666667E+009;1.504864245653153E-001;-1.005321443080902E-001;2.900850377045572E-004;-2.441496122628450E-003;
2.423333333333334E+009;1.509092599153519E-001;-1.017245277762413E-001;2.431127504678443E-004;-2.444590441882610E-003;
2.423500000000000E+009;1.512769758701325E-001;-1.032233759760857E-001;1.927677476487588E-005;-2.545992145314813E-003;
2.423666666666667E+009;1.515340209007263E-001;-1.047630906105042E-001;5.757703183917329E-005;-2.357648219913244E-003;
2.423833333333334E+009;1.523935496807098E-001;-1.061405614018440E-001;1.995034544961527E-004;-2.379698446020484E-003;
2.424000000000000E+009;1.525567024946213E-001;-1.070644482970238E-001;5.792112642666325E-005;-2.285881899297237E-003;
2.424166666666667E+009;1.531421840190888E-001;-1.082400307059288E-001;1.729936593619641E-005;-2.375801093876362E-003;
2.424333333333334E+009;1.537417918443680E-001;-1.093712076544762E-001;-1.298932911595330E-004;-2.086618449538946E-003;
2.424500000000000E+009;1.542814970016480E-001;-1.103718727827072E-001;-1.491780858486891E-004;-1.922283088788390E-003;
2.424666666666667E+009;1.549100577831268E-001;-1.110853999853134E-001;-1.282377197640017E-004;-2.034191973507404E-003;
2.424833333333334E+009;1.552151888608933E-001;-1.121021360158920E-001;-1.738275459501892E-004;-1.970859710127115E-003;
2.425000000000000E+009;1.557794362306595E-001;-1.127675175666809E-001;-1.077515262295492E-004;-2.080313861370087E-003;
2.425166666666667E+009;1.559469699859619E-001;-1.134542375802994E-001;-2.733766159508377E-004;-1.935252221301198E-003;
2.425333333333334E+009;1.563610732555389E-001;-1.139224618673325E-001;-3.372703213244677E-004;-1.895532128401101E-003;
2.425500000000000E+009;1.566648930311203E-001;-1.145328208804131E-001;-1.298134011449292E-004;-1.902375021018088E-003;
2.425666666666667E+009;1.568529158830643E-001;-1.149935573339462E-001;-2.871103642974049E-004;-1.991756027564406E-003;
2.425833333333334E+009;1.569543331861496E-001;-1.153587177395821E-001;-1.599499519215897E-004;-1.867587910965085E-003;
2.426000000000000E+009;1.570354700088501E-001;-1.157300323247910E-001;-2.361889783060178E-004;-1.888806116767228E-003;
2.426166666666667E+009;1.572462916374207E-001;-1.161795184016228E-001;-1.738172140903771E-004;-1.889115432277322E-003;
2.426333333333334E+009;1.570721566677094E-001;-1.162787303328514E-001;-2.038596285274252E-004;-1.837067306041718E-003;
2.426500000000000E+009;1.570174396038055E-001;-1.165751665830612E-001;-1.290405198233202E-004;-1.897185691632330E-003;
2.426666666666667E+009;1.567553877830505E-001;-1.164450347423554E-001;-2.600581210572273E-004;-1.911161118187010E-003;
2.426833333333334E+009;1.562416404485703E-001;-1.166069731116295E-001;-1.293693057959899E-004;-1.778295729309320E-003;
2.427000000000000E+009;1.558574438095093E-001;-1.169358938932419E-001;-2.168453065678477E-004;-1.672141719609499E-003;
2.427166666666667E+009;1.553647220134735E-001;-1.168592646718025E-001;-1.669343328103423E-004;-1.810167217627168E-003;
2.427333333333334E+009;1.546148806810379E-001;-1.170323491096497E-001;-3.625871322583407E-004;-1.882487093098462E-003;
2.427500000000000E+009;1.540115028619766E-001;-1.171301230788231E-001;-4.196572699584067E-004;-1.851075794547796E-003;
2.427666666666667E+009;1.532256901264191E-001;-1.173666119575501E-001;-2.996680850628763E-004;-1.898422604426742E-003;
2.427833333333334E+009;1.521351337432861E-001;-1.175087317824364E-001;-3.465649788267911E-004;-1.970960292965174E-003;
