# Version 1.00
#
freq[Hz];re:Trc1_S11;im:Trc1_S11;re:Trc2_S21;im:Trc2_S21;
2.400000000000000E+009;1.560792624950409E-001;6.029055640101433E-002;-5.773705430328846E-003;8.300861809402704E-004;
2.400166666666667E+009;1.562369763851166E-001;5.855910107493401E-002;-5.646912381052971E-003;1.102683134377003E-003;
2.400333333333334E+009;1.563582718372345E-001;5.646095797419548E-002;-5.590835120528936E-003;1.283380319364369E-003;
2.400500000000000E+009;1.563946753740311E-001;5.439991503953934E-002;-5.509614013135433E-003;1.373766339384019E-003;
2.400666666666667E+009;1.566627770662308E-001;5.225813388824463E-002;-5.622307304292917E-003;1.461199834011495E-003;
2.400833333333334E+009;1.570785939693451E-001;5.043236166238785E-002;-5.484971217811108E-003;1.640005968511105E-003;
2.401000000000000E+009;1.574633717536926E-001;4.822045937180519E-002;-5.397189874202013E-003;1.798538723960519E-003;
2.401166666666667E+009;1.576839983463287E-001;4.609997570514679E-002;-5.412414669990540E-003;2.073058392852545E-003;
2.401333333333334E+009;1.580930501222611E-001;4.418375715613365E-002;-5.362362600862980E-003;2.142786979675293E-003;
2.401500000000000E+009;1.587251722812653E-001;4.210565239191055E-002;-5.201187916100025E-003;2.462140517309308E-003;
2.401666666666667E+009;1.592749208211899E-001;4.008423909544945E-002;-5.211403127759695E-003;2.621226245537400E-003;
2.401833333333334E+009;1.599066257476807E-001;3.809792548418045E-002;-5.242417100816965E-003;2.705199178308249E-003;
2.402000000000000E+009;1.604618430137634E-001;3.638992458581924E-002;-5.058014765381813E-003;2.871065167710185E-003;
2.402166666666667E+009;1.609711498022080E-001;3.442972898483276E-002;-5.037682130932808E-003;3.117015352472663E-003;
2.402333333333334E+009;1.618531942367554E-001;3.269618377089500E-002;-4.813092295080423E-003;3.402758622542024E-003;
2.402500000000000E+009;1.628838777542114E-001;3.122323565185070E-002;-4.893107339739800E-003;3.553884336724877E-003;
2.402666666666667E+009;1.636282205581665E-001;2.964496240019798E-002;-4.732056055217981E-003;3.837665077298880E-003;
2.402833333333334E+009;1.645161658525467E-001;2.818429097533226E-002;-4.605859052389860E-003;3.895365633070469E-003;
2.403000000000000E+009;1.655730009078980E-001;2.660956978797913E-002;-4.428526386618614E-003;4.055120050907135E-003;
2.403166666666667E+009;1.664105951786041E-001;2.524732798337936E-002;-4.252100829035044E-003;4.332457669079304E-003;
2.403333333333334E+009;1.674809455871582E-001;2.397445403039455E-002;-4.058599937707186E-003;4.506407771259546E-003;
2.403500000000000E+009;1.684174537658691E-001;2.307723462581635E-002;-3.949247766286135E-003;4.629991017282009E-003;
2.403666666666667E+009;1.693425178527832E-001;2.180633135139942E-002;-3.724327310919762E-003;4.684409592300654E-003;
2.403833333333334E+009;1.704449951648712E-001;2.076852135360241E-002;-3.503901185467839E-003;4.760658834129572E-003;
2.404000000000000E+009;1.713097989559174E-001;1.973565109074116E-002;-3.466990077868104E-003;5.160853732377291E-003;
2.404166666666667E+009;1.721002757549286E-001;1.894646510481834E-002;-3.269454464316368E-003;5.239205434918404E-003;
2.404333333333334E+009;1.731175184249878E-001;1.829489879310131E-002;-3.023108700290322E-003;5.138763226568699E-003;
2.404500000000000E+009;1.739368736743927E-001;1.742994971573353E-002;-2.962037222459912E-003;5.526389926671982E-003;
2.404666666666667E+009;1.747785061597824E-001;1.685310900211334E-002;-2.660413039848208E-003;5.391495767980814E-003;
2.404833333333334E+009;1.753713041543961E-001;1.626109518110752E-002;-2.513682935386896E-003;5.604616831988096E-003;
2.405000000000000E+009;1.762278378009796E-001;1.589399017393589E-002;-2.203043084591627E-003;5.655859131366015E-003;
2.405166666666667E+009;1.768401414155960E-001;1.532099954783917E-002;-2.021970925852656E-003;5.766518414020538E-003;
2.405333333333334E+009;1.776420772075653E-001;1.490709744393826E-002;-1.702650217339397E-003;5.977928172796965E-003;
2.405500000000000E+009;1.781526356935501E-001;1.465496048331261E-002;-1.575396745465696E-003;5.898107308894396E-003;
2.405666666666667E+009;1.785962879657745E-001;1.435670070350170E-002;-1.243414822965860E-003;6.089314818382263E-003;
2.405833333333334E+009;1.789320707321167E-001;1.401247642934322E-002;-1.073842286132276E-003;6.061102263629437E-003;
2.406000000000000E+009;1.793291568756104E-001;1.365756336599588E-002;-7.798573933541775E-004;6.076713558286429E-003;
2.406166666666667E+009;1.794674545526505E-001;1.352845225483179E-002;-5.448997835628688E-004;6.000631023198366E-003;
2.406333333333334E+009;1.797306239604950E-001;1.326069049537182E-002;-3.108863602392376E-004;6.057267542928457E-003;
2.406500000000000E+009;1.797461658716202E-001;1.295267883688211E-002;-4.949641152052209E-006;5.973760038614273E-003;
2.406666666666667E+009;1.795807778835297E-001;1.264764368534088E-002;2.247556840302423E-004;5.774388555437326E-003;
2.406833333333334E+009;1.796931773424149E-001;1.226739399135113E-002;4.838254826609045E-004;5.867584608495235E-003;
2.407000000000000E+009;1.795851141214371E-001;1.188861764967442E-002;7.523846579715610E-004;5.842679180204868E-003;
2.407166666666667E+009;1.794691979885101E-001;1.145040243864059E-002;6.865634932182729E-004;5.571237765252590E-003;
2.407333333333334E+009;1.790379732847214E-001;1.087025552988052E-002;1.185319502837956E-003;5.718178115785122E-003;
2.407500000000000E+009;1.786785870790482E-001;1.039688568562269E-002;1.382574322633445E-003;5.634344648569822E-003;
2.407666666666667E+009;1.783655136823654E-001;9.709372185170651E-003;1.489170361310244E-003;5.491908174008131E-003;
2.407833333333334E+009;1.776990890502930E-001;9.063483215868473E-003;1.544574042782188E-003;5.439434666186571E-003;
2.408000000000000E+009;1.773123145103455E-001;8.178080432116985E-003;1.900248695164919E-003;5.212982185184956E-003;
2.408166666666667E+009;1.767779290676117E-001;7.475366350263357E-003;2.076221397146583E-003;5.105256568640471E-003;
2.408333333333334E+009;1.764214932918549E-001;6.546172313392162E-003;2.107737818732858E-003;5.003246013075113E-003;
2.408500000000000E+009;1.755467355251312E-001;5.342386662960053E-003;2.315212739631534E-003;5.032208282500505E-003;
2.408666666666667E+009;1.749727874994278E-001;4.354457836598158E-003;2.393797971308231E-003;4.775968845933676E-003;
2.408833333333334E+009;1.741766482591629E-001;3.117776475846767E-003;2.471130108460784E-003;4.669234622269869E-003;
2.409000000000000E+009;1.734124720096588E-001;1.781609375029802E-003;2.633318770676851E-003;4.684279207140207E-003;
2.409166666666667E+009;1.728558987379074E-001;4.703761369455606E-004;2.684014849364758E-003;4.543275572359562E-003;
2.409333333333334E+009;1.722320616245270E-001;-1.104058814235032E-003;2.870821859687567E-003;4.283646587282419E-003;
2.409500000000000E+009;1.716103553771973E-001;-2.709414809942246E-003;2.914116717875004E-003;4.287867341190577E-003;
2.409666666666667E+009;1.709619760513306E-001;-4.147964064031839E-003;2.933157142251730E-003;4.030996467918158E-003;
2.409833333333334E+009;1.703018695116043E-001;-5.743665155023336E-003;3.264459781348705E-003;3.876474220305681E-003;
2.410000000000000E+009;1.698209792375565E-001;-7.586261257529259E-003;3.281276673078537E-003;3.895097179338336E-003;
2.410166666666667E+009;1.692918986082077E-001;-9.360886178910732E-003;3.224866930395365E-003;3.695652354508638E-003;
2.410333333333334E+009;1.688194572925568E-001;-1.105716638267040E-002;3.466721158474684E-003;3.630335675552487E-003;
2.410500000000000E+009;1.684865355491638E-001;-1.292853150516748E-002;3.546007676050067E-003;3.448700299486518E-003;
2.410666666666667E+009;1.681242138147354E-001;-1.489364821463823E-002;3.716118866577745E-003;3.279899246990681E-003;
2.410833333333334E+009;1.680019497871399E-001;-1.682079024612904E-002;3.598358249291778E-003;3.168932627886534E-003;
2.411000000000000E+009;1.676653623580933E-001;-1.866117306053639E-002;3.725308692082763E-003;3.013926791027188E-003;
2.411166666666667E+009;1.675170511007309E-001;-2.059775777161121E-002;3.803063882514834E-003;2.860245062038302E-003;
2.411333333333334E+009;1.674276888370514E-001;-2.268043719232082E-002;4.098924342542887E-003;2.716838149353862E-003;
2.411500000000000E+009;1.674077361822128E-001;-2.476893179118633E-002;3.972618840634823E-003;2.429055748507381E-003;
2.411666666666667E+009;1.677392721176148E-001;-2.676858380436897E-002;4.058550111949444E-003;2.415163908153772E-003;
2.411833333333334E+009;1.678616255521774E-001;-2.870821580290794E-002;4.066349938511848E-003;2.293171593919396E-003;
2.412000000000000E+009;1.681566685438156E-001;-3.050581179559231E-002;4.110308364033699E-003;2.135586459189653E-003;
2.412166666666667E+009;1.684479862451553E-001;-3.231734409928322E-002;4.126737359911203E-003;1.894456916488707E-003;
2.412333333333334E+009;1.690975576639175E-001;-3.417212143540382E-002;4.196657799184322E-003;1.578984898515046E-003;
2.412500000000000E+009;1.693479269742966E-001;-3.595505654811859E-002;4.240390378981829E-003;1.557853422127664E-003;
2.412666666666667E+009;1.697916388511658E-001;-3.787560015916824E-002;4.275771789252758E-003;1.395552651956677E-003;
2.412833333333334E+009;1.704636067152023E-001;-3.952900692820549E-002;4.376964643597603E-003;1.304961042478681E-003;
2.413000000000000E+009;1.708744764328003E-001;-4.118383675813675E-002;4.254113882780075E-003;1.149936928413808E-003;
2.413166666666667E+009;1.714185178279877E-001;-4.268561303615570E-002;4.228164441883564E-003;9.544640779495239E-004;
2.413333333333334E+009;1.719913333654404E-001;-4.423137754201889E-002;4.292898345738649E-003;8.597736014053226E-004;
2.413500000000000E+009;1.726582199335098E-001;-4.574236646294594E-002;4.216567147523165E-003;6.504193297587335E-004;
2.413666666666667E+009;1.732649356126785E-001;-4.707590118050575E-002;4.139842465519905E-003;6.722307298332453E-004;
2.413833333333334E+009;1.738630682229996E-001;-4.834909737110138E-002;4.068740177899599E-003;5.294326692819595E-004;
2.414000000000000E+009;1.743364632129669E-001;-4.958166182041168E-002;4.033041186630726E-003;4.466196114663035E-004;
2.414166666666667E+009;1.752302646636963E-001;-5.071702226996422E-002;3.968426957726479E-003;2.884226269088686E-004;
2.414333333333334E+009;1.757020205259323E-001;-5.165513232350349E-002;3.952091559767723E-003;2.646379107318353E-005;
2.414500000000000E+009;1.764446347951889E-001;-5.277160182595253E-002;4.037097562104464E-003;-2.575546677689999E-004;
2.414666666666667E+009;1.766786426305771E-001;-5.331635847687721E-002;3.822984872385860E-003;-2.259650209452957E-004;
2.414833333333334E+009;1.771825104951859E-001;-5.431491509079933E-002;3.783505642786622E-003;-1.646930031711236E-004;
2.415000000000000E+009;1.775037497282028E-001;-5.483438447117806E-002;3.803048282861710E-003;-3.988200332969427E-004;
2.415166666666667E+009;1.779239177703857E-001;-5.558905005455017E-002;3.674483858048916E-003;-4.578653315547854E-004;
2.415333333333334E+009;1.782630532979965E-001;-5.617886036634445E-002;3.647498087957501E-003;-5.120628629811108E-004;
2.415500000000000E+009;1.783919036388397E-001;-5.650244280695915E-002;3.541623940691352E-003;-7.198858074843884E-004;
2.415666666666667E+009;1.785550564527512E-001;-5.680407583713532E-002;3.451879601925612E-003;-7.105664699338377E-004;
2.415833333333334E+009;1.786865741014481E-001;-5.718676373362541E-002;3.343925112858415E-003;-7.223527645692229E-004;
2.416000000000000E+009;1.784242689609528E-001;-5.756670981645584E-002;3.435587510466576E-003;-9.200559579767287E-004;
2.416166666666667E+009;1.785713434219360E-001;-5.781601369380951E-002;3.437214065343142E-003;-8.554904488846660E-004;
2.416333333333334E+009;1.782775670289993E-001;-5.795252695679665E-002;3.370005637407303E-003;-9.121044422499836E-004;
2.416500000000000E+009;1.780416965484619E-001;-5.827388912439346E-002;3.185899229720235E-003;-1.008073100820184E-003;
2.416666666666667E+009;1.774443387985230E-001;-5.844278633594513E-002;3.187280381098390E-003;-1.119111664593220E-003;
2.416833333333334E+009;1.771408617496491E-001;-5.869809538125992E-002;3.221262712031603E-003;-1.069782185368240E-003;
2.417000000000000E+009;1.765047162771225E-001;-5.891997367143631E-002;3.174725454300642E-003;-1.274705282412469E-003;
2.417166666666667E+009;1.757152080535889E-001;-5.913437902927399E-002;3.169752191752195E-003;-1.225501531735063E-003;
2.417333333333334E+009;1.751507520675659E-001;-5.923443287611008E-002;3.283664816990495E-003;-1.282760873436928E-003;
2.417500000000000E+009;1.742336004972458E-001;-5.964155867695808E-002;3.129648510366678E-003;-1.470045768655837E-003;
2.417666666666667E+009;1.733533740043640E-001;-5.990464985370636E-002;3.020615782588720E-003;-1.438384293578565E-003;
2.417833333333334E+009;1.724183410406113E-001;-6.028439104557037E-002;3.062542527914047E-003;-1.705315080471337E-003;
2.418000000000000E+009;1.713192313909531E-001;-6.075218319892883E-002;3.153118770569563E-003;-1.625325880013406E-003;
2.418166666666667E+009;1.702474057674408E-001;-6.095472350716591E-002;2.943492028862238E-003;-1.902183867059648E-003;
2.418333333333334E+009;1.693707257509232E-001;-6.163853779435158E-002;2.927659777924418E-003;-1.846937346272171E-003;
2.418500000000000E+009;1.679601073265076E-001;-6.210962682962418E-002;2.797690685838461E-003;-1.913206535391510E-003;
2.418666666666667E+009;1.668719202280045E-001;-6.280916929244995E-002;2.877712249755859E-003;-1.957915723323822E-003;
2.418833333333334E+009;1.654101610183716E-001;-6.352368742227554E-002;2.528466051444411E-003;-2.181528834626079E-003;
2.419000000000000E+009;1.641841828823090E-001;-6.429037451744080E-002;2.637671073898673E-003;-2.073614625260234E-003;
2.419166666666667E+009;1.629345118999481E-001;-6.522662937641144E-002;2.390563720837236E-003;-2.237624954432249E-003;
2.419333333333334E+009;1.616121679544449E-001;-6.581772118806839E-002;2.497778274118900E-003;-2.347656991332769E-003;
2.419500000000000E+009;1.603875905275345E-001;-6.707996875047684E-002;2.343616914004087E-003;-2.417973242700100E-003;
2.419666666666667E+009;1.593238115310669E-001;-6.816438585519791E-002;2.341988496482372E-003;-2.392947440966964E-003;
2.419833333333334E+009;1.580349802970886E-001;-6.916140019893646E-002;2.253051381558180E-003;-2.477205591276288E-003;
2.420000000000000E+009;1.570140570402145E-001;-7.045426219701767E-002;2.106507774442434E-003;-2.539798384532332E-003;
2.420166666666667E+009;1.560118347406387E-001;-7.174824923276901E-002;2.070293761789799E-003;-2.600450767204166E-003;
2.420333333333334E+009;1.549065113067627E-001;-7.317933440208435E-002;1.975374529138207E-003;-2.667230553925037E-003;
2.420500000000000E+009;1.541316956281662E-001;-7.444324344396591E-002;1.861245487816632E-003;-2.702766330912709E-003;
2.420666666666667E+009;1.531608998775482E-001;-7.596101611852646E-002;1.665395568124950E-003;-2.718934789299965E-003;
2.420833333333334E+009;1.524599045515060E-001;-7.756835967302322E-002;1.584842684678733E-003;-2.649573143571615E-003;
2.421000000000000E+009;1.517740935087204E-001;-7.919374853372574E-002;1.605846104212105E-003;-2.737610368058085E-003;
2.421166666666667E+009;1.511645168066025E-001;-8.078807592391968E-002;1.419853186234832E-003;-2.904820023104549E-003;
2.421333333333334E+009;1.506880223751068E-001;-8.232241868972778E-002;1.308187725953758E-003;-2.869585296139121E-003;
2.421500000000000E+009;1.500752568244934E-001;-8.398682624101639E-002;1.247418462298811E-003;-2.719563897699118E-003;
2.421666666666667E+009;1.498508900403976E-001;-8.581486344337463E-002;1.239643432199955E-003;-2.770975464954972E-003;
2.421833333333334E+009;1.496489048004150E-001;-8.730375021696091E-002;1.008076709695160E-003;-2.868855837732554E-003;
2.422000000000000E+009;1.494779735803604E-001;-8.898314088582993E-002;8.480898686684668E-004;-2.868560375645757E-003;
2.422166666666667E+009;1.494084447622299E-001;-9.097880125045776E-002;7.397668086923659E-004;-2.793311839923263E-003;
2.422333333333334E+009;1.493658870458603E-001;-9.238269925117493E-002;6.042818422429264E-004;-2.836212283000350E-003;
2.422500000000000E+009;1.493918150663376E-001;-9.386862814426422E-002;5.627120845019817E-004;-2.668824512511492E-003;
2.422666666666667E+009;1.493449658155441E-001;-9.567580372095108E-002;4.053913580719382E-004;-2.587040653452277E-003;
2.422833333333334E+009;1.497874259948731E-001;-9.741054475307465E-002;3.671208396553993E-004;-2.691888483241200E-003;
2.423000000000000E+009;1.500546634197235E-001;-9.886357933282852E-002;3.206118999514729E-004;-2.662987913936377E-003;
2.423166666666667E+009;1.503404378890991E-001;-1.005088239908218E-001;3.425148315727711E-004;-2.695169299840927E-003;
2.423333333333334E+009;1.509696990251541E-001;-1.017329096794128E-001;1.500234793638811E-004;-2.643486717715859E-003;
2.423500000000000E+009;1.513685286045075E-001;-1.033526957035065E-001;1.494839962106198E-004;-2.482930896803737E-003;
2.423666666666667E+009;1.515619009733200E-001;-1.047654822468758E-001;7.025802915450186E-005;-2.453134628012776E-003;
2.423833333333334E+009;1.522809416055679E-001;-1.059464365243912E-001;1.121704553952441E-004;-2.389410277828574E-003;
2.424000000000000E+009;1.527232080698013E-001;-1.070744395256043E-001;5.598678399110213E-005;-2.262682653963566E-003;
2.424166666666667E+009;1.533064246177673E-001;-1.082382649183273E-001;6.443986421800219E-006;-2.311802003532648E-003;
2.424333333333334E+009;1.539259999990463E-001;-1.092043444514275E-001;-9.293147013522685E-005;-2.343504456803203E-003;
2.424500000000000E+009;1.543245911598206E-001;-1.103428304195404E-001;-1.307407073909417E-004;-2.168125240132213E-003;
2.424666666666667E+009;1.549180895090103E-001;-1.109460741281509E-001;-1.640171976760030E-004;-2.146978862583637E-003;
2.424833333333334E+009;1.552123874425888E-001;-1.118729859590530E-001;-2.660407044459134E-004;-2.073449082672596E-003;
2.425000000000000E+009;1.557923704385757E-001;-1.127435415983200E-001;-2.453259367030114E-004;-2.157393610104919E-003;
2.425166666666667E+009;1.559687405824661E-001;-1.134261414408684E-001;-2.788755227811635E-004;-1.898354152217507E-003;
2.425333333333334E+009;1.564037054777145E-001;-1.140061095356941E-001;-1.964150287676603E-004;-2.076872624456883E-003;
2.425500000000000E+009;1.568322926759720E-001;-1.146405190229416E-001;-2.528676413930953E-004;-2.041104249656200E-003;
2.425666666666667E+009;1.568211466073990E-001;-1.150472313165665E-001;-2.822864917106926E-004;-1.973560545593500E-003;
2.425833333333334E+009;1.570073664188385E-001;-1.154154837131500E-001;-3.173406294081360E-004;-1.780852326191962E-003;
2.426000000000000E+009;1.571181118488312E-001;-1.158807799220085E-001;-2.565870527178049E-004;-1.806845655664802E-003;
2.426166666666667E+009;1.572767347097397E-001;-1.161170229315758E-001;-3.574138681869954E-004;-1.840514363721013E-003;
2.426333333333334E+009;1.571319699287415E-001;-1.164234578609467E-001;-4.020122287329286E-004;-1.771286595612764E-003;
2.426500000000000E+009;1.569456011056900E-001;-1.164984926581383E-001;-2.969976922031492E-004;-1.778683508746326E-003;
2.426666666666667E+009;1.568051874637604E-001;-1.164943054318428E-001;-3.495580458547920E-004;-1.865703263320029E-003;
2.426833333333334E+009;1.564205586910248E-001;-1.167526021599770E-001;-3.314699279144406E-004;-1.861521042883396E-003;
2.427000000000000E+009;1.558889597654343E-001;-1.169391795992851E-001;-3.532763512339443E-004;-1.705797971226275E-003;
2.427166666666667E+009;1.553046256303787E-001;-1.169292032718658E-001;-3.772466734517366E-004;-1.754655619151890E-003;
2.427333333333334E+009;1.546178758144379E-001;-1.171405836939812E-001;-2.532160142436624E-004;-1.650525373406708E-003;
2.427500000000000E+009;1.538965553045273E-001;-1.171730533242226E-001;-3.672790480777621E-004;-1.743790926411748E-003;
2.427666666666667E+009;1.531116515398026E-001;-1.174018532037735E-001;-4.203600692562759E-004;-1.758108846843243E-003;
2.427833333333334E+009;1.520444303750992E-001;-1.174243688583374E-001;-3.060814924538136E-004;-1.796338474377990E-003;
