# Version 1.00
#
freq[Hz];re:Trc1_S11;im:Trc1_S11;re:Trc2_S21;im:Trc2_S21;
2.400000000000000E+009;1.686585247516632E-001;4.678700491786003E-002;-3.437659761402756E-004;4.080881830304861E-003;
2.400166666666667E+009;1.696940809488297E-001;4.588528349995613E-002;-4.579328524414450E-004;3.837183350697160E-003;
2.400333333333334E+009;1.705620735883713E-001;4.467484354972839E-002;-2.504049334675074E-004;3.848705207929015E-003;
2.400500000000000E+009;1.713666319847107E-001;4.371438920497894E-002;-1.989363809116185E-004;3.885957412421703E-003;
2.400666666666667E+009;1.722245365381241E-001;4.269684851169586E-002;-3.833186929114163E-004;3.735508304089308E-003;
2.400833333333334E+009;1.731986552476883E-001;4.202345013618469E-002;-1.981496898224577E-004;3.643542528152466E-003;
2.401000000000000E+009;1.738575696945190E-001;4.131051898002625E-002;-3.959109599236399E-004;3.504820866510272E-003;
2.401166666666667E+009;1.746234595775604E-001;4.040013998746872E-002;-3.556320152711123E-004;3.495778888463974E-003;
2.401333333333334E+009;1.753919869661331E-001;3.977824375033379E-002;-2.827944117598236E-004;3.516809316352010E-003;
2.401500000000000E+009;1.760306358337402E-001;3.923503309488297E-002;-3.214076859876514E-004;3.409601747989655E-003;
2.401666666666667E+009;1.765384823083878E-001;3.857076168060303E-002;-4.476656322367489E-004;3.467678558081389E-003;
2.401833333333334E+009;1.769786328077316E-001;3.800114244222641E-002;-4.686121246777475E-004;3.373678075149655E-003;
2.402000000000000E+009;1.774925142526627E-001;3.721518069505692E-002;-6.167977699078620E-004;3.410432254895568E-003;
2.402166666666667E+009;1.778476387262344E-001;3.666404262185097E-002;-6.309755844995379E-004;3.468603361397982E-003;
2.402333333333334E+009;1.782261282205582E-001;3.621008992195129E-002;-7.255899836309254E-004;3.409152152016759E-003;
2.402500000000000E+009;1.786691844463348E-001;3.556023165583611E-002;-8.419999503530562E-004;3.676763735711575E-003;
2.402666666666667E+009;1.787913441658020E-001;3.503438457846642E-002;-8.415731135755777E-004;3.690074197947979E-003;
2.402833333333334E+009;1.789649128913879E-001;3.425537794828415E-002;-9.546258370392025E-004;3.879199735820293E-003;
2.403000000000000E+009;1.790987253189087E-001;3.333112597465515E-002;-8.489452884532511E-004;3.923502285033464E-003;
2.403166666666667E+009;1.791433244943619E-001;3.248117491602898E-002;-9.694091859273613E-004;4.235186614096165E-003;
2.403333333333334E+009;1.790292412042618E-001;3.178435936570168E-002;-8.870280580595136E-004;4.545347299426794E-003;
2.403500000000000E+009;1.787668317556381E-001;3.088137879967690E-002;-7.491853320971131E-004;4.748172126710415E-003;
2.403666666666667E+009;1.785443425178528E-001;2.960736304521561E-002;-7.048689294606447E-004;4.917113576084375E-003;
2.403833333333334E+009;1.784093528985977E-001;2.848306298255920E-002;-6.592667195945978E-004;5.344980396330357E-003;
2.404000000000000E+009;1.781596839427948E-001;2.737262472510338E-002;-5.316782044246793E-004;5.522327497601509E-003;
2.404166666666667E+009;1.777538210153580E-001;2.606450766324997E-002;-3.148197138216347E-004;5.899217911064625E-003;
2.404333333333334E+009;1.772717386484146E-001;2.496417053043842E-002;3.317085065646097E-005;6.018571555614471E-003;
2.404500000000000E+009;1.766780614852905E-001;2.343444153666496E-002;3.386872995179147E-004;6.229180376976728E-003;
2.404666666666667E+009;1.762568652629852E-001;2.212795056402683E-002;5.669103120453656E-004;6.561131682246923E-003;
2.404833333333334E+009;1.757863759994507E-001;2.063908055424690E-002;9.216296602971852E-004;6.544280331581831E-003;
2.405000000000000E+009;1.754556447267532E-001;1.903379708528519E-002;1.389303477481008E-003;6.819314789026976E-003;
2.405166666666667E+009;1.750382930040360E-001;1.763890124857426E-002;1.935932086780667E-003;7.017583120614290E-003;
2.405333333333334E+009;1.745976954698563E-001;1.574663259088993E-002;2.204947872087359E-003;6.972432136535645E-003;
2.405500000000000E+009;1.742314398288727E-001;1.396986003965139E-002;2.693030051887035E-003;7.014733739197254E-003;
2.405666666666667E+009;1.738387197256088E-001;1.239060144871473E-002;3.181249136105180E-003;6.971269380301237E-003;
2.405833333333334E+009;1.734459251165390E-001;1.065133884549141E-002;3.600399475544691E-003;6.733596324920654E-003;
2.406000000000000E+009;1.732884496450424E-001;8.562381379306316E-003;4.140268545597792E-003;6.644370034337044E-003;
2.406166666666667E+009;1.729674637317658E-001;6.853834725916386E-003;4.297127481549978E-003;6.371957249939442E-003;
2.406333333333334E+009;1.731236129999161E-001;4.833808168768883E-003;4.902177490293980E-003;6.187547929584980E-003;
2.406500000000000E+009;1.728118062019348E-001;2.834388520568609E-003;5.198250524699688E-003;5.979144945740700E-003;
2.406666666666667E+009;1.725357025861740E-001;8.345993119291961E-004;5.580261349678040E-003;5.695892032235861E-003;
2.406833333333334E+009;1.726571917533875E-001;-1.211193972267211E-003;5.943872500211000E-003;5.363722331821919E-003;
2.407000000000000E+009;1.729927361011505E-001;-3.278975374996662E-003;6.071060895919800E-003;4.924652632325888E-003;
2.407166666666667E+009;1.730998158454895E-001;-5.276592448353767E-003;6.463127210736275E-003;4.760858602821827E-003;
2.407333333333334E+009;1.731553673744202E-001;-7.579698693007231E-003;6.900803185999394E-003;4.391180351376534E-003;
2.407500000000000E+009;1.735156476497650E-001;-9.399008005857468E-003;7.107884157449007E-003;3.968846984207630E-003;
2.407666666666667E+009;1.738787293434143E-001;-1.155322697013617E-002;7.182129658758640E-003;3.556801239028573E-003;
2.407833333333334E+009;1.739253699779511E-001;-1.366715040057898E-002;7.432054262608290E-003;3.137392923235893E-003;
2.408000000000000E+009;1.743715405464172E-001;-1.590327359735966E-002;7.531034760177136E-003;2.651363378390670E-003;
2.408166666666667E+009;1.748200356960297E-001;-1.755273900926113E-002;7.777581922709942E-003;2.251226687803865E-003;
2.408333333333334E+009;1.754040867090225E-001;-1.948435790836811E-002;7.796508260071278E-003;1.840039854869247E-003;
2.408500000000000E+009;1.758245825767517E-001;-2.149693481624126E-002;7.698305416852236E-003;1.550491433590651E-003;
2.408666666666667E+009;1.762240678071976E-001;-2.337522618472576E-002;7.607308682054281E-003;8.466785075142980E-004;
2.408833333333334E+009;1.765945404767990E-001;-2.493992075324059E-002;7.623555138707161E-003;6.563193746842444E-004;
2.409000000000000E+009;1.770007908344269E-001;-2.656494826078415E-002;7.472624070942402E-003;1.862881035776809E-004;
2.409166666666667E+009;1.774487048387528E-001;-2.803203277289867E-002;7.462780922651291E-003;-1.568102452438325E-004;
2.409333333333334E+009;1.780114471912384E-001;-2.951415441930294E-002;7.351208478212357E-003;-5.781098734587431E-004;
2.409500000000000E+009;1.784126162528992E-001;-3.083606623113155E-002;7.114335428923369E-003;-9.752970072440803E-004;
2.409666666666667E+009;1.787583976984024E-001;-3.204925730824471E-002;7.041345816105604E-003;-1.337466412223876E-003;
2.409833333333334E+009;1.793087571859360E-001;-3.295737877488136E-002;6.833644118160009E-003;-1.403417671099305E-003;
2.410000000000000E+009;1.797588914632797E-001;-3.388734906911850E-002;6.693979725241661E-003;-1.864085323177278E-003;
2.410166666666667E+009;1.800835132598877E-001;-3.488473966717720E-002;6.683506071567535E-003;-2.036939142271876E-003;
2.410333333333334E+009;1.807069629430771E-001;-3.559508174657822E-002;6.379985250532627E-003;-2.344100037589669E-003;
2.410500000000000E+009;1.810786426067352E-001;-3.633447736501694E-002;6.178224459290505E-003;-2.529348712414503E-003;
2.410666666666667E+009;1.814268678426743E-001;-3.712979704141617E-002;6.036930251866579E-003;-2.720538759604096E-003;
2.410833333333334E+009;1.817870140075684E-001;-3.761047497391701E-002;5.779077764600515E-003;-2.933587413281202E-003;
2.411000000000000E+009;1.820052266120911E-001;-3.809817135334015E-002;5.631011910736561E-003;-3.165337722748518E-003;
2.411166666666667E+009;1.822384744882584E-001;-3.870655596256256E-002;5.492859985679388E-003;-3.128712531179190E-003;
2.411333333333334E+009;1.824212074279785E-001;-3.903663903474808E-002;5.146102979779244E-003;-3.344117896631360E-003;
2.411500000000000E+009;1.824741214513779E-001;-3.969706222414970E-002;4.999274387955666E-003;-3.554367460310459E-003;
2.411666666666667E+009;1.825372129678726E-001;-4.023189842700958E-002;4.885450936853886E-003;-3.705037990584970E-003;
2.411833333333334E+009;1.821553260087967E-001;-4.032193869352341E-002;4.434623755514622E-003;-3.981267567723990E-003;
2.412000000000000E+009;1.821238547563553E-001;-4.060510173439980E-002;4.344150424003601E-003;-3.996854647994041E-003;
2.412166666666667E+009;1.816836744546890E-001;-4.138075560331345E-002;4.250309430062771E-003;-4.065261688083410E-003;
2.412333333333334E+009;1.815444380044937E-001;-4.149905219674110E-002;3.982146736234427E-003;-4.244265146553516E-003;
2.412500000000000E+009;1.808227002620697E-001;-4.177452251315117E-002;3.603297751396895E-003;-4.365950357168913E-003;
2.412666666666667E+009;1.804124563932419E-001;-4.221246391534805E-002;3.561588004231453E-003;-4.411978647112846E-003;
2.412833333333334E+009;1.795310527086258E-001;-4.271661490201950E-002;3.389888675883412E-003;-4.493424668908119E-003;
2.413000000000000E+009;1.787687689065933E-001;-4.302637651562691E-002;3.039869247004390E-003;-4.655269440263510E-003;
2.413166666666667E+009;1.778679341077805E-001;-4.359994828701019E-002;2.857031300663948E-003;-4.448372405022383E-003;
2.413333333333334E+009;1.769356131553650E-001;-4.396556317806244E-002;2.757525769993663E-003;-4.648984409868717E-003;
2.413500000000000E+009;1.758541166782379E-001;-4.458513855934143E-002;2.529607387259603E-003;-4.626348614692688E-003;
2.413666666666667E+009;1.749926060438156E-001;-4.515824839472771E-002;2.420219127088785E-003;-4.485385958105326E-003;
2.413833333333334E+009;1.736033558845520E-001;-4.579905048012734E-002;2.182227559387684E-003;-4.555084742605686E-003;
2.414000000000000E+009;1.725031286478043E-001;-4.667633399367333E-002;1.812647678889334E-003;-4.525409545749426E-003;
2.414166666666667E+009;1.713687479496002E-001;-4.717912524938583E-002;1.758189522661269E-003;-4.732551053166390E-003;
2.414333333333334E+009;1.701668947935104E-001;-4.816804081201553E-002;1.450542476959527E-003;-4.553636536002159E-003;
2.414500000000000E+009;1.690879315137863E-001;-4.898665100336075E-002;1.304834964685142E-003;-4.581440240144730E-003;
2.414666666666667E+009;1.676068156957626E-001;-4.990167543292046E-002;1.190138165839016E-003;-4.391491413116455E-003;
2.414833333333334E+009;1.665005683898926E-001;-5.106850713491440E-002;8.423323160968721E-004;-4.475796595215797E-003;
2.415000000000000E+009;1.653165072202683E-001;-5.219915881752968E-002;7.824754575267434E-004;-4.407520405948162E-003;
2.415166666666667E+009;1.638554632663727E-001;-5.354546010494232E-002;5.301441415213049E-004;-4.321390297263861E-003;
2.415333333333334E+009;1.627462059259415E-001;-5.494444072246552E-002;4.806423676200211E-004;-4.043711815029383E-003;
2.415500000000000E+009;1.616704165935516E-001;-5.629601329565048E-002;4.298635467421264E-004;-3.930759616196156E-003;
2.415666666666667E+009;1.605643033981323E-001;-5.778001621365547E-002;2.273446880280972E-004;-3.957034088671207E-003;
2.415833333333334E+009;1.595535427331924E-001;-5.943563953042030E-002;3.714919148478657E-005;-3.700683126226068E-003;
2.416000000000000E+009;1.583352088928223E-001;-6.112625822424889E-002;5.002203124604421E-006;-3.555061528459191E-003;
2.416166666666667E+009;1.574365794658661E-001;-6.290986388921738E-002;-1.913323649205267E-005;-3.493464784696698E-003;
2.416333333333334E+009;1.564651578664780E-001;-6.468280404806137E-002;4.707279731519520E-005;-3.420732915401459E-003;
2.416500000000000E+009;1.555702388286591E-001;-6.661652028560638E-002;-1.022381766233593E-004;-3.202280728146434E-003;
2.416666666666667E+009;1.546324640512466E-001;-6.840807199478149E-002;-1.010707546811318E-005;-3.276610048487783E-003;
2.416833333333334E+009;1.539510488510132E-001;-7.040111720561981E-002;-1.361549366265535E-004;-3.145760158076882E-003;
2.417000000000000E+009;1.530434936285019E-001;-7.239213585853577E-002;-2.874356141546741E-006;-3.020196221768856E-003;
2.417166666666667E+009;1.523825526237488E-001;-7.415556907653809E-002;-3.975502113462426E-005;-2.954543335363269E-003;
2.417333333333334E+009;1.518145501613617E-001;-7.612333446741104E-002;2.514193147362676E-005;-2.977822208777070E-003;
2.417500000000000E+009;1.512991935014725E-001;-7.815896719694138E-002;4.676308526541106E-005;-2.908882917836309E-003;
2.417666666666667E+009;1.509878337383270E-001;-7.985016703605652E-002;3.647122503025457E-005;-2.796196378767490E-003;
2.417833333333334E+009;1.505653113126755E-001;-8.164287358522415E-002;1.402384659741074E-004;-2.791212638840079E-003;
2.418000000000000E+009;1.501880586147308E-001;-8.373126387596130E-002;2.179133880417794E-004;-2.860489301383495E-003;
2.418166666666667E+009;1.498964130878449E-001;-8.522734045982361E-002;2.487196179572493E-004;-2.981603378430009E-003;
2.418333333333334E+009;1.499406099319458E-001;-8.707145601511002E-002;2.562844019848853E-004;-3.105006646364927E-003;
2.418500000000000E+009;1.497198939323425E-001;-8.865673094987869E-002;1.971588208107278E-004;-3.060501301661134E-003;
2.418666666666667E+009;1.498026251792908E-001;-9.020946919918060E-002;2.247072552563623E-004;-3.172663040459156E-003;
2.418833333333334E+009;1.496763229370117E-001;-9.144607931375504E-002;1.578968367539346E-004;-3.116013715043664E-003;
2.419000000000000E+009;1.496908664703369E-001;-9.285990148782730E-002;4.570790770230815E-005;-3.394856583327055E-003;
2.419166666666667E+009;1.497963368892670E-001;-9.401877969503403E-002;8.151287329383194E-005;-3.391004633158445E-003;
2.419333333333334E+009;1.498482674360275E-001;-9.498640149831772E-002;2.406095745755010E-006;-3.417776199057698E-003;
2.419500000000000E+009;1.501767486333847E-001;-9.616835415363312E-002;-2.179584553232417E-004;-3.592818975448608E-003;
2.419666666666667E+009;1.503742933273315E-001;-9.701775014400482E-002;-2.502143324818462E-004;-3.586646169424057E-003;
2.419833333333334E+009;1.505494862794876E-001;-9.775407612323761E-002;-3.699824446812272E-004;-3.713829442858696E-003;
2.420000000000000E+009;1.508366167545319E-001;-9.837391972541809E-002;-6.864980095997453E-004;-3.696914529427886E-003;
2.420166666666667E+009;1.510953009128571E-001;-9.886379539966583E-002;-6.329528405331075E-004;-3.676888532936573E-003;
2.420333333333334E+009;1.514072716236115E-001;-9.933171421289444E-002;-7.675588130950928E-004;-3.842755686491728E-003;
2.420500000000000E+009;1.518361270427704E-001;-9.940102696418762E-002;-1.059366622939706E-003;-3.661144059151411E-003;
2.420666666666667E+009;1.519874483346939E-001;-9.962789714336395E-002;-1.103579532355070E-003;-3.764283144846559E-003;
2.420833333333334E+009;1.523486524820328E-001;-9.990794956684113E-002;-1.324996352195740E-003;-3.632057690992951E-003;
2.421000000000000E+009;1.524254083633423E-001;-9.997394680976868E-002;-1.412187819369137E-003;-3.603307530283928E-003;
2.421166666666667E+009;1.527879536151886E-001;-9.983405470848084E-002;-1.448246766813099E-003;-3.522769315168262E-003;
2.421333333333334E+009;1.529173702001572E-001;-9.974232316017151E-002;-1.664606388658285E-003;-3.471569158136845E-003;
2.421500000000000E+009;1.528761237859726E-001;-9.953209757804871E-002;-1.752088894136250E-003;-3.330547828227282E-003;
2.421666666666667E+009;1.529873013496399E-001;-9.935776889324188E-002;-1.657920307479799E-003;-3.418568288907409E-003;
2.421833333333334E+009;1.530854254961014E-001;-9.918659925460815E-002;-2.013060264289379E-003;-3.355201799422503E-003;
2.422000000000000E+009;1.527465134859085E-001;-9.895101934671402E-002;-1.990086399018765E-003;-3.260232275351882E-003;
2.422166666666667E+009;1.525402963161469E-001;-9.862139821052551E-002;-2.062979387119412E-003;-3.280244302004576E-003;
2.422333333333334E+009;1.521648019552231E-001;-9.815140813589096E-002;-2.163331024348736E-003;-3.081229282543063E-003;
2.422500000000000E+009;1.517241597175598E-001;-9.770944714546204E-002;-2.175403293222189E-003;-3.195306286215782E-003;
2.422666666666667E+009;1.511153131723404E-001;-9.761037677526474E-002;-2.265127142891288E-003;-3.128553042188287E-003;
2.422833333333334E+009;1.505059450864792E-001;-9.721137583255768E-002;-2.532309154048562E-003;-3.040701849386096E-003;
2.423000000000000E+009;1.496659219264984E-001;-9.691958129405975E-002;-2.661855425685644E-003;-3.172161756083369E-003;
2.423166666666667E+009;1.487700492143631E-001;-9.646988660097122E-002;-2.702031517401338E-003;-3.141748253256083E-003;
2.423333333333334E+009;1.478894352912903E-001;-9.596239775419235E-002;-2.841977868229151E-003;-3.146406495943666E-003;
2.423500000000000E+009;1.466832160949707E-001;-9.607826918363571E-002;-2.936192788183689E-003;-3.068899502977729E-003;
2.423666666666667E+009;1.454631686210632E-001;-9.570109099149704E-002;-3.099906258285046E-003;-2.943065715953708E-003;
2.423833333333334E+009;1.442310363054276E-001;-9.544613212347031E-002;-3.374309744685888E-003;-2.883593551814556E-003;
2.424000000000000E+009;1.428649872541428E-001;-9.507480263710022E-002;-3.482531290501356E-003;-2.775861881673336E-003;
2.424166666666667E+009;1.414326429367065E-001;-9.518662095069885E-002;-3.509321715682745E-003;-2.627894980832934E-003;
2.424333333333334E+009;1.401528716087341E-001;-9.490770101547241E-002;-3.711378201842308E-003;-2.567571587860584E-003;
2.424500000000000E+009;1.386551558971405E-001;-9.501244872808456E-002;-3.980358596891165E-003;-2.378705190494657E-003;
2.424666666666667E+009;1.372627913951874E-001;-9.487221390008926E-002;-3.932692576199770E-003;-2.160491188988090E-003;
2.424833333333334E+009;1.356678158044815E-001;-9.521769732236862E-002;-4.149626009166241E-003;-1.797314500436187E-003;
2.425000000000000E+009;1.342717409133911E-001;-9.568387269973755E-002;-4.063318949192762E-003;-1.832385547459126E-003;
2.425166666666667E+009;1.325029879808426E-001;-9.599670767784119E-002;-4.166115075349808E-003;-1.383471302688122E-003;
2.425333333333334E+009;1.311782449483872E-001;-9.651802480220795E-002;-4.132885020226240E-003;-1.420937827788293E-003;
2.425500000000000E+009;1.296378374099731E-001;-9.729833155870438E-002;-4.109272733330727E-003;-1.119003165513277E-003;
2.425666666666667E+009;1.281154900789261E-001;-9.806931018829346E-002;-4.247878678143024E-003;-9.347720188088715E-004;
2.425833333333334E+009;1.268088668584824E-001;-9.890991449356079E-002;-4.133787471801043E-003;-6.566593074239790E-004;
2.426000000000000E+009;1.253171265125275E-001;-1.001055613160133E-001;-4.099197220057249E-003;-4.988307482562959E-004;
2.426166666666667E+009;1.242005303502083E-001;-1.011094674468041E-001;-4.019220825284720E-003;-4.709728236775845E-004;
2.426333333333334E+009;1.226624399423599E-001;-1.023385077714920E-001;-3.757746191695333E-003;-2.173949178541079E-004;
2.426500000000000E+009;1.215977445244789E-001;-1.035810858011246E-001;-3.834662958979607E-003;-1.257957628695294E-004;
2.426666666666667E+009;1.205010786652565E-001;-1.050462573766708E-001;-3.573223017156124E-003;-5.678727393387817E-005;
2.426833333333334E+009;1.191606596112251E-001;-1.065001934766769E-001;-3.599218092858791E-003;1.495920005254448E-004;
2.427000000000000E+009;1.181687191128731E-001;-1.082299575209618E-001;-3.548813052475452E-003;1.827922096708790E-004;
2.427166666666667E+009;1.172299608588219E-001;-1.096877604722977E-001;-3.273462411016226E-003;2.345536922803149E-004;
2.427333333333334E+009;1.162978187203407E-001;-1.114540398120880E-001;-3.350905142724514E-003;2.071525232167915E-004;
2.427500000000000E+009;1.155417934060097E-001;-1.131506189703941E-001;-3.178806276991963E-003;2.532383659854531E-004;
2.427666666666667E+009;1.147991195321083E-001;-1.150866225361824E-001;-3.072342369705439E-003;4.130556189920753E-004;
