# Version 1.00
#
freq[Hz];re:Trc1_S11;im:Trc1_S11;re:Trc2_S21;im:Trc2_S21;
2.400000000000000E+009;1.687771230936050E-001;4.674607142806053E-002;-3.081337781623006E-004;4.195145331323147E-003;
2.400166666666667E+009;1.696487218141556E-001;4.589115455746651E-002;-2.785887045320123E-004;4.104341845959425E-003;
2.400333333333334E+009;1.706748306751251E-001;4.476314783096314E-002;-2.318533370271325E-004;3.994036000221968E-003;
2.400500000000000E+009;1.714680790901184E-001;4.375168308615685E-002;-3.071584214922041E-004;3.882932243868709E-003;
2.400666666666667E+009;1.723435223102570E-001;4.287170618772507E-002;-2.138917916454375E-004;3.744440851733089E-003;
2.400833333333334E+009;1.729943752288818E-001;4.212105646729469E-002;-2.142544981325045E-004;3.755004843696952E-003;
2.401000000000000E+009;1.739926189184189E-001;4.127371311187744E-002;-1.570160675328225E-004;3.415087470784783E-003;
2.401166666666667E+009;1.745867729187012E-001;4.061293974518776E-002;-3.569728578440845E-004;3.532903501763940E-003;
2.401333333333334E+009;1.752658337354660E-001;3.959472104907036E-002;-2.740844502113760E-004;3.354942891746759E-003;
2.401500000000000E+009;1.759796738624573E-001;3.920501098036766E-002;-2.568115887697786E-004;3.332440741360188E-003;
2.401666666666667E+009;1.765240430831909E-001;3.855588287115097E-002;-3.560934856068343E-004;3.393426071852446E-003;
2.401833333333334E+009;1.771211326122284E-001;3.796916082501411E-002;-4.260966961737722E-004;3.417966188862920E-003;
2.402000000000000E+009;1.775823682546616E-001;3.729921206831932E-002;-2.380236692260951E-004;3.479327075183392E-003;
2.402166666666667E+009;1.779625415802002E-001;3.657956421375275E-002;-4.356566932983697E-004;3.406748641282320E-003;
2.402333333333334E+009;1.780669689178467E-001;3.608373552560806E-002;-5.274330032989383E-004;3.586653154343367E-003;
2.402500000000000E+009;1.787288337945938E-001;3.552522137761116E-002;-4.667323082685471E-004;3.567984793335199E-003;
2.402666666666667E+009;1.788440495729446E-001;3.471635282039642E-002;-6.220273207873106E-004;3.785116132348776E-003;
2.402833333333334E+009;1.789267361164093E-001;3.403410688042641E-002;-7.492600125260651E-004;3.899810137227178E-003;
2.403000000000000E+009;1.790559887886047E-001;3.333435207605362E-002;-6.773261120542884E-004;3.934864886105061E-003;
2.403166666666667E+009;1.790761351585388E-001;3.255474194884300E-002;-7.861478952690959E-004;4.118665587157011E-003;
2.403333333333334E+009;1.789736300706863E-001;3.176822140812874E-002;-6.568483659066260E-004;4.452406428754330E-003;
2.403500000000000E+009;1.787579357624054E-001;3.079685941338539E-002;-7.249430054798722E-004;4.574234597384930E-003;
2.403666666666667E+009;1.785524785518646E-001;2.965926937758923E-002;-5.948100588284433E-004;4.969267640262842E-003;
2.403833333333334E+009;1.783637851476669E-001;2.868639305233955E-002;-3.717254148796201E-004;5.121613387018442E-003;
2.404000000000000E+009;1.779709756374359E-001;2.759269252419472E-002;-3.775390796363354E-004;5.372368730604649E-003;
2.404166666666667E+009;1.775206327438355E-001;2.624004147946835E-002;-2.590705116745085E-004;5.739495158195496E-003;
2.404333333333334E+009;1.771220713853836E-001;2.494288980960846E-002;-1.168113158200868E-004;5.916168447583914E-003;
2.404500000000000E+009;1.765996962785721E-001;2.361227758228779E-002;4.705396713688970E-004;6.166790612041950E-003;
2.404666666666667E+009;1.762509196996689E-001;2.223264425992966E-002;6.079272134229541E-004;6.499753799289465E-003;
2.404833333333334E+009;1.757965981960297E-001;2.074044197797775E-002;1.083614886738360E-003;6.567351985722780E-003;
2.405000000000000E+009;1.752477884292603E-001;1.919443160295487E-002;1.455349032767117E-003;6.743661593645811E-003;
2.405166666666667E+009;1.750090867280960E-001;1.751403696835041E-002;1.843646983616054E-003;6.869305856525898E-003;
2.405333333333334E+009;1.746392995119095E-001;1.590454205870628E-002;2.338415244594216E-003;6.780600640922785E-003;
2.405500000000000E+009;1.741880178451538E-001;1.427748240530491E-002;2.631980692967773E-003;6.768194958567619E-003;
2.405666666666667E+009;1.738487631082535E-001;1.236670091748238E-002;3.103528637439013E-003;6.744809448719025E-003;
2.405833333333334E+009;1.734529286623001E-001;1.063791383057833E-002;3.535441821441054E-003;6.711375433951616E-003;
2.406000000000000E+009;1.732568144798279E-001;8.623889647424221E-003;4.302488174289465E-003;6.684407591819763E-003;
2.406166666666667E+009;1.728552728891373E-001;6.844711024314165E-003;4.499128088355064E-003;6.629751063883305E-003;
2.406333333333334E+009;1.730124801397324E-001;4.873028025031090E-003;4.976336844265461E-003;6.203079596161842E-003;
2.406500000000000E+009;1.727580875158310E-001;2.811330370604992E-003;5.361583083868027E-003;6.023526191711426E-003;
2.406666666666667E+009;1.725180298089981E-001;8.374176686629653E-004;5.710084456950426E-003;5.719641689211130E-003;
2.406833333333334E+009;1.727981865406036E-001;-1.312465406954289E-003;6.107130553573370E-003;5.366481374949217E-003;
2.407000000000000E+009;1.729069501161575E-001;-3.350333776324987E-003;6.394112482666969E-003;5.073762033134699E-003;
2.407166666666667E+009;1.730808168649674E-001;-5.270371679216623E-003;6.687386427074671E-003;4.680902697145939E-003;
2.407333333333334E+009;1.732432544231415E-001;-7.547442335635424E-003;7.014612667262554E-003;4.286213777959347E-003;
2.407500000000000E+009;1.735506504774094E-001;-9.590530768036842E-003;7.237262558192015E-003;4.063078202307224E-003;
2.407666666666667E+009;1.738104969263077E-001;-1.147922873497009E-002;7.471266668289900E-003;3.609616076573730E-003;
2.407833333333334E+009;1.739963591098785E-001;-1.376977283507586E-002;7.641059812158346E-003;3.164104185998440E-003;
2.408000000000000E+009;1.745047271251679E-001;-1.569039747118950E-002;7.699328474700451E-003;2.705596387386322E-003;
2.408166666666667E+009;1.747820228338242E-001;-1.762866042554379E-002;7.717147003859282E-003;2.215152140706778E-003;
2.408333333333334E+009;1.754032373428345E-001;-1.948398351669312E-002;7.826377637684345E-003;1.687544398009777E-003;
2.408500000000000E+009;1.757280230522156E-001;-2.142983488738537E-002;7.954160682857037E-003;1.264668186195195E-003;
2.408666666666667E+009;1.762066185474396E-001;-2.326912991702557E-002;7.833299227058888E-003;8.590325596742332E-004;
2.408833333333334E+009;1.764813512563705E-001;-2.490315027534962E-002;7.923041470348835E-003;4.631898482330144E-004;
2.409000000000000E+009;1.768685132265091E-001;-2.654927410185337E-002;7.811454590409994E-003;-1.294129833695479E-005;
2.409166666666667E+009;1.772828549146652E-001;-2.812336385250092E-002;7.754709571599960E-003;-4.379231831990182E-004;
2.409333333333334E+009;1.779021024703980E-001;-2.958996593952179E-002;7.488999981433153E-003;-7.512196316383779E-004;
2.409500000000000E+009;1.783287227153778E-001;-3.086101263761520E-002;7.243737112730742E-003;-8.516055531799793E-004;
2.409666666666667E+009;1.787237972021103E-001;-3.195752203464508E-002;7.329589221626520E-003;-1.482968102209270E-003;
2.409833333333334E+009;1.790982484817505E-001;-3.303264826536179E-002;6.897987332195044E-003;-1.813747338019311E-003;
2.410000000000000E+009;1.796826273202896E-001;-3.379724547266960E-002;6.855389568954706E-003;-1.932151964865625E-003;
2.410166666666667E+009;1.800884008407593E-001;-3.481419011950493E-002;6.524004507809877E-003;-2.162363613024354E-003;
2.410333333333334E+009;1.804716289043427E-001;-3.547061234712601E-002;6.579947657883167E-003;-2.464386401697993E-003;
2.410500000000000E+009;1.809890717267990E-001;-3.621287271380425E-002;6.254107691347599E-003;-2.791748614981771E-003;
2.410666666666667E+009;1.813139319419861E-001;-3.702008351683617E-002;6.019012536853552E-003;-2.803535200655460E-003;
2.410833333333334E+009;1.816355288028717E-001;-3.742839023470879E-002;5.851256661117077E-003;-3.155855927616358E-003;
2.411000000000000E+009;1.820071637630463E-001;-3.811270743608475E-002;5.676930304616690E-003;-3.181355772539973E-003;
2.411166666666667E+009;1.820575445890427E-001;-3.855798020958901E-002;5.410376470535994E-003;-3.510142909362912E-003;
2.411333333333334E+009;1.822628527879715E-001;-3.897546231746674E-002;5.316795315593481E-003;-3.695076098665595E-003;
2.411500000000000E+009;1.823167800903320E-001;-3.961139544844627E-002;5.040263291448355E-003;-3.821756457909942E-003;
2.411666666666667E+009;1.823870986700058E-001;-4.002431780099869E-002;4.897826351225376E-003;-3.896555397659540E-003;
2.411833333333334E+009;1.822208166122437E-001;-4.016290977597237E-002;4.489243030548096E-003;-4.184228368103504E-003;
2.412000000000000E+009;1.820407956838608E-001;-4.068343341350555E-002;4.323126282542944E-003;-4.261079244315624E-003;
2.412166666666667E+009;1.816199868917465E-001;-4.118454828858376E-002;4.140298813581467E-003;-4.361073020845652E-003;
2.412333333333334E+009;1.813744455575943E-001;-4.133333265781403E-002;3.931988496333361E-003;-4.289322998374701E-003;
2.412500000000000E+009;1.806329637765884E-001;-4.173588752746582E-002;3.753962693735957E-003;-4.419709090143442E-003;
2.412666666666667E+009;1.802423298358917E-001;-4.222710803151131E-002;3.443757304921746E-003;-4.740810487419367E-003;
2.412833333333334E+009;1.794853955507278E-001;-4.266409948468208E-002;3.171860706061125E-003;-4.661647137254477E-003;
2.413000000000000E+009;1.787758618593216E-001;-4.297775775194168E-002;3.034146269783378E-003;-4.617922473698854E-003;
2.413166666666667E+009;1.778034567832947E-001;-4.327451437711716E-002;2.921506296843290E-003;-4.827111959457398E-003;
2.413333333333334E+009;1.768305450677872E-001;-4.408251494169235E-002;2.608964918181300E-003;-4.758957773447037E-003;
2.413500000000000E+009;1.758579462766647E-001;-4.426184669137001E-002;2.431889763101935E-003;-4.814718849956989E-003;
2.413666666666667E+009;1.748812347650528E-001;-4.516347125172615E-002;2.208362566307187E-003;-4.782315809279680E-003;
2.413833333333334E+009;1.736145019531250E-001;-4.562537744641304E-002;1.842268393374980E-003;-4.813739098608494E-003;
2.414000000000000E+009;1.723545640707016E-001;-4.645016789436340E-002;1.706674811430275E-003;-4.836906213313341E-003;
2.414166666666667E+009;1.712282001972199E-001;-4.706077277660370E-002;1.544359955005348E-003;-4.732684232294560E-003;
2.414333333333334E+009;1.701596677303314E-001;-4.792743176221848E-002;1.174830948002636E-003;-4.674651194363833E-003;
2.414500000000000E+009;1.690557003021240E-001;-4.884184896945953E-002;1.018407172523439E-003;-4.588081501424313E-003;
2.414666666666667E+009;1.678049713373184E-001;-4.976631700992584E-002;8.208836661651731E-004;-4.674665629863739E-003;
2.414833333333334E+009;1.664211750030518E-001;-5.095435678958893E-002;5.627493956126273E-004;-4.455275833606720E-003;
2.415000000000000E+009;1.652743220329285E-001;-5.206408351659775E-002;4.857613821513951E-004;-4.519525915384293E-003;
2.415166666666667E+009;1.639371961355209E-001;-5.334781855344772E-002;3.501512692309916E-004;-4.303180146962404E-003;
2.415333333333334E+009;1.628360301256180E-001;-5.479254946112633E-002;3.514942072797567E-004;-4.098454024642706E-003;
2.415500000000000E+009;1.616961658000946E-001;-5.621565505862236E-002;2.459721581544727E-004;-4.110053181648254E-003;
2.415666666666667E+009;1.605860292911530E-001;-5.763397365808487E-002;-2.713983703870326E-004;-3.988385200500488E-003;
2.415833333333334E+009;1.596210598945618E-001;-5.929173901677132E-002;4.927290865452960E-005;-3.790766466408968E-003;
2.416000000000000E+009;1.584942787885666E-001;-6.105328351259232E-002;-1.855811569839716E-004;-3.765291301533580E-003;
2.416166666666667E+009;1.575896143913269E-001;-6.288538128137589E-002;-2.353370800847188E-004;-3.531392663717270E-003;
2.416333333333334E+009;1.565170437097549E-001;-6.448720395565033E-002;-3.409222408663482E-004;-3.526763059198856E-003;
2.416500000000000E+009;1.555622220039368E-001;-6.650494039058685E-002;-1.175073048216291E-004;-3.289342392235994E-003;
2.416666666666667E+009;1.547213196754456E-001;-6.833542138338089E-002;-2.528859768062830E-004;-3.328938968479633E-003;
2.416833333333334E+009;1.540439128875732E-001;-7.037667185068131E-002;-2.506941091269255E-004;-3.167033893987536E-003;
2.417000000000000E+009;1.531899720430374E-001;-7.232163101434708E-002;-2.402628015261143E-004;-3.037527203559876E-003;
2.417166666666667E+009;1.525803059339523E-001;-7.416916638612747E-002;-2.464420686010271E-004;-2.878675702959299E-003;
2.417333333333334E+009;1.520522981882095E-001;-7.610598951578140E-002;-7.349326187977567E-005;-2.877060556784272E-003;
2.417500000000000E+009;1.515606790781021E-001;-7.818165421485901E-002;-3.156695674988441E-005;-2.877409337088466E-003;
2.417666666666667E+009;1.511361151933670E-001;-8.000221103429794E-002;-7.343869219766930E-005;-2.728863153606653E-003;
2.417833333333334E+009;1.507056355476379E-001;-8.183059096336365E-002;1.030017228913494E-004;-2.764591714367271E-003;
2.418000000000000E+009;1.503122299909592E-001;-8.367652446031570E-002;1.183516869787127E-004;-2.859730971977115E-003;
2.418166666666667E+009;1.500623971223831E-001;-8.536244928836823E-002;7.501956861233339E-005;-3.044367302209139E-003;
2.418333333333334E+009;1.502273976802826E-001;-8.710227161645889E-002;2.029450261034071E-004;-3.024598350748420E-003;
2.418500000000000E+009;1.498636305332184E-001;-8.863369375467300E-002;7.996060048753861E-006;-2.946501132100821E-003;
2.418666666666667E+009;1.498761624097824E-001;-9.012013673782349E-002;7.670229388168082E-005;-3.166050184518099E-003;
2.418833333333334E+009;1.498389691114426E-001;-9.149460494518280E-002;1.466987851017620E-005;-3.371010767295957E-003;
2.419000000000000E+009;1.498535871505737E-001;-9.283917397260666E-002;4.317597267800011E-005;-3.219901584088802E-003;
2.419166666666667E+009;1.499518454074860E-001;-9.407414495944977E-002;-2.157139970222488E-004;-3.438681364059448E-003;
2.419333333333334E+009;1.499655693769455E-001;-9.502655267715454E-002;-1.696347899269313E-004;-3.471683245152235E-003;
2.419500000000000E+009;1.502342373132706E-001;-9.636475890874863E-002;-3.137603634968400E-004;-3.432328579947352E-003;
2.419666666666667E+009;1.504788398742676E-001;-9.715283662080765E-002;-3.440332948230207E-004;-3.643848700448871E-003;
2.419833333333334E+009;1.506265550851822E-001;-9.774377197027206E-002;-5.717664607800543E-004;-3.671212587505579E-003;
2.420000000000000E+009;1.508686542510986E-001;-9.849730879068375E-002;-7.837645825929940E-004;-3.633025800809264E-003;
2.420166666666667E+009;1.512258350849152E-001;-9.908571094274521E-002;-9.288545115850866E-004;-3.790060523897409E-003;
2.420333333333334E+009;1.515564620494843E-001;-9.947869926691055E-002;-1.101152389310300E-003;-3.863579826429486E-003;
2.420500000000000E+009;1.518308669328690E-001;-9.965444356203079E-002;-1.158046652562916E-003;-3.662412520498037E-003;
2.420666666666667E+009;1.518958508968353E-001;-9.970282763242722E-002;-1.200083410367370E-003;-3.638376249000430E-003;
2.420833333333334E+009;1.524419635534287E-001;-9.997981041669846E-002;-1.431759214028716E-003;-3.647145349532366E-003;
2.421000000000000E+009;1.524201482534409E-001;-1.000180765986443E-001;-1.466278918087483E-003;-3.543250029906631E-003;
2.421166666666667E+009;1.527667790651321E-001;-1.000376716256142E-001;-1.607409096322954E-003;-3.509534290060401E-003;
2.421333333333334E+009;1.529708057641983E-001;-9.992274641990662E-002;-1.768893562257290E-003;-3.346780547872186E-003;
2.421500000000000E+009;1.527861803770065E-001;-9.972187131643295E-002;-1.849178108386695E-003;-3.369909711182118E-003;
2.421666666666667E+009;1.531129628419876E-001;-9.958493709564209E-002;-1.988996285945177E-003;-3.144319634884596E-003;
2.421833333333334E+009;1.528181582689285E-001;-9.932199865579605E-002;-1.977302599698305E-003;-3.199902130290866E-003;
2.422000000000000E+009;1.527655422687531E-001;-9.910472482442856E-002;-2.005960093811154E-003;-3.096575150266290E-003;
2.422166666666667E+009;1.525166928768158E-001;-9.878804534673691E-002;-2.129307249560952E-003;-3.227661363780499E-003;
2.422333333333334E+009;1.521118432283402E-001;-9.845288097858429E-002;-2.257255604490638E-003;-3.097556065768004E-003;
2.422500000000000E+009;1.516157537698746E-001;-9.801346063613892E-002;-2.144368365406990E-003;-2.995889866724610E-003;
2.422666666666667E+009;1.510121822357178E-001;-9.773680567741394E-002;-2.504157833755016E-003;-3.014227142557502E-003;
2.422833333333334E+009;1.502404958009720E-001;-9.741379320621491E-002;-2.578055253252387E-003;-2.870385535061359E-003;
2.423000000000000E+009;1.494500786066055E-001;-9.704065322875977E-002;-2.658879617229104E-003;-3.096254775300622E-003;
2.423166666666667E+009;1.486544907093048E-001;-9.672401845455170E-002;-2.717034192755818E-003;-3.069551195949316E-003;
2.423333333333334E+009;1.475529074668884E-001;-9.632883220911026E-002;-2.837528707459569E-003;-2.901256084442139E-003;
2.423500000000000E+009;1.464323550462723E-001;-9.615855664014816E-002;-3.072346793487668E-003;-2.883105305954814E-003;
2.423666666666667E+009;1.452225893735886E-001;-9.569628536701202E-002;-3.290532389655709E-003;-2.826088806614280E-003;
2.423833333333334E+009;1.441375911235809E-001;-9.561150521039963E-002;-3.227443899959326E-003;-2.536524320021272E-003;
2.424000000000000E+009;1.426407396793366E-001;-9.511932730674744E-002;-3.425139468163252E-003;-2.565687056630850E-003;
2.424166666666667E+009;1.411422193050385E-001;-9.519303590059280E-002;-3.580779302865267E-003;-2.382780890911818E-003;
2.424333333333334E+009;1.399632394313812E-001;-9.496920555830002E-002;-3.712436184287071E-003;-2.260330133140087E-003;
2.424500000000000E+009;1.385205537080765E-001;-9.517930448055267E-002;-3.856553928926587E-003;-2.040157327428460E-003;
2.424666666666667E+009;1.371885538101196E-001;-9.490785747766495E-002;-3.991588950157166E-003;-1.936242566443980E-003;
2.424833333333334E+009;1.354342699050903E-001;-9.534260630607605E-002;-4.028775729238987E-003;-1.729956245981157E-003;
2.425000000000000E+009;1.339630782604218E-001;-9.564688801765442E-002;-4.123710561543703E-003;-1.585074234753847E-003;
2.425166666666667E+009;1.323137134313583E-001;-9.601373225450516E-002;-4.112441558390856E-003;-1.227512257173657E-003;
2.425333333333334E+009;1.310171633958817E-001;-9.662114828824997E-002;-4.091680515557528E-003;-1.120968605391681E-003;
2.425500000000000E+009;1.295683234930039E-001;-9.733478724956513E-002;-4.002260509878397E-003;-9.483894100412726E-004;
2.425666666666667E+009;1.279770880937576E-001;-9.799519926309586E-002;-4.044412169605494E-003;-6.911284290254116E-004;
2.425833333333334E+009;1.266414821147919E-001;-9.885474294424057E-002;-4.089443478733301E-003;-6.659027421846986E-004;
2.426000000000000E+009;1.250962018966675E-001;-1.000430062413216E-001;-3.820829326286912E-003;-6.094000418670476E-004;
2.426166666666667E+009;1.239828988909721E-001;-1.011243909597397E-001;-3.785144770517945E-003;-2.715525042731315E-004;
2.426333333333334E+009;1.225214302539825E-001;-1.023341417312622E-001;-3.703875001519918E-003;-1.526744890725240E-004;
2.426500000000000E+009;1.213732138276100E-001;-1.037097945809364E-001;-3.805324435234070E-003;-5.485352448886260E-005;
2.426666666666667E+009;1.202180385589600E-001;-1.049661487340927E-001;-3.586536506190896E-003;1.365656207781285E-004;
2.426833333333334E+009;1.191593706607819E-001;-1.064593940973282E-001;-3.424084745347500E-003;6.614751328015700E-005;
2.427000000000000E+009;1.180948093533516E-001;-1.081942617893219E-001;-3.549247980117798E-003;2.368386194575578E-004;
2.427166666666667E+009;1.171419173479080E-001;-1.096670329570770E-001;-3.219141857698560E-003;2.584360772743821E-004;
2.427333333333334E+009;1.161360517144203E-001;-1.114107966423035E-001;-3.105126554146409E-003;4.108862194698304E-004;
2.427500000000000E+009;1.156159788370132E-001;-1.129849180579186E-001;-3.179268212988973E-003;5.324859521351755E-004;
2.427666666666667E+009;1.147201806306839E-001;-1.149483844637871E-001;-2.959825331345201E-003;2.672298869583756E-004;
