# Version 1.00
#
freq[Hz];re:Trc1_S11;im:Trc1_S11;re:Trc2_S21;im:Trc2_S21;
2.400000000000000E+009;1.632907390594482E-001;5.165584385395050E-002;4.279580898582935E-003;4.836971871554852E-003;
2.400166666666667E+009;1.632763743400574E-001;5.003075674176216E-002;4.293375182896853E-003;4.804367665201426E-003;
2.400333333333334E+009;1.631352901458740E-001;4.841940850019455E-002;4.480182193219662E-003;4.703865386545658E-003;
2.400500000000000E+009;1.630685627460480E-001;4.660030081868172E-002;4.503950942307711E-003;4.371797665953636E-003;
2.400666666666667E+009;1.631158739328384E-001;4.453328251838684E-002;4.831717815250158E-003;4.376811906695366E-003;
2.400833333333334E+009;1.631927043199539E-001;4.297979176044464E-002;4.742606543004513E-003;4.281089175492525E-003;
2.401000000000000E+009;1.630819141864777E-001;4.090904816985130E-002;4.898429848253727E-003;4.251797217875719E-003;
2.401166666666667E+009;1.631571203470230E-001;3.909076377749443E-002;5.257745273411274E-003;4.070209804922342E-003;
2.401333333333334E+009;1.632716655731201E-001;3.708686679601669E-002;5.285573657602072E-003;3.933955915272236E-003;
2.401500000000000E+009;1.635055094957352E-001;3.494080901145935E-002;5.496273748576641E-003;3.812916576862335E-003;
2.401666666666667E+009;1.635849922895432E-001;3.332742303609848E-002;5.763847846537828E-003;3.548910841345787E-003;
2.401833333333334E+009;1.639173924922943E-001;3.128392994403839E-002;5.699499044567347E-003;3.437995212152600E-003;
2.402000000000000E+009;1.639907658100128E-001;2.942898124456406E-002;5.855058319866657E-003;3.241907106712461E-003;
2.402166666666667E+009;1.644363850355148E-001;2.755907364189625E-002;6.061587482690811E-003;3.112112870439887E-003;
2.402333333333334E+009;1.647205203771591E-001;2.564536035060883E-002;6.052029784768820E-003;2.834665821865201E-003;
2.402500000000000E+009;1.653294265270233E-001;2.409335225820541E-002;6.251365412026644E-003;2.644587075337768E-003;
2.402666666666667E+009;1.657424718141556E-001;2.230582572519779E-002;6.424110848456621E-003;2.643542597070336E-003;
2.402833333333334E+009;1.662878096103668E-001;2.051720023155212E-002;6.498065311461687E-003;2.140393946319819E-003;
2.403000000000000E+009;1.670249551534653E-001;1.893150620162487E-002;6.780539173632860E-003;2.024523448199034E-003;
2.403166666666667E+009;1.676872521638870E-001;1.726856268942356E-002;6.848403718322516E-003;1.832094858400524E-003;
2.403333333333334E+009;1.682541072368622E-001;1.587053388357163E-002;6.860812660306692E-003;1.592823886312544E-003;
2.403500000000000E+009;1.688190400600433E-001;1.448357291519642E-002;6.855806335806847E-003;1.262551872059703E-003;
2.403666666666667E+009;1.696449965238571E-001;1.288463827222586E-002;7.176555693149567E-003;8.422585087828338E-004;
2.403833333333334E+009;1.705245226621628E-001;1.157891191542149E-002;7.133584003895521E-003;6.711957394145429E-004;
2.404000000000000E+009;1.711622923612595E-001;1.028459891676903E-002;7.185320835560560E-003;3.097279695793986E-004;
2.404166666666667E+009;1.720088124275208E-001;8.957467973232269E-003;7.097242865711451E-003;7.354572153417394E-005;
2.404333333333334E+009;1.726808547973633E-001;8.059985004365444E-003;7.062427699565888E-003;-2.942777646239847E-004;
2.404500000000000E+009;1.733918190002441E-001;7.003843318670988E-003;7.181331980973482E-003;-4.994427436031401E-004;
2.404666666666667E+009;1.742036491632462E-001;6.122601218521595E-003;7.168116047978401E-003;-9.083111071959138E-004;
2.404833333333334E+009;1.747610867023468E-001;5.287374835461378E-003;7.033776026219130E-003;-1.185258268378675E-003;
2.405000000000000E+009;1.756639480590820E-001;4.451096057891846E-003;6.951264105737209E-003;-1.601193100214005E-003;
2.405166666666667E+009;1.761476248502731E-001;3.621084615588188E-003;6.884950213134289E-003;-1.831795321777463E-003;
2.405333333333334E+009;1.768584549427033E-001;2.890653209760785E-003;6.644485518336296E-003;-2.012668177485466E-003;
2.405500000000000E+009;1.776000410318375E-001;2.333896700292826E-003;6.502632517367601E-003;-2.353680320084095E-003;
2.405666666666667E+009;1.780131608247757E-001;1.835394417867065E-003;6.319291424006224E-003;-2.390172565355897E-003;
2.405833333333334E+009;1.783890277147293E-001;1.386508811265230E-003;6.248548626899719E-003;-2.897127298638225E-003;
2.406000000000000E+009;1.789139062166214E-001;8.000224479474127E-004;5.959545727819204E-003;-3.015185007825494E-003;
2.406166666666667E+009;1.792889088392258E-001;5.431493627838790E-004;6.056959275156260E-003;-3.264760831370950E-003;
2.406333333333334E+009;1.796973049640656E-001;1.198398967972025E-004;5.872268229722977E-003;-3.350391518324614E-003;
2.406500000000000E+009;1.798665672540665E-001;-1.841887424234301E-004;5.534694530069828E-003;-3.481340827420354E-003;
2.406666666666667E+009;1.799027919769287E-001;-5.188283394090831E-004;5.642090924084187E-003;-3.724553622305393E-003;
2.406833333333334E+009;1.800834685564041E-001;-9.341816185042262E-004;5.371029954403639E-003;-3.920312970876694E-003;
2.407000000000000E+009;1.802217662334442E-001;-1.253569265827537E-003;5.139549728482962E-003;-4.165616352111101E-003;
2.407166666666667E+009;1.803175657987595E-001;-1.532187452539802E-003;4.968979395925999E-003;-4.127066582441330E-003;
2.407333333333334E+009;1.801238059997559E-001;-2.090500434860587E-003;4.954350646585226E-003;-4.258390516042709E-003;
2.407500000000000E+009;1.800982803106308E-001;-2.405321458354592E-003;4.601595923304558E-003;-4.546261858195067E-003;
2.407666666666667E+009;1.798387020826340E-001;-2.947145141661167E-003;4.395842086523771E-003;-4.670879803597927E-003;
2.407833333333334E+009;1.794127821922302E-001;-3.521370701491833E-003;4.274746403098106E-003;-4.696122836321592E-003;
2.408000000000000E+009;1.791195273399353E-001;-3.971159458160400E-003;4.094578791409731E-003;-4.956959281116724E-003;
2.408166666666667E+009;1.787161529064179E-001;-4.622133448719978E-003;3.851007670164108E-003;-4.837176762521267E-003;
2.408333333333334E+009;1.784110367298126E-001;-5.324098281562328E-003;3.711375407874584E-003;-5.029218737035990E-003;
2.408500000000000E+009;1.777718663215637E-001;-5.857707932591438E-003;3.346111858263612E-003;-5.184304900467396E-003;
2.408666666666667E+009;1.772253960371018E-001;-6.881930865347385E-003;3.263471182435751E-003;-5.268608219921589E-003;
2.408833333333334E+009;1.765339970588684E-001;-7.613277062773705E-003;3.010653890669346E-003;-5.137276835739613E-003;
2.409000000000000E+009;1.758045852184296E-001;-8.628358133137226E-003;2.859124448150396E-003;-5.442718975245953E-003;
2.409166666666667E+009;1.751206368207932E-001;-9.676586836576462E-003;2.603266388177872E-003;-5.420729517936707E-003;
2.409333333333334E+009;1.747162044048309E-001;-1.081016287207604E-002;2.562873531132937E-003;-5.514182150363922E-003;
2.409500000000000E+009;1.739542633295059E-001;-1.209863834083080E-002;2.250694902613759E-003;-5.579113494604826E-003;
2.409666666666667E+009;1.730775982141495E-001;-1.325410977005959E-002;1.968749798834324E-003;-5.510869901627302E-003;
2.409833333333334E+009;1.724180430173874E-001;-1.446767523884773E-002;1.868750900030136E-003;-5.505390930920839E-003;
2.410000000000000E+009;1.718491613864899E-001;-1.584937423467636E-002;1.633876818232238E-003;-5.375107750296593E-003;
2.410166666666667E+009;1.711675077676773E-001;-1.733169145882130E-002;1.529247732833028E-003;-5.472420714795589E-003;
2.410333333333334E+009;1.703864634037018E-001;-1.889738254249096E-002;1.451120828278363E-003;-5.424692761152983E-003;
2.410500000000000E+009;1.699025332927704E-001;-2.050696685910225E-002;1.172663643956184E-003;-5.384776275604963E-003;
2.410666666666667E+009;1.692344695329666E-001;-2.230265364050865E-002;1.127995084971190E-003;-5.462778732180595E-003;
2.410833333333334E+009;1.688604801893234E-001;-2.381574548780918E-002;9.277004864998162E-004;-5.419002845883369E-003;
2.411000000000000E+009;1.683225333690643E-001;-2.560018561780453E-002;8.077856036834419E-004;-5.442657973617315E-003;
2.411166666666667E+009;1.678322255611420E-001;-2.763294614851475E-002;5.131860962137580E-004;-5.211311392486095E-003;
2.411333333333334E+009;1.673653423786163E-001;-2.926693111658096E-002;4.428493557497859E-004;-5.199770908802748E-003;
2.411500000000000E+009;1.670631170272827E-001;-3.140492737293243E-002;3.101252659689635E-004;-5.271695088595152E-003;
2.411666666666667E+009;1.668388396501541E-001;-3.315102308988571E-002;2.786904224194586E-004;-5.292045883834362E-003;
2.411833333333334E+009;1.667025536298752E-001;-3.505075722932816E-002;-3.080905662500300E-005;-5.163265857845545E-003;
2.412000000000000E+009;1.667574942111969E-001;-3.706581890583038E-002;-9.379069524584338E-005;-5.194828379899263E-003;
2.412166666666667E+009;1.663897186517716E-001;-3.890302777290344E-002;-2.006584982154891E-004;-5.138923879712820E-003;
2.412333333333334E+009;1.665745228528976E-001;-4.083649441599846E-002;-4.045135574415326E-004;-5.176226608455181E-003;
2.412500000000000E+009;1.665304899215698E-001;-4.258348047733307E-002;-5.731267738156021E-004;-5.136276129633188E-003;
2.412666666666667E+009;1.667946428060532E-001;-4.467780515551567E-002;-5.743834190070629E-004;-5.087451543658972E-003;
2.412833333333334E+009;1.667759716510773E-001;-4.646241664886475E-002;-7.598404190503061E-004;-4.932341631501913E-003;
2.413000000000000E+009;1.668229848146439E-001;-4.819738492369652E-002;-9.514281409792602E-004;-5.132265854626894E-003;
2.413166666666667E+009;1.671686470508575E-001;-5.021109804511070E-002;-1.057141111232340E-003;-4.965418484061956E-003;
2.413333333333334E+009;1.673813164234161E-001;-5.176239088177681E-002;-1.255004550330341E-003;-4.819048568606377E-003;
2.413500000000000E+009;1.678510606288910E-001;-5.338495969772339E-002;-1.421274966560304E-003;-4.865933209657669E-003;
2.413666666666667E+009;1.682709753513336E-001;-5.489405989646912E-002;-1.659305184148252E-003;-4.730645101517439E-003;
2.413833333333334E+009;1.684659570455551E-001;-5.645180493593216E-002;-1.707206596620381E-003;-4.671704024076462E-003;
2.414000000000000E+009;1.686854660511017E-001;-5.799029022455216E-002;-1.841165008954704E-003;-4.639761988073587E-003;
2.414166666666667E+009;1.691571921110153E-001;-5.933000892400742E-002;-1.949693658389151E-003;-4.709656350314617E-003;
2.414333333333334E+009;1.696494817733765E-001;-6.059821695089340E-002;-2.027303213253617E-003;-4.539966583251953E-003;
2.414500000000000E+009;1.703643798828125E-001;-6.166034564375877E-002;-2.049206988885999E-003;-4.423487931489945E-003;
2.414666666666667E+009;1.706383526325226E-001;-6.280640512704849E-002;-2.324548782780767E-003;-4.388048313558102E-003;
2.414833333333334E+009;1.709927916526794E-001;-6.385201215744019E-002;-2.399372402578592E-003;-4.330415744334459E-003;
2.415000000000000E+009;1.713614910840988E-001;-6.467787176370621E-002;-2.627598820254207E-003;-4.272552207112312E-003;
2.415166666666667E+009;1.717396080493927E-001;-6.564024090766907E-002;-2.600234933197498E-003;-4.193437751382589E-003;
2.415333333333334E+009;1.722588539123535E-001;-6.637797504663467E-002;-2.781444694846869E-003;-4.287981893867254E-003;
2.415500000000000E+009;1.724102348089218E-001;-6.694429367780685E-002;-3.060576040297747E-003;-3.899576608091593E-003;
2.415666666666667E+009;1.727482825517654E-001;-6.770601868629456E-002;-3.190725110471249E-003;-3.836504882201552E-003;
2.415833333333334E+009;1.729057282209396E-001;-6.816528737545013E-002;-3.260093508288264E-003;-3.888293635100126E-003;
2.416000000000000E+009;1.729411482810974E-001;-6.858184933662415E-002;-3.309456165879965E-003;-3.738898318260908E-003;
2.416166666666667E+009;1.732091307640076E-001;-6.901270151138306E-002;-3.394578583538532E-003;-3.589912783354521E-003;
2.416333333333334E+009;1.730798184871674E-001;-6.932263821363449E-002;-3.591015702113509E-003;-3.380913054570556E-003;
2.416500000000000E+009;1.730238348245621E-001;-6.977396458387375E-002;-3.689700039103627E-003;-3.280455479398370E-003;
2.416666666666667E+009;1.728550940752029E-001;-6.998207420110703E-002;-3.775184974074364E-003;-3.302884288132191E-003;
2.416833333333334E+009;1.728310137987137E-001;-7.037512212991715E-002;-3.883270546793938E-003;-3.096684115007520E-003;
2.417000000000000E+009;1.723251044750214E-001;-7.058274000883102E-002;-4.100410267710686E-003;-2.900836756452918E-003;
2.417166666666667E+009;1.719841510057449E-001;-7.071387022733688E-002;-4.026510287076235E-003;-2.757310401648283E-003;
2.417333333333334E+009;1.714928150177002E-001;-7.090935856103897E-002;-4.205311648547649E-003;-2.578672487288714E-003;
2.417500000000000E+009;1.710051298141480E-001;-7.122632116079330E-002;-4.401684273034334E-003;-2.395078307017684E-003;
2.417666666666667E+009;1.703964024782181E-001;-7.123409956693649E-002;-4.383156076073647E-003;-2.234305720776320E-003;
2.417833333333334E+009;1.695575267076492E-001;-7.146649807691574E-002;-4.316151142120361E-003;-2.206461504101753E-003;
2.418000000000000E+009;1.688417494297028E-001;-7.188382744789124E-002;-4.455395974218845E-003;-1.966344425454736E-003;
2.418166666666667E+009;1.677380204200745E-001;-7.199690490961075E-002;-4.605205729603767E-003;-1.710426295176148E-003;
2.418333333333334E+009;1.671942621469498E-001;-7.245603948831558E-002;-4.673386923968792E-003;-1.590028405189514E-003;
2.418500000000000E+009;1.661206483840942E-001;-7.267456501722336E-002;-4.504661541432142E-003;-1.323611708357930E-003;
2.418666666666667E+009;1.649641543626785E-001;-7.319105416536331E-002;-4.596602171659470E-003;-1.131372409872711E-003;
2.418833333333334E+009;1.638590991497040E-001;-7.366107404232025E-002;-4.616213496774435E-003;-8.926536538638175E-004;
2.419000000000000E+009;1.625958383083344E-001;-7.410244643688202E-002;-4.668427165597677E-003;-7.969072903506458E-004;
2.419166666666667E+009;1.615560948848724E-001;-7.472246140241623E-002;-4.714130889624357E-003;-7.786768837831914E-004;
2.419333333333334E+009;1.600576043128967E-001;-7.508616894483566E-002;-4.614667035639286E-003;-5.252198316156864E-004;
2.419500000000000E+009;1.591037362813950E-001;-7.605540007352829E-002;-4.648892208933830E-003;-2.494375803507865E-004;
2.419666666666667E+009;1.580312550067902E-001;-7.682667672634125E-002;-4.553335718810558E-003;-2.398282376816496E-004;
2.419833333333334E+009;1.566003113985062E-001;-7.759991288185120E-002;-4.428677260875702E-003;1.203217179863714E-004;
2.420000000000000E+009;1.554426401853561E-001;-7.846341282129288E-002;-4.535886924713850E-003;2.636261342559010E-004;
2.420166666666667E+009;1.542033702135086E-001;-7.942107319831848E-002;-4.318808205425739E-003;3.866886254400015E-004;
2.420333333333334E+009;1.530953049659729E-001;-8.066066354513168E-002;-4.324334673583508E-003;5.965039599686861E-004;
2.420500000000000E+009;1.520972251892090E-001;-8.151864260435104E-002;-4.119304008781910E-003;7.508543203584850E-004;
2.420666666666667E+009;1.508852392435074E-001;-8.262977004051209E-002;-4.147571045905352E-003;7.489236304536462E-004;
2.420833333333334E+009;1.498516052961350E-001;-8.413593471050263E-002;-4.061157349497080E-003;9.831883944571018E-004;
2.421000000000000E+009;1.490045934915543E-001;-8.552530407905579E-002;-3.851391142234206E-003;1.082564936950803E-003;
2.421166666666667E+009;1.480461210012436E-001;-8.692579716444016E-002;-3.679987508803606E-003;1.242079306393862E-003;
2.421333333333334E+009;1.471644043922424E-001;-8.858605474233627E-002;-3.530814545229077E-003;1.285741920582950E-003;
2.421500000000000E+009;1.463543921709061E-001;-8.998312801122665E-002;-3.529613604769111E-003;1.307581551373005E-003;
2.421666666666667E+009;1.457675844430924E-001;-9.144706279039383E-002;-3.340491792187095E-003;1.626345212571323E-003;
2.421833333333334E+009;1.452610641717911E-001;-9.312850981950760E-002;-3.300409065559506E-003;1.702076056972146E-003;
2.422000000000000E+009;1.446709930896759E-001;-9.469512850046158E-002;-3.104450879618526E-003;1.743214437738061E-003;
2.422166666666667E+009;1.441516727209091E-001;-9.667174518108368E-002;-3.003751393407583E-003;1.599374110810459E-003;
2.422333333333334E+009;1.438510268926621E-001;-9.813228994607925E-002;-2.795243402943015E-003;1.713638426735997E-003;
2.422500000000000E+009;1.435690522193909E-001;-9.985914826393127E-002;-2.678730059415102E-003;1.752832555212081E-003;
2.422666666666667E+009;1.432639956474304E-001;-1.016864106059074E-001;-2.680519595742226E-003;1.760330633260310E-003;
2.422833333333334E+009;1.431703716516495E-001;-1.034549847245216E-001;-2.405415521934629E-003;1.617914065718651E-003;
2.423000000000000E+009;1.430475264787674E-001;-1.050908043980598E-001;-2.287684939801693E-003;1.759717823006213E-003;
2.423166666666667E+009;1.431612819433212E-001;-1.070001944899559E-001;-2.226931974291802E-003;1.633022329770029E-003;
2.423333333333334E+009;1.433296799659729E-001;-1.084301322698593E-001;-1.987298484891653E-003;1.617547590285540E-003;
2.423500000000000E+009;1.434672623872757E-001;-1.100835949182510E-001;-1.993154874071479E-003;1.646904507651925E-003;
2.423666666666667E+009;1.435042321681976E-001;-1.117736026644707E-001;-1.845778548158705E-003;1.456890138797462E-003;
2.423833333333334E+009;1.438136845827103E-001;-1.133164316415787E-001;-1.860864809714258E-003;1.517772907391191E-003;
2.424000000000000E+009;1.439859867095947E-001;-1.145713552832604E-001;-1.628315541893244E-003;1.488466397859156E-003;
2.424166666666667E+009;1.442287713289261E-001;-1.161453127861023E-001;-1.806892920285463E-003;1.436543767340481E-003;
2.424333333333334E+009;1.445993334054947E-001;-1.172449737787247E-001;-1.700184540823102E-003;1.347778714261949E-003;
2.424500000000000E+009;1.450391560792923E-001;-1.186187714338303E-001;-1.713676028884947E-003;1.272526336833835E-003;
2.424666666666667E+009;1.453214734792709E-001;-1.195188090205193E-001;-1.617406611330807E-003;1.159185427241027E-003;
2.424833333333334E+009;1.455961465835571E-001;-1.207306236028671E-001;-1.702109584584832E-003;1.165717141702771E-003;
2.425000000000000E+009;1.461574286222458E-001;-1.217476502060890E-001;-1.607533660717309E-003;1.144406967796385E-003;
2.425166666666667E+009;1.462478637695313E-001;-1.226779147982597E-001;-1.729747629724443E-003;1.125758863054216E-003;
2.425333333333334E+009;1.467862427234650E-001;-1.233375519514084E-001;-1.855715876445174E-003;1.058013876900077E-003;
2.425500000000000E+009;1.470406353473663E-001;-1.241200864315033E-001;-1.867646351456642E-003;1.077343942597508E-003;
2.425666666666667E+009;1.473059356212616E-001;-1.248056665062904E-001;-1.800331985577941E-003;1.281322678551078E-003;
2.425833333333334E+009;1.474673449993134E-001;-1.254317760467529E-001;-1.756863668560982E-003;1.260132994502783E-003;
2.426000000000000E+009;1.476802825927734E-001;-1.259106844663620E-001;-1.905208919197321E-003;1.131677418015897E-003;
2.426166666666667E+009;1.478982716798782E-001;-1.264437735080719E-001;-1.886134152300656E-003;1.221977989189327E-003;
2.426333333333334E+009;1.479034870862961E-001;-1.267258673906326E-001;-1.921678893268108E-003;1.259987475350499E-003;
2.426500000000000E+009;1.480159759521484E-001;-1.269111782312393E-001;-1.938921865075827E-003;1.336916116997600E-003;
2.426666666666667E+009;1.479813605546951E-001;-1.269184350967407E-001;-1.864427467808127E-003;1.313887769356370E-003;
2.426833333333334E+009;1.478596329689026E-001;-1.271873563528061E-001;-2.095386385917664E-003;1.349971280433238E-003;
2.427000000000000E+009;1.474887579679489E-001;-1.274172663688660E-001;-2.030469011515379E-003;1.433485653251410E-003;
2.427166666666667E+009;1.472201347351074E-001;-1.272800117731094E-001;-2.012948272749782E-003;1.419592066667974E-003;
2.427333333333334E+009;1.467823535203934E-001;-1.273245662450790E-001;-2.038769656792283E-003;1.662375871092081E-003;
2.427500000000000E+009;1.464336067438126E-001;-1.273498237133026E-001;-2.047981368377805E-003;1.712709083221853E-003;
2.427666666666667E+009;1.457510888576508E-001;-1.273180842399597E-001;-1.974359387531877E-003;1.791426562704146E-003;
