# Version 1.00
#
freq[Hz];re:Trc1_S11;im:Trc1_S11;re:Trc2_S21;im:Trc2_S21;
2.400000000000000E+009;1.632509678602219E-001;5.178608372807503E-002;4.381976090371609E-003;4.842938389629126E-003;
2.400166666666667E+009;1.631888151168823E-001;5.024394020438194E-002;4.403256811201572E-003;4.677321296185255E-003;
2.400333333333334E+009;1.629654616117477E-001;4.833504185080528E-002;4.532180260866880E-003;4.509381018579006E-003;
2.400500000000000E+009;1.630160361528397E-001;4.679038748145104E-002;4.636663943529129E-003;4.472417756915093E-003;
2.400666666666667E+009;1.629195660352707E-001;4.487905278801918E-002;4.793777130544186E-003;4.382282961159945E-003;
2.400833333333334E+009;1.631343364715576E-001;4.315867274999619E-002;4.907024092972279E-003;4.340179730206728E-003;
2.401000000000000E+009;1.630862057209015E-001;4.102291911840439E-002;5.020737182348967E-003;4.101417027413845E-003;
2.401166666666667E+009;1.631427705287933E-001;3.915791586041451E-002;5.134194623678923E-003;4.176605958491564E-003;
2.401333333333334E+009;1.630709767341614E-001;3.725298866629601E-002;5.395616404712200E-003;3.878226736560464E-003;
2.401500000000000E+009;1.634473800659180E-001;3.524064272642136E-002;5.518916994333267E-003;3.751792944967747E-003;
2.401666666666667E+009;1.636605709791184E-001;3.331418707966805E-002;5.508642643690109E-003;3.537231124937534E-003;
2.401833333333334E+009;1.638600528240204E-001;3.144664689898491E-002;5.720285233110189E-003;3.537633223459125E-003;
2.402000000000000E+009;1.640410423278809E-001;2.955392934381962E-002;5.958109162747860E-003;3.336058696731925E-003;
2.402166666666667E+009;1.643591225147247E-001;2.744373120367527E-002;5.991935729980469E-003;3.090830519795418E-003;
2.402333333333334E+009;1.648010909557343E-001;2.574378624558449E-002;6.295907311141491E-003;2.954989904537797E-003;
2.402500000000000E+009;1.655957102775574E-001;2.386774122714996E-002;6.260350346565247E-003;2.674346091225743E-003;
2.402666666666667E+009;1.659293621778488E-001;2.215783856809139E-002;6.495495326817036E-003;2.388473134487867E-003;
2.402833333333334E+009;1.664520353078842E-001;2.043150551617146E-002;6.663710344582796E-003;2.312717959284782E-003;
2.403000000000000E+009;1.670481115579605E-001;1.897401735186577E-002;6.738741882145405E-003;1.855559530667961E-003;
2.403166666666667E+009;1.677682995796204E-001;1.731295511126518E-002;6.910656578838825E-003;1.713142730295658E-003;
2.403333333333334E+009;1.684036850929260E-001;1.589050516486168E-002;6.813326850533485E-003;1.457666628994048E-003;
2.403500000000000E+009;1.689301729202271E-001;1.432775799185038E-002;6.959629710763693E-003;1.259283046238124E-003;
2.403666666666667E+009;1.697750538587570E-001;1.285684015601873E-002;6.924208719283342E-003;1.012923778034747E-003;
2.403833333333334E+009;1.705716550350189E-001;1.143204793334007E-002;6.964966654777527E-003;7.101660012267530E-004;
2.404000000000000E+009;1.713407635688782E-001;1.032757386565208E-002;7.279723417013884E-003;3.615216119214892E-004;
2.404166666666667E+009;1.720294803380966E-001;9.048064239323139E-003;7.222367916256189E-003;1.135122511186637E-005;
2.404333333333334E+009;1.728630065917969E-001;7.981540635228157E-003;7.140658795833588E-003;-2.179583534598351E-004;
2.404500000000000E+009;1.734213531017304E-001;7.059190887957811E-003;7.263998966664076E-003;-4.528590070549399E-004;
2.404666666666667E+009;1.741848587989807E-001;5.964039824903011E-003;6.868899334222078E-003;-8.547394536435604E-004;
2.404833333333334E+009;1.749810874462128E-001;5.081707146018744E-003;7.136616855859757E-003;-1.195807126350701E-003;
2.405000000000000E+009;1.755832880735397E-001;4.291568417102099E-003;6.727029103785753E-003;-1.539309392683208E-003;
2.405166666666667E+009;1.762630790472031E-001;3.604713361710310E-003;6.833531428128481E-003;-1.734574791043997E-003;
2.405333333333334E+009;1.769973337650299E-001;2.653787378221750E-003;6.625062786042690E-003;-2.102858154103160E-003;
2.405500000000000E+009;1.775706708431244E-001;2.244895556941629E-003;6.492698565125465E-003;-2.359518315643072E-003;
2.405666666666667E+009;1.779993325471878E-001;1.713249250315130E-003;6.460445467382669E-003;-2.549347002059221E-003;
2.405833333333334E+009;1.784527152776718E-001;1.351645798422396E-003;6.387581117451191E-003;-2.768863458186388E-003;
2.406000000000000E+009;1.790367364883423E-001;7.563842227682471E-004;6.121460348367691E-003;-2.852322068065405E-003;
2.406166666666667E+009;1.793266534805298E-001;4.386125365272164E-004;5.896149203181267E-003;-3.142186906188726E-003;
2.406333333333334E+009;1.796658486127853E-001;1.032733416650444E-004;5.766883958131075E-003;-3.366548568010330E-003;
2.406500000000000E+009;1.799128353595734E-001;-3.418772248551250E-004;5.614873953163624E-003;-3.455882426351309E-003;
2.406666666666667E+009;1.798497885465622E-001;-6.490678060799837E-004;5.289840046316385E-003;-3.648837795481086E-003;
2.406833333333334E+009;1.800848692655563E-001;-1.082004164345563E-003;5.195335019379854E-003;-3.827809588983655E-003;
2.407000000000000E+009;1.802448183298111E-001;-1.400004606693983E-003;5.121243651956320E-003;-4.018787760287523E-003;
2.407166666666667E+009;1.802653074264526E-001;-1.694674254395068E-003;4.920457024127245E-003;-4.208325874060392E-003;
2.407333333333334E+009;1.800858527421951E-001;-2.228797879070044E-003;4.850021563470364E-003;-4.275400191545487E-003;
2.407500000000000E+009;1.799196153879166E-001;-2.560249529778957E-003;4.600997548550367E-003;-4.370588809251785E-003;
2.407666666666667E+009;1.797379404306412E-001;-2.943834755569696E-003;4.349335096776485E-003;-4.696179181337357E-003;
2.407833333333334E+009;1.792870461940765E-001;-3.548795590177178E-003;4.207661375403404E-003;-4.714084323495626E-003;
2.408000000000000E+009;1.790375560522080E-001;-4.070714581757784E-003;4.016656428575516E-003;-4.905198700726032E-003;
2.408166666666667E+009;1.785417199134827E-001;-4.589611198753119E-003;3.910029307007790E-003;-4.890514537692070E-003;
2.408333333333334E+009;1.782861649990082E-001;-5.219291429966688E-003;3.716404549777508E-003;-4.866889677941799E-003;
2.408500000000000E+009;1.776123195886612E-001;-6.071419455111027E-003;3.487325506284833E-003;-4.953020252287388E-003;
2.408666666666667E+009;1.771487742662430E-001;-6.882294081151485E-003;3.255443647503853E-003;-5.179013591259718E-003;
2.408833333333334E+009;1.762986183166504E-001;-7.742554415017366E-003;3.031443106010556E-003;-5.143529269844294E-003;
2.409000000000000E+009;1.756641566753388E-001;-8.658270351588726E-003;2.872569253668189E-003;-5.202331580221653E-003;
2.409166666666667E+009;1.751277893781662E-001;-9.666292928159237E-003;2.566462382674217E-003;-5.405934061855078E-003;
2.409333333333334E+009;1.745276898145676E-001;-1.091559603810310E-002;2.532433252781630E-003;-5.303036421537399E-003;
2.409500000000000E+009;1.738014668226242E-001;-1.205947902053595E-002;2.287607174366713E-003;-5.306215956807137E-003;
2.409666666666667E+009;1.728801727294922E-001;-1.321151573210955E-002;2.066198037937284E-003;-5.444090347737074E-003;
2.409833333333334E+009;1.722702831029892E-001;-1.451950892806053E-002;1.779613550752401E-003;-5.315152928233147E-003;
2.410000000000000E+009;1.717443168163300E-001;-1.595322974026203E-002;1.725992071442306E-003;-5.341466516256332E-003;
2.410166666666667E+009;1.710889041423798E-001;-1.727662980556488E-002;1.595191541127861E-003;-5.365197546780109E-003;
2.410333333333334E+009;1.703055053949356E-001;-1.890733838081360E-002;1.285115606151521E-003;-5.429867189377546E-003;
2.410500000000000E+009;1.697937548160553E-001;-2.034958451986313E-002;1.087868353351951E-003;-5.261730868369341E-003;
2.410666666666667E+009;1.691030412912369E-001;-2.222760207951069E-002;1.038829563185573E-003;-5.377870984375477E-003;
2.410833333333334E+009;1.686261147260666E-001;-2.365652844309807E-002;9.157494641840458E-004;-5.287832114845514E-003;
2.411000000000000E+009;1.682112663984299E-001;-2.546805702149868E-002;8.488507592119277E-004;-5.295751150697470E-003;
2.411166666666667E+009;1.676498204469681E-001;-2.733322419226170E-002;5.868660518899560E-004;-5.291434004902840E-003;
2.411333333333334E+009;1.674331724643707E-001;-2.919425256550312E-002;4.705153987742961E-004;-5.317424423992634E-003;
2.411500000000000E+009;1.669016629457474E-001;-3.113015368580818E-002;4.022481734864414E-004;-5.230249371379614E-003;
2.411666666666667E+009;1.667896807193756E-001;-3.302051872014999E-002;2.694583381526172E-004;-5.176454316824675E-003;
2.411833333333334E+009;1.666453182697296E-001;-3.484655544161797E-002;-1.704891110421158E-005;-5.343235097825527E-003;
2.412000000000000E+009;1.666491776704788E-001;-3.694449737668037E-002;-9.883609891403467E-005;-5.279909819364548E-003;
2.412166666666667E+009;1.662712246179581E-001;-3.878149390220642E-002;-2.508539473637939E-004;-5.080477334558964E-003;
2.412333333333334E+009;1.665347516536713E-001;-4.064700752496719E-002;-4.493385786190629E-004;-5.156687460839748E-003;
2.412500000000000E+009;1.662727892398834E-001;-4.255845397710800E-002;-6.285519339144230E-004;-5.150944460183382E-003;
2.412666666666667E+009;1.666544824838638E-001;-4.462652280926704E-002;-6.211617728695273E-004;-5.083834752440453E-003;
2.412833333333334E+009;1.668827682733536E-001;-4.627152159810066E-002;-6.460900185629726E-004;-5.015728063881397E-003;
2.413000000000000E+009;1.669666469097138E-001;-4.817495867609978E-002;-1.043392228893936E-003;-4.938763566315174E-003;
2.413166666666667E+009;1.670777648687363E-001;-4.986545443534851E-002;-1.201480627059937E-003;-4.846112802624703E-003;
2.413333333333334E+009;1.672977954149246E-001;-5.163016915321350E-002;-1.190478680655360E-003;-4.843398928642273E-003;
2.413500000000000E+009;1.678041219711304E-001;-5.327514931559563E-002;-1.337312511168420E-003;-4.850876983255148E-003;
2.413666666666667E+009;1.681947708129883E-001;-5.493687093257904E-002;-1.446634880267084E-003;-4.756550770252943E-003;
2.413833333333334E+009;1.683877110481262E-001;-5.638083070516586E-002;-1.597525668330491E-003;-4.683447536081076E-003;
2.414000000000000E+009;1.686080545186997E-001;-5.777696520090103E-002;-1.841812278144062E-003;-4.634808283299208E-003;
2.414166666666667E+009;1.692035943269730E-001;-5.913333967328072E-002;-1.826697145588696E-003;-4.773130174726248E-003;
2.414333333333334E+009;1.696192026138306E-001;-6.044749915599823E-002;-2.041146624833345E-003;-4.471534397453070E-003;
2.414500000000000E+009;1.702692657709122E-001;-6.162410601973534E-002;-2.267997479066253E-003;-4.439534153789282E-003;
2.414666666666667E+009;1.706180870532990E-001;-6.261619180440903E-002;-2.240176778286696E-003;-4.207476042211056E-003;
2.414833333333334E+009;1.710284054279327E-001;-6.369989365339279E-002;-2.421948593109846E-003;-4.262608010321856E-003;
2.415000000000000E+009;1.714986562728882E-001;-6.450795382261276E-002;-2.294859383255243E-003;-4.300822503864765E-003;
2.415166666666667E+009;1.717047393321991E-001;-6.556127220392227E-002;-2.746234880760312E-003;-4.221146926283836E-003;
2.415333333333334E+009;1.721518784761429E-001;-6.616522371768951E-002;-2.761142561212182E-003;-4.073646850883961E-003;
2.415500000000000E+009;1.724305301904678E-001;-6.687799096107483E-002;-3.060423536226153E-003;-3.889773041009903E-003;
2.415666666666667E+009;1.727078258991242E-001;-6.742526590824127E-002;-3.087128279730678E-003;-3.854964161291719E-003;
2.415833333333334E+009;1.729567945003510E-001;-6.799154728651047E-002;-3.194877412170172E-003;-3.687895368784666E-003;
2.416000000000000E+009;1.730230897665024E-001;-6.842778623104096E-002;-3.297900082543492E-003;-3.555779345333576E-003;
2.416166666666667E+009;1.732520312070847E-001;-6.882781535387039E-002;-3.439787309616804E-003;-3.496446181088686E-003;
2.416333333333334E+009;1.731436997652054E-001;-6.923192739486694E-002;-3.432277357205749E-003;-3.426208859309554E-003;
2.416500000000000E+009;1.731290519237518E-001;-6.975635886192322E-002;-3.683089511469007E-003;-3.472202923148871E-003;
2.416666666666667E+009;1.729106903076172E-001;-6.981622427701950E-002;-3.698710119351745E-003;-3.184639615938067E-003;
2.416833333333334E+009;1.727367341518402E-001;-7.025272399187088E-002;-3.904536832123995E-003;-3.076397581025958E-003;
2.417000000000000E+009;1.723677814006805E-001;-7.037550210952759E-002;-3.973004408180714E-003;-2.867675153538585E-003;
2.417166666666667E+009;1.721153855323792E-001;-7.055663317441940E-002;-4.144423175603151E-003;-2.623861888423562E-003;
2.417333333333334E+009;1.716060638427734E-001;-7.071021944284439E-002;-4.136062692850828E-003;-2.607177011668682E-003;
2.417500000000000E+009;1.708769649267197E-001;-7.120718061923981E-002;-4.241702146828175E-003;-2.377252560108900E-003;
2.417666666666667E+009;1.704857945442200E-001;-7.122695446014404E-002;-4.361503757536411E-003;-2.309222007170320E-003;
2.417833333333334E+009;1.697736680507660E-001;-7.143812626600266E-002;-4.448730498552322E-003;-2.078887308016419E-003;
2.418000000000000E+009;1.687672883272171E-001;-7.183571904897690E-002;-4.543265327811241E-003;-1.897439011372626E-003;
2.418166666666667E+009;1.679682135581970E-001;-7.197709381580353E-002;-4.484476055949926E-003;-1.645773183554411E-003;
2.418333333333334E+009;1.672950834035873E-001;-7.234387099742889E-002;-4.515673033893108E-003;-1.608954509720206E-003;
2.418500000000000E+009;1.660401076078415E-001;-7.269585132598877E-002;-4.581885412335396E-003;-1.387917203828692E-003;
2.418666666666667E+009;1.651434898376465E-001;-7.307745516300201E-002;-4.535682499408722E-003;-1.165259047411382E-003;
2.418833333333334E+009;1.638577282428742E-001;-7.359269261360169E-002;-4.532574210315943E-003;-1.116609899327159E-003;
2.419000000000000E+009;1.627534478902817E-001;-7.402934879064560E-002;-4.551722668111324E-003;-8.418497745878995E-004;
2.419166666666667E+009;1.616683602333069E-001;-7.470282167196274E-002;-4.525977652519941E-003;-5.959523259662092E-004;
2.419333333333334E+009;1.603161692619324E-001;-7.511893659830093E-002;-4.595276433974505E-003;-3.082631737925112E-004;
2.419500000000000E+009;1.590393781661987E-001;-7.611426711082459E-002;-4.614875651896000E-003;-2.465049328748137E-004;
2.419666666666667E+009;1.578756570816040E-001;-7.675012201070786E-002;-4.532098770141602E-003;-4.736274786409922E-005;
2.419833333333334E+009;1.566748172044754E-001;-7.756018638610840E-002;-4.551418591290712E-003;1.806786531233229E-005;
2.420000000000000E+009;1.554402858018875E-001;-7.845279574394226E-002;-4.523275420069695E-003;1.721540611470118E-004;
2.420166666666667E+009;1.541250795125961E-001;-7.962700724601746E-002;-4.286483861505985E-003;4.309682408347726E-004;
2.420333333333334E+009;1.532950401306152E-001;-8.062874525785446E-002;-4.267581738531590E-003;4.905932000838220E-004;
2.420500000000000E+009;1.521302312612534E-001;-8.164510130882263E-002;-4.195699002593756E-003;7.409239187836647E-004;
2.420666666666667E+009;1.509643495082855E-001;-8.285085856914520E-002;-4.045521374791861E-003;6.695120246149600E-004;
2.420833333333334E+009;1.499519050121307E-001;-8.422993868589401E-002;-3.891803091391921E-003;8.551673381589353E-004;
2.421000000000000E+009;1.489196568727493E-001;-8.563365042209625E-002;-3.878030460327864E-003;1.174538978375495E-003;
2.421166666666667E+009;1.480725705623627E-001;-8.700219541788101E-002;-3.752275137230754E-003;1.364086172543466E-003;
2.421333333333334E+009;1.472380310297012E-001;-8.853647112846375E-002;-3.581105731427670E-003;1.174427801743150E-003;
2.421500000000000E+009;1.462645828723908E-001;-9.016478061676025E-002;-3.487094072625041E-003;1.428385963663459E-003;
2.421666666666667E+009;1.457821279764175E-001;-9.169602394104004E-002;-3.374216379597783E-003;1.594144268892705E-003;
2.421833333333334E+009;1.452601850032806E-001;-9.318072348833084E-002;-3.220615908503532E-003;1.577599323354662E-003;
2.422000000000000E+009;1.445101797580719E-001;-9.494461864233017E-002;-2.948643174022436E-003;1.538902753964067E-003;
2.422166666666667E+009;1.440945267677307E-001;-9.668006002902985E-002;-2.946424297988415E-003;1.670969533734024E-003;
2.422333333333334E+009;1.438018828630447E-001;-9.815996140241623E-002;-2.878777217119932E-003;1.668482669629157E-003;
2.422500000000000E+009;1.434056609869003E-001;-9.984765201807022E-002;-2.658364828675985E-003;1.744852052070200E-003;
2.422666666666667E+009;1.430768519639969E-001;-1.016579642891884E-001;-2.558968495577574E-003;1.811549416743219E-003;
2.422833333333334E+009;1.430511176586151E-001;-1.034257113933563E-001;-2.474559936672449E-003;1.792614697478712E-003;
2.423000000000000E+009;1.430567800998688E-001;-1.051079630851746E-001;-2.332045929506421E-003;1.816786359995604E-003;
2.423166666666667E+009;1.429838985204697E-001;-1.068086475133896E-001;-2.056303666904569E-003;1.614289241842926E-003;
2.423333333333334E+009;1.432755142450333E-001;-1.083428636193276E-001;-2.007527044042945E-003;1.684519695118070E-003;
2.423500000000000E+009;1.432864516973496E-001;-1.100984662771225E-001;-2.058381680399180E-003;1.648553297854960E-003;
2.423666666666667E+009;1.433350592851639E-001;-1.117690205574036E-001;-1.904174801893532E-003;1.688811811618507E-003;
2.423833333333334E+009;1.437184959650040E-001;-1.132199540734291E-001;-1.905560842715204E-003;1.472137053497136E-003;
2.424000000000000E+009;1.438444703817368E-001;-1.143693178892136E-001;-1.740915002301335E-003;1.344701973721385E-003;
2.424166666666667E+009;1.441134661436081E-001;-1.158953607082367E-001;-1.784299383871257E-003;1.519047305919230E-003;
2.424333333333334E+009;1.445657163858414E-001;-1.172313690185547E-001;-1.707668881863356E-003;1.328022801317275E-003;
2.424500000000000E+009;1.448940932750702E-001;-1.185357719659805E-001;-1.680318615399301E-003;1.344103249721229E-003;
2.424666666666667E+009;1.454482078552246E-001;-1.194896697998047E-001;-1.606174511834979E-003;1.325833145529032E-003;
2.424833333333334E+009;1.455483287572861E-001;-1.205778643488884E-001;-1.583734410814941E-003;1.278982264921069E-003;
2.425000000000000E+009;1.460611522197723E-001;-1.216655224561691E-001;-1.803272054530680E-003;1.249177963472903E-003;
2.425166666666667E+009;1.461929827928543E-001;-1.225522309541702E-001;-1.865291269496083E-003;1.202159677632153E-003;
2.425333333333334E+009;1.465906649827957E-001;-1.233444139361382E-001;-1.810760702937841E-003;1.186454668641090E-003;
2.425500000000000E+009;1.469949334859848E-001;-1.241903603076935E-001;-1.787584275007248E-003;1.118012820370495E-003;
2.425666666666667E+009;1.472084224224091E-001;-1.247000470757484E-001;-1.801789621822536E-003;1.267789513804019E-003;
2.425833333333334E+009;1.473590582609177E-001;-1.253762543201447E-001;-1.890505780465901E-003;1.222935738041997E-003;
2.426000000000000E+009;1.476691365242004E-001;-1.258948296308518E-001;-1.908955047838390E-003;1.250658184289932E-003;
2.426166666666667E+009;1.479604691267014E-001;-1.263142675161362E-001;-1.901171286590397E-003;1.172504737041891E-003;
2.426333333333334E+009;1.479648500680924E-001;-1.265615224838257E-001;-1.795604010112584E-003;1.327470294199884E-003;
2.426500000000000E+009;1.478981673717499E-001;-1.267947107553482E-001;-1.845717546530068E-003;1.349835074506700E-003;
2.426666666666667E+009;1.479968726634979E-001;-1.268800050020218E-001;-1.981702400371432E-003;1.413283753208816E-003;
2.426833333333334E+009;1.478286534547806E-001;-1.270900964736939E-001;-2.009518677368760E-003;1.392748672515154E-003;
2.427000000000000E+009;1.475083976984024E-001;-1.272265613079071E-001;-2.023960696533322E-003;1.434605102986097E-003;
2.427166666666667E+009;1.472261101007462E-001;-1.271923035383225E-001;-1.978844869881868E-003;1.525726635009050E-003;
2.427333333333334E+009;1.467109471559525E-001;-1.272314935922623E-001;-1.979894004762173E-003;1.565949642099440E-003;
2.427500000000000E+009;1.463764160871506E-001;-1.271964311599731E-001;-1.959726214408875E-003;1.682804548181593E-003;
2.427666666666667E+009;1.457775086164475E-001;-1.272085309028626E-001;-2.006153110414743E-003;1.790002919733524E-003;
