# Version 1.00
#
freq[Hz];re:Trc1_S11;im:Trc1_S11;re:Trc2_S21;im:Trc2_S21;
2.400000000000000E+009;1.633865237236023E-001;5.166232585906982E-002;4.256337415426970E-003;4.878420382738113E-003;
2.400166666666667E+009;1.632307171821594E-001;5.021359026432037E-002;4.443348851054907E-003;4.817926790565252E-003;
2.400333333333334E+009;1.631761342287064E-001;4.845007136464119E-002;4.450658801943064E-003;4.708094988018274E-003;
2.400500000000000E+009;1.632224321365356E-001;4.659824818372726E-002;4.679479636251926E-003;4.393134266138077E-003;
2.400666666666667E+009;1.630121022462845E-001;4.483416676521301E-002;4.748981446027756E-003;4.452761728316546E-003;
2.400833333333334E+009;1.632448434829712E-001;4.299059137701988E-002;4.956238903105259E-003;4.221935756504536E-003;
2.401000000000000E+009;1.632483452558518E-001;4.101846367120743E-002;5.015995353460312E-003;4.251297563314438E-003;
2.401166666666667E+009;1.631630212068558E-001;3.901902213692665E-002;5.147712770849466E-003;4.162610974162817E-003;
2.401333333333334E+009;1.632517725229263E-001;3.708974272012711E-002;5.300861317664385E-003;3.917194902896881E-003;
2.401500000000000E+009;1.634939461946487E-001;3.516822680830956E-002;5.566323641687632E-003;3.756116842851043E-003;
2.401666666666667E+009;1.637701243162155E-001;3.321501612663269E-002;5.722052417695522E-003;3.467814298346639E-003;
2.401833333333334E+009;1.639922112226486E-001;3.142544999718666E-002;5.775580648332834E-003;3.451390424743295E-003;
2.402000000000000E+009;1.641265600919724E-001;2.952425554394722E-002;5.998763721436262E-003;3.379247849807143E-003;
2.402166666666667E+009;1.644938439130783E-001;2.754064835608006E-002;5.943940486758947E-003;3.044169396162033E-003;
2.402333333333334E+009;1.648521870374680E-001;2.571746706962585E-002;6.179165560752153E-003;2.786687109619379E-003;
2.402500000000000E+009;1.654413491487503E-001;2.396282739937306E-002;6.389481481164694E-003;2.667995635420084E-003;
2.402666666666667E+009;1.658177822828293E-001;2.210948802530766E-002;6.611969321966171E-003;2.453837543725967E-003;
2.402833333333334E+009;1.666952967643738E-001;2.048662863671780E-002;6.623560562729836E-003;2.094794530421495E-003;
2.403000000000000E+009;1.671741455793381E-001;1.898247562348843E-002;6.694777403026819E-003;2.040980616584420E-003;
2.403166666666667E+009;1.676782667636871E-001;1.720159314572811E-002;6.783290766179562E-003;1.672435435466468E-003;
2.403333333333334E+009;1.683548241853714E-001;1.574719883501530E-002;6.969713140279055E-003;1.450997544452548E-003;
2.403500000000000E+009;1.691122502088547E-001;1.424583233892918E-002;6.989767774939537E-003;1.157742226496339E-003;
2.403666666666667E+009;1.698986589908600E-001;1.270370837301016E-002;7.081356365233660E-003;8.088266476988792E-004;
2.403833333333334E+009;1.706824600696564E-001;1.157070510089397E-002;7.039591204375029E-003;5.570894572883844E-004;
2.404000000000000E+009;1.714330911636353E-001;1.034019980579615E-002;7.151465397328138E-003;2.428980078548193E-004;
2.404166666666667E+009;1.719872206449509E-001;9.195687249302864E-003;7.103433832526207E-003;-3.396156171220355E-005;
2.404333333333334E+009;1.728225350379944E-001;7.966008968651295E-003;7.059075403958559E-003;-4.026204405818135E-004;
2.404500000000000E+009;1.734784394502640E-001;6.842223461717367E-003;7.129372563213110E-003;-6.256849155761302E-004;
2.404666666666667E+009;1.742125749588013E-001;6.006700452417135E-003;7.104398217052221E-003;-9.271004237234592E-004;
2.404833333333334E+009;1.749415844678879E-001;5.189151503145695E-003;7.036431226879358E-003;-1.111341640353203E-003;
2.405000000000000E+009;1.756538897752762E-001;4.192257300019264E-003;6.859473884105682E-003;-1.476687262766063E-003;
2.405166666666667E+009;1.763036251068115E-001;3.512214869260788E-003;6.800008472055197E-003;-1.962826820090413E-003;
2.405333333333334E+009;1.770714074373245E-001;2.816895022988319E-003;6.694286596029997E-003;-2.020446350798011E-003;
2.405500000000000E+009;1.775982528924942E-001;2.230943879112601E-003;6.554543506354094E-003;-2.355593955144286E-003;
2.405666666666667E+009;1.781025677919388E-001;1.739723491482437E-003;6.389501038938761E-003;-2.692162292078137E-003;
2.405833333333334E+009;1.784924864768982E-001;1.234513008967042E-003;6.164493504911661E-003;-2.777420915663242E-003;
2.406000000000000E+009;1.790127009153366E-001;7.378773880191147E-004;5.984581541270018E-003;-3.091881517320871E-003;
2.406166666666667E+009;1.793741434812546E-001;4.018575709778816E-004;5.944084841758013E-003;-3.384677693247795E-003;
2.406333333333334E+009;1.796874254941940E-001;1.727832750475500E-005;5.782357417047024E-003;-3.481406252831221E-003;
2.406500000000000E+009;1.799345314502716E-001;-4.547857970464975E-004;5.653215572237968E-003;-3.520928788930178E-003;
2.406666666666667E+009;1.799688488245010E-001;-6.576871383003891E-004;5.566764622926712E-003;-3.770874347537756E-003;
2.406833333333334E+009;1.801463812589645E-001;-1.112245721742511E-003;5.224288441240788E-003;-3.961144480854273E-003;
2.407000000000000E+009;1.802549958229065E-001;-1.474312972277403E-003;5.186601541936398E-003;-4.165520425885916E-003;
2.407166666666667E+009;1.804511100053787E-001;-1.784349093213677E-003;5.105594638735056E-003;-4.272925201803446E-003;
2.407333333333334E+009;1.802012622356415E-001;-2.257134532555938E-003;4.857544321566820E-003;-4.436155315488577E-003;
2.407500000000000E+009;1.800560951232910E-001;-2.684147097170353E-003;4.655165132135153E-003;-4.620858002454042E-003;
2.407666666666667E+009;1.799287497997284E-001;-3.034678753465414E-003;4.368293099105358E-003;-4.717108327895403E-003;
2.407833333333334E+009;1.793224960565567E-001;-3.736689919605851E-003;4.196583759039640E-003;-4.803603049367666E-003;
2.408000000000000E+009;1.789734959602356E-001;-4.255080129951239E-003;4.146848339587450E-003;-5.009996239095926E-003;
2.408166666666667E+009;1.787012368440628E-001;-4.738893825560808E-003;3.810440190136433E-003;-4.964025691151619E-003;
2.408333333333334E+009;1.783031225204468E-001;-5.314869340509176E-003;3.661348717287183E-003;-5.245436914265156E-003;
2.408500000000000E+009;1.777467876672745E-001;-6.116493139415979E-003;3.411045996472240E-003;-5.251850932836533E-003;
2.408666666666667E+009;1.771348267793655E-001;-6.968650501221418E-003;3.242062404751778E-003;-5.256392993032932E-003;
2.408833333333334E+009;1.763489842414856E-001;-7.875153794884682E-003;2.985654398798943E-003;-5.203929264098406E-003;
2.409000000000000E+009;1.755867004394531E-001;-8.816926740109921E-003;2.884436398744583E-003;-5.428811069577932E-003;
2.409166666666667E+009;1.751722097396851E-001;-9.657802060246468E-003;2.552106510847807E-003;-5.386472214013338E-003;
2.409333333333334E+009;1.745347529649735E-001;-1.081613823771477E-002;2.375665586441755E-003;-5.388112738728523E-003;
2.409500000000000E+009;1.737026572227478E-001;-1.222121343016625E-002;2.279230160638690E-003;-5.499376915395260E-003;
2.409666666666667E+009;1.731045395135880E-001;-1.317103020846844E-002;1.981820212677121E-003;-5.456831771880388E-003;
2.409833333333334E+009;1.721504628658295E-001;-1.454283855855465E-002;1.980589469894767E-003;-5.358267575502396E-003;
2.410000000000000E+009;1.716540455818176E-001;-1.585093885660172E-002;1.606269273906946E-003;-5.474470555782318E-003;
2.410166666666667E+009;1.709236949682236E-001;-1.731203123927116E-002;1.594847533851862E-003;-5.415888037532568E-003;
2.410333333333334E+009;1.703037470579147E-001;-1.894129440188408E-002;1.277191797271371E-003;-5.465228576213121E-003;
2.410500000000000E+009;1.697121113538742E-001;-2.057163417339325E-002;1.194366370327771E-003;-5.444262176752091E-003;
2.410666666666667E+009;1.690145581960678E-001;-2.231283113360405E-002;9.354957728646696E-004;-5.461910739541054E-003;
2.410833333333334E+009;1.687850952148438E-001;-2.377426996827126E-002;7.901185890659690E-004;-5.343898665159941E-003;
2.411000000000000E+009;1.680523753166199E-001;-2.577677182853222E-002;5.971661303192377E-004;-5.398405715823174E-003;
2.411166666666667E+009;1.677061915397644E-001;-2.737208455801010E-002;6.088960217311978E-004;-5.422397982329130E-003;
2.411333333333334E+009;1.673328280448914E-001;-2.936669066548348E-002;2.121186844306067E-004;-5.414026323705912E-003;
2.411500000000000E+009;1.669338941574097E-001;-3.125138953328133E-002;1.886436948552728E-004;-5.166564602404833E-003;
2.411666666666667E+009;1.667615920305252E-001;-3.308314830064774E-002;1.716664555715397E-004;-5.133406259119511E-003;
2.411833333333334E+009;1.666549891233444E-001;-3.487771376967430E-002;8.214522677008063E-005;-5.368371028453112E-003;
2.412000000000000E+009;1.665097177028656E-001;-3.692015632987022E-002;-2.393126924289390E-004;-5.168055649846792E-003;
2.412166666666667E+009;1.662492007017136E-001;-3.890229389071465E-002;-2.742167853284627E-004;-5.186849739402533E-003;
2.412333333333334E+009;1.664850413799286E-001;-4.058076441287994E-002;-4.668860929086804E-004;-5.210314877331257E-003;
2.412500000000000E+009;1.663650274276733E-001;-4.284767806529999E-002;-6.240810616873205E-004;-5.136022344231606E-003;
2.412666666666667E+009;1.665181815624237E-001;-4.464202001690865E-002;-7.986865239217877E-004;-4.986294545233250E-003;
2.412833333333334E+009;1.668327003717423E-001;-4.646125808358192E-002;-7.429280085489154E-004;-5.082587245851755E-003;
2.413000000000000E+009;1.667821705341339E-001;-4.820263758301735E-002;-1.095426036044955E-003;-5.063932389020920E-003;
2.413166666666667E+009;1.670917123556137E-001;-5.004408955574036E-002;-1.215789816342294E-003;-5.023281555622816E-003;
2.413333333333334E+009;1.674101054668427E-001;-5.175736919045448E-002;-1.296384842135012E-003;-4.915864206850529E-003;
2.413500000000000E+009;1.676818281412125E-001;-5.329861491918564E-002;-1.367200748063624E-003;-4.952090326696634E-003;
2.413666666666667E+009;1.681882739067078E-001;-5.487976223230362E-002;-1.524815219454467E-003;-4.854244180023670E-003;
2.413833333333334E+009;1.683689951896668E-001;-5.640075355768204E-002;-1.798361423425376E-003;-4.733210429549217E-003;
2.414000000000000E+009;1.687382459640503E-001;-5.785791203379631E-002;-1.760265091434121E-003;-4.743099678307772E-003;
2.414166666666667E+009;1.692609786987305E-001;-5.917142331600189E-002;-1.797602628357709E-003;-4.544521681964397E-003;
2.414333333333334E+009;1.697397530078888E-001;-6.036410853266716E-002;-1.973419915884733E-003;-4.589723423123360E-003;
2.414500000000000E+009;1.703192144632340E-001;-6.167154386639595E-002;-2.351739676669240E-003;-4.326976835727692E-003;
2.414666666666667E+009;1.705945581197739E-001;-6.273414939641953E-002;-2.410338493064046E-003;-4.357210360467434E-003;
2.414833333333334E+009;1.709472537040710E-001;-6.371777504682541E-002;-2.652142196893692E-003;-4.350516013801098E-003;
2.415000000000000E+009;1.713507175445557E-001;-6.461274623870850E-002;-2.644752850756049E-003;-4.193793982267380E-003;
2.415166666666667E+009;1.716402620077133E-001;-6.555310636758804E-002;-2.655327087268233E-003;-4.027351271361113E-003;
2.415333333333334E+009;1.721944212913513E-001;-6.630177050828934E-002;-2.955252770334482E-003;-4.136218223720789E-003;
2.415500000000000E+009;1.724111586809158E-001;-6.701876968145371E-002;-3.082032781094313E-003;-3.964295610785484E-003;
2.415666666666667E+009;1.725422441959381E-001;-6.757111102342606E-002;-3.150556934997439E-003;-3.956822212785482E-003;
2.415833333333334E+009;1.729305237531662E-001;-6.806290894746780E-002;-3.233564551919699E-003;-3.901872783899307E-003;
2.416000000000000E+009;1.730320304632187E-001;-6.863695383071899E-002;-3.378150053322315E-003;-3.735146019607782E-003;
2.416166666666667E+009;1.732798665761948E-001;-6.892500817775726E-002;-3.509141039103270E-003;-3.676369320601225E-003;
2.416333333333334E+009;1.731159985065460E-001;-6.936731934547424E-002;-3.663812996819615E-003;-3.451766446232796E-003;
2.416500000000000E+009;1.731208264827728E-001;-6.966565549373627E-002;-3.629587590694428E-003;-3.306912258267403E-003;
2.416666666666667E+009;1.730156689882278E-001;-6.991645693778992E-002;-3.955346532166004E-003;-3.096696455031633E-003;
2.416833333333334E+009;1.728354692459106E-001;-7.030759751796722E-002;-3.996594808995724E-003;-3.219593781977892E-003;
2.417000000000000E+009;1.724749654531479E-001;-7.046522945165634E-002;-4.106106236577034E-003;-3.001174889504910E-003;
2.417166666666667E+009;1.719857305288315E-001;-7.056987285614014E-002;-4.156662151217461E-003;-2.851825207471848E-003;
2.417333333333334E+009;1.715503782033920E-001;-7.083777338266373E-002;-4.279498942196369E-003;-2.561170142143965E-003;
2.417500000000000E+009;1.709524840116501E-001;-7.118852436542511E-002;-4.462251905351877E-003;-2.423051744699478E-003;
2.417666666666667E+009;1.704157739877701E-001;-7.128907740116119E-002;-4.333544056862593E-003;-2.215015469118953E-003;
2.417833333333334E+009;1.697044819593430E-001;-7.153263688087463E-002;-4.634192679077387E-003;-2.104201354086399E-003;
2.418000000000000E+009;1.688033044338226E-001;-7.195082306861877E-002;-4.563651978969574E-003;-1.844640821218491E-003;
2.418166666666667E+009;1.678320467472076E-001;-7.185362279415131E-002;-4.547887481749058E-003;-1.800302299670875E-003;
2.418333333333334E+009;1.671189516782761E-001;-7.241947203874588E-002;-4.700495395809412E-003;-1.612135907635093E-003;
2.418500000000000E+009;1.660729795694351E-001;-7.282259315252304E-002;-4.642897751182318E-003;-1.318642869591713E-003;
2.418666666666667E+009;1.651134043931961E-001;-7.315068691968918E-002;-4.653031472116709E-003;-1.089838682673872E-003;
2.418833333333334E+009;1.637336760759354E-001;-7.358080148696899E-002;-4.640747327357531E-003;-8.025606512092054E-004;
2.419000000000000E+009;1.626358479261398E-001;-7.401972264051437E-002;-4.697789438068867E-003;-7.705305470153689E-004;
2.419166666666667E+009;1.614154279232025E-001;-7.469060271978378E-002;-4.537038505077362E-003;-6.333176861517131E-004;
2.419333333333334E+009;1.602246314287186E-001;-7.511368393898010E-002;-4.681036341935396E-003;-4.587052389979363E-004;
2.419500000000000E+009;1.592813134193420E-001;-7.599340379238129E-002;-4.596432205289602E-003;-2.104409795720130E-004;
2.419666666666667E+009;1.579968184232712E-001;-7.669832557439804E-002;-4.513154737651348E-003;-1.903557131299749E-004;
2.419833333333334E+009;1.566641777753830E-001;-7.748797535896301E-002;-4.311312455683947E-003;1.206132583320141E-004;
2.420000000000000E+009;1.555017679929733E-001;-7.848282158374786E-002;-4.407904576510191E-003;1.671649079071358E-004;
2.420166666666667E+009;1.543134748935700E-001;-7.958211749792099E-002;-4.253425635397434E-003;4.742082674056292E-004;
2.420333333333334E+009;1.531613022089005E-001;-8.056073635816574E-002;-4.291440825909376E-003;5.773780867457390E-004;
2.420500000000000E+009;1.520076692104340E-001;-8.158200234174728E-002;-4.293873906135559E-003;8.156253024935722E-004;
2.420666666666667E+009;1.509280949831009E-001;-8.280418813228607E-002;-4.028087016195059E-003;9.146042284555733E-004;
2.420833333333334E+009;1.500099599361420E-001;-8.413101732730866E-002;-3.947140648961067E-003;1.111286808736622E-003;
2.421000000000000E+009;1.489158570766449E-001;-8.561836928129196E-002;-3.840377787128091E-003;1.181996660307050E-003;
2.421166666666667E+009;1.480355709791184E-001;-8.689304441213608E-002;-3.691852791234851E-003;1.166963484138250E-003;
2.421333333333334E+009;1.473301053047180E-001;-8.849753439426422E-002;-3.641583956778050E-003;1.469964394345880E-003;
2.421500000000000E+009;1.464157551527023E-001;-9.004759043455124E-002;-3.543235361576080E-003;1.552127767354250E-003;
2.421666666666667E+009;1.457866132259369E-001;-9.157884865999222E-002;-3.375690896064043E-003;1.582077937200666E-003;
2.421833333333334E+009;1.451561748981476E-001;-9.312323480844498E-002;-3.162176813930273E-003;1.678005442954600E-003;
2.422000000000000E+009;1.445704549551010E-001;-9.494180977344513E-002;-3.111790167167783E-003;1.721771899610758E-003;
2.422166666666667E+009;1.442886292934418E-001;-9.670615196228027E-002;-2.825124887749553E-003;1.665015588514507E-003;
2.422333333333334E+009;1.438535898923874E-001;-9.817479550838471E-002;-2.683926606550813E-003;1.689253724180162E-003;
2.422500000000000E+009;1.435524970293045E-001;-9.994852542877197E-002;-2.680087229236960E-003;1.820742036215961E-003;
2.422666666666667E+009;1.432741731405258E-001;-1.018166467547417E-001;-2.386204199865460E-003;1.885998412035406E-003;
2.422833333333334E+009;1.432217210531235E-001;-1.035714745521545E-001;-2.421209355816245E-003;1.909593702293932E-003;
2.423000000000000E+009;1.431645601987839E-001;-1.052867844700813E-001;-2.327003749087453E-003;1.792733441106975E-003;
2.423166666666667E+009;1.432320326566696E-001;-1.069901287555695E-001;-2.150845946744084E-003;1.786274951882660E-003;
2.423333333333334E+009;1.432837098836899E-001;-1.084057539701462E-001;-1.971499994397163E-003;1.884822733700275E-003;
2.423500000000000E+009;1.433245241641998E-001;-1.100222542881966E-001;-1.912760431878269E-003;1.722574234008789E-003;
2.423666666666667E+009;1.435085982084274E-001;-1.117968857288361E-001;-1.994727877900004E-003;1.575789297930896E-003;
2.423833333333334E+009;1.438107341527939E-001;-1.133795604109764E-001;-1.803795807063580E-003;1.615322777070105E-003;
2.424000000000000E+009;1.437870264053345E-001;-1.147217229008675E-001;-1.849276130087674E-003;1.633058418519795E-003;
2.424166666666667E+009;1.441457271575928E-001;-1.160300970077515E-001;-1.720189349725843E-003;1.399224507622421E-003;
2.424333333333334E+009;1.446452289819717E-001;-1.173229143023491E-001;-1.655256492085755E-003;1.439904561266303E-003;
2.424500000000000E+009;1.449857801198959E-001;-1.185878962278366E-001;-1.561070792376995E-003;1.398313324898481E-003;
2.424666666666667E+009;1.453519314527512E-001;-1.196475550532341E-001;-1.742281136102974E-003;1.265981700271368E-003;
2.424833333333334E+009;1.456697285175324E-001;-1.208717450499535E-001;-1.571219181641936E-003;1.304421224631369E-003;
2.425000000000000E+009;1.459786891937256E-001;-1.218322962522507E-001;-1.694304984994233E-003;1.267823390662670E-003;
2.425166666666667E+009;1.462188512086868E-001;-1.227197125554085E-001;-1.665218966081739E-003;1.192229101434350E-003;
2.425333333333334E+009;1.466969698667526E-001;-1.235743537545204E-001;-1.734492951072753E-003;1.204752014018595E-003;
2.425500000000000E+009;1.469950377941132E-001;-1.242433562874794E-001;-1.935621141456068E-003;1.328464946709573E-003;
2.425666666666667E+009;1.471450477838516E-001;-1.248952001333237E-001;-1.671038568019867E-003;1.257621217519045E-003;
2.425833333333334E+009;1.474039554595947E-001;-1.254304051399231E-001;-1.748849404975772E-003;1.238888944499195E-003;
2.426000000000000E+009;1.476319581270218E-001;-1.259893923997879E-001;-1.898323884233832E-003;1.285484177060425E-003;
2.426166666666667E+009;1.479778438806534E-001;-1.263813972473145E-001;-1.933234976604581E-003;1.167483162134886E-003;
2.426333333333334E+009;1.478130668401718E-001;-1.266956925392151E-001;-2.048225607722998E-003;1.335758832283318E-003;
2.426500000000000E+009;1.480237543582916E-001;-1.269007772207260E-001;-1.920821028761566E-003;1.269148546271026E-003;
2.426666666666667E+009;1.479873061180115E-001;-1.269038468599320E-001;-1.983321504667401E-003;1.471587456762791E-003;
2.426833333333334E+009;1.477569788694382E-001;-1.272118538618088E-001;-2.007154515013099E-003;1.297030132263899E-003;
2.427000000000000E+009;1.474664956331253E-001;-1.273578107357025E-001;-1.939168316312134E-003;1.457676291465759E-003;
2.427166666666667E+009;1.471709161996841E-001;-1.272552758455277E-001;-1.978177577257156E-003;1.663404749706388E-003;
2.427333333333334E+009;1.467292755842209E-001;-1.273718774318695E-001;-2.047991612926126E-003;1.633455976843834E-003;
2.427500000000000E+009;1.463770866394043E-001;-1.272917836904526E-001;-2.052566967904568E-003;1.779130776412785E-003;
2.427666666666667E+009;1.457296609878540E-001;-1.273071914911270E-001;-2.026938134804368E-003;1.761165331117809E-003;
