# Version 1.00
#
freq[Hz];re:Trc1_S11;im:Trc1_S11;re:Trc2_S21;im:Trc2_S21;
2.400000000000000E+009;1.560724675655365E-001;6.200434640049934E-002;-9.633980516809970E-005;2.833005972206593E-003;
2.400166666666667E+009;1.559358090162277E-001;6.024975329637528E-002;-6.114139250712469E-005;2.705791499465704E-003;
2.400333333333334E+009;1.558913290500641E-001;5.813866481184959E-002;1.881874195532873E-004;2.668345579877496E-003;
2.400500000000000E+009;1.560063809156418E-001;5.619031935930252E-002;1.379380992148072E-004;2.675860887393355E-003;
2.400666666666667E+009;1.561568230390549E-001;5.401252210140228E-002;3.335124347358942E-004;2.581618959084153E-003;
2.400833333333334E+009;1.563207507133484E-001;5.201246961951256E-002;5.075655644759536E-004;2.587017370387912E-003;
2.401000000000000E+009;1.564818173646927E-001;4.984058439731598E-002;6.082351901568472E-004;2.566754817962647E-003;
2.401166666666667E+009;1.569176465272903E-001;4.762696847319603E-002;6.431151414290071E-004;2.677381504327059E-003;
2.401333333333334E+009;1.571903228759766E-001;4.541531950235367E-002;7.086404948495328E-004;2.534406725317240E-003;
2.401500000000000E+009;1.577695757150650E-001;4.338654503226280E-002;7.990067824721336E-004;2.394719747826457E-003;
2.401666666666667E+009;1.580380648374558E-001;4.145879298448563E-002;9.083074401132762E-004;2.474430715665221E-003;
2.401833333333334E+009;1.586103737354279E-001;3.917155414819717E-002;8.985493914224207E-004;2.327804453670979E-003;
2.402000000000000E+009;1.592313498258591E-001;3.731608390808106E-002;1.146381488069892E-003;2.479713875800371E-003;
2.402166666666667E+009;1.598024964332581E-001;3.535554558038712E-002;1.155029516667128E-003;2.397257834672928E-003;
2.402333333333334E+009;1.607208847999573E-001;3.340952470898628E-002;1.295515918172896E-003;2.242108341306448E-003;
2.402500000000000E+009;1.615272462368012E-001;3.147812932729721E-002;1.347336918115616E-003;2.191740320995450E-003;
2.402666666666667E+009;1.623657494783402E-001;2.979982644319534E-002;1.518615288659930E-003;2.153080422431231E-003;
2.402833333333334E+009;1.632916033267975E-001;2.834535390138626E-002;1.416199957020581E-003;2.061558188870549E-003;
2.403000000000000E+009;1.643850654363632E-001;2.668888494372368E-002;1.541609060950577E-003;2.067084889858961E-003;
2.403166666666667E+009;1.652717143297195E-001;2.509995549917221E-002;1.775480108335614E-003;2.036151476204395E-003;
2.403333333333334E+009;1.661931276321411E-001;2.396017126739025E-002;1.766602275893092E-003;1.916207140311599E-003;
2.403500000000000E+009;1.673404872417450E-001;2.260344848036766E-002;1.800767262466252E-003;1.782066887244582E-003;
2.403666666666667E+009;1.683110892772675E-001;2.117681317031384E-002;1.747050322592259E-003;1.779880258254707E-003;
2.403833333333334E+009;1.696617901325226E-001;2.013141289353371E-002;1.918419846333563E-003;1.622637850232422E-003;
2.404000000000000E+009;1.705212891101837E-001;1.908714696764946E-002;1.703029498457909E-003;1.455636695027351E-003;
2.404166666666667E+009;1.715605258941650E-001;1.794915460050106E-002;1.943595940247178E-003;1.463068882003427E-003;
2.404333333333334E+009;1.727051287889481E-001;1.735529862344265E-002;2.100110519677401E-003;1.545095467008650E-003;
2.404500000000000E+009;1.734692007303238E-001;1.633975282311440E-002;1.955620944499970E-003;1.259416807442904E-003;
2.404666666666667E+009;1.745662987232208E-001;1.590290479362011E-002;1.915924716740847E-003;1.227952772751451E-003;
2.404833333333334E+009;1.754271686077118E-001;1.509768702089787E-002;1.984320115298033E-003;1.174638979136944E-003;
2.405000000000000E+009;1.765331178903580E-001;1.453333813697100E-002;2.095903269946575E-003;1.081664930097759E-003;
2.405166666666667E+009;1.772267818450928E-001;1.410814002156258E-002;2.004935638979077E-003;9.854374220594764E-004;
2.405333333333334E+009;1.781060397624970E-001;1.339350268244743E-002;2.092964015901089E-003;8.914566133171320E-004;
2.405500000000000E+009;1.786536574363709E-001;1.312778983265162E-002;1.965391682460904E-003;8.360691717825830E-004;
2.405666666666667E+009;1.794598400592804E-001;1.290416624397039E-002;2.125342376530170E-003;5.737844039686024E-004;
2.405833333333334E+009;1.796659827232361E-001;1.283589750528336E-002;2.152762375771999E-003;7.680208655074239E-004;
2.406000000000000E+009;1.803571134805679E-001;1.233118865638971E-002;2.087340457364917E-003;6.107086082920432E-004;
2.406166666666667E+009;1.806953549385071E-001;1.211628038436174E-002;2.166137099266052E-003;4.495217872317880E-004;
2.406333333333334E+009;1.812064200639725E-001;1.200637128204107E-002;2.200162503868341E-003;4.843109636567533E-004;
2.406500000000000E+009;1.812206208705902E-001;1.169692166149616E-002;2.314386190846562E-003;2.771606959868223E-004;
2.406666666666667E+009;1.809956431388855E-001;1.151393726468086E-002;2.378655364736915E-003;2.653809788171202E-004;
2.406833333333334E+009;1.812422424554825E-001;1.118505001068115E-002;2.342990599572659E-003;2.417933428660035E-004;
2.407000000000000E+009;1.812200248241425E-001;1.090272888541222E-002;2.232059836387634E-003;1.744905312079936E-004;
2.407166666666667E+009;1.811638623476028E-001;1.079010497778654E-002;2.336250385269523E-003;-6.473168468801305E-005;
2.407333333333334E+009;1.808247566223145E-001;1.031492464244366E-002;2.399119315668941E-003;-6.197790935402736E-005;
2.407500000000000E+009;1.803809851408005E-001;9.927923791110516E-003;2.254999242722988E-003;-2.051195770036429E-004;
2.407666666666667E+009;1.801584213972092E-001;9.471455588936806E-003;2.412217436358333E-003;-3.877501003444195E-004;
2.407833333333334E+009;1.795403808355331E-001;8.816216140985489E-003;2.288254443556070E-003;-4.990281886421144E-004;
2.408000000000000E+009;1.790319830179215E-001;8.138651028275490E-003;2.254215069115162E-003;-6.726262508891523E-004;
2.408166666666667E+009;1.784635484218597E-001;7.719779387116432E-003;2.343299333006144E-003;-7.603925187140703E-004;
2.408333333333334E+009;1.780490279197693E-001;6.825769320130348E-003;2.088440349325538E-003;-7.884479709900916E-004;
2.408500000000000E+009;1.772378087043762E-001;5.808517336845398E-003;2.133395755663514E-003;-9.264756808988750E-004;
2.408666666666667E+009;1.765158474445343E-001;4.880467895418406E-003;2.029110910370946E-003;-1.070467522367835E-003;
2.408833333333334E+009;1.755764931440353E-001;3.693358972668648E-003;1.891309162601829E-003;-1.142689143307507E-003;
2.409000000000000E+009;1.750168055295944E-001;2.582876710221171E-003;1.902398071251810E-003;-1.221999176777899E-003;
2.409166666666667E+009;1.741485297679901E-001;1.320492825470865E-003;1.728795119561255E-003;-1.270200824365020E-003;
2.409333333333334E+009;1.734517812728882E-001;-4.598343002726324E-005;1.701510860584676E-003;-1.308684819377959E-003;
2.409500000000000E+009;1.727437078952789E-001;-1.579089206643403E-003;1.531222485937178E-003;-1.472413074225187E-003;
2.409666666666667E+009;1.719124019145966E-001;-3.090719459578395E-003;1.477984595112503E-003;-1.478834077715874E-003;
2.409833333333334E+009;1.710928231477737E-001;-4.512345883995295E-003;1.370154903270304E-003;-1.551980967633426E-003;
2.410000000000000E+009;1.705858856439591E-001;-6.290002260357142E-003;1.197967911139131E-003;-1.731661264784634E-003;
2.410166666666667E+009;1.697835028171539E-001;-8.049692027270794E-003;1.123515074141324E-003;-1.718995277769864E-003;
2.410333333333334E+009;1.692682951688767E-001;-9.771493263542652E-003;1.095854444429278E-003;-1.586432103067637E-003;
2.410500000000000E+009;1.687448620796204E-001;-1.180172245949507E-002;8.972167270258069E-004;-1.605216879397631E-003;
2.410666666666667E+009;1.683181375265122E-001;-1.372484955936670E-002;8.386876434087753E-004;-1.624222728423774E-003;
2.410833333333334E+009;1.677789092063904E-001;-1.550915185362101E-002;6.422593723982573E-004;-1.752992160618305E-003;
2.411000000000000E+009;1.675216704607010E-001;-1.743149384856224E-002;5.986937903799117E-004;-1.701932633295655E-003;
2.411166666666667E+009;1.672795265913010E-001;-1.964093744754791E-002;5.184084293432534E-004;-1.828220905736089E-003;
2.411333333333334E+009;1.671016514301300E-001;-2.169970422983170E-002;4.128776490688324E-004;-1.733486773446202E-003;
2.411500000000000E+009;1.669762730598450E-001;-2.372482977807522E-002;2.619735023472458E-004;-1.875851419754326E-003;
2.411666666666667E+009;1.671350449323654E-001;-2.589857019484043E-002;2.813075261656195E-004;-1.699566142633557E-003;
2.411833333333334E+009;1.671664714813232E-001;-2.770348265767098E-002;7.645354003216198E-007;-1.745006418786943E-003;
2.412000000000000E+009;1.673303544521332E-001;-2.992888353765011E-002;-5.461926411953755E-005;-1.607168582268059E-003;
2.412166666666667E+009;1.674141585826874E-001;-3.201104328036308E-002;-2.456710499245673E-004;-1.594988047145307E-003;
2.412333333333334E+009;1.678289026021957E-001;-3.386973589658737E-002;-3.700015658978373E-004;-1.395850558765233E-003;
2.412500000000000E+009;1.681391596794128E-001;-3.565153479576111E-002;-4.592309123836458E-004;-1.435135956853628E-003;
2.412666666666667E+009;1.686878502368927E-001;-3.776900470256805E-002;-5.660444730892777E-004;-1.423586276359856E-003;
2.412833333333334E+009;1.691479980945587E-001;-3.962208703160286E-002;-7.128597935661674E-004;-1.544408267363906E-003;
2.413000000000000E+009;1.696902662515640E-001;-4.118962958455086E-002;-5.887976149097085E-004;-1.341289840638638E-003;
2.413166666666667E+009;1.702249199151993E-001;-4.302976652979851E-002;-7.057439070194960E-004;-1.229231129400432E-003;
2.413333333333334E+009;1.708475500345230E-001;-4.472196847200394E-002;-9.365625446662307E-004;-1.118292799219489E-003;
2.413500000000000E+009;1.714570969343185E-001;-4.622336477041245E-002;-9.035976254381239E-004;-8.772097062319517E-004;
2.413666666666667E+009;1.719746738672257E-001;-4.779129847884178E-002;-9.622501092962921E-004;-8.931775810196996E-004;
2.413833333333334E+009;1.725969910621643E-001;-4.914497584104538E-002;-8.533070213161409E-004;-8.153133676387370E-004;
2.414000000000000E+009;1.732939928770065E-001;-5.048068240284920E-002;-1.042937976308167E-003;-6.261107628233731E-004;
2.414166666666667E+009;1.739626526832581E-001;-5.147789418697357E-002;-1.112036872655153E-003;-6.551296683028340E-004;
2.414333333333334E+009;1.745698153972626E-001;-5.283506587147713E-002;-1.079976558685303E-003;-5.101334536448121E-004;
2.414500000000000E+009;1.752482503652573E-001;-5.374561995267868E-002;-1.041108160279691E-003;-2.705532824620605E-004;
2.414666666666667E+009;1.757735759019852E-001;-5.467025563120842E-002;-1.065720221959055E-003;-2.717313473112881E-004;
2.414833333333334E+009;1.763371229171753E-001;-5.546377971768379E-002;-9.603060898371041E-004;-2.507111930754036E-004;
2.415000000000000E+009;1.767383068799973E-001;-5.610848963260651E-002;-1.128820003941655E-003;-9.214575402438641E-005;
2.415166666666667E+009;1.771702766418457E-001;-5.692648887634277E-002;-1.117418752983213E-003;4.448897379916161E-005;
2.415333333333334E+009;1.778860241174698E-001;-5.738848820328713E-002;-9.037802228704095E-004;-4.361852916190401E-005;
2.415500000000000E+009;1.780037730932236E-001;-5.775963887572289E-002;-9.652738808654249E-004;1.595447538420558E-004;
2.415666666666667E+009;1.782806962728500E-001;-5.824230983853340E-002;-9.490468655712903E-004;1.810082467272878E-004;
2.415833333333334E+009;1.785577088594437E-001;-5.853812396526337E-002;-7.908223196864128E-004;3.306335420347750E-004;
2.416000000000000E+009;1.784770339727402E-001;-5.885241553187370E-002;-8.401931845583022E-004;3.808756300713867E-004;
2.416166666666667E+009;1.786613911390305E-001;-5.910294502973557E-002;-8.966036839410663E-004;2.812115417327732E-004;
2.416333333333334E+009;1.785413920879364E-001;-5.918148905038834E-002;-7.030723500065506E-004;3.281113458797336E-004;
2.416500000000000E+009;1.784022450447083E-001;-5.942091718316078E-002;-7.729125791229308E-004;4.518287896644324E-004;
2.416666666666667E+009;1.780347675085068E-001;-5.939071252942085E-002;-6.064836052246392E-004;5.559960845857859E-004;
2.416833333333334E+009;1.776675283908844E-001;-5.968653038144112E-002;-7.990064332261682E-004;5.354614695534110E-004;
2.417000000000000E+009;1.770744323730469E-001;-5.971793085336685E-002;-5.512883071787655E-004;6.380322738550603E-004;
2.417166666666667E+009;1.766368448734283E-001;-5.970457196235657E-002;-5.989929195493460E-004;5.771623109467328E-004;
2.417333333333334E+009;1.760700196027756E-001;-5.990533158183098E-002;-5.342459189705551E-004;7.573912735097110E-004;
2.417500000000000E+009;1.750417351722717E-001;-6.018157675862312E-002;-4.214583022985607E-004;8.021645480766892E-004;
2.417666666666667E+009;1.744936853647232E-001;-6.024827808141708E-002;-4.351673414930701E-004;6.655367906205356E-004;
2.417833333333334E+009;1.735063195228577E-001;-6.048782542347908E-002;-6.320170359686017E-004;7.499575731344521E-004;
2.418000000000000E+009;1.724481135606766E-001;-6.076028943061829E-002;-3.926973440684378E-004;6.301849498413503E-004;
2.418166666666667E+009;1.713173687458038E-001;-6.101202219724655E-002;-4.165587888564915E-004;6.839842535555363E-004;
2.418333333333334E+009;1.704601496458054E-001;-6.146034970879555E-002;-4.097633936908096E-004;8.976585813798010E-004;
2.418500000000000E+009;1.691228747367859E-001;-6.184096634387970E-002;-3.343255375511944E-004;9.082534816116095E-004;
2.418666666666667E+009;1.680166274309158E-001;-6.241101771593094E-002;-4.101817612536252E-004;8.603361784480512E-004;
2.418833333333334E+009;1.666167676448822E-001;-6.303606182336807E-002;-3.963507770095021E-004;8.110836497507989E-004;
2.419000000000000E+009;1.652902662754059E-001;-6.351541727781296E-002;-3.127183008473367E-004;8.370900177396834E-004;
2.419166666666667E+009;1.641841679811478E-001;-6.436315178871155E-002;-1.857808820204809E-004;8.616698323749006E-004;
2.419333333333334E+009;1.628229767084122E-001;-6.479080766439438E-002;-2.390048757661134E-004;9.867857443168759E-004;
2.419500000000000E+009;1.615199893712997E-001;-6.594448536634445E-002;-9.288352157454938E-005;1.043413998559117E-003;
2.419666666666667E+009;1.603987216949463E-001;-6.706251204013825E-002;-6.442542508011684E-005;9.967136429622769E-004;
2.419833333333334E+009;1.590446382761002E-001;-6.793792545795441E-002;-1.024509110720828E-004;1.187070040032268E-003;
2.420000000000000E+009;1.579707711935043E-001;-6.918908655643463E-002;-8.023215923458338E-005;1.195250777527690E-003;
2.420166666666667E+009;1.567166447639465E-001;-7.039312273263931E-002;-3.299100717413239E-005;1.279498799704015E-003;
2.420333333333334E+009;1.556386053562164E-001;-7.182250171899796E-002;1.022253709379584E-004;1.058605732396245E-003;
2.420500000000000E+009;1.547653824090958E-001;-7.307066768407822E-002;-4.048450500704348E-005;1.294331857934594E-003;
2.420666666666667E+009;1.536472439765930E-001;-7.446931302547455E-002;1.795327261788771E-005;1.300423173233867E-003;
2.420833333333334E+009;1.528418809175491E-001;-7.596202939748764E-002;2.415989292785525E-004;1.348030287772417E-003;
2.421000000000000E+009;1.519127041101456E-001;-7.777576148509979E-002;3.654086904134601E-004;1.294693909585476E-003;
2.421166666666667E+009;1.512505263090134E-001;-7.922410964965820E-002;2.688690728973597E-004;1.348968362435699E-003;
2.421333333333334E+009;1.506419926881790E-001;-8.103793859481812E-002;4.357988655101508E-004;1.387817203067243E-003;
2.421500000000000E+009;1.499608457088471E-001;-8.256968855857849E-002;5.832728347741067E-004;1.619390561245382E-003;
2.421666666666667E+009;1.495986133813858E-001;-8.445463329553604E-002;6.382735446095467E-004;1.587564009241760E-003;
2.421833333333334E+009;1.493608355522156E-001;-8.617925643920898E-002;7.241609273478389E-004;1.597663271240890E-003;
2.422000000000000E+009;1.489576995372772E-001;-8.806180953979492E-002;7.541452068835497E-004;1.466467743739486E-003;
2.422166666666667E+009;1.487114131450653E-001;-8.995466679334641E-002;1.014340203255415E-003;1.451893942430615E-003;
2.422333333333334E+009;1.488159149885178E-001;-9.148968756198883E-002;1.281985896639526E-003;1.339158741757274E-003;
2.422500000000000E+009;1.486451178789139E-001;-9.318348020315170E-002;1.203530002385378E-003;1.447452115826309E-003;
2.422666666666667E+009;1.487634032964706E-001;-9.514858573675156E-002;1.263684942387044E-003;1.465458539314568E-003;
2.422833333333334E+009;1.491059064865112E-001;-9.684746712446213E-002;1.356580760329962E-003;1.596587477251887E-003;
2.423000000000000E+009;1.492750495672226E-001;-9.847313165664673E-002;1.517048571258783E-003;1.357625704258680E-003;
2.423166666666667E+009;1.495675146579742E-001;-1.002723798155785E-001;1.692819409072399E-003;1.464209635742009E-003;
2.423333333333334E+009;1.500392556190491E-001;-1.016675457358360E-001;1.745212473906577E-003;1.168727176263928E-003;
2.423500000000000E+009;1.505099236965179E-001;-1.031983569264412E-001;1.792265335097909E-003;1.205022097565234E-003;
2.423666666666667E+009;1.507755517959595E-001;-1.048545464873314E-001;1.862211967818439E-003;9.156063897535205E-004;
2.423833333333334E+009;1.515313386917114E-001;-1.061898469924927E-001;1.961079193279147E-003;1.028868602588773E-003;
2.424000000000000E+009;1.517895460128784E-001;-1.074054166674614E-001;2.077177166938782E-003;9.102708427235484E-004;
2.424166666666667E+009;1.523995548486710E-001;-1.088619008660317E-001;2.312730532139540E-003;8.122868021018803E-004;
2.424333333333334E+009;1.530927419662476E-001;-1.098634600639343E-001;2.268789336085320E-003;7.638689712621272E-004;
2.424500000000000E+009;1.535980850458145E-001;-1.109887957572937E-001;2.153448760509491E-003;5.622589960694313E-004;
2.424666666666667E+009;1.541923880577087E-001;-1.118713840842247E-001;2.208198653534055E-003;4.066179390065372E-004;
2.424833333333334E+009;1.546071767807007E-001;-1.128454133868218E-001;2.334282733500004E-003;4.250385973136872E-004;
2.425000000000000E+009;1.551992595195770E-001;-1.137361451983452E-001;2.413370413705707E-003;2.903118147514761E-004;
2.425166666666667E+009;1.556049734354019E-001;-1.144373342394829E-001;2.445076126605272E-003;2.141858567483723E-004;
2.425333333333334E+009;1.560544520616531E-001;-1.150957718491554E-001;2.558711916208267E-003;9.141878399532288E-005;
2.425500000000000E+009;1.563960164785385E-001;-1.157808899879456E-001;2.549439435824752E-003;3.239124998799525E-005;
2.425666666666667E+009;1.566881090402603E-001;-1.162908002734184E-001;2.491408726200461E-003;5.352844527806155E-005;
2.425833333333334E+009;1.570509225130081E-001;-1.166606470942497E-001;2.440039068460465E-003;-2.968124463222921E-004;
2.426000000000000E+009;1.571854054927826E-001;-1.171256750822067E-001;2.583626890555024E-003;-1.392206613672897E-004;
2.426166666666667E+009;1.574669331312180E-001;-1.173579320311546E-001;2.591558266431093E-003;-4.700518038589507E-004;
2.426333333333334E+009;1.573076397180557E-001;-1.175668388605118E-001;2.620258135721088E-003;-5.171978846192360E-004;
2.426500000000000E+009;1.573617160320282E-001;-1.176967918872833E-001;2.633410971611738E-003;-4.537550848908722E-004;
2.426666666666667E+009;1.573521941900253E-001;-1.176607459783554E-001;2.416559495031834E-003;-6.486142519861460E-004;
2.426833333333334E+009;1.570507287979126E-001;-1.178645566105843E-001;2.453544409945607E-003;-8.653848781250417E-004;
2.427000000000000E+009;1.566669344902039E-001;-1.179799735546112E-001;2.580214757472277E-003;-9.293866460211575E-004;
2.427166666666667E+009;1.561955958604813E-001;-1.179940328001976E-001;2.295320620760322E-003;-8.963743457570672E-004;
2.427333333333334E+009;1.555921435356140E-001;-1.180394068360329E-001;2.533691003918648E-003;-1.212024828419089E-003;
2.427500000000000E+009;1.549902111291885E-001;-1.179968044161797E-001;2.378019271418452E-003;-1.301204785704613E-003;
2.427666666666667E+009;1.540886610746384E-001;-1.181376576423645E-001;2.348323119804263E-003;-1.373475184664130E-003;
2.427833333333334E+009;1.531403958797455E-001;-1.181826069951057E-001;2.321057720109820E-003;-1.430119969882071E-003;
