# Version 1.00
#
freq[Hz];re:Trc1_S11;im:Trc1_S11;re:Trc2_S21;im:Trc2_S21;
2.400000000000000E+009;1.560711413621903E-001;6.221329420804977E-002;-4.503250238485634E-005;2.924300031736493E-003;
2.400166666666667E+009;1.560292094945908E-001;6.028383970260620E-002;2.344015083508566E-004;2.863745437934995E-003;
2.400333333333334E+009;1.559558510780335E-001;5.838472396135330E-002;1.239359262399375E-004;2.969704568386078E-003;
2.400500000000000E+009;1.561148613691330E-001;5.613422021269798E-002;3.365688316989690E-004;2.845002803951502E-003;
2.400666666666667E+009;1.560970842838287E-001;5.400223657488823E-002;4.096367629244924E-004;2.937627723440528E-003;
2.400833333333334E+009;1.563943624496460E-001;5.201543495059013E-002;3.704507544171065E-004;2.859593601897359E-003;
2.401000000000000E+009;1.565737724304199E-001;4.989498108625412E-002;6.118753226473928E-004;2.790393773466349E-003;
2.401166666666667E+009;1.570020020008087E-001;4.762294143438339E-002;7.466980605386198E-004;2.756235655397177E-003;
2.401333333333334E+009;1.571268141269684E-001;4.562170431017876E-002;7.429356337524951E-004;2.849149517714977E-003;
2.401500000000000E+009;1.578337252140045E-001;4.341475665569305E-002;7.580352248623967E-004;2.681602025404573E-003;
2.401666666666667E+009;1.582581549882889E-001;4.140616953372955E-002;1.007452956400812E-003;2.546610543504357E-003;
2.401833333333334E+009;1.587034165859222E-001;3.922931104898453E-002;1.116058323532343E-003;2.620175946503878E-003;
2.402000000000000E+009;1.592229753732681E-001;3.729616105556488E-002;1.235048635862768E-003;2.485831500962377E-003;
2.402166666666667E+009;1.598893105983734E-001;3.526812419295311E-002;1.291280612349510E-003;2.805824857205153E-003;
2.402333333333334E+009;1.606354564428330E-001;3.338517621159554E-002;1.413262449204922E-003;2.537929685786367E-003;
2.402500000000000E+009;1.617358922958374E-001;3.171754628419876E-002;1.486669294536114E-003;2.477857982739806E-003;
2.402666666666667E+009;1.625168621540070E-001;2.985937520861626E-002;1.553973648697138E-003;1.949388766661286E-003;
2.402833333333334E+009;1.632965356111527E-001;2.812374755740166E-002;1.723996247164905E-003;2.307606628164649E-003;
2.403000000000000E+009;1.643557548522949E-001;2.671683207154274E-002;1.965653849765658E-003;2.438749419525266E-003;
2.403166666666667E+009;1.653484404087067E-001;2.530172839760780E-002;2.128046238794923E-003;2.170055173337460E-003;
2.403333333333334E+009;1.663331240415573E-001;2.385737933218479E-002;1.906623481772840E-003;1.928639481775463E-003;
2.403500000000000E+009;1.671360731124878E-001;2.255614101886749E-002;2.201218390837312E-003;2.502024173736572E-003;
2.403666666666667E+009;1.684030443429947E-001;2.130160480737686E-002;1.946921925991774E-003;2.023712266236544E-003;
2.403833333333334E+009;1.696487516164780E-001;1.993092522025108E-002;2.243924187496305E-003;1.342077972367406E-003;
2.404000000000000E+009;1.706061810255051E-001;1.917375437915325E-002;1.798784476704896E-003;1.192406169138849E-003;
2.404166666666667E+009;1.715304702520371E-001;1.815285533666611E-002;2.365807769820094E-003;1.560293138027191E-003;
2.404333333333334E+009;1.725756227970123E-001;1.731678843498230E-002;2.208159072324634E-003;1.527627930045128E-003;
2.404500000000000E+009;1.735832542181015E-001;1.647907309234142E-002;2.154938876628876E-003;1.304570003412664E-003;
2.404666666666667E+009;1.745880544185638E-001;1.559077762067318E-002;2.038831356912851E-003;1.359957386739552E-003;
2.404833333333334E+009;1.755280792713165E-001;1.511663105338812E-002;2.346641616895795E-003;1.401041168719530E-003;
2.405000000000000E+009;1.763138473033905E-001;1.451870426535606E-002;2.243037568405271E-003;8.497404051013291E-004;
2.405166666666667E+009;1.772190630435944E-001;1.406101509928703E-002;2.221095375716686E-003;1.001911703497171E-003;
2.405333333333334E+009;1.779865920543671E-001;1.351486053317785E-002;2.378779696300626E-003;1.051396131515503E-003;
2.405500000000000E+009;1.786266267299652E-001;1.322755124419928E-002;2.270501106977463E-003;7.662863936275244E-004;
2.405666666666667E+009;1.794194132089615E-001;1.291614025831223E-002;2.400115365162492E-003;8.524528238922358E-004;
2.405833333333334E+009;1.796677261590958E-001;1.282792538404465E-002;2.461044117808342E-003;6.929257651790977E-004;
2.406000000000000E+009;1.803784370422363E-001;1.235606148838997E-002;2.387629821896553E-003;6.418353877961636E-004;
2.406166666666667E+009;1.806864291429520E-001;1.232213061302900E-002;2.321884734556079E-003;4.688945773523301E-004;
2.406333333333334E+009;1.809802353382111E-001;1.206802856177092E-002;2.662427490577102E-003;4.695527313742787E-004;
2.406500000000000E+009;1.812007576227188E-001;1.181090902537108E-002;2.693711081519723E-003;3.486924979370087E-004;
2.406666666666667E+009;1.813504844903946E-001;1.166489068418741E-002;2.535981824621558E-003;1.639806723687798E-004;
2.406833333333334E+009;1.811557859182358E-001;1.129512954503298E-002;2.564132213592529E-003;3.211936473235255E-006;
2.407000000000000E+009;1.811463236808777E-001;1.093780715018511E-002;2.563034184277058E-003;-2.131858855136670E-005;
2.407166666666667E+009;1.811656802892685E-001;1.082316134124994E-002;2.695781644433737E-003;-1.657161046750844E-004;
2.407333333333334E+009;1.808207333087921E-001;1.031131297349930E-002;2.625687047839165E-003;-1.452226715628058E-004;
2.407500000000000E+009;1.804883927106857E-001;9.950740262866020E-003;2.510652644559741E-003;-3.464633482508361E-004;
2.407666666666667E+009;1.802138388156891E-001;9.569389745593071E-003;2.527195494621992E-003;-3.931371902581304E-004;
2.407833333333334E+009;1.796405762434006E-001;8.850915357470512E-003;2.469785744324327E-003;-5.011789035052061E-004;
2.408000000000000E+009;1.792166382074356E-001;8.090135641396046E-003;2.267641946673393E-003;-6.888958159834147E-004;
2.408166666666667E+009;1.785282641649246E-001;7.628737483173609E-003;2.430520486086607E-003;-6.967061199247837E-004;
2.408333333333334E+009;1.781819909811020E-001;6.767671555280685E-003;2.198207424953580E-003;-9.302193066105247E-004;
2.408500000000000E+009;1.773078888654709E-001;5.780466832220554E-003;2.125361701473594E-003;-1.063594943843782E-003;
2.408666666666667E+009;1.765470057725906E-001;4.887583665549755E-003;2.151507418602705E-003;-1.095116953365505E-003;
2.408833333333334E+009;1.757788062095642E-001;3.630624152719975E-003;1.933885854668915E-003;-1.238228171132505E-003;
2.409000000000000E+009;1.749729365110397E-001;2.480468479916453E-003;2.028797054663301E-003;-1.318168826401234E-003;
2.409166666666667E+009;1.742786765098572E-001;1.323135220445693E-003;1.685287221334875E-003;-1.489624963141978E-003;
2.409333333333334E+009;1.736999452114105E-001;-6.204989767866209E-005;1.735581085085869E-003;-1.554484711959958E-003;
2.409500000000000E+009;1.728543490171433E-001;-1.785360742360354E-003;1.632265863008797E-003;-1.650176360271871E-003;
2.409666666666667E+009;1.718936264514923E-001;-3.120308043435216E-003;1.528833643533289E-003;-1.559377415105701E-003;
2.409833333333334E+009;1.711780428886414E-001;-4.668446723371744E-003;1.464871107600629E-003;-1.867841230705380E-003;
2.410000000000000E+009;1.706245243549347E-001;-6.336849648505449E-003;1.230809255503118E-003;-1.664523733779788E-003;
2.410166666666667E+009;1.699426919221878E-001;-8.143920451402664E-003;1.137393410317600E-003;-1.802951330319047E-003;
2.410333333333334E+009;1.692574173212051E-001;-1.006851810961962E-002;1.201122999191284E-003;-1.630473998375237E-003;
2.410500000000000E+009;1.687573343515396E-001;-1.181002613157034E-002;8.603380993008614E-004;-1.817768206819892E-003;
2.410666666666667E+009;1.681621670722961E-001;-1.386687532067299E-002;1.031888066790998E-003;-1.851597800850868E-003;
2.410833333333334E+009;1.678628325462341E-001;-1.574345864355564E-002;8.112996583804488E-004;-1.950836973264813E-003;
2.411000000000000E+009;1.675179600715637E-001;-1.782168261706829E-002;6.584308575838804E-004;-1.866043312475085E-003;
2.411166666666667E+009;1.672565191984177E-001;-1.972570456564426E-002;5.680155009031296E-004;-1.835438190028071E-003;
2.411333333333334E+009;1.670089513063431E-001;-2.170904912054539E-002;3.940038732253015E-004;-1.917382236570120E-003;
2.411500000000000E+009;1.670130640268326E-001;-2.382110618054867E-002;2.379010547883809E-004;-1.850507920607925E-003;
2.411666666666667E+009;1.671055257320404E-001;-2.592750266194344E-002;9.866082109510899E-005;-1.940054702572525E-003;
2.411833333333334E+009;1.672147512435913E-001;-2.783635631203651E-002;-1.274484093300998E-004;-1.840314012952149E-003;
2.412000000000000E+009;1.672852486371994E-001;-2.992004156112671E-002;-1.428285759175196E-004;-1.934575033374131E-003;
2.412166666666667E+009;1.675595343112946E-001;-3.209401667118073E-002;-2.534362138248980E-004;-1.658627996221185E-003;
2.412333333333334E+009;1.680726259946823E-001;-3.386276587843895E-002;-4.873430589213967E-004;-1.612272229976952E-003;
2.412500000000000E+009;1.680081784725189E-001;-3.584231063723564E-002;-5.814699688926339E-004;-1.626158249564469E-003;
2.412666666666667E+009;1.685474663972855E-001;-3.780139610171318E-002;-6.436564144678414E-004;-1.586645259521902E-003;
2.412833333333334E+009;1.690334826707840E-001;-3.963570669293404E-002;-7.064532837830484E-004;-1.506865723058581E-003;
2.413000000000000E+009;1.696272641420364E-001;-4.131704568862915E-002;-9.211004362441599E-004;-1.424137968569994E-003;
2.413166666666667E+009;1.701074391603470E-001;-4.303791001439095E-002;-9.265113621950150E-004;-1.277107978239656E-003;
2.413333333333334E+009;1.705693453550339E-001;-4.474197700619698E-002;-9.982769843190908E-004;-1.130257965996862E-003;
2.413500000000000E+009;1.712717115879059E-001;-4.631643369793892E-002;-1.062369090504944E-003;-1.048120670020580E-003;
2.413666666666667E+009;1.720127910375595E-001;-4.779651761054993E-002;-9.846022585406900E-004;-9.535700082778931E-004;
2.413833333333334E+009;1.725614070892334E-001;-4.933685064315796E-002;-1.160262268967927E-003;-9.078754228539765E-004;
2.414000000000000E+009;1.730588376522064E-001;-5.051905289292336E-002;-9.962712647393346E-004;-7.024777587503195E-004;
2.414166666666667E+009;1.738865375518799E-001;-5.170865729451180E-002;-1.171785988844931E-003;-7.071456057019532E-004;
2.414333333333334E+009;1.745157986879349E-001;-5.291088297963142E-002;-1.147415838204324E-003;-6.089192465879023E-004;
2.414500000000000E+009;1.752597242593765E-001;-5.384907498955727E-002;-1.158941769972444E-003;-4.738842835649848E-004;
2.414666666666667E+009;1.758014261722565E-001;-5.460636690258980E-002;-1.120868022553623E-003;-3.484359476715326E-004;
2.414833333333334E+009;1.762849837541580E-001;-5.557674542069435E-002;-1.104421564377844E-003;-2.148862113244832E-004;
2.415000000000000E+009;1.767312735319138E-001;-5.614997819066048E-002;-1.219422440044582E-003;-1.035978202708066E-004;
2.415166666666667E+009;1.771662533283234E-001;-5.677412450313568E-002;-1.110354322008789E-003;-1.110886296373792E-004;
2.415333333333334E+009;1.776481270790100E-001;-5.745982751250267E-002;-1.104799564927816E-003;1.121927634812892E-004;
2.415500000000000E+009;1.779555082321167E-001;-5.788937211036682E-002;-1.033956534229219E-003;7.785811612848193E-005;
2.415666666666667E+009;1.782121956348419E-001;-5.812768638134003E-002;-1.004052232019603E-003;1.221176353283227E-004;
2.415833333333334E+009;1.784410476684570E-001;-5.862466618418694E-002;-9.214261081069708E-004;3.617131442297250E-004;
2.416000000000000E+009;1.785123348236084E-001;-5.890019610524178E-002;-8.905741269700229E-004;2.652136899996549E-004;
2.416166666666667E+009;1.785934716463089E-001;-5.917124450206757E-002;-9.137834422290325E-004;3.025695914402604E-004;
2.416333333333334E+009;1.784814596176148E-001;-5.920144170522690E-002;-9.085215278901160E-004;5.197040154598653E-004;
2.416500000000000E+009;1.782774031162262E-001;-5.939557403326035E-002;-9.655569447204471E-004;6.354248034767807E-004;
2.416666666666667E+009;1.780179738998413E-001;-5.946292728185654E-002;-7.795485435053706E-004;4.501357907429338E-004;
2.416833333333334E+009;1.778084188699722E-001;-5.965353548526764E-002;-7.893139845691621E-004;6.532380939461291E-004;
2.417000000000000E+009;1.770996600389481E-001;-5.979998782277107E-002;-7.162985275499523E-004;5.472445045597851E-004;
2.417166666666667E+009;1.765928715467453E-001;-5.984479561448097E-002;-7.087921258062124E-004;6.153670256026089E-004;
2.417333333333334E+009;1.759930104017258E-001;-5.992514640092850E-002;-6.837225519120693E-004;6.618247134611011E-004;
2.417500000000000E+009;1.752079576253891E-001;-6.027703359723091E-002;-6.833855877630413E-004;8.178767166100442E-004;
2.417666666666667E+009;1.744918972253799E-001;-6.032823026180267E-002;-5.435045459307730E-004;6.653168820776045E-004;
2.417833333333334E+009;1.734797954559326E-001;-6.048159673810005E-002;-4.880530759692192E-004;7.795231649652124E-004;
2.418000000000000E+009;1.723990142345429E-001;-6.088539212942123E-002;-4.278540727682412E-004;7.750441436655819E-004;
2.418166666666667E+009;1.714253872632980E-001;-6.094980612397194E-002;-4.192851192783564E-004;8.735809824429452E-004;
2.418333333333334E+009;1.703319549560547E-001;-6.148542836308479E-002;-4.804910277016461E-004;7.964661344885826E-004;
2.418500000000000E+009;1.692081540822983E-001;-6.199768185615540E-002;-3.966433578170836E-004;9.183143847621977E-004;
2.418666666666667E+009;1.681486070156097E-001;-6.237024441361427E-002;-2.830002049449831E-004;9.336239891126752E-004;
2.418833333333334E+009;1.666259765625000E-001;-6.296836584806442E-002;-3.472142270766199E-004;9.113617707043886E-004;
2.419000000000000E+009;1.653807163238525E-001;-6.360591202974320E-002;-4.982256796211004E-004;8.846500422805548E-004;
2.419166666666667E+009;1.641004085540772E-001;-6.442932784557343E-002;-3.393816587049514E-004;9.151176200248301E-004;
2.419333333333334E+009;1.626767665147781E-001;-6.510736048221588E-002;-3.192015283275396E-004;9.854036616161466E-004;
2.419500000000000E+009;1.614994406700134E-001;-6.619244813919067E-002;-2.169763029087335E-004;9.248781716451049E-004;
2.419666666666667E+009;1.604142934083939E-001;-6.715605407953262E-002;-1.358746376354247E-004;1.148193958215416E-003;
2.419833333333334E+009;1.588759869337082E-001;-6.808030605316162E-002;-1.239819539478049E-004;1.105839270167053E-003;
2.420000000000000E+009;1.579187363386154E-001;-6.933397054672241E-002;-2.985725768667180E-005;1.194118405692279E-003;
2.420166666666667E+009;1.567253321409226E-001;-7.042589038610458E-002;-1.849606051109731E-004;1.078748959116638E-003;
2.420333333333334E+009;1.555716544389725E-001;-7.175698131322861E-002;-2.411704190308228E-004;1.172805670648813E-003;
2.420500000000000E+009;1.547002196311951E-001;-7.312380522489548E-002;5.696001971955411E-005;1.478335238061845E-003;
2.420666666666667E+009;1.536445021629334E-001;-7.454982399940491E-002;1.268710475414991E-004;1.316636684350669E-003;
2.420833333333334E+009;1.527694612741470E-001;-7.605025917291641E-002;1.144230395766499E-006;1.363840186968446E-003;
2.421000000000000E+009;1.517194807529450E-001;-7.773724943399429E-002;2.444812562316656E-004;1.547859399579465E-003;
2.421166666666667E+009;1.511109620332718E-001;-7.927273958921433E-002;2.484472643118352E-004;1.521435682661831E-003;
2.421333333333334E+009;1.505343317985535E-001;-8.101875334978104E-002;4.427584062796086E-004;1.626511453650892E-003;
2.421500000000000E+009;1.499606668949127E-001;-8.275961875915527E-002;5.513080395758152E-004;1.569069107063115E-003;
2.421666666666667E+009;1.495282500982285E-001;-8.450330793857575E-002;6.407003384083509E-004;1.675697043538094E-003;
2.421833333333334E+009;1.491054296493530E-001;-8.626736700534821E-002;7.535085896961391E-004;1.568315201438963E-003;
2.422000000000000E+009;1.488645225763321E-001;-8.798938989639282E-002;8.139470592141151E-004;1.554209506139159E-003;
2.422166666666667E+009;1.486952453851700E-001;-8.991061151027679E-002;8.512368076480925E-004;1.434857840649784E-003;
2.422333333333334E+009;1.486185491085053E-001;-9.164778888225555E-002;1.080940361134708E-003;1.584629411809146E-003;
2.422500000000000E+009;1.486577987670898E-001;-9.317395091056824E-002;1.213810755871236E-003;1.598728587850928E-003;
2.422666666666667E+009;1.485805809497833E-001;-9.517894685268402E-002;1.316120265983045E-003;1.454368582926691E-003;
2.422833333333334E+009;1.490220278501511E-001;-9.684455394744873E-002;1.562075340189040E-003;1.514135976321995E-003;
2.423000000000000E+009;1.491371691226959E-001;-9.842643886804581E-002;1.473755342885852E-003;1.374221872538328E-003;
2.423166666666667E+009;1.495646685361862E-001;-1.001801192760468E-001;1.510588335804641E-003;1.348839025013149E-003;
2.423333333333334E+009;1.499969363212585E-001;-1.014979928731918E-001;1.672316691838205E-003;1.233318820595741E-003;
2.423500000000000E+009;1.503446847200394E-001;-1.032808497548103E-001;1.842587837018073E-003;1.333758467808366E-003;
2.423666666666667E+009;1.506761163473129E-001;-1.047879830002785E-001;1.723874709568918E-003;1.135698985308409E-003;
2.423833333333334E+009;1.515088826417923E-001;-1.062660887837410E-001;1.954032806679606E-003;9.734847699292004E-004;
2.424000000000000E+009;1.517426669597626E-001;-1.075154393911362E-001;2.025528112426400E-003;1.173631404526532E-003;
2.424166666666667E+009;1.523371636867523E-001;-1.087670400738716E-001;2.056880854070187E-003;9.811283089220524E-004;
2.424333333333334E+009;1.530738621950150E-001;-1.098666563630104E-001;2.161304466426373E-003;7.706851465627551E-004;
2.424500000000000E+009;1.534636616706848E-001;-1.111691668629646E-001;2.225931268185377E-003;5.618108552880585E-004;
2.424666666666667E+009;1.541751474142075E-001;-1.118994578719139E-001;2.142399782314897E-003;5.480899126268923E-004;
2.424833333333334E+009;1.546417474746704E-001;-1.128418669104576E-001;2.351013710722327E-003;6.004660390317440E-004;
2.425000000000000E+009;1.552420258522034E-001;-1.137315407395363E-001;2.318418817594647E-003;2.239179448224604E-004;
2.425166666666667E+009;1.554863899946213E-001;-1.145992204546928E-001;2.266963943839073E-003;2.087653410853818E-004;
2.425333333333334E+009;1.560716629028320E-001;-1.151172444224358E-001;2.252373611554503E-003;2.050463517662138E-004;
2.425500000000000E+009;1.565845310688019E-001;-1.158091500401497E-001;2.480030292645097E-003;1.198854297399521E-004;
2.425666666666667E+009;1.566310822963715E-001;-1.162752956151962E-001;2.436736831441522E-003;-1.439535844838247E-004;
2.425833333333334E+009;1.569225341081619E-001;-1.167359352111816E-001;2.409415319561958E-003;-3.420490884309402E-006;
2.426000000000000E+009;1.570747345685959E-001;-1.171172708272934E-001;2.379362937062979E-003;-3.647215271485038E-005;
2.426166666666667E+009;1.574636846780777E-001;-1.173924878239632E-001;2.462650649249554E-003;-2.650640381034464E-004;
2.426333333333334E+009;1.573633998632431E-001;-1.176649108529091E-001;2.468223683536053E-003;-5.112413200549781E-004;
2.426500000000000E+009;1.571477800607681E-001;-1.176724657416344E-001;2.539070090278983E-003;-5.398817011155188E-004;
2.426666666666667E+009;1.572332978248596E-001;-1.178168132901192E-001;2.496013650670648E-003;-5.626711645163596E-004;
2.426833333333334E+009;1.568756401538849E-001;-1.178785115480423E-001;2.504524309188128E-003;-8.166985935531557E-004;
2.427000000000000E+009;1.565698236227036E-001;-1.180768236517906E-001;2.325373934581876E-003;-6.462982273660600E-004;
2.427166666666667E+009;1.560765802860260E-001;-1.180056408047676E-001;2.483450341969729E-003;-9.067239006981254E-004;
2.427333333333334E+009;1.553985327482224E-001;-1.180971935391426E-001;2.371703973039985E-003;-1.017284346744418E-003;
2.427500000000000E+009;1.549285352230072E-001;-1.181169599294663E-001;2.358071971684694E-003;-9.785132715478540E-004;
2.427666666666667E+009;1.541360318660736E-001;-1.182366907596588E-001;2.272460842505097E-003;-1.216900185681880E-003;
2.427833333333334E+009;1.531803607940674E-001;-1.181835383176804E-001;2.229036064818502E-003;-1.334682339802384E-003;
