# Version 1.00
#
freq[Hz];re:Trc1_S11;im:Trc1_S11;re:Trc2_S21;im:Trc2_S21;
2.400000000000000E+009;1.561599075794220E-001;6.203886121511459E-002;-6.247323472052813E-005;2.758818678557873E-003;
2.400166666666667E+009;1.559154689311981E-001;6.037253513932228E-002;1.627685560379177E-004;2.662715269252658E-003;
2.400333333333334E+009;1.558697521686554E-001;5.828563496470451E-002;1.517491473350674E-004;2.549370750784874E-003;
2.400500000000000E+009;1.560098230838776E-001;5.616928637027741E-002;3.691368037834764E-004;2.727625193074346E-003;
2.400666666666667E+009;1.560786813497543E-001;5.408209562301636E-002;2.455613575875759E-004;2.595145488157868E-003;
2.400833333333334E+009;1.563509851694107E-001;5.209943652153015E-002;3.537023440003395E-004;2.599425846710801E-003;
2.401000000000000E+009;1.564252674579620E-001;4.992455989122391E-002;6.314015481621027E-004;2.596754580736160E-003;
2.401166666666667E+009;1.567640453577042E-001;4.774198308587074E-002;6.730100722052157E-004;2.618999918922782E-003;
2.401333333333334E+009;1.568399369716644E-001;4.550021514296532E-002;8.259666501544416E-004;2.408296568319202E-003;
2.401500000000000E+009;1.575549989938736E-001;4.352460429072380E-002;9.064061450771987E-004;2.499605529010296E-003;
2.401666666666667E+009;1.579471081495285E-001;4.141688719391823E-002;9.909669170156121E-004;2.442904282361269E-003;
2.401833333333334E+009;1.585806459188461E-001;3.931796923279762E-002;9.794653160497546E-004;2.363781211897731E-003;
2.402000000000000E+009;1.590453237295151E-001;3.714734315872192E-002;1.120286062359810E-003;2.375586889684200E-003;
2.402166666666667E+009;1.598821133375168E-001;3.522798791527748E-002;1.278123818337917E-003;2.427852945402265E-003;
2.402333333333334E+009;1.605934947729111E-001;3.355008736252785E-002;1.319242292083800E-003;2.282790839672089E-003;
2.402500000000000E+009;1.615553796291351E-001;3.160670772194862E-002;1.151892589405179E-003;2.162706339731813E-003;
2.402666666666667E+009;1.623569726943970E-001;2.997238747775555E-002;1.702025299891830E-003;2.234712243080139E-003;
2.402833333333334E+009;1.632089465856552E-001;2.828781493008137E-002;1.422675908543170E-003;2.151375403627753E-003;
2.403000000000000E+009;1.642685830593109E-001;2.682033553719521E-002;1.465425943024457E-003;1.859098672866821E-003;
2.403166666666667E+009;1.652339100837708E-001;2.518870495259762E-002;1.523220911622047E-003;2.074124291539192E-003;
2.403333333333334E+009;1.662501543760300E-001;2.400563843548298E-002;1.681446214206517E-003;1.792184310033917E-003;
2.403500000000000E+009;1.673457324504852E-001;2.249700389802456E-002;1.833037356846035E-003;1.785007189027965E-003;
2.403666666666667E+009;1.683447211980820E-001;2.119364961981773E-002;1.780108199454844E-003;1.697322353720665E-003;
2.403833333333334E+009;1.695140153169632E-001;1.998714730143547E-002;1.689538010396063E-003;1.516079879365861E-003;
2.404000000000000E+009;1.705769002437592E-001;1.900088228285313E-002;1.913157757371664E-003;1.484200009144843E-003;
2.404166666666667E+009;1.716398447751999E-001;1.812040433287621E-002;2.074011834338307E-003;1.439647865481675E-003;
2.404333333333334E+009;1.726440191268921E-001;1.731687411665916E-002;1.904358738102019E-003;1.374060288071632E-003;
2.404500000000000E+009;1.736025661230087E-001;1.640022732317448E-002;2.130736596882343E-003;1.282937708310783E-003;
2.404666666666667E+009;1.746083050966263E-001;1.569258421659470E-002;2.044264925643802E-003;1.353428233414888E-003;
2.404833333333334E+009;1.754750907421112E-001;1.519657578319311E-002;2.227230463176966E-003;1.221617916598916E-003;
2.405000000000000E+009;1.764407008886337E-001;1.456866692751646E-002;2.232369035482407E-003;1.024804776534438E-003;
2.405166666666667E+009;1.772278547286987E-001;1.409457530826330E-002;2.119980519637466E-003;1.036725938320160E-003;
2.405333333333334E+009;1.781348139047623E-001;1.347995549440384E-002;2.177096437662840E-003;7.644931902177632E-004;
2.405500000000000E+009;1.786545068025589E-001;1.319262664765120E-002;2.019834471866489E-003;7.999021327123046E-004;
2.405666666666667E+009;1.794020384550095E-001;1.293094828724861E-002;2.203115029260516E-003;7.776115671731532E-004;
2.405833333333334E+009;1.797167062759399E-001;1.271497178822756E-002;2.084520878270268E-003;6.123841158114374E-004;
2.406000000000000E+009;1.801778227090836E-001;1.239809580147266E-002;2.177440794184804E-003;6.762412958778441E-004;
2.406166666666667E+009;1.804782599210739E-001;1.217696536332369E-002;2.327170455828309E-003;5.801197839900851E-004;
2.406333333333334E+009;1.809677034616470E-001;1.206295378506184E-002;2.275805687531829E-003;3.132744459435344E-004;
2.406500000000000E+009;1.811158508062363E-001;1.177771296352148E-002;2.289488678798080E-003;4.625431902240962E-004;
2.406666666666667E+009;1.810633838176727E-001;1.161094568669796E-002;2.362721366807818E-003;3.464134060777724E-004;
2.406833333333334E+009;1.811712831258774E-001;1.135254930704832E-002;2.373231807723641E-003;6.840704736532643E-005;
2.407000000000000E+009;1.811960339546204E-001;1.103165186941624E-002;2.343680011108518E-003;6.957252480788156E-005;
2.407166666666667E+009;1.810863167047501E-001;1.076989248394966E-002;2.354565076529980E-003;-1.329087535850704E-004;
2.407333333333334E+009;1.808559745550156E-001;1.029577571898699E-002;2.420346951112151E-003;-3.150929405819625E-004;
2.407500000000000E+009;1.805539727210999E-001;1.000990904867649E-002;2.386836800724268E-003;-2.021919062826783E-004;
2.407666666666667E+009;1.801926791667938E-001;9.648840874433518E-003;2.221314003691077E-003;-3.816623939201236E-004;
2.407833333333334E+009;1.795470118522644E-001;8.859968744218350E-003;2.352216979488730E-003;-4.904792294837534E-004;
2.408000000000000E+009;1.789503544569016E-001;8.239005692303181E-003;2.151920460164547E-003;-6.592753925360739E-004;
2.408166666666667E+009;1.784126311540604E-001;7.700388785451651E-003;2.214347478002310E-003;-6.886302144266665E-004;
2.408333333333334E+009;1.779944002628326E-001;6.717403419315815E-003;2.193567110225558E-003;-9.124219068326056E-004;
2.408500000000000E+009;1.771929860115051E-001;5.938871763646603E-003;2.241413341835141E-003;-1.045269542373717E-003;
2.408666666666667E+009;1.765870898962021E-001;4.807826597243547E-003;1.951606012880802E-003;-1.082066795788705E-003;
2.408833333333334E+009;1.756274700164795E-001;3.797075012698770E-003;2.026471309363842E-003;-1.224129344336689E-003;
2.409000000000000E+009;1.749434471130371E-001;2.773095853626728E-003;1.796420081518591E-003;-1.184129272587597E-003;
2.409166666666667E+009;1.741644293069840E-001;1.324989600107074E-003;1.710881362669170E-003;-1.210843329317868E-003;
2.409333333333334E+009;1.735420972108841E-001;-1.409028773196042E-004;1.684169052168727E-003;-1.314039342105389E-003;
2.409500000000000E+009;1.726977974176407E-001;-1.623251475393772E-003;1.701650093309581E-003;-1.479043974541128E-003;
2.409666666666667E+009;1.719333976507187E-001;-3.085684962570667E-003;1.461840467527509E-003;-1.403555856086314E-003;
2.409833333333334E+009;1.710451543331146E-001;-4.527468234300613E-003;1.371539081446827E-003;-1.517810625955463E-003;
2.410000000000000E+009;1.706224530935288E-001;-6.201055832207203E-003;1.263351179659367E-003;-1.551827765069902E-003;
2.410166666666667E+009;1.699170768260956E-001;-7.985550910234451E-003;1.145035494118929E-003;-1.646616030484438E-003;
2.410333333333334E+009;1.692829579114914E-001;-9.764212183654308E-003;1.068580546416342E-003;-1.748090027831495E-003;
2.410500000000000E+009;1.688418388366699E-001;-1.167624257504940E-002;8.628318319097161E-004;-1.777232741005719E-003;
2.410666666666667E+009;1.684100478887558E-001;-1.379707362502813E-002;8.980788406915963E-004;-1.849656342528760E-003;
2.410833333333334E+009;1.679215282201767E-001;-1.566653512418270E-002;8.279291214421392E-004;-1.704176771454513E-003;
2.411000000000000E+009;1.677098870277405E-001;-1.740182377398014E-002;6.540119065903127E-004;-1.814546179957688E-003;
2.411166666666667E+009;1.673488020896912E-001;-1.969446428120136E-002;5.493151838891208E-004;-1.850930508226156E-003;
2.411333333333334E+009;1.672105044126511E-001;-2.156138792634010E-002;3.354301443323493E-004;-1.839062315411866E-003;
2.411500000000000E+009;1.669618636369705E-001;-2.380745485424995E-002;4.749096478917636E-005;-1.692261197604239E-003;
2.411666666666667E+009;1.670663505792618E-001;-2.586242742836475E-002;1.691653887974098E-004;-1.834042952395976E-003;
2.411833333333334E+009;1.671201288700104E-001;-2.771927602589130E-002;-9.829164628172293E-005;-1.766167697496712E-003;
2.412000000000000E+009;1.674470156431198E-001;-2.997960522770882E-002;-7.595743954880163E-005;-1.644954201765358E-003;
2.412166666666667E+009;1.674138456583023E-001;-3.207200765609741E-002;-2.145591715816408E-004;-1.677631400525570E-003;
2.412333333333334E+009;1.679677218198776E-001;-3.380102664232254E-002;-3.452776581980288E-004;-1.661421149037778E-003;
2.412500000000000E+009;1.681185662746429E-001;-3.571712225675583E-002;-4.224037111271173E-004;-1.448544440791011E-003;
2.412666666666667E+009;1.688054203987122E-001;-3.772724419832230E-002;-7.035699090920389E-004;-1.532195834442973E-003;
2.412833333333334E+009;1.691158860921860E-001;-3.956824168562889E-002;-6.225292454473674E-004;-1.363597344607115E-003;
2.413000000000000E+009;1.695363074541092E-001;-4.117750003933907E-002;-5.801456863991916E-004;-1.190620008856058E-003;
2.413166666666667E+009;1.701526045799255E-001;-4.302711784839630E-002;-9.137370507232845E-004;-1.290772459469736E-003;
2.413333333333334E+009;1.706172972917557E-001;-4.474148154258728E-002;-8.866416756063700E-004;-9.789479663595557E-004;
2.413500000000000E+009;1.713131070137024E-001;-4.630076885223389E-002;-8.992261718958616E-004;-1.082086120732129E-003;
2.413666666666667E+009;1.720485687255859E-001;-4.798183962702751E-002;-9.394517983309925E-004;-8.352486183866859E-004;
2.413833333333334E+009;1.726114749908447E-001;-4.913083091378212E-002;-1.020557247102261E-003;-9.734554914757609E-004;
2.414000000000000E+009;1.730803251266480E-001;-5.054271593689919E-002;-9.663123055361211E-004;-6.817537941969931E-004;
2.414166666666667E+009;1.739075034856796E-001;-5.176727473735809E-002;-1.065077725797892E-003;-5.596575792878866E-004;
2.414333333333334E+009;1.746337115764618E-001;-5.281732976436615E-002;-1.116120372898877E-003;-5.121923168189824E-004;
2.414500000000000E+009;1.753240972757340E-001;-5.386004224419594E-002;-1.047194236889482E-003;-4.248839104548097E-004;
2.414666666666667E+009;1.758060753345490E-001;-5.449895188212395E-002;-9.858667617663741E-004;-2.619702136144042E-004;
2.414833333333334E+009;1.762759685516357E-001;-5.556626990437508E-002;-1.055227476172149E-003;-1.670730707701296E-004;
2.415000000000000E+009;1.767528653144836E-001;-5.625163391232491E-002;-9.348074090667069E-004;-8.339704800164327E-005;
2.415166666666667E+009;1.770828217267990E-001;-5.674226954579353E-002;-1.083688461221755E-003;7.208083115983754E-005;
2.415333333333334E+009;1.777660101652145E-001;-5.747555568814278E-002;-1.028166152536869E-003;7.195265061454848E-005;
2.415500000000000E+009;1.780693084001541E-001;-5.773729830980301E-002;-8.148292545229197E-004;1.247836917173117E-004;
2.415666666666667E+009;1.782351583242416E-001;-5.809514597058296E-002;-8.435202180407941E-004;1.745804329402745E-004;
2.415833333333334E+009;1.785250604152679E-001;-5.849600583314896E-002;-1.030373619869351E-003;1.841700432123616E-004;
2.416000000000000E+009;1.785078048706055E-001;-5.870765820145607E-002;-9.298691875301302E-004;2.474533102940768E-004;
2.416166666666667E+009;1.786999255418778E-001;-5.892222374677658E-002;-8.442412945441902E-004;3.567269595805556E-004;
2.416333333333334E+009;1.785450130701065E-001;-5.906203761696816E-002;-7.509547867812216E-004;3.920331073459238E-004;
2.416500000000000E+009;1.783139854669571E-001;-5.930690094828606E-002;-7.264825399033725E-004;3.786976158153266E-004;
2.416666666666667E+009;1.780131757259369E-001;-5.946561321616173E-002;-6.354381330311298E-004;4.146622959524393E-004;
2.416833333333334E+009;1.778056323528290E-001;-5.949706211686134E-002;-8.231114479713142E-004;6.396197131834924E-004;
2.417000000000000E+009;1.771548986434937E-001;-5.969342589378357E-002;-6.582878413610160E-004;5.870028398931027E-004;
2.417166666666667E+009;1.766062676906586E-001;-5.975060909986496E-002;-4.189558676443994E-004;7.465451490134001E-004;
2.417333333333334E+009;1.760951578617096E-001;-5.983903259038925E-002;-5.927850725129247E-004;6.050083320587874E-004;
2.417500000000000E+009;1.752408444881439E-001;-6.018086522817612E-002;-4.664979642257094E-004;5.982624716125429E-004;
2.417666666666667E+009;1.744467765092850E-001;-6.022357195615768E-002;-3.924602351617068E-004;6.649784627370536E-004;
2.417833333333334E+009;1.735297590494156E-001;-6.039082258939743E-002;-4.226672463119030E-004;7.493793382309377E-004;
2.418000000000000E+009;1.724007725715637E-001;-6.081649661064148E-002;-3.165320667903870E-004;7.390099344775081E-004;
2.418166666666667E+009;1.713781803846359E-001;-6.083780527114868E-002;-2.765572280623019E-004;8.204228361137211E-004;
2.418333333333334E+009;1.705539971590042E-001;-6.143315881490707E-002;-4.086017725057900E-004;7.911038701422513E-004;
2.418500000000000E+009;1.692253947257996E-001;-6.193564832210541E-002;-2.910521288868040E-004;7.837512530386448E-004;
2.418666666666667E+009;1.681905537843704E-001;-6.242851540446281E-002;-2.861017128452659E-004;8.491810876876116E-004;
2.418833333333334E+009;1.665431410074234E-001;-6.300575286149979E-002;-3.198946651536971E-004;9.570398251526058E-004;
2.419000000000000E+009;1.653688997030258E-001;-6.352172046899796E-002;-2.520211564842612E-004;8.168884669430554E-004;
2.419166666666667E+009;1.640046834945679E-001;-6.437275558710098E-002;-2.361137885600328E-004;9.647221304476261E-004;
2.419333333333334E+009;1.627266407012940E-001;-6.494434922933579E-002;-1.218037286889739E-004;1.034140703268349E-003;
2.419500000000000E+009;1.615579128265381E-001;-6.602294743061066E-002;-1.864283694885671E-004;1.115177175961435E-003;
2.419666666666667E+009;1.603870987892151E-001;-6.714385747909546E-002;-8.272749255411327E-005;9.624196100048721E-004;
2.419833333333334E+009;1.591338217258453E-001;-6.813498586416245E-002;-9.461057197768241E-005;1.078975037671626E-003;
2.420000000000000E+009;1.579072177410126E-001;-6.924635171890259E-002;-4.034552694065496E-005;1.188025227747858E-003;
2.420166666666667E+009;1.566560715436935E-001;-7.042629271745682E-002;-7.365298370132223E-005;1.262758160009980E-003;
2.420333333333334E+009;1.556459665298462E-001;-7.181135565042496E-002;2.434510861348826E-006;1.238025259226561E-003;
2.420500000000000E+009;1.546772420406342E-001;-7.292847335338593E-002;6.094911896070698E-006;1.286077545955777E-003;
2.420666666666667E+009;1.535583585500717E-001;-7.444071024656296E-002;1.866272796178237E-004;1.301500247791410E-003;
2.420833333333334E+009;1.527129709720612E-001;-7.610353827476502E-002;1.227141765411943E-004;1.445264555513859E-003;
2.421000000000000E+009;1.518038660287857E-001;-7.763675600290299E-002;2.628868969622999E-004;1.423224923200905E-003;
2.421166666666667E+009;1.511203944683075E-001;-7.942151278257370E-002;2.942175779026002E-004;1.444413675926626E-003;
2.421333333333334E+009;1.507432460784912E-001;-8.099697530269623E-002;3.499600279610604E-004;1.478542806580663E-003;
2.421500000000000E+009;1.499576717615128E-001;-8.262511342763901E-002;4.775134730152786E-004;1.663489849306643E-003;
2.421666666666667E+009;1.494901627302170E-001;-8.443683385848999E-002;6.261789822019637E-004;1.503148349002004E-003;
2.421833333333334E+009;1.492111831903458E-001;-8.617679029703140E-002;7.779856678098440E-004;1.713147736154497E-003;
2.422000000000000E+009;1.489287912845612E-001;-8.801237493753433E-002;9.485322516411543E-004;1.617059577256441E-003;
2.422166666666667E+009;1.487284898757935E-001;-8.984271436929703E-002;9.388606995344162E-004;1.659545581787825E-003;
2.422333333333334E+009;1.486397385597229E-001;-9.167622029781342E-002;1.148361829109490E-003;1.612542429938912E-003;
2.422500000000000E+009;1.485832929611206E-001;-9.321440756320953E-002;1.144742593169212E-003;1.513743191026151E-003;
2.422666666666667E+009;1.485432535409927E-001;-9.505447000265122E-002;1.355146290734410E-003;1.487805624492466E-003;
2.422833333333334E+009;1.489021480083466E-001;-9.687471389770508E-002;1.348744495771825E-003;1.455409568734467E-003;
2.423000000000000E+009;1.491951942443848E-001;-9.844072908163071E-002;1.470071962103248E-003;1.376989996060729E-003;
2.423166666666667E+009;1.496556252241135E-001;-1.001876443624497E-001;1.698820036835969E-003;1.469870680011809E-003;
2.423333333333334E+009;1.499776542186737E-001;-1.017954871058464E-001;1.820593839511275E-003;1.186967128887773E-003;
2.423500000000000E+009;1.503005027770996E-001;-1.032451018691063E-001;1.798594137653709E-003;1.050799037329853E-003;
2.423666666666667E+009;1.506076604127884E-001;-1.047590821981430E-001;1.789332600310445E-003;1.214307034388185E-003;
2.423833333333334E+009;1.514581292867661E-001;-1.063004732131958E-001;1.958913868293166E-003;1.080974936485291E-003;
2.424000000000000E+009;1.518317908048630E-001;-1.074520200490952E-001;2.261690096929669E-003;1.065318938344717E-003;
2.424166666666667E+009;1.522772312164307E-001;-1.087860092520714E-001;2.111095003783703E-003;8.705399814061821E-004;
2.424333333333334E+009;1.528995931148529E-001;-1.098769605159760E-001;2.085076179355383E-003;8.286538068205118E-004;
2.424500000000000E+009;1.535538285970688E-001;-1.110231801867485E-001;2.304580295458436E-003;6.849594064988196E-004;
2.424666666666667E+009;1.542344689369202E-001;-1.118367835879326E-001;2.233604900538921E-003;4.457614268176258E-004;
2.424833333333334E+009;1.545573621988297E-001;-1.127496138215065E-001;2.360729733482003E-003;4.531409358605743E-004;
2.425000000000000E+009;1.552537828683853E-001;-1.137221977114677E-001;2.350370632484555E-003;3.913283871952444E-004;
2.425166666666667E+009;1.556239277124405E-001;-1.143877878785133E-001;2.396289026364684E-003;3.234294708818197E-004;
2.425333333333334E+009;1.560403257608414E-001;-1.150742024183273E-001;2.360774204134941E-003;9.686062549008057E-005;
2.425500000000000E+009;1.565124392509460E-001;-1.157676652073860E-001;2.422165125608444E-003;1.782094329882966E-007;
2.425666666666667E+009;1.567132025957108E-001;-1.163333505392075E-001;2.461631083860993E-003;-7.810292299836874E-005;
2.425833333333334E+009;1.569869518280029E-001;-1.165848225355148E-001;2.493080450221896E-003;-9.099861199501902E-005;
2.426000000000000E+009;1.571494936943054E-001;-1.170581802725792E-001;2.450473839417100E-003;-1.626298035262153E-004;
2.426166666666667E+009;1.574605852365494E-001;-1.174340173602104E-001;2.508125035092235E-003;-2.901913539972156E-004;
2.426333333333334E+009;1.573229730129242E-001;-1.175713986158371E-001;2.486720681190491E-003;-5.783511442132294E-004;
2.426500000000000E+009;1.573143452405930E-001;-1.177279874682427E-001;2.472571097314358E-003;-6.085700588300824E-004;
2.426666666666667E+009;1.573274880647659E-001;-1.176581606268883E-001;2.540812594816089E-003;-7.153959013521671E-004;
2.426833333333334E+009;1.569926738739014E-001;-1.178826987743378E-001;2.382057020440698E-003;-9.444961906410754E-004;
2.427000000000000E+009;1.565582901239395E-001;-1.179836317896843E-001;2.330393996089697E-003;-9.798969840630889E-004;
2.427166666666667E+009;1.561523824930191E-001;-1.179262325167656E-001;2.311730291694403E-003;-1.107929972931743E-003;
2.427333333333334E+009;1.555715501308441E-001;-1.180186942219734E-001;2.440296346321702E-003;-1.068309647962451E-003;
2.427500000000000E+009;1.549828201532364E-001;-1.180409342050552E-001;2.406189683824778E-003;-1.202867366373539E-003;
2.427666666666667E+009;1.542328298091888E-001;-1.181491091847420E-001;2.618341473862529E-003;-1.375267747789621E-003;
2.427833333333334E+009;1.532516777515411E-001;-1.182624772191048E-001;2.366051077842712E-003;-1.198610872961581E-003;
