# Version 1.00
#
freq[Hz];re:Trc1_S11;im:Trc1_S11;re:Trc2_S21;im:Trc2_S21;
2.400000000000000E+009;1.561340689659119E-001;6.208346411585808E-002;-2.932345705630723E-005;2.952479757368565E-003;
2.400166666666667E+009;1.561965495347977E-001;6.032558903098106E-002;1.177037920570001E-004;2.944997278973460E-003;
2.400333333333334E+009;1.560164988040924E-001;5.818679183721542E-002;1.791940012481064E-004;3.000458236783743E-003;
2.400500000000000E+009;1.560643911361694E-001;5.615469068288803E-002;1.573921472299844E-004;3.004211001098156E-003;
2.400666666666667E+009;1.562349647283554E-001;5.410213395953178E-002;2.644257328938693E-004;2.670171204954386E-003;
2.400833333333334E+009;1.563848853111267E-001;5.203649774193764E-002;3.910029481630772E-004;2.931421389803290E-003;
2.401000000000000E+009;1.566430777311325E-001;4.993716999888420E-002;6.095740245655179E-004;2.775765955448151E-003;
2.401166666666667E+009;1.569115221500397E-001;4.777700826525688E-002;5.754879675805569E-004;2.867353847250342E-003;
2.401333333333334E+009;1.571329385042191E-001;4.551208019256592E-002;7.659093826077879E-004;2.823059447109699E-003;
2.401500000000000E+009;1.578647494316101E-001;4.336627200245857E-002;7.150317542254925E-004;2.798532368615270E-003;
2.401666666666667E+009;1.582318991422653E-001;4.136955738067627E-002;9.741091635078192E-004;2.666935557499528E-003;
2.401833333333334E+009;1.587594300508499E-001;3.909834846854210E-002;1.337870256975293E-003;2.694994676858187E-003;
2.402000000000000E+009;1.591788530349731E-001;3.731171786785126E-002;1.277341274544597E-003;2.472399501129985E-003;
2.402166666666667E+009;1.600048691034317E-001;3.524045646190643E-002;1.244746963493526E-003;2.593343611806631E-003;
2.402333333333334E+009;1.606176048517227E-001;3.348298370838165E-002;1.444241730496287E-003;2.442168537527323E-003;
2.402500000000000E+009;1.615705490112305E-001;3.175473585724831E-002;1.529354369267821E-003;2.558228326961398E-003;
2.402666666666667E+009;1.624277681112289E-001;2.988497726619244E-002;1.713902456685901E-003;2.311331219971180E-003;
2.402833333333334E+009;1.633606702089310E-001;2.837054990231991E-002;1.741632935591042E-003;2.136415569111705E-003;
2.403000000000000E+009;1.642806529998779E-001;2.659037709236145E-002;1.792213064618409E-003;2.177080139517784E-003;
2.403166666666667E+009;1.653816699981690E-001;2.514824084937573E-002;1.749606453813613E-003;2.143315970897675E-003;
2.403333333333334E+009;1.664479523897171E-001;2.397228591144085E-002;1.778521109372377E-003;1.933204359374940E-003;
2.403500000000000E+009;1.672994345426559E-001;2.260783500969410E-002;1.910618622787297E-003;2.054585609585047E-003;
2.403666666666667E+009;1.684459894895554E-001;2.120748348534107E-002;1.996560720726848E-003;1.927804551087320E-003;
2.403833333333334E+009;1.696617305278778E-001;2.010543830692768E-002;2.010180614888668E-003;1.771583803929389E-003;
2.404000000000000E+009;1.705477684736252E-001;1.911746710538864E-002;2.016811398789287E-003;1.551697961986065E-003;
2.404166666666667E+009;1.715965121984482E-001;1.809339225292206E-002;2.041622530668974E-003;1.525598461739719E-003;
2.404333333333334E+009;1.726584583520889E-001;1.741774566471577E-002;1.946837408468127E-003;1.324547571130097E-003;
2.404500000000000E+009;1.735910177230835E-001;1.649115607142448E-002;2.055422170087695E-003;1.491538365371525E-003;
2.404666666666667E+009;1.746579706668854E-001;1.586017571389675E-002;2.097005257382989E-003;1.308999606408179E-003;
2.404833333333334E+009;1.755322068929672E-001;1.505601592361927E-002;2.177481073886156E-003;1.134641119278967E-003;
2.405000000000000E+009;1.766144335269928E-001;1.447363570332527E-002;2.104712650179863E-003;1.019036862999201E-003;
2.405166666666667E+009;1.772276759147644E-001;1.403953321278095E-002;2.334338612854481E-003;9.921946329995990E-004;
2.405333333333334E+009;1.781117618083954E-001;1.344525068998337E-002;2.215105341747403E-003;7.260350394062698E-004;
2.405500000000000E+009;1.786228120326996E-001;1.327151153236628E-002;2.277314662933350E-003;7.741349400021136E-004;
2.405666666666667E+009;1.794126629829407E-001;1.289495918899775E-002;2.316492144018412E-003;6.630051648244262E-004;
2.405833333333334E+009;1.797776222229004E-001;1.266381982713938E-002;2.268887590616942E-003;8.258765446953476E-004;
2.406000000000000E+009;1.805172264575958E-001;1.230776589363813E-002;2.203403506428003E-003;5.499875987879932E-004;
2.406166666666667E+009;1.807397305965424E-001;1.230398379266262E-002;2.522991271689534E-003;4.852023557759821E-004;
2.406333333333334E+009;1.811098754405975E-001;1.206279639154673E-002;2.384660765528679E-003;5.597590352408588E-004;
2.406500000000000E+009;1.811129450798035E-001;1.172862853854895E-002;2.239757915958762E-003;4.707675252575427E-004;
2.406666666666667E+009;1.812519282102585E-001;1.152206026017666E-002;2.546857576817274E-003;3.202275838702917E-004;
2.406833333333334E+009;1.814104020595551E-001;1.133327279239893E-002;2.186200581490994E-003;2.100614510709420E-004;
2.407000000000000E+009;1.813491284847260E-001;1.093039568513632E-002;2.457682741805911E-003;1.758327998686582E-004;
2.407166666666667E+009;1.813161969184876E-001;1.079155318439007E-002;2.396818716078997E-003;-6.598890468012542E-005;
2.407333333333334E+009;1.808420866727829E-001;1.021126843988895E-002;2.496937289834023E-003;-4.923265441902913E-005;
2.407500000000000E+009;1.805267632007599E-001;9.989231824874878E-003;2.435521688312292E-003;-3.084167256020010E-004;
2.407666666666667E+009;1.802963763475418E-001;9.531360119581223E-003;2.365040825679898E-003;-5.090994527563453E-004;
2.407833333333334E+009;1.796071529388428E-001;8.884830400347710E-003;2.213447354733944E-003;-5.655488930642605E-004;
2.408000000000000E+009;1.791722774505615E-001;8.132327347993851E-003;2.429435262456536E-003;-6.626691902056336E-004;
2.408166666666667E+009;1.785725653171539E-001;7.669370155781508E-003;2.298928098753095E-003;-8.410561131313443E-004;
2.408333333333334E+009;1.781028211116791E-001;6.735196337103844E-003;2.021395834162831E-003;-8.952086209319532E-004;
2.408500000000000E+009;1.774282157421112E-001;5.697920452803373E-003;2.128509804606438E-003;-1.062353374436498E-003;
2.408666666666667E+009;1.767582744359970E-001;4.803511779755354E-003;2.182702766731381E-003;-1.117537845857441E-003;
2.408833333333334E+009;1.758609414100647E-001;3.662429982796311E-003;1.945897587575018E-003;-1.165155670605600E-003;
2.409000000000000E+009;1.751032024621964E-001;2.561211120337248E-003;1.839556731283665E-003;-1.224671141244471E-003;
2.409166666666667E+009;1.741891503334045E-001;1.175419893115759E-003;1.919158385135233E-003;-1.361229573376477E-003;
2.409333333333334E+009;1.735875606536865E-001;-1.090314108296298E-004;1.679311157204211E-003;-1.364772673696280E-003;
2.409500000000000E+009;1.728803217411041E-001;-1.609510742127895E-003;1.779061974957585E-003;-1.484169857576489E-003;
2.409666666666667E+009;1.719993203878403E-001;-3.167419694364071E-003;1.435796380974352E-003;-1.753292512148619E-003;
2.409833333333334E+009;1.712902933359146E-001;-4.714231006801128E-003;1.330131664872170E-003;-1.599540817551315E-003;
2.410000000000000E+009;1.707461625337601E-001;-6.198673974722624E-003;1.247868407517672E-003;-1.727381953969598E-003;
2.410166666666667E+009;1.700031310319901E-001;-7.983607240021229E-003;1.114687067456543E-003;-1.784468884579837E-003;
2.410333333333334E+009;1.692782789468765E-001;-9.878088720142841E-003;1.011331798508763E-003;-1.695354469120503E-003;
2.410500000000000E+009;1.687754541635513E-001;-1.169970072805882E-002;1.111816964112222E-003;-1.783672953024507E-003;
2.410666666666667E+009;1.682686805725098E-001;-1.389376446604729E-002;7.826963555999100E-004;-1.819741330109537E-003;
2.410833333333334E+009;1.678931415081024E-001;-1.561352983117104E-002;7.720161811448634E-004;-2.036481862887740E-003;
2.411000000000000E+009;1.676195561885834E-001;-1.766845583915710E-002;5.064447759650648E-004;-1.860319753177464E-003;
2.411166666666667E+009;1.674469560384750E-001;-1.974089443683624E-002;3.920543822459877E-004;-1.831392757594585E-003;
2.411333333333334E+009;1.670797765254974E-001;-2.166304551064968E-002;3.094770654570311E-004;-1.965018687769771E-003;
2.411500000000000E+009;1.668805032968521E-001;-2.381644397974014E-002;1.695300888968632E-004;-1.885793521068990E-003;
2.411666666666667E+009;1.671005785465241E-001;-2.608124911785126E-002;1.165194917120971E-004;-1.784672844223678E-003;
2.411833333333334E+009;1.670916974544525E-001;-2.802593074738979E-002;-6.198438495630398E-005;-1.825777115300298E-003;
2.412000000000000E+009;1.673672199249268E-001;-3.002503886818886E-002;-2.533286751713604E-004;-1.740627456456423E-003;
2.412166666666667E+009;1.674929708242416E-001;-3.197261691093445E-002;-1.234092342201620E-004;-1.768819754943252E-003;
2.412333333333334E+009;1.680060625076294E-001;-3.390812128782272E-002;-4.026562965009362E-004;-1.648737583309412E-003;
2.412500000000000E+009;1.680672764778137E-001;-3.583862259984016E-002;-5.124124581925571E-004;-1.546650659292936E-003;
2.412666666666667E+009;1.686533540487289E-001;-3.791438788175583E-002;-6.840143469162285E-004;-1.638679648749530E-003;
2.412833333333334E+009;1.690549850463867E-001;-3.966824337840080E-002;-6.589962285943329E-004;-1.345443539321423E-003;
2.413000000000000E+009;1.696794033050537E-001;-4.138712584972382E-002;-6.092129042372108E-004;-1.293964916840196E-003;
2.413166666666667E+009;1.700357645750046E-001;-4.316000640392304E-002;-8.286715019494295E-004;-1.284804777242243E-003;
2.413333333333334E+009;1.705882698297501E-001;-4.498834162950516E-002;-8.923946879804134E-004;-1.106210052967072E-003;
2.413500000000000E+009;1.714015454053879E-001;-4.632644727826119E-002;-1.020989962853491E-003;-9.341542026959360E-004;
2.413666666666667E+009;1.721909046173096E-001;-4.801135882735252E-002;-9.831131901592016E-004;-1.087818644009531E-003;
2.413833333333334E+009;1.726550608873367E-001;-4.924696311354637E-002;-1.000190735794604E-003;-6.645066314376891E-004;
2.414000000000000E+009;1.732512265443802E-001;-5.054444074630737E-002;-1.141504268161953E-003;-6.741388933733106E-004;
2.414166666666667E+009;1.740805357694626E-001;-5.173910036683083E-002;-1.195719232782722E-003;-5.497484235092998E-004;
2.414333333333334E+009;1.745535880327225E-001;-5.285532772541046E-002;-1.106092357076705E-003;-4.991185851395130E-004;
2.414500000000000E+009;1.753445565700531E-001;-5.381411686539650E-002;-1.073271734640002E-003;-4.515085602179170E-004;
2.414666666666667E+009;1.757214963436127E-001;-5.467463284730911E-002;-1.288889092393220E-003;-3.903142351191491E-004;
2.414833333333334E+009;1.762635409832001E-001;-5.562197789549828E-002;-1.145304879173636E-003;-2.386537526035681E-004;
2.415000000000000E+009;1.767500489950180E-001;-5.624435842037201E-002;-1.194000593386591E-003;-1.336845016339794E-004;
2.415166666666667E+009;1.772593706846237E-001;-5.689421296119690E-002;-1.061205170117319E-003;-7.170144090196118E-005;
2.415333333333334E+009;1.777153909206390E-001;-5.750333517789841E-002;-9.895832045003772E-004;-4.518386049312539E-005;
2.415500000000000E+009;1.779273003339768E-001;-5.789936706423760E-002;-1.022485201247037E-003;1.581303804414347E-004;
2.415666666666667E+009;1.782191097736359E-001;-5.812959372997284E-002;-9.722073446027935E-004;1.897261245176196E-004;
2.415833333333334E+009;1.784790903329849E-001;-5.858541280031204E-002;-9.254051255993545E-004;3.284094273112714E-004;
2.416000000000000E+009;1.784254461526871E-001;-5.891230702400208E-002;-9.247276466339827E-004;3.768477181438357E-004;
2.416166666666667E+009;1.787053048610687E-001;-5.911382660269737E-002;-6.827469333074987E-004;4.221593553666025E-004;
2.416333333333334E+009;1.784378886222839E-001;-5.916346609592438E-002;-9.225149988196790E-004;3.913531254511327E-004;
2.416500000000000E+009;1.783608645200729E-001;-5.945478007197380E-002;-6.894548423588276E-004;5.178363644517958E-004;
2.416666666666667E+009;1.780122220516205E-001;-5.946397408843041E-002;-6.059023435227573E-004;6.914822151884437E-004;
2.416833333333334E+009;1.776502877473831E-001;-5.965916439890862E-002;-7.272657821886241E-004;5.701777408830822E-004;
2.417000000000000E+009;1.771224588155747E-001;-5.990520864725113E-002;-5.648955120705068E-004;5.389768048189580E-004;
2.417166666666667E+009;1.764762252569199E-001;-5.979225412011147E-002;-7.124558906070888E-004;7.392014958895743E-004;
2.417333333333334E+009;1.759757399559021E-001;-5.990833416581154E-002;-4.955275217071176E-004;7.389114471152425E-004;
2.417500000000000E+009;1.750599294900894E-001;-6.029418483376503E-002;-4.805291246157140E-004;6.476640119217336E-004;
2.417666666666667E+009;1.744062155485153E-001;-6.025861948728561E-002;-5.380567745305598E-004;7.675270899198949E-004;
2.417833333333334E+009;1.734285354614258E-001;-6.039370596408844E-002;-4.593289049807936E-004;8.847553981468082E-004;
2.418000000000000E+009;1.724275648593903E-001;-6.084709987044334E-002;-4.091020673513413E-004;7.960901712067425E-004;
2.418166666666667E+009;1.712647974491119E-001;-6.094707548618317E-002;-5.488121532835066E-004;8.045727736316621E-004;
2.418333333333334E+009;1.703783422708511E-001;-6.140754371881485E-002;-4.674311785493046E-004;7.480619824491441E-004;
2.418500000000000E+009;1.691838651895523E-001;-6.188763678073883E-002;-3.295638307463378E-004;9.221828659065068E-004;
2.418666666666667E+009;1.680144071578980E-001;-6.232396885752678E-002;-3.013985697180033E-004;8.203109027817845E-004;
2.418833333333334E+009;1.666092574596405E-001;-6.301435083150864E-002;-3.149036201648414E-004;8.204195182770491E-004;
2.419000000000000E+009;1.652856171131134E-001;-6.361128389835358E-002;-3.775829100050032E-004;9.902300080284476E-004;
2.419166666666667E+009;1.640132814645767E-001;-6.425381451845169E-002;-2.028787421295419E-004;9.217383922077715E-004;
2.419333333333334E+009;1.625561714172363E-001;-6.497742980718613E-002;-3.621052019298077E-004;9.325405699200928E-004;
2.419500000000000E+009;1.614430695772171E-001;-6.596221774816513E-002;-1.257558760698885E-004;9.174590813927352E-004;
2.419666666666667E+009;1.603756397962570E-001;-6.715966761112213E-002;-1.851878769230098E-004;9.629087289795280E-004;
2.419833333333334E+009;1.589775681495667E-001;-6.796915084123612E-002;-8.240231545642018E-005;1.190691487863660E-003;
2.420000000000000E+009;1.577503681182861E-001;-6.917377561330795E-002;-1.877155737020075E-004;1.170428935438395E-003;
2.420166666666667E+009;1.566793620586395E-001;-7.053707540035248E-002;7.281084981514141E-005;1.086382195353508E-003;
2.420333333333334E+009;1.556564718484879E-001;-7.185962796211243E-002;-3.358181129442528E-005;1.251529436558485E-003;
2.420500000000000E+009;1.546051204204559E-001;-7.313858717679977E-002;5.670955943060108E-005;1.282784738577902E-003;
2.420666666666667E+009;1.535892188549042E-001;-7.449121028184891E-002;2.450384781695902E-004;1.419227104634047E-003;
2.420833333333334E+009;1.527433991432190E-001;-7.595795392990112E-002;9.690203296486288E-005;1.342368661426008E-003;
2.421000000000000E+009;1.518967449665070E-001;-7.763613760471344E-002;2.515540982130915E-004;1.457256847061217E-003;
2.421166666666667E+009;1.512850224971771E-001;-7.927623391151428E-002;3.798692778218538E-004;1.377053093165159E-003;
2.421333333333334E+009;1.506484895944595E-001;-8.091964572668076E-002;5.174980615265667E-004;1.522216130979359E-003;
2.421500000000000E+009;1.500056982040405E-001;-8.263049274682999E-002;4.928427515551448E-004;1.440308056771755E-003;
2.421666666666667E+009;1.495262682437897E-001;-8.453759551048279E-002;5.592069355770946E-004;1.298254239372909E-003;
2.421833333333334E+009;1.491157412528992E-001;-8.617978543043137E-002;5.658584414049983E-004;1.438020728528500E-003;
2.422000000000000E+009;1.490105986595154E-001;-8.807985484600067E-002;8.903101552277803E-004;1.551978173665702E-003;
2.422166666666667E+009;1.488308906555176E-001;-8.999068289995194E-002;9.972612606361508E-004;1.392445294186473E-003;
2.422333333333334E+009;1.487130671739578E-001;-9.154802560806274E-002;9.586717351339757E-004;1.550551271066070E-003;
2.422500000000000E+009;1.487764567136765E-001;-9.326494485139847E-002;1.046221354044974E-003;1.484955893829465E-003;
2.422666666666667E+009;1.486521661281586E-001;-9.506280720233917E-002;1.291759079322219E-003;1.300983247347176E-003;
2.422833333333334E+009;1.491078287363052E-001;-9.696217626333237E-002;1.437103375792503E-003;1.472289324738085E-003;
2.423000000000000E+009;1.491821706295013E-001;-9.860134869813919E-002;1.389878685586155E-003;1.523689017631114E-003;
2.423166666666667E+009;1.495961099863052E-001;-1.002318337559700E-001;1.598558737896383E-003;1.288102474063635E-003;
2.423333333333334E+009;1.500456482172012E-001;-1.017598584294319E-001;1.627771416679025E-003;1.302077434957027E-003;
2.423500000000000E+009;1.503613293170929E-001;-1.032322943210602E-001;1.721254433505237E-003;1.124649192206562E-003;
2.423666666666667E+009;1.506041437387466E-001;-1.049431934952736E-001;1.809900044463575E-003;1.060295617207885E-003;
2.423833333333334E+009;1.514005661010742E-001;-1.064188852906227E-001;1.916218781843782E-003;1.030267099849880E-003;
2.424000000000000E+009;1.518248915672302E-001;-1.075077652931213E-001;2.057577250525355E-003;9.714184561744332E-004;
2.424166666666667E+009;1.521856486797333E-001;-1.088576391339302E-001;2.096088370308280E-003;7.914668531157076E-004;
2.424333333333334E+009;1.529330015182495E-001;-1.098620668053627E-001;2.160021569579840E-003;6.828003679402173E-004;
2.424500000000000E+009;1.536304801702499E-001;-1.110880449414253E-001;2.158073941245675E-003;5.359225906431675E-004;
2.424666666666667E+009;1.542555689811707E-001;-1.120475009083748E-001;2.315028104931116E-003;4.446937527973205E-004;
2.424833333333334E+009;1.545749306678772E-001;-1.129695177078247E-001;2.377340337261558E-003;3.526167711243033E-004;
2.425000000000000E+009;1.551747471094132E-001;-1.137971207499504E-001;2.338161924853921E-003;3.443169116508216E-004;
2.425166666666667E+009;1.555621176958084E-001;-1.145319566130638E-001;2.490566810593009E-003;1.915398606797680E-004;
2.425333333333334E+009;1.560133844614029E-001;-1.151575073599815E-001;2.486085752025247E-003;1.175665784103330E-005;
2.425500000000000E+009;1.566006094217300E-001;-1.157992705702782E-001;2.460396382957697E-003;3.853097223327495E-005;
2.425666666666667E+009;1.565489172935486E-001;-1.163410097360611E-001;2.471264451742172E-003;-8.725115185370669E-005;
2.425833333333334E+009;1.569909602403641E-001;-1.166559904813767E-001;2.340191276744008E-003;-1.085707044694573E-004;
2.426000000000000E+009;1.570570021867752E-001;-1.171116083860397E-001;2.497943816706538E-003;-2.699613687582314E-004;
2.426166666666667E+009;1.573094427585602E-001;-1.174024268984795E-001;2.483883174136281E-003;-4.451272252481431E-004;
2.426333333333334E+009;1.573285162448883E-001;-1.174690723419190E-001;2.608294133096933E-003;-4.838132881559432E-004;
2.426500000000000E+009;1.572888195514679E-001;-1.177636012434959E-001;2.523991977795959E-003;-5.367540870793164E-004;
2.426666666666667E+009;1.572779566049576E-001;-1.177731528878212E-001;2.450028667226434E-003;-6.669836584478617E-004;
2.426833333333334E+009;1.568908542394638E-001;-1.177976280450821E-001;2.507171360775828E-003;-7.962310337461531E-004;
2.427000000000000E+009;1.565779894590378E-001;-1.180403828620911E-001;2.531017409637570E-003;-8.499905234202743E-004;
2.427166666666667E+009;1.561587750911713E-001;-1.179374456405640E-001;2.475270768627524E-003;-1.142816036008298E-003;
2.427333333333334E+009;1.554938852787018E-001;-1.180318295955658E-001;2.473019296303392E-003;-1.068257610313594E-003;
2.427500000000000E+009;1.549915522336960E-001;-1.180440559983254E-001;2.294361824169755E-003;-1.253560418263078E-003;
2.427666666666667E+009;1.542140245437622E-001;-1.182109192013741E-001;2.321576233953238E-003;-1.214902149513364E-003;
2.427833333333334E+009;1.532361209392548E-001;-1.182327643036842E-001;2.169616986066103E-003;-1.390915829688311E-003;
