# Version 1.00
#
freq[Hz];re:Trc1_S11;im:Trc1_S11;re:Trc2_S21;im:Trc2_S21;
2.400000000000000E+009;1.581689417362213E-001;6.195588409900665E-002;-2.912877593189478E-003;-1.933202729560435E-003;
2.400166666666667E+009;1.581093668937683E-001;6.046360731124878E-002;-2.813526894897223E-003;-1.808958477340639E-003;
2.400333333333334E+009;1.578743606805801E-001;5.859565734863281E-002;-2.918759128078818E-003;-1.746774069033563E-003;
2.400500000000000E+009;1.579166352748871E-001;5.655296519398689E-002;-2.886245260015130E-003;-1.575952395796776E-003;
2.400666666666667E+009;1.579645872116089E-001;5.463049188256264E-002;-2.963420003652573E-003;-1.450646552257240E-003;
2.400833333333334E+009;1.583523750305176E-001;5.274717137217522E-002;-2.845311304554343E-003;-1.320161507464945E-003;
2.401000000000000E+009;1.582556217908859E-001;5.077826604247093E-002;-2.923145424574614E-003;-1.325333607383072E-003;
2.401166666666667E+009;1.584157347679138E-001;4.875412955880165E-002;-2.861660905182362E-003;-1.006547361612320E-003;
2.401333333333334E+009;1.587110310792923E-001;4.668103903532028E-002;-2.886353060603142E-003;-9.397994144819677E-004;
2.401500000000000E+009;1.591296344995499E-001;4.462996125221252E-002;-2.862892579287291E-003;-7.160786772146821E-004;
2.401666666666667E+009;1.591419875621796E-001;4.278434067964554E-002;-2.809266094118357E-003;-6.010328652337194E-004;
2.401833333333334E+009;1.597311198711395E-001;4.067490249872208E-002;-2.749748062342405E-003;-5.745519301854074E-004;
2.402000000000000E+009;1.600566953420639E-001;3.854956477880478E-002;-2.598945749923587E-003;-4.640804254449904E-004;
2.402166666666667E+009;1.607072651386261E-001;3.643162921071053E-002;-2.642671111971140E-003;-2.576203551143408E-004;
2.402333333333334E+009;1.611053645610809E-001;3.487688675522804E-002;-2.604678273200989E-003;-1.064231764758006E-004;
2.402500000000000E+009;1.620669662952423E-001;3.297811001539230E-002;-2.388279419392347E-003;-1.942960516316816E-004;
2.402666666666667E+009;1.625405550003052E-001;3.131565824151039E-002;-2.400062745437026E-003;-3.180339626851492E-005;
2.402833333333334E+009;1.634296923875809E-001;2.962831221520901E-002;-2.239817054942250E-003;1.225439773406833E-004;
2.403000000000000E+009;1.642001420259476E-001;2.812768705189228E-002;-2.170796506106854E-003;2.223342744400725E-004;
2.403166666666667E+009;1.649924367666245E-001;2.634207345545292E-002;-2.094141673296690E-003;2.143782476196066E-004;
2.403333333333334E+009;1.658082008361816E-001;2.504632249474526E-002;-1.913399784825742E-003;2.535480598453432E-004;
2.403500000000000E+009;1.666761785745621E-001;2.353834360837936E-002;-1.784674357622862E-003;3.375820524524897E-004;
2.403666666666667E+009;1.676028966903687E-001;2.213078923523426E-002;-1.792242284864187E-003;4.672047507483512E-004;
2.403833333333334E+009;1.686573326587677E-001;2.087632752954960E-002;-1.692708465270698E-003;5.784191889688373E-004;
2.404000000000000E+009;1.696665734052658E-001;1.978835836052895E-002;-1.573148183524609E-003;5.557752447202802E-004;
2.404166666666667E+009;1.703373044729233E-001;1.869794726371765E-002;-1.585308113135397E-003;6.236944464035332E-004;
2.404333333333334E+009;1.712618321180344E-001;1.776077039539814E-002;-1.471425057388842E-003;4.599523672368377E-004;
2.404500000000000E+009;1.722266525030136E-001;1.654139719903469E-002;-1.198500976897776E-003;3.920563030987978E-004;
2.404666666666667E+009;1.732814759016037E-001;1.585638336837292E-002;-1.149659859947860E-003;3.445455513428897E-004;
2.404833333333334E+009;1.740337908267975E-001;1.485548540949822E-002;-1.269899075850844E-003;3.313442866783589E-004;
2.405000000000000E+009;1.748747825622559E-001;1.422268617898226E-002;-1.030886196531355E-003;2.178209833800793E-004;
2.405166666666667E+009;1.756254285573959E-001;1.351632643491030E-002;-1.172243966720998E-003;4.843046190217137E-004;
2.405333333333334E+009;1.763941794633865E-001;1.292617246508598E-002;-9.197167819365859E-004;2.466102014295757E-004;
2.405500000000000E+009;1.771347969770432E-001;1.248703058809042E-002;-1.047902973368764E-003;1.995072816498578E-004;
2.405666666666667E+009;1.776874512434006E-001;1.197763625532389E-002;-9.119171882048249E-004;1.025551173370332E-004;
2.405833333333334E+009;1.781665980815888E-001;1.162737980484963E-002;-9.092429536394775E-004;1.648839970584959E-004;
2.406000000000000E+009;1.788117140531540E-001;1.111353468149900E-002;-1.102495123632252E-003;1.163093111244962E-004;
2.406166666666667E+009;1.790464222431183E-001;1.082540675997734E-002;-1.050628605298698E-003;-1.080787769751623E-004;
2.406333333333334E+009;1.796010434627533E-001;1.048752944916487E-002;-1.007470302283764E-003;-7.196187652880326E-005;
2.406500000000000E+009;1.798450946807861E-001;1.013130974024534E-002;-9.994440479204059E-004;-1.532457536086440E-004;
2.406666666666667E+009;1.798599511384964E-001;9.865354746580124E-003;-1.227234839461744E-003;-9.779789979802445E-005;
2.406833333333334E+009;1.802077442407608E-001;9.456561878323555E-003;-9.707486606203020E-004;-1.987335854209960E-004;
2.407000000000000E+009;1.801388561725617E-001;9.117935784161091E-003;-1.066345255821943E-003;-1.039740236592479E-004;
2.407166666666667E+009;1.803242117166519E-001;8.805117569863796E-003;-1.014067791402340E-003;-1.864969817688689E-004;
2.407333333333334E+009;1.801027357578278E-001;8.263424038887024E-003;-1.324163051322103E-003;-3.164255176670849E-004;
2.407500000000000E+009;1.799260973930359E-001;7.907651364803314E-003;-1.252828165888786E-003;-1.841884222812951E-004;
2.407666666666667E+009;1.798005402088165E-001;7.454834878444672E-003;-1.254344475455582E-003;-1.027804537443444E-004;
2.407833333333334E+009;1.792985498905182E-001;6.750209257006645E-003;-1.398568041622639E-003;-2.763590600807220E-004;
2.408000000000000E+009;1.790056377649307E-001;6.083406042307615E-003;-1.370786922052503E-003;-1.090697915060446E-004;
2.408166666666667E+009;1.786012947559357E-001;5.530730355530977E-003;-1.273786765523255E-003;-1.599827664904296E-004;
2.408333333333334E+009;1.783506274223328E-001;4.915694706141949E-003;-1.434548525139689E-003;-1.528557913843542E-004;
2.408500000000000E+009;1.776416152715683E-001;3.871439257636666E-003;-1.373307430185378E-003;-8.209502266254276E-005;
2.408666666666667E+009;1.770746111869812E-001;2.971807261928916E-003;-1.362231443636119E-003;-1.400026812916622E-004;
2.408833333333334E+009;1.763658374547958E-001;1.967064570635557E-003;-1.425265218131244E-003;-2.092803515552077E-005;
2.409000000000000E+009;1.756982207298279E-001;9.832923533394933E-004;-1.526664127595723E-003;2.779884562187363E-005;
2.409166666666667E+009;1.751010417938232E-001;-2.264614595333114E-004;-1.436288468539715E-003;7.727358024567366E-005;
2.409333333333334E+009;1.745012551546097E-001;-1.486168359406292E-003;-1.611788640730083E-003;-5.077941750641912E-005;
2.409500000000000E+009;1.739182621240616E-001;-2.638400997966528E-003;-1.468975329771638E-003;1.276801194762811E-004;
2.409666666666667E+009;1.730659902095795E-001;-4.260194487869740E-003;-1.531276502646506E-003;9.975393368222285E-006;
2.409833333333334E+009;1.724001169204712E-001;-5.435837432742119E-003;-1.572935027070344E-003;5.787514601252042E-005;
2.410000000000000E+009;1.718840152025223E-001;-6.916661746799946E-003;-1.474311924539506E-003;7.157982327044010E-005;
2.410166666666667E+009;1.711203604936600E-001;-8.590894751250744E-003;-1.614387263543904E-003;5.835568663314916E-005;
2.410333333333334E+009;1.705607771873474E-001;-1.011720206588507E-002;-1.648199628107250E-003;1.014694498735480E-004;
2.410500000000000E+009;1.700394749641419E-001;-1.178763527423143E-002;-1.485722372308374E-003;5.765286914538592E-006;
2.410666666666667E+009;1.695522069931030E-001;-1.376476604491472E-002;-1.498565427027643E-003;7.271674985531718E-005;
2.410833333333334E+009;1.694409400224686E-001;-1.536279451102018E-002;-1.655322033911943E-003;1.426194648956880E-004;
2.411000000000000E+009;1.688971966505051E-001;-1.719604805111885E-002;-1.716420869342983E-003;1.317648420808837E-004;
2.411166666666667E+009;1.684874296188355E-001;-1.915584132075310E-002;-1.651396043598652E-003;8.771906868787482E-005;
2.411333333333334E+009;1.682975441217423E-001;-2.088011987507343E-002;-1.678952248767018E-003;3.050808736588806E-004;
2.411500000000000E+009;1.680681109428406E-001;-2.290164120495319E-002;-1.860211952589452E-003;1.792932598618791E-004;
2.411666666666667E+009;1.682041436433792E-001;-2.471891045570374E-002;-1.787190325558186E-003;1.434862206224352E-004;
2.411833333333334E+009;1.681259870529175E-001;-2.666549757122994E-002;-1.844083773903549E-003;3.662242088466883E-004;
2.412000000000000E+009;1.682117432355881E-001;-2.864280156791210E-002;-2.130873501300812E-003;2.718406904023141E-004;
2.412166666666667E+009;1.682730615139008E-001;-3.035850077867508E-002;-2.075002295896411E-003;3.097979933954775E-004;
2.412333333333334E+009;1.685384362936020E-001;-3.221493586897850E-002;-1.990227028727531E-003;3.655827604234219E-004;
2.412500000000000E+009;1.686610877513886E-001;-3.408601507544518E-002;-2.063113031908870E-003;5.529997288249433E-004;
2.412666666666667E+009;1.690791547298431E-001;-3.612945973873138E-002;-2.268456853926182E-003;2.863568079192191E-004;
2.412833333333334E+009;1.693613827228546E-001;-3.798392415046692E-002;-2.400787547230721E-003;7.201710832305253E-004;
2.413000000000000E+009;1.698389351367950E-001;-3.946337476372719E-002;-2.407039050012827E-003;6.093071424402297E-004;
2.413166666666667E+009;1.701458990573883E-001;-4.127092286944389E-002;-2.423308091238141E-003;8.709242683835328E-004;
2.413333333333334E+009;1.705545186996460E-001;-4.284622892737389E-002;-2.536685438826680E-003;9.133344283327460E-004;
2.413500000000000E+009;1.710668802261353E-001;-4.440492019057274E-002;-2.520717680454254E-003;8.939224644564092E-004;
2.413666666666667E+009;1.717644929885864E-001;-4.609479755163193E-002;-2.484458964318037E-003;1.007348648272455E-003;
2.413833333333334E+009;1.719968169927597E-001;-4.744911566376686E-002;-2.434422029182315E-003;1.357603003270924E-003;
2.414000000000000E+009;1.725892424583435E-001;-4.908391088247299E-002;-2.555961720645428E-003;1.313682994805276E-003;
2.414166666666667E+009;1.733199656009674E-001;-4.996324330568314E-002;-2.511656377464533E-003;1.503318198956549E-003;
2.414333333333334E+009;1.737467795610428E-001;-5.150942876935005E-002;-2.353895455598831E-003;1.714863115921617E-003;
2.414500000000000E+009;1.743095666170120E-001;-5.245478451251984E-002;-2.653150120750070E-003;1.660322071984410E-003;
2.414666666666667E+009;1.747961938381195E-001;-5.355977267026901E-002;-2.535036066547036E-003;1.868095365352929E-003;
2.414833333333334E+009;1.752597093582153E-001;-5.451647937297821E-002;-2.289763418957591E-003;2.085545333102346E-003;
2.415000000000000E+009;1.757288128137589E-001;-5.529594793915749E-002;-2.498695626854897E-003;2.147676190361381E-003;
2.415166666666667E+009;1.761139929294586E-001;-5.614922568202019E-002;-2.320499857887626E-003;2.329020993784070E-003;
2.415333333333334E+009;1.764403283596039E-001;-5.689745023846626E-002;-2.301064087077975E-003;2.467014128342271E-003;
2.415500000000000E+009;1.767455339431763E-001;-5.740632861852646E-002;-2.142256358638406E-003;2.626310568302870E-003;
2.415666666666667E+009;1.769633144140244E-001;-5.801194161176682E-002;-2.072157571092248E-003;2.590532414615154E-003;
2.415833333333334E+009;1.772820651531220E-001;-5.861023068428040E-002;-2.097987337037921E-003;2.741464413702488E-003;
2.416000000000000E+009;1.772153079509735E-001;-5.903609097003937E-002;-2.010851399973035E-003;2.768319332972169E-003;
2.416166666666667E+009;1.774281710386276E-001;-5.938867107033730E-002;-1.694042468443513E-003;3.157310653477907E-003;
2.416333333333334E+009;1.773893982172012E-001;-5.976694822311401E-002;-1.636555418372154E-003;3.382274648174644E-003;
2.416500000000000E+009;1.772695481777191E-001;-6.005417183041573E-002;-1.650897436775267E-003;3.338535316288471E-003;
2.416666666666667E+009;1.769692152738571E-001;-6.034944579005241E-002;-1.544747850857675E-003;3.354611806571484E-003;
2.416833333333334E+009;1.766329258680344E-001;-6.065708026289940E-002;-1.199575373902917E-003;3.570848843082786E-003;
2.417000000000000E+009;1.762887686491013E-001;-6.092836707830429E-002;-1.144208246842027E-003;3.700330620631576E-003;
2.417166666666667E+009;1.757935881614685E-001;-6.109309569001198E-002;-1.008942723274231E-003;3.730338765308261E-003;
2.417333333333334E+009;1.752884089946747E-001;-6.131098791956902E-002;-8.377839694730938E-004;3.765308763831854E-003;
2.417500000000000E+009;1.747297048568726E-001;-6.177597120404244E-002;-6.720514502376318E-004;3.691236255690455E-003;
2.417666666666667E+009;1.740492135286331E-001;-6.184517592191696E-002;-5.234249983914197E-004;4.001365043222904E-003;
2.417833333333334E+009;1.732537150382996E-001;-6.213908270001411E-002;-3.446787013672292E-004;3.969844896346331E-003;
2.418000000000000E+009;1.723815798759460E-001;-6.256961077451706E-002;-2.038372767856345E-004;4.045119509100914E-003;
2.418166666666667E+009;1.713456660509110E-001;-6.294146180152893E-002;-7.056908361846581E-005;3.942962735891342E-003;
2.418333333333334E+009;1.707107424736023E-001;-6.327108293771744E-002;2.418215881334618E-004;4.000119399279356E-003;
2.418500000000000E+009;1.695111542940140E-001;-6.380197405815125E-002;3.629358543548733E-004;3.850431879982352E-003;
2.418666666666667E+009;1.685251742601395E-001;-6.433594971895218E-002;4.585292481351644E-004;3.996637649834156E-003;
2.418833333333334E+009;1.672148108482361E-001;-6.489723175764084E-002;6.502487813122571E-004;3.892515320330858E-003;
2.419000000000000E+009;1.660026311874390E-001;-6.557185202836990E-002;7.713558734394610E-004;3.883748315274715E-003;
2.419166666666667E+009;1.650048494338989E-001;-6.609355658292770E-002;1.014742651022971E-003;3.841726109385490E-003;
2.419333333333334E+009;1.637159287929535E-001;-6.688410043716431E-002;1.118746935389936E-003;3.805712098255754E-003;
2.419500000000000E+009;1.627019792795181E-001;-6.788554787635803E-002;1.358056324534118E-003;3.619896480813623E-003;
2.419666666666667E+009;1.617676019668579E-001;-6.883522123098373E-002;1.426124363206327E-003;3.745994064956904E-003;
2.419833333333334E+009;1.602716296911240E-001;-6.962390989065170E-002;1.650014193728566E-003;3.619825234636664E-003;
2.420000000000000E+009;1.593128740787506E-001;-7.078940421342850E-002;1.767064095474780E-003;3.436900442466140E-003;
2.420166666666667E+009;1.581622511148453E-001;-7.181276381015778E-002;1.849739463068545E-003;3.474612953141332E-003;
2.420333333333334E+009;1.572018712759018E-001;-7.327849417924881E-002;2.013093559071422E-003;3.167701186612248E-003;
2.420500000000000E+009;1.562123149633408E-001;-7.415018230676651E-002;2.110129455104470E-003;3.268119180575013E-003;
2.420666666666667E+009;1.550497710704804E-001;-7.563893496990204E-002;2.115980954840779E-003;3.148274496197701E-003;
2.420833333333334E+009;1.544483304023743E-001;-7.708424329757690E-002;2.296393970027566E-003;3.005788661539555E-003;
2.421000000000000E+009;1.534627079963684E-001;-7.847969979047775E-002;2.426119288429618E-003;2.839932218194008E-003;
2.421166666666667E+009;1.528809219598770E-001;-8.001958578824997E-002;2.548556076362729E-003;2.572725526988506E-003;
2.421333333333334E+009;1.523105800151825E-001;-8.143979310989380E-002;2.489912556484342E-003;2.567482413724065E-003;
2.421500000000000E+009;1.515666991472244E-001;-8.297608792781830E-002;2.656512195244432E-003;2.599420957267284E-003;
2.421666666666667E+009;1.511113941669464E-001;-8.466897904872894E-002;2.598298480734229E-003;2.360557671636343E-003;
2.421833333333334E+009;1.508034318685532E-001;-8.638831228017807E-002;2.675065770745277E-003;2.396400785073638E-003;
2.422000000000000E+009;1.502931267023087E-001;-8.805828541517258E-002;2.781102666631341E-003;2.311173826456070E-003;
2.422166666666667E+009;1.499748528003693E-001;-8.975240588188171E-002;2.793845953419805E-003;2.192287938669324E-003;
2.422333333333334E+009;1.497606486082077E-001;-9.133716672658920E-002;2.893267199397087E-003;2.023838227614760E-003;
2.422500000000000E+009;1.498020589351654E-001;-9.272466599941254E-002;2.872283803299069E-003;1.982043730095029E-003;
2.422666666666667E+009;1.496142297983170E-001;-9.473020583391190E-002;2.919964725151658E-003;1.793748582713306E-003;
2.422833333333334E+009;1.497613042593002E-001;-9.661943465471268E-002;2.864982234314084E-003;1.923356670886278E-003;
2.423000000000000E+009;1.498038321733475E-001;-9.805835038423538E-002;2.967565087601543E-003;1.836257637478411E-003;
2.423166666666667E+009;1.500986516475678E-001;-9.982541203498840E-002;3.021950367838144E-003;1.711293240077794E-003;
2.423333333333334E+009;1.504145860671997E-001;-1.011770144104958E-001;2.968564862385392E-003;1.599136507138610E-003;
2.423500000000000E+009;1.506955623626709E-001;-1.026826426386833E-001;3.086300566792488E-003;1.487391302362084E-003;
2.423666666666667E+009;1.507745087146759E-001;-1.043193787336350E-001;3.235721727833152E-003;1.485814573243260E-003;
2.423833333333334E+009;1.513182222843170E-001;-1.056492403149605E-001;3.074253210797906E-003;1.235827105119824E-003;
2.424000000000000E+009;1.516280621290207E-001;-1.069890558719635E-001;3.167552640661597E-003;1.213800394907594E-003;
2.424166666666667E+009;1.520140469074249E-001;-1.082651913166046E-001;3.243450308218598E-003;1.298593240790069E-003;
2.424333333333334E+009;1.525762677192688E-001;-1.093146353960037E-001;3.313892055302858E-003;1.155452569946647E-003;
2.424500000000000E+009;1.530723869800568E-001;-1.106436029076576E-001;3.407166106626391E-003;1.005779369734228E-003;
2.424666666666667E+009;1.535006165504456E-001;-1.114969253540039E-001;3.343849210068584E-003;8.560169371776283E-004;
2.424833333333334E+009;1.539103388786316E-001;-1.126014143228531E-001;3.448351752012968E-003;9.080640738829970E-004;
2.425000000000000E+009;1.543668359518051E-001;-1.134317368268967E-001;3.475187113508582E-003;7.354884874075651E-004;
2.425166666666667E+009;1.544903516769409E-001;-1.142312809824944E-001;3.609234467148781E-003;6.643729866482317E-004;
2.425333333333334E+009;1.549786925315857E-001;-1.149734854698181E-001;3.607762744650245E-003;4.963267128914595E-004;
2.425500000000000E+009;1.554053425788879E-001;-1.158522367477417E-001;3.640961367636919E-003;3.031778323929757E-004;
2.425666666666667E+009;1.554884314537048E-001;-1.163481026887894E-001;3.684766124933958E-003;3.442268061917275E-004;
2.425833333333334E+009;1.557316929101944E-001;-1.168713122606278E-001;3.734436351805925E-003;2.388076100032777E-004;
2.426000000000000E+009;1.558547317981720E-001;-1.173830032348633E-001;3.622159594669938E-003;2.631708184708259E-006;
2.426166666666667E+009;1.560396403074265E-001;-1.178094744682312E-001;3.843350335955620E-003;-1.337159774266183E-004;
2.426333333333334E+009;1.560166627168655E-001;-1.180168688297272E-001;3.799572819843888E-003;-2.268333773827180E-004;
2.426500000000000E+009;1.560190021991730E-001;-1.182889565825462E-001;3.591951448470354E-003;-4.897791077382863E-004;
2.426666666666667E+009;1.559510082006455E-001;-1.183889582753182E-001;3.725488670170307E-003;-4.940975923091173E-004;
2.426833333333334E+009;1.557379364967346E-001;-1.186263263225555E-001;3.746523056179285E-003;-6.902080494910479E-004;
2.427000000000000E+009;1.553731113672257E-001;-1.189076006412506E-001;3.699931781738997E-003;-7.684738375246525E-004;
2.427166666666667E+009;1.550631821155548E-001;-1.189375445246697E-001;3.618508111685515E-003;-9.213334997184575E-004;
2.427333333333334E+009;1.544688791036606E-001;-1.190768107771874E-001;3.732666606083512E-003;-1.048251870088279E-003;
2.427500000000000E+009;1.540063470602036E-001;-1.192098036408424E-001;3.756786929443479E-003;-1.141014159657061E-003;
2.427666666666667E+009;1.531257629394531E-001;-1.192554011940956E-001;3.638176014646888E-003;-1.264602178707719E-003;
