# Version 1.00
#
freq[Hz];re:Trc1_S11;im:Trc1_S11;re:Trc2_S21;im:Trc2_S21;
2.400000000000000E+009;1.581067591905594E-001;6.208087131381035E-002;-2.667150227352977E-003;-2.119239652529359E-003;
2.400166666666667E+009;1.581085026264191E-001;6.038906425237656E-002;-2.945028478279710E-003;-2.048652153462172E-003;
2.400333333333334E+009;1.578109711408615E-001;5.853389576077461E-002;-2.976228483021259E-003;-1.904588192701340E-003;
2.400500000000000E+009;1.580152660608292E-001;5.666718259453774E-002;-2.944160951301456E-003;-1.589061925187707E-003;
2.400666666666667E+009;1.580724716186523E-001;5.474811792373657E-002;-2.828674856573343E-003;-1.406909083016217E-003;
2.400833333333334E+009;1.581558585166931E-001;5.286895111203194E-002;-2.968206303194165E-003;-1.334120985120535E-003;
2.401000000000000E+009;1.582354009151459E-001;5.074374005198479E-002;-2.933180658146739E-003;-1.058437745086849E-003;
2.401166666666667E+009;1.584472656250000E-001;4.852622374892235E-002;-2.719715004786849E-003;-8.953892393037677E-004;
2.401333333333334E+009;1.585697531700134E-001;4.667628556489945E-002;-2.835687249898911E-003;-9.112912230193615E-004;
2.401500000000000E+009;1.589283794164658E-001;4.465159401297569E-002;-2.811302198097110E-003;-7.823625928722322E-004;
2.401666666666667E+009;1.593131572008133E-001;4.271109774708748E-002;-2.601672196760774E-003;-5.690359976142645E-004;
2.401833333333334E+009;1.597848534584045E-001;4.056958109140396E-002;-2.714199014008045E-003;-5.853839102201164E-004;
2.402000000000000E+009;1.600084304809570E-001;3.865642473101616E-002;-2.661512466147542E-003;-3.688927972689271E-004;
2.402166666666667E+009;1.607262790203095E-001;3.663908317685127E-002;-2.715854439884424E-003;-2.394491748418659E-004;
2.402333333333334E+009;1.611576229333878E-001;3.481528162956238E-002;-2.603213535621762E-003;-2.799051871988922E-004;
2.402500000000000E+009;1.620059758424759E-001;3.295871987938881E-002;-2.516739303246141E-003;-5.612911627395079E-005;
2.402666666666667E+009;1.625778824090958E-001;3.132461383938789E-002;-2.360856859013438E-003;-2.782007641144446E-006;
2.402833333333334E+009;1.633119732141495E-001;2.965726144611836E-002;-2.170701976865530E-003;1.608265156392008E-004;
2.403000000000000E+009;1.641267240047455E-001;2.794631943106651E-002;-2.158439019694924E-003;9.660271462053061E-005;
2.403166666666667E+009;1.650833040475845E-001;2.652911469340324E-002;-2.075819997116923E-003;4.103906103409827E-004;
2.403333333333334E+009;1.659319996833801E-001;2.490102872252464E-002;-2.014472847804427E-003;3.683159011416137E-004;
2.403500000000000E+009;1.666461080312729E-001;2.350827492773533E-002;-1.875421614386141E-003;3.653833700809628E-004;
2.403666666666667E+009;1.675970405340195E-001;2.204629406332970E-002;-1.893637003377080E-003;3.768258611671627E-004;
2.403833333333334E+009;1.686099767684937E-001;2.100661210715771E-002;-1.446512760594487E-003;5.759008345194161E-004;
2.404000000000000E+009;1.695925146341324E-001;1.981084607541561E-002;-1.614410895854235E-003;5.197449936531484E-004;
2.404166666666667E+009;1.704419851303101E-001;1.867322251200676E-002;-1.532585243694484E-003;4.899348714388907E-004;
2.404333333333334E+009;1.714260280132294E-001;1.758494041860104E-002;-1.423172885552049E-003;5.294183501973748E-004;
2.404500000000000E+009;1.721044331789017E-001;1.645605452358723E-002;-1.250223955139518E-003;4.022007924504578E-004;
2.404666666666667E+009;1.729892194271088E-001;1.588813029229641E-002;-1.321996212936938E-003;3.659228386823088E-004;
2.404833333333334E+009;1.739918142557144E-001;1.486460957676172E-002;-1.027682097628713E-003;5.533794173970819E-004;
2.405000000000000E+009;1.747333705425263E-001;1.434783823788166E-002;-1.018559676595032E-003;2.306835231138393E-004;
2.405166666666667E+009;1.755382865667343E-001;1.359766256064177E-002;-1.113443053327501E-003;2.825174597091973E-004;
2.405333333333334E+009;1.764035820960999E-001;1.276145223528147E-002;-1.034574583172798E-003;1.665043673710898E-004;
2.405500000000000E+009;1.770289540290833E-001;1.245284732431173E-002;-1.018434646539390E-003;1.477531332056969E-004;
2.405666666666667E+009;1.776279062032700E-001;1.207625120878220E-002;-8.966862806119025E-004;4.447765604709275E-005;
2.405833333333334E+009;1.780629903078079E-001;1.166101079434156E-002;-1.116444705985487E-003;6.328966264845803E-005;
2.406000000000000E+009;1.787220835685730E-001;1.109495386481285E-002;-1.110553275793791E-003;-9.523639164399356E-005;
2.406166666666667E+009;1.791167706251144E-001;1.086595933884382E-002;-1.016353606246412E-003;3.699275112012401E-005;
2.406333333333334E+009;1.795268207788467E-001;1.068511884659529E-002;-1.197941717691720E-003;-1.569886662764475E-004;
2.406500000000000E+009;1.798540502786636E-001;9.973908774554730E-003;-1.137783052399755E-003;-5.676746513927355E-005;
2.406666666666667E+009;1.798504590988159E-001;9.931183420121670E-003;-9.404495940543711E-004;-1.327364734606817E-004;
2.406833333333334E+009;1.801540404558182E-001;9.455831721425057E-003;-1.166237518191338E-003;-1.769624068401754E-004;
2.407000000000000E+009;1.801225095987320E-001;9.113607928156853E-003;-1.152188051491976E-003;-2.606230264063925E-004;
2.407166666666667E+009;1.802470088005066E-001;8.868717588484287E-003;-1.277329633012414E-003;-2.845561248250306E-004;
2.407333333333334E+009;1.800685524940491E-001;8.365794084966183E-003;-1.131874276325107E-003;-1.985893031815067E-004;
2.407500000000000E+009;1.799967288970947E-001;7.864953950047493E-003;-1.219754922203720E-003;-2.804116229526699E-004;
2.407666666666667E+009;1.797815263271332E-001;7.417499087750912E-003;-1.208627945743501E-003;-1.970984158106148E-004;
2.407833333333334E+009;1.793515980243683E-001;6.787862163037062E-003;-1.319048693403602E-003;-9.805622539715841E-005;
2.408000000000000E+009;1.789249777793884E-001;6.124769803136587E-003;-1.368873985484242E-003;-3.094224302913062E-005;
2.408166666666667E+009;1.785155534744263E-001;5.590972956269980E-003;-1.314705354161561E-003;-1.382723130518571E-004;
2.408333333333334E+009;1.782170981168747E-001;4.762657918035984E-003;-1.428224844858050E-003;-1.114956248784438E-004;
2.408500000000000E+009;1.776704341173172E-001;4.066729918122292E-003;-1.357562839984894E-003;8.902442459657323E-006;
2.408666666666667E+009;1.770558804273605E-001;2.949491376057267E-003;-1.350334612652659E-003;-4.598006489686668E-005;
2.408833333333334E+009;1.763834804296494E-001;2.079411642625928E-003;-1.494550611823797E-003;-2.381435115239583E-005;
2.409000000000000E+009;1.757671833038330E-001;9.692203020676971E-004;-1.398428459651768E-003;4.944845568388701E-005;
2.409166666666667E+009;1.753037273883820E-001;-9.029454304254614E-006;-1.550266053527594E-003;-7.085089600877836E-005;
2.409333333333334E+009;1.745520830154419E-001;-1.287596998736262E-003;-1.541329897008836E-003;4.248532422934659E-005;
2.409500000000000E+009;1.737311333417893E-001;-2.778268419206142E-003;-1.481631654314697E-003;-1.675921230344102E-004;
2.409666666666667E+009;1.730949878692627E-001;-4.088803194463253E-003;-1.652193139307201E-003;3.704888058564393E-006;
2.409833333333334E+009;1.723969578742981E-001;-5.454445723444223E-003;-1.553688547573984E-003;1.229866611538455E-004;
2.410000000000000E+009;1.717935502529144E-001;-6.852246820926666E-003;-1.476880046539009E-003;1.271070505026728E-004;
2.410166666666667E+009;1.712325960397720E-001;-8.413122035562992E-003;-1.476995530538261E-003;-5.327165490598418E-005;
2.410333333333334E+009;1.707293540239334E-001;-1.014049351215363E-002;-1.494917320087552E-003;1.169001043308526E-004;
2.410500000000000E+009;1.701835542917252E-001;-1.174351572990418E-002;-1.648636884056032E-003;7.204370922408998E-005;
2.410666666666667E+009;1.695188581943512E-001;-1.366437785327435E-002;-1.518830657005310E-003;7.197871309472248E-005;
2.410833333333334E+009;1.692352294921875E-001;-1.529616210609675E-002;-1.495598931796849E-003;4.542393071460538E-005;
2.411000000000000E+009;1.688848584890366E-001;-1.721290498971939E-002;-1.678087981417775E-003;6.287563792284345E-006;
2.411166666666667E+009;1.685629040002823E-001;-1.926432922482491E-002;-1.706913695670664E-003;1.403940987074748E-004;
2.411333333333334E+009;1.682680398225784E-001;-2.093613892793655E-002;-1.759133883751929E-003;1.156594153144397E-004;
2.411500000000000E+009;1.679563075304031E-001;-2.287944220006466E-002;-1.837774412706494E-003;1.546639687148854E-004;
2.411666666666667E+009;1.680883914232254E-001;-2.471923455595970E-002;-1.830101246014237E-003;2.909251779783517E-004;
2.411833333333334E+009;1.681924462318420E-001;-2.649462781846523E-002;-1.947950222529471E-003;2.114127273671329E-004;
2.412000000000000E+009;1.682225614786148E-001;-2.852369286119938E-002;-1.967921620234847E-003;4.381457110866904E-004;
2.412166666666667E+009;1.681062877178192E-001;-3.042027726769447E-002;-1.972369849681854E-003;2.888012677431107E-004;
2.412333333333334E+009;1.685347706079483E-001;-3.220434486865997E-002;-2.027633134275675E-003;3.628464182838798E-004;
2.412500000000000E+009;1.686652600765228E-001;-3.416405618190765E-002;-2.170315245166421E-003;4.443187208380550E-004;
2.412666666666667E+009;1.688860654830933E-001;-3.608957678079605E-002;-2.161633456125855E-003;6.180026684887707E-004;
2.412833333333334E+009;1.692773252725601E-001;-3.774704784154892E-002;-2.256789943203330E-003;7.532108575105667E-004;
2.413000000000000E+009;1.697103828191757E-001;-3.966248780488968E-002;-2.307399176061153E-003;6.281010573729873E-004;
2.413166666666667E+009;1.701719611883164E-001;-4.135513305664063E-002;-2.333242679014802E-003;9.550923714414239E-004;
2.413333333333334E+009;1.705461293458939E-001;-4.299248754978180E-002;-2.510883845388889E-003;8.840817026793957E-004;
2.413500000000000E+009;1.710928976535797E-001;-4.452053457498550E-002;-2.460663439705968E-003;1.206829678267241E-003;
2.413666666666667E+009;1.716944575309753E-001;-4.613047838211060E-002;-2.441478427499533E-003;1.225318177603185E-003;
2.413833333333334E+009;1.720427721738815E-001;-4.752901569008827E-002;-2.462594071403146E-003;1.442130305804312E-003;
2.414000000000000E+009;1.726053655147553E-001;-4.890809580683708E-002;-2.427440602332354E-003;1.301445299759507E-003;
2.414166666666667E+009;1.731264591217041E-001;-5.011216551065445E-002;-2.346393885090947E-003;1.641771756112576E-003;
2.414333333333334E+009;1.737554818391800E-001;-5.132790654897690E-002;-2.555987099185586E-003;1.519874203950167E-003;
2.414500000000000E+009;1.743878275156021E-001;-5.244865268468857E-002;-2.449260791763663E-003;1.888345112092793E-003;
2.414666666666667E+009;1.748518496751785E-001;-5.357252806425095E-002;-2.508461242541671E-003;1.840841257944703E-003;
2.414833333333334E+009;1.752299219369888E-001;-5.454132333397865E-002;-2.312219701707363E-003;1.981392502784729E-003;
2.415000000000000E+009;1.756825149059296E-001;-5.526592582464218E-002;-2.380575286224484E-003;2.211460843682289E-003;
2.415166666666667E+009;1.760493814945221E-001;-5.617603287100792E-002;-2.207067562267184E-003;2.302215900272131E-003;
2.415333333333334E+009;1.765558868646622E-001;-5.691841244697571E-002;-2.140528056770563E-003;2.415106398984790E-003;
2.415500000000000E+009;1.766953021287918E-001;-5.749770998954773E-002;-2.095744945108891E-003;2.657840494066477E-003;
2.415666666666667E+009;1.770482212305069E-001;-5.797648429870606E-002;-2.150445012375712E-003;2.703436883166432E-003;
2.415833333333334E+009;1.772914230823517E-001;-5.844390764832497E-002;-1.970868790522218E-003;2.846225397661328E-003;
2.416000000000000E+009;1.772499829530716E-001;-5.902739986777306E-002;-1.978212036192417E-003;3.075308399274945E-003;
2.416166666666667E+009;1.774822026491165E-001;-5.947148054838181E-002;-1.755042350850999E-003;3.184946021065116E-003;
2.416333333333334E+009;1.773019433021545E-001;-5.969087034463882E-002;-1.598861534148455E-003;3.232535440474749E-003;
2.416500000000000E+009;1.772492229938507E-001;-6.004775315523148E-002;-1.624306198209524E-003;3.392880083993077E-003;
2.416666666666667E+009;1.769877523183823E-001;-6.025584042072296E-002;-1.405586022883654E-003;3.459017025306821E-003;
2.416833333333334E+009;1.767865866422653E-001;-6.059733033180237E-002;-1.280842348933220E-003;3.573831869289279E-003;
2.417000000000000E+009;1.763348579406738E-001;-6.100928038358688E-002;-1.035893685184419E-003;3.713689744472504E-003;
2.417166666666667E+009;1.759726852178574E-001;-6.106233224272728E-002;-9.682715171948075E-004;3.785053500905633E-003;
2.417333333333334E+009;1.753828376531601E-001;-6.130372360348702E-002;-7.694727391935885E-004;3.779552178457379E-003;
2.417500000000000E+009;1.746325045824051E-001;-6.181299313902855E-002;-6.517193978652358E-004;3.996432758867741E-003;
2.417666666666667E+009;1.740916222333908E-001;-6.187102198600769E-002;-5.440030363388360E-004;3.811508417129517E-003;
2.417833333333334E+009;1.732854098081589E-001;-6.216812133789063E-002;-3.497285651974380E-004;3.851491492241621E-003;
2.418000000000000E+009;1.723007112741470E-001;-6.257858127355576E-002;-7.594557973789051E-005;3.844049060717225E-003;
2.418166666666667E+009;1.714669317007065E-001;-6.288708001375198E-002;1.259459531866014E-004;3.947480116039515E-003;
2.418333333333334E+009;1.706476956605911E-001;-6.337151676416397E-002;2.321052015759051E-004;3.817984368652105E-003;
2.418500000000000E+009;1.695777773857117E-001;-6.377167254686356E-002;3.063152253162116E-004;4.036520607769489E-003;
2.418666666666667E+009;1.686346828937531E-001;-6.436821073293686E-002;6.073461263440549E-004;3.912674263119698E-003;
2.418833333333334E+009;1.672043949365616E-001;-6.489530950784683E-002;6.813691579736769E-004;3.864407306537032E-003;
2.419000000000000E+009;1.659214049577713E-001;-6.546910852193832E-002;7.179594249464572E-004;3.950758837163448E-003;
2.419166666666667E+009;1.648743897676468E-001;-6.617002189159393E-002;1.020535593852401E-003;3.838770091533661E-003;
2.419333333333334E+009;1.637233644723892E-001;-6.676152348518372E-002;1.105754403397441E-003;3.683842718601227E-003;
2.419500000000000E+009;1.626649051904678E-001;-6.780519336462021E-002;1.435710699297488E-003;3.773445729166269E-003;
2.419666666666667E+009;1.614968478679657E-001;-6.888389587402344E-002;1.478826510719955E-003;3.626826917752624E-003;
2.419833333333334E+009;1.603504270315170E-001;-6.960691511631012E-002;1.537022762931883E-003;3.588698105886579E-003;
2.420000000000000E+009;1.591384559869766E-001;-7.071659713983536E-002;1.783199142664671E-003;3.403209382668138E-003;
2.420166666666667E+009;1.582242250442505E-001;-7.182102650403976E-002;1.763707026839256E-003;3.306025173515081E-003;
2.420333333333334E+009;1.571944504976273E-001;-7.321422547101975E-002;1.981903100386262E-003;3.370981896296144E-003;
2.420500000000000E+009;1.562853306531906E-001;-7.443489879369736E-002;2.158374991267920E-003;3.212079405784607E-003;
2.420666666666667E+009;1.551391184329987E-001;-7.555876672267914E-002;2.155620139092207E-003;3.190834308043122E-003;
2.420833333333334E+009;1.542630940675736E-001;-7.691204547882080E-002;2.367400331422687E-003;3.012385452166200E-003;
2.421000000000000E+009;1.535423547029495E-001;-7.861591875553131E-002;2.380908699706197E-003;2.809949917718768E-003;
2.421166666666667E+009;1.529200673103333E-001;-7.997050881385803E-002;2.480773255228996E-003;2.687134547159076E-003;
2.421333333333334E+009;1.522244811058044E-001;-8.159787207841873E-002;2.460480900481343E-003;2.661325037479401E-003;
2.421500000000000E+009;1.515381187200546E-001;-8.305495232343674E-002;2.659741789102554E-003;2.681664656847715E-003;
2.421666666666667E+009;1.510195285081863E-001;-8.466334640979767E-002;2.564052352681756E-003;2.548303222283721E-003;
2.421833333333334E+009;1.507613062858582E-001;-8.634803444147110E-002;2.628569724038243E-003;2.371833659708500E-003;
2.422000000000000E+009;1.502222418785095E-001;-8.805796504020691E-002;2.774433232843876E-003;2.137631643563509E-003;
2.422166666666667E+009;1.500271707773209E-001;-8.985912799835205E-002;2.870823023840785E-003;1.978494692593813E-003;
2.422333333333334E+009;1.499922722578049E-001;-9.138418734073639E-002;2.861544257029891E-003;2.153303474187851E-003;
2.422500000000000E+009;1.496289521455765E-001;-9.308855980634689E-002;2.924839500337839E-003;1.869798987172544E-003;
2.422666666666667E+009;1.495259851217270E-001;-9.489872306585312E-002;2.819718793034554E-003;1.917506684549153E-003;
2.422833333333334E+009;1.496919542551041E-001;-9.649310261011124E-002;2.847206545993686E-003;1.949825091287494E-003;
2.423000000000000E+009;1.498755216598511E-001;-9.815172851085663E-002;3.063850104808807E-003;1.704947324469686E-003;
2.423166666666667E+009;1.501089632511139E-001;-9.980145841836929E-002;2.954370807856321E-003;1.675099134445190E-003;
2.423333333333334E+009;1.503382921218872E-001;-1.011668220162392E-001;2.978338627144694E-003;1.677591702900827E-003;
2.423500000000000E+009;1.506694406270981E-001;-1.027229204773903E-001;3.117962507531047E-003;1.617829548195005E-003;
2.423666666666667E+009;1.508555263280869E-001;-1.043355688452721E-001;3.080926835536957E-003;1.545803388580680E-003;
2.423833333333334E+009;1.514791548252106E-001;-1.057344898581505E-001;3.094250336289406E-003;1.334554865024984E-003;
2.424000000000000E+009;1.515759527683258E-001;-1.069332510232925E-001;3.208098700270057E-003;1.301047042943537E-003;
2.424166666666667E+009;1.519908457994461E-001;-1.081903874874115E-001;3.278907621279359E-003;1.331253792159259E-003;
2.424333333333334E+009;1.526072472333908E-001;-1.092928498983383E-001;3.300815355032682E-003;1.210450311191380E-003;
2.424500000000000E+009;1.530444175004959E-001;-1.106233671307564E-001;3.424668451771140E-003;1.085945172235370E-003;
2.424666666666667E+009;1.536245346069336E-001;-1.113706156611443E-001;3.649980993941426E-003;1.015397952869535E-003;
2.424833333333334E+009;1.538050472736359E-001;-1.125391274690628E-001;3.581623081117868E-003;8.617730927653611E-004;
2.425000000000000E+009;1.544013321399689E-001;-1.134601458907127E-001;3.570205997675657E-003;6.938123842701316E-004;
2.425166666666667E+009;1.545738428831101E-001;-1.141835302114487E-001;3.494545584544540E-003;6.824301090091467E-004;
2.425333333333334E+009;1.550376415252686E-001;-1.149970367550850E-001;3.644723445177078E-003;5.460044485516846E-004;
2.425500000000000E+009;1.553575992584229E-001;-1.158545911312103E-001;3.662893315777183E-003;3.703760739881545E-004;
2.425666666666667E+009;1.555233299732208E-001;-1.162938177585602E-001;3.722418332472444E-003;4.379507154226303E-004;
2.425833333333334E+009;1.557519584894180E-001;-1.168258488178253E-001;3.838980104774237E-003;2.979914643219672E-005;
2.426000000000000E+009;1.558857411146164E-001;-1.173345670104027E-001;3.900117473676801E-003;-1.045287208398804E-004;
2.426166666666667E+009;1.561051011085510E-001;-1.177047714591026E-001;3.818746423348784E-003;-1.492754236096516E-004;
2.426333333333334E+009;1.560806930065155E-001;-1.180582195520401E-001;3.786912886425853E-003;-3.189069393556565E-004;
2.426500000000000E+009;1.560484915971756E-001;-1.184000372886658E-001;3.797112032771111E-003;-4.609686147887260E-004;
2.426666666666667E+009;1.560449451208115E-001;-1.184785142540932E-001;3.669442841783166E-003;-5.897601367905736E-004;
2.426833333333334E+009;1.556864529848099E-001;-1.186275631189346E-001;3.789429087191820E-003;-5.710149416700006E-004;
2.427000000000000E+009;1.553116589784622E-001;-1.189314350485802E-001;3.763743210583925E-003;-7.860943442210555E-004;
2.427166666666667E+009;1.550184935331345E-001;-1.188728734850884E-001;3.763807937502861E-003;-8.920627296902239E-004;
2.427333333333334E+009;1.544186621904373E-001;-1.189358383417130E-001;3.745406167581677E-003;-1.058566384017468E-003;
2.427500000000000E+009;1.539228707551956E-001;-1.191467121243477E-001;3.709920449182391E-003;-1.230145571753383E-003;
2.427666666666667E+009;1.533078104257584E-001;-1.192734912037849E-001;3.586966777220368E-003;-1.316946698352695E-003;
