# Version 1.00
#
freq[Hz];re:Trc1_S11;im:Trc1_S11;re:Trc2_S21;im:Trc2_S21;
2.400000000000000E+009;1.582904458045960E-001;6.201582774519920E-002;-2.879337407648563E-003;-2.014045370742679E-003;
2.400166666666667E+009;1.579976528882980E-001;6.045301258563995E-002;-2.789599588140845E-003;-1.982776913791895E-003;
2.400333333333334E+009;1.579688638448715E-001;5.861827731132507E-002;-2.798110712319613E-003;-1.714602694846690E-003;
2.400500000000000E+009;1.579600870609283E-001;5.673033744096756E-002;-2.872387180104852E-003;-1.703366171568632E-003;
2.400666666666667E+009;1.579051911830902E-001;5.491772666573525E-002;-2.758456394076347E-003;-1.446340116672218E-003;
2.400833333333334E+009;1.582140773534775E-001;5.304722115397453E-002;-2.909586066380143E-003;-1.321625895798206E-003;
2.401000000000000E+009;1.583596318960190E-001;5.085114389657974E-002;-2.927552442997694E-003;-1.122838351875544E-003;
2.401166666666667E+009;1.584837585687637E-001;4.886011406779289E-002;-2.811090555042028E-003;-1.011467189528048E-003;
2.401333333333334E+009;1.585962772369385E-001;4.675414413213730E-002;-2.852951642125845E-003;-9.787604212760925E-004;
2.401500000000000E+009;1.590240895748138E-001;4.473564401268959E-002;-2.766303252428770E-003;-7.134347106330097E-004;
2.401666666666667E+009;1.592556536197662E-001;4.278172925114632E-002;-2.832997590303421E-003;-6.269011064432561E-004;
2.401833333333334E+009;1.597792804241180E-001;4.055498912930489E-002;-2.749052597209811E-003;-6.036328850314021E-004;
2.402000000000000E+009;1.599483042955399E-001;3.883183747529984E-002;-2.591713797301054E-003;-3.510331735014916E-004;
2.402166666666667E+009;1.606772392988205E-001;3.675324842333794E-002;-2.504224656149745E-003;-1.279976422665641E-004;
2.402333333333334E+009;1.610998660326004E-001;3.497223928570747E-002;-2.632797928526998E-003;-3.219309146516025E-004;
2.402500000000000E+009;1.618499457836151E-001;3.308439999818802E-002;-2.528875833377242E-003;-9.417525143362582E-005;
2.402666666666667E+009;1.627259403467178E-001;3.146838024258614E-002;-2.345607383176684E-003;1.473167139920406E-005;
2.402833333333334E+009;1.632948666810989E-001;2.982510998845100E-002;-2.277054591104388E-003;1.152517506852746E-004;
2.403000000000000E+009;1.641819030046463E-001;2.794713154435158E-002;-2.269033109769225E-003;2.029891911661252E-004;
2.403166666666667E+009;1.650978773832321E-001;2.650287747383118E-002;-2.224450232461095E-003;3.056775021832436E-004;
2.403333333333334E+009;1.659541875123978E-001;2.502098679542542E-002;-1.971367513760924E-003;4.919648636132479E-004;
2.403500000000000E+009;1.667753010988236E-001;2.369434759020805E-002;-1.790454261936247E-003;3.123893693555147E-004;
2.403666666666667E+009;1.677315086126328E-001;2.205375768244267E-002;-1.686480711214244E-003;4.132585891056806E-004;
2.403833333333334E+009;1.686007231473923E-001;2.084661275148392E-002;-1.645918469876051E-003;3.935927234124392E-004;
2.404000000000000E+009;1.695944964885712E-001;1.978351175785065E-002;-1.659382134675980E-003;3.555977018550038E-004;
2.404166666666667E+009;1.704103499650955E-001;1.866318471729755E-002;-1.654146704822779E-003;4.025576927233487E-004;
2.404333333333334E+009;1.713940501213074E-001;1.746330410242081E-002;-1.423152512870729E-003;4.688256594818085E-004;
2.404500000000000E+009;1.721865832805634E-001;1.660852134227753E-002;-1.287782564759255E-003;3.723189583979547E-004;
2.404666666666667E+009;1.732084900140762E-001;1.582697033882141E-002;-1.199104706756771E-003;3.667940618470311E-004;
2.404833333333334E+009;1.741200834512711E-001;1.501663401722908E-002;-1.094034756533802E-003;2.150196669390425E-004;
2.405000000000000E+009;1.749759167432785E-001;1.439217198640108E-002;-9.861489525064826E-004;2.838295768015087E-004;
2.405166666666667E+009;1.756158620119095E-001;1.348865684121847E-002;-1.007714658044279E-003;2.473237400408834E-004;
2.405333333333334E+009;1.765042692422867E-001;1.286241225898266E-002;-1.049385988153517E-003;2.507585450075567E-004;
2.405500000000000E+009;1.772310733795166E-001;1.247008796781302E-002;-9.382640128023922E-004;2.678595774341375E-004;
2.405666666666667E+009;1.777682751417160E-001;1.202285941690207E-002;-9.866906329989433E-004;2.321536740055308E-004;
2.405833333333334E+009;1.780266612768173E-001;1.166144385933876E-002;-9.697072091512382E-004;3.935488348361105E-005;
2.406000000000000E+009;1.787128299474716E-001;1.112942211329937E-002;-1.076044398359954E-003;8.364053792320192E-005;
2.406166666666667E+009;1.789999008178711E-001;1.085030660033226E-002;-1.003614161163569E-003;1.145035275840201E-005;
2.406333333333334E+009;1.796300858259201E-001;1.051639113575220E-002;-9.083478362299502E-004;3.948193989344873E-005;
2.406500000000000E+009;1.797839254140854E-001;1.009437441825867E-002;-9.587371023371816E-004;-2.173205866711214E-004;
2.406666666666667E+009;1.798916012048721E-001;9.801266714930534E-003;-1.048404956236482E-003;-1.089213401428424E-004;
2.406833333333334E+009;1.801655590534210E-001;9.495642036199570E-003;-1.115290331654251E-003;-2.737691684160382E-004;
2.407000000000000E+009;1.801862567663193E-001;9.062635712325573E-003;-1.061267685145140E-003;-1.558917574584484E-004;
2.407166666666667E+009;1.802501231431961E-001;8.849941194057465E-003;-1.255554379895330E-003;-1.060827053152025E-004;
2.407333333333334E+009;1.800241172313690E-001;8.191563189029694E-003;-1.237571355886757E-003;-4.106360429432243E-004;
2.407500000000000E+009;1.799006015062332E-001;7.943248376250267E-003;-1.061813440173864E-003;-2.827427815645933E-004;
2.407666666666667E+009;1.797047704458237E-001;7.354184985160828E-003;-1.295482390560210E-003;-1.839597680373117E-004;
2.407833333333334E+009;1.792760044336319E-001;6.747903302311897E-003;-1.362819923087955E-003;-1.259649725398049E-004;
2.408000000000000E+009;1.790153086185455E-001;6.010723765939474E-003;-1.209599780850112E-003;-1.913442829390988E-004;
2.408166666666667E+009;1.785673052072525E-001;5.574323702603579E-003;-1.445154310204089E-003;-1.124467453337275E-004;
2.408333333333334E+009;1.780921667814255E-001;4.689822904765606E-003;-1.310837920755148E-003;-8.587794582126662E-005;
2.408500000000000E+009;1.776609569787979E-001;3.871596883982420E-003;-1.473967102356255E-003;-1.326508499914780E-004;
2.408666666666667E+009;1.771009713411331E-001;2.954116556793451E-003;-1.384937320835888E-003;-6.745543942088261E-005;
2.408833333333334E+009;1.764032691717148E-001;2.086929744109511E-003;-1.410725992172957E-003;-6.310470052994788E-005;
2.409000000000000E+009;1.756823807954788E-001;1.150600612163544E-003;-1.439931103959680E-003;-6.314358324743807E-005;
2.409166666666667E+009;1.751061528921127E-001;-8.190362859750167E-005;-1.473832991905510E-003;-4.943344902130775E-005;
2.409333333333334E+009;1.745440065860748E-001;-1.459277700632811E-003;-1.323168631643057E-003;3.519467384194286E-007;
2.409500000000000E+009;1.738580614328384E-001;-2.620861167088151E-003;-1.489709713496268E-003;-2.079047771985643E-005;
2.409666666666667E+009;1.731548756361008E-001;-4.102702718228102E-003;-1.443612272851169E-003;-5.607476396107813E-006;
2.409833333333334E+009;1.723970323801041E-001;-5.367534235119820E-003;-1.533618429675698E-003;-1.154141955339583E-005;
2.410000000000000E+009;1.718332767486572E-001;-6.950440816581249E-003;-1.527084037661552E-003;-1.305738896917319E-005;
2.410166666666667E+009;1.712978184223175E-001;-8.338255807757378E-003;-1.585764111950994E-003;1.392620470141992E-005;
2.410333333333334E+009;1.706939041614533E-001;-1.009239442646503E-002;-1.401133486069739E-003;3.848520282190293E-005;
2.410500000000000E+009;1.701906919479370E-001;-1.178818475455046E-002;-1.568157458677888E-003;4.161410470260307E-005;
2.410666666666667E+009;1.696552336215973E-001;-1.362024340778589E-002;-1.527098240330815E-003;7.296580588445067E-005;
2.410833333333334E+009;1.693262010812759E-001;-1.528648566454649E-002;-1.622914336621761E-003;2.069973561447114E-004;
2.411000000000000E+009;1.689691692590714E-001;-1.716399751603603E-002;-1.634314423426986E-003;2.289458061568439E-004;
2.411166666666667E+009;1.686787158250809E-001;-1.922490075230598E-002;-1.788667403161526E-003;1.230872148880735E-004;
2.411333333333334E+009;1.683993190526962E-001;-2.086643874645233E-002;-1.754584489390254E-003;2.281435154145584E-004;
2.411500000000000E+009;1.681257337331772E-001;-2.289038524031639E-002;-1.789025496691465E-003;2.766448014881462E-004;
2.411666666666667E+009;1.682311445474625E-001;-2.473136782646179E-002;-1.887489925138652E-003;2.240507019450888E-004;
2.411833333333334E+009;1.682011485099793E-001;-2.646121010184288E-002;-2.121892292052507E-003;2.174824185203761E-004;
2.412000000000000E+009;1.683091074228287E-001;-2.858687378466129E-002;-2.100466284900904E-003;2.331785944988951E-004;
2.412166666666667E+009;1.683196723461151E-001;-3.064477443695068E-002;-1.947967219166458E-003;3.196591278538108E-004;
2.412333333333334E+009;1.684962660074234E-001;-3.215636312961578E-002;-2.163275377824903E-003;3.273639595136046E-004;
2.412500000000000E+009;1.686741262674332E-001;-3.416363149881363E-002;-1.964097609743476E-003;4.157443472649902E-004;
2.412666666666667E+009;1.690544784069061E-001;-3.610877320170403E-002;-2.212648512795568E-003;5.251175025478005E-004;
2.412833333333334E+009;1.695648431777954E-001;-3.792120143771172E-002;-2.215550979599357E-003;7.075432804413140E-004;
2.413000000000000E+009;1.696997135877609E-001;-3.970291092991829E-002;-2.362996805459261E-003;7.342387689277530E-004;
2.413166666666667E+009;1.701796948909760E-001;-4.134155064821243E-002;-2.383171813562512E-003;6.483307806774974E-004;
2.413333333333334E+009;1.705306470394135E-001;-4.299897328019142E-002;-2.346203895285726E-003;8.480221149511635E-004;
2.413500000000000E+009;1.712228208780289E-001;-4.459103941917419E-002;-2.495776861906052E-003;9.014397510327399E-004;
2.413666666666667E+009;1.716208010911942E-001;-4.615107923746109E-002;-2.508004428818822E-003;1.121509354561567E-003;
2.413833333333334E+009;1.720596551895142E-001;-4.760524258017540E-002;-2.508040051907301E-003;1.337201567366719E-003;
2.414000000000000E+009;1.725822091102600E-001;-4.895338416099548E-002;-2.477741334587336E-003;1.428881543688476E-003;
2.414166666666667E+009;1.732247173786163E-001;-5.017407983541489E-002;-2.466896781697869E-003;1.487593865022063E-003;
2.414333333333334E+009;1.737144440412521E-001;-5.141329020261765E-002;-2.602310618385673E-003;1.593909459188581E-003;
2.414500000000000E+009;1.743612140417099E-001;-5.242871865630150E-002;-2.392153255641460E-003;1.809856505133212E-003;
2.414666666666667E+009;1.746727228164673E-001;-5.365070700645447E-002;-2.502738032490015E-003;1.862524426542223E-003;
2.414833333333334E+009;1.751176565885544E-001;-5.447222664952278E-002;-2.537803957238793E-003;2.123882994055748E-003;
2.415000000000000E+009;1.756585836410523E-001;-5.523984506726265E-002;-2.413065871223807E-003;2.244387986138463E-003;
2.415166666666667E+009;1.760587841272354E-001;-5.621529370546341E-002;-2.318542450666428E-003;2.289756899699569E-003;
2.415333333333334E+009;1.765676438808441E-001;-5.687974393367767E-002;-2.138529438525438E-003;2.577473642304540E-003;
2.415500000000000E+009;1.766999959945679E-001;-5.741985887289047E-002;-2.217659959569573E-003;2.584137953817844E-003;
2.415666666666667E+009;1.770230978727341E-001;-5.798542499542236E-002;-2.070668851956725E-003;2.850295510143042E-003;
2.415833333333334E+009;1.772894859313965E-001;-5.845931917428970E-002;-2.057322300970554E-003;2.813788363710046E-003;
2.416000000000000E+009;1.772121191024780E-001;-5.892911553382874E-002;-1.974990358576179E-003;2.955419244244695E-003;
2.416166666666667E+009;1.774590313434601E-001;-5.938971415162087E-002;-1.743041910231113E-003;3.253089264035225E-003;
2.416333333333334E+009;1.772447824478149E-001;-5.960051715373993E-002;-1.670324243605137E-003;3.196333535015583E-003;
2.416500000000000E+009;1.772136539220810E-001;-6.005169451236725E-002;-1.630129409022629E-003;3.430071054026485E-003;
2.416666666666667E+009;1.769941449165344E-001;-6.021136790513992E-002;-1.410344382748008E-003;3.443361958488822E-003;
2.416833333333334E+009;1.767914593219757E-001;-6.072705239057541E-002;-1.310133025981486E-003;3.614857560023665E-003;
2.417000000000000E+009;1.762306541204453E-001;-6.093855202198029E-002;-1.051822793669999E-003;3.790560876950622E-003;
2.417166666666667E+009;1.759008467197418E-001;-6.099392473697662E-002;-8.870090823620558E-004;3.645152086392045E-003;
2.417333333333334E+009;1.752208024263382E-001;-6.128803640604019E-002;-8.165044127963483E-004;3.733543911948800E-003;
2.417500000000000E+009;1.746020019054413E-001;-6.180817261338234E-002;-6.746095605194569E-004;3.844611812382937E-003;
2.417666666666667E+009;1.740952730178833E-001;-6.171995401382446E-002;-3.799377009272575E-004;3.856081981211901E-003;
2.417833333333334E+009;1.732962727546692E-001;-6.211027875542641E-002;-3.027036145795137E-004;3.770335111767054E-003;
2.418000000000000E+009;1.723076105117798E-001;-6.259657442569733E-002;-1.281654112972319E-004;3.877271432429552E-003;
2.418166666666667E+009;1.713777929544449E-001;-6.285979598760605E-002;-3.758364982786588E-005;4.002027213573456E-003;
2.418333333333334E+009;1.706607490777969E-001;-6.337232887744904E-002;3.117991145700216E-004;3.881183452904224E-003;
2.418500000000000E+009;1.694930046796799E-001;-6.375321000814438E-002;4.045631794724613E-004;3.925669938325882E-003;
2.418666666666667E+009;1.685576438903809E-001;-6.426834315061569E-002;6.858285632915795E-004;3.977882675826550E-003;
2.418833333333334E+009;1.671695560216904E-001;-6.500426679849625E-002;6.935010896995664E-004;3.934177104383707E-003;
2.419000000000000E+009;1.660454571247101E-001;-6.554581969976425E-002;8.793823653832078E-004;3.882624441757798E-003;
2.419166666666667E+009;1.649762690067291E-001;-6.607777625322342E-002;1.052809413522482E-003;3.776408731937408E-003;
2.419333333333334E+009;1.636388301849365E-001;-6.685595959424973E-002;1.224067294970155E-003;3.658838802948594E-003;
2.419500000000000E+009;1.625781804323196E-001;-6.780862808227539E-002;1.387787982821465E-003;3.843904472887516E-003;
2.419666666666667E+009;1.615124791860580E-001;-6.883110851049423E-002;1.472850097343326E-003;3.669348312541843E-003;
2.419833333333334E+009;1.602679491043091E-001;-6.977200508117676E-002;1.608772785402834E-003;3.540479112416506E-003;
2.420000000000000E+009;1.592888236045837E-001;-7.080825418233872E-002;1.651721424423158E-003;3.483476117253304E-003;
2.420166666666667E+009;1.581359803676605E-001;-7.194207608699799E-002;1.896075787954032E-003;3.400855464860797E-003;
2.420333333333334E+009;1.571743488311768E-001;-7.315246760845184E-002;1.911358092911542E-003;3.310206346213818E-003;
2.420500000000000E+009;1.562882214784622E-001;-7.412611693143845E-002;2.049676142632961E-003;3.137032734230161E-003;
2.420666666666667E+009;1.550466567277908E-001;-7.547088712453842E-002;2.136031864210963E-003;3.148314543068409E-003;
2.420833333333334E+009;1.544062495231628E-001;-7.695744186639786E-002;2.368830610066652E-003;3.047039266675711E-003;
2.421000000000000E+009;1.535477638244629E-001;-7.841178774833679E-002;2.222007606178522E-003;2.854231046512723E-003;
2.421166666666667E+009;1.528816372156143E-001;-7.988471537828445E-002;2.496041357517242E-003;2.771414816379547E-003;
2.421333333333334E+009;1.521412730216980E-001;-8.152790367603302E-002;2.513332758098841E-003;2.577506238594651E-003;
2.421500000000000E+009;1.515257358551025E-001;-8.309796452522278E-002;2.587378490716219E-003;2.528660697862506E-003;
2.421666666666667E+009;1.510801166296005E-001;-8.469391614198685E-002;2.656778786331415E-003;2.539263805374503E-003;
2.421833333333334E+009;1.507062166929245E-001;-8.629119396209717E-002;2.811673097312450E-003;2.298268256708980E-003;
2.422000000000000E+009;1.502803117036820E-001;-8.810835331678391E-002;2.699646865949035E-003;2.328247996047139E-003;
2.422166666666667E+009;1.498979330062866E-001;-8.979953825473785E-002;2.732365857809782E-003;2.214594045653939E-003;
2.422333333333334E+009;1.499406397342682E-001;-9.140004217624664E-002;2.837567823007703E-003;2.133709611371160E-003;
2.422500000000000E+009;1.496949195861816E-001;-9.291044622659683E-002;2.940211445093155E-003;1.964909257367253E-003;
2.422666666666667E+009;1.496632099151611E-001;-9.482915699481964E-002;2.872134093195200E-003;1.831852248869836E-003;
2.422833333333334E+009;1.496790349483490E-001;-9.659175574779511E-002;2.948615932837129E-003;1.837227959185839E-003;
2.423000000000000E+009;1.498578935861588E-001;-9.802943468093872E-002;2.907464513555169E-003;1.862486125901341E-003;
2.423166666666667E+009;1.499389111995697E-001;-9.965537488460541E-002;3.066275268793106E-003;1.605847035534680E-003;
2.423333333333334E+009;1.503939479589462E-001;-1.011711955070496E-001;2.899549202993512E-003;1.450258074328303E-003;
2.423500000000000E+009;1.505681872367859E-001;-1.026939600706101E-001;2.992647932842374E-003;1.441624131985009E-003;
2.423666666666667E+009;1.507827490568161E-001;-1.043314263224602E-001;3.021418815478683E-003;1.479734783060849E-003;
2.423833333333334E+009;1.512842178344727E-001;-1.057538315653801E-001;3.161129541695118E-003;1.401748391799629E-003;
2.424000000000000E+009;1.515291035175324E-001;-1.068661510944367E-001;3.164816182106733E-003;1.309290179051459E-003;
2.424166666666667E+009;1.518860012292862E-001;-1.081509441137314E-001;3.256092546507716E-003;1.328542595729232E-003;
2.424333333333334E+009;1.525393724441528E-001;-1.094490513205528E-001;3.254744224250317E-003;1.183969900012016E-003;
2.424500000000000E+009;1.529376059770584E-001;-1.105209216475487E-001;3.333957400172949E-003;9.120944887399674E-004;
2.424666666666667E+009;1.533762961626053E-001;-1.114172488451004E-001;3.335040295496583E-003;1.062517520040274E-003;
2.424833333333334E+009;1.537294983863831E-001;-1.125168576836586E-001;3.405336756259203E-003;9.316579671576619E-004;
2.425000000000000E+009;1.543387621641159E-001;-1.134808436036110E-001;3.505448810756207E-003;8.974974043667316E-004;
2.425166666666667E+009;1.545327752828598E-001;-1.141705513000488E-001;3.446443239226937E-003;8.915237267501652E-004;
2.425333333333334E+009;1.549670249223709E-001;-1.148992553353310E-001;3.578269854187965E-003;5.879483651369810E-004;
2.425500000000000E+009;1.553853750228882E-001;-1.156886816024780E-001;3.773888573050499E-003;6.101697217673063E-004;
2.425666666666667E+009;1.555509269237518E-001;-1.162183582782745E-001;3.633551066741347E-003;3.998178581241518E-004;
2.425833333333334E+009;1.557219326496124E-001;-1.166712194681168E-001;3.852078225463629E-003;3.608253027778119E-004;
2.426000000000000E+009;1.558394283056259E-001;-1.172502264380455E-001;3.896991955116391E-003;9.458122076466680E-005;
2.426166666666667E+009;1.560721844434738E-001;-1.177030727267265E-001;3.787533380091190E-003;-2.039488208538387E-005;
2.426333333333334E+009;1.560311913490295E-001;-1.179611682891846E-001;3.702555317431688E-003;-3.079327580053359E-004;
2.426500000000000E+009;1.561165750026703E-001;-1.182857304811478E-001;3.953012637794018E-003;-3.582155331969261E-004;
2.426666666666667E+009;1.560589969158173E-001;-1.183219254016876E-001;3.792587900534272E-003;-3.278694057371467E-004;
2.426833333333334E+009;1.558357775211334E-001;-1.185931041836739E-001;3.749355208128691E-003;-5.091276834718883E-004;
2.427000000000000E+009;1.554128825664520E-001;-1.189291179180145E-001;3.691546153277159E-003;-6.789818289689720E-004;
2.427166666666667E+009;1.550994217395783E-001;-1.188075989484787E-001;3.866204293444753E-003;-8.570489007979631E-004;
2.427333333333334E+009;1.545169502496719E-001;-1.190090849995613E-001;3.785040928050876E-003;-8.557462715543807E-004;
2.427500000000000E+009;1.540805399417877E-001;-1.191537231206894E-001;3.791401162743568E-003;-1.086746691726148E-003;
2.427666666666667E+009;1.532834619283676E-001;-1.193109527230263E-001;3.661197843030095E-003;-1.356623950414360E-003;
