# Version 1.00
#
freq[Hz];re:Trc1_S11;im:Trc1_S11;re:Trc2_S21;im:Trc2_S21;
2.400000000000000E+009;1.581632941961289E-001;6.207600235939026E-002;-2.811256097629666E-003;-2.052120631560683E-003;
2.400166666666667E+009;1.580547094345093E-001;6.047338247299194E-002;-2.885989844799042E-003;-1.860390068031848E-003;
2.400333333333334E+009;1.579560339450836E-001;5.864247679710388E-002;-2.849717624485493E-003;-1.738412654958665E-003;
2.400500000000000E+009;1.581433862447739E-001;5.667994916439056E-002;-2.788947429507971E-003;-1.507391687482595E-003;
2.400666666666667E+009;1.579407900571823E-001;5.477809906005859E-002;-2.819124376401305E-003;-1.362742274068296E-003;
2.400833333333334E+009;1.581304371356964E-001;5.268399417400360E-002;-2.997237956151366E-003;-1.323448494076729E-003;
2.401000000000000E+009;1.582302749156952E-001;5.071904137730598E-002;-2.846500836312771E-003;-1.190873445011675E-003;
2.401166666666667E+009;1.584918946027756E-001;4.866438359022141E-002;-2.980866935104132E-003;-8.982248255051673E-004;
2.401333333333334E+009;1.586093157529831E-001;4.668220132589340E-002;-2.948210807517171E-003;-8.256146102212369E-004;
2.401500000000000E+009;1.590004861354828E-001;4.462751746177673E-002;-2.801131224259734E-003;-7.298261043615639E-004;
2.401666666666667E+009;1.594456434249878E-001;4.279404506087303E-002;-2.719380659982562E-003;-6.736649665981531E-004;
2.401833333333334E+009;1.599443852901459E-001;4.054264724254608E-002;-2.823436399921775E-003;-4.200410330668092E-004;
2.402000000000000E+009;1.600814163684845E-001;3.875479102134705E-002;-2.717044670134783E-003;-3.609382256399840E-004;
2.402166666666667E+009;1.606873273849487E-001;3.669413924217224E-002;-2.548312535509467E-003;-2.673066337592900E-004;
2.402333333333334E+009;1.612415015697479E-001;3.478334844112396E-002;-2.519151661545038E-003;-1.460685889469460E-004;
2.402500000000000E+009;1.618878990411758E-001;3.311150521039963E-002;-2.474966226145625E-003;-1.295100519200787E-004;
2.402666666666667E+009;1.627735942602158E-001;3.139057755470276E-002;-2.530054887756705E-003;-4.233380968798883E-005;
2.402833333333334E+009;1.633362919092178E-001;2.961263060569763E-002;-2.192643471062183E-003;2.026622969424352E-004;
2.403000000000000E+009;1.640731692314148E-001;2.795513160526753E-002;-2.308044116944075E-003;2.044910361291841E-004;
2.403166666666667E+009;1.650258451700211E-001;2.651845663785934E-002;-2.188332611694932E-003;3.020218864548951E-004;
2.403333333333334E+009;1.659021079540253E-001;2.497393451631069E-002;-2.124553313478828E-003;2.570694778114557E-004;
2.403500000000000E+009;1.667088717222214E-001;2.370051853358746E-002;-1.996571896597743E-003;5.176289123483002E-004;
2.403666666666667E+009;1.675560176372528E-001;2.220882847905159E-002;-1.753163291141391E-003;4.349784867372364E-004;
2.403833333333334E+009;1.686260253190994E-001;2.094250544905663E-002;-1.727929222397506E-003;3.760213148780167E-004;
2.404000000000000E+009;1.695595234632492E-001;1.978832110762596E-002;-1.511264825239778E-003;3.691093879751861E-004;
2.404166666666667E+009;1.704986989498138E-001;1.858133077621460E-002;-1.588357030414045E-003;6.002711015753448E-004;
2.404333333333334E+009;1.713417321443558E-001;1.757969707250595E-002;-1.381146837957203E-003;4.669622576329857E-004;
2.404500000000000E+009;1.722166389226914E-001;1.652284711599350E-002;-1.429447787813842E-003;4.902271321043372E-004;
2.404666666666667E+009;1.730845421552658E-001;1.583928614854813E-002;-1.137410639785230E-003;4.281201981939375E-004;
2.404833333333334E+009;1.739500015974045E-001;1.489394903182983E-002;-1.138286781497300E-003;5.569905042648315E-004;
2.405000000000000E+009;1.748370230197907E-001;1.426749955862761E-002;-1.136815524660051E-003;3.915821725968272E-004;
2.405166666666667E+009;1.756473779678345E-001;1.351547706872225E-002;-1.121004344895482E-003;2.302249340573326E-004;
2.405333333333334E+009;1.764504313468933E-001;1.298735942691565E-002;-9.203877998515964E-004;1.414980506524444E-004;
2.405500000000000E+009;1.770349144935608E-001;1.256870571523905E-002;-9.150322293862701E-004;2.075297088595107E-004;
2.405666666666667E+009;1.777002066373825E-001;1.198912877589464E-002;-9.543654159642756E-004;1.829638786148280E-004;
2.405833333333334E+009;1.780650615692139E-001;1.164748240262270E-002;-9.547237423248589E-004;1.495293108746409E-004;
2.406000000000000E+009;1.787825226783752E-001;1.125029195100069E-002;-8.777580223977566E-004;-2.845823473762721E-005;
2.406166666666667E+009;1.792056262493134E-001;1.082546729594469E-002;-9.261453524231911E-004;1.219364276039414E-004;
2.406333333333334E+009;1.796545237302780E-001;1.054391358047724E-002;-9.289595764130354E-004;-1.187427551485598E-005;
2.406500000000000E+009;1.798124313354492E-001;1.013627555221319E-002;-1.009351806715131E-003;-1.328560756519437E-004;
2.406666666666667E+009;1.798631846904755E-001;9.900603443384171E-003;-9.502136381343007E-004;-8.674189302837476E-005;
2.406833333333334E+009;1.800656765699387E-001;9.419103153049946E-003;-1.082497998140752E-003;-1.065753458533436E-004;
2.407000000000000E+009;1.802112162113190E-001;9.063181467354298E-003;-9.696861961856484E-004;-1.639756228541955E-004;
2.407166666666667E+009;1.803413480520248E-001;8.875604718923569E-003;-1.249611028470099E-003;-8.173084643203765E-005;
2.407333333333334E+009;1.800268292427063E-001;8.242191746830940E-003;-1.195112941786647E-003;-3.090320387855172E-004;
2.407500000000000E+009;1.799299567937851E-001;7.893094792962074E-003;-1.187719171866775E-003;-1.612457854207605E-004;
2.407666666666667E+009;1.797510236501694E-001;7.362239994108677E-003;-1.328088110312820E-003;-2.188233193010092E-004;
2.407833333333334E+009;1.792986840009689E-001;6.742141209542751E-003;-1.241040299646556E-003;-2.209511294495314E-004;
2.408000000000000E+009;1.790040731430054E-001;6.020438857376576E-003;-1.507072476670146E-003;-9.002676961245015E-005;
2.408166666666667E+009;1.786108016967773E-001;5.677568726241589E-003;-1.410396187566221E-003;-2.849258635251317E-005;
2.408333333333334E+009;1.781578958034515E-001;4.917657002806664E-003;-1.405078219249845E-003;-1.325563207501546E-004;
2.408500000000000E+009;1.776897013187408E-001;3.996714018285275E-003;-1.398445456288755E-003;-1.007507889880799E-004;
2.408666666666667E+009;1.769622117280960E-001;2.980357734486461E-003;-1.386024523526430E-003;-3.451505472185090E-005;
2.408833333333334E+009;1.763915419578552E-001;1.965708797797561E-003;-1.546846586279571E-003;-5.201244493946433E-005;
2.409000000000000E+009;1.757193654775620E-001;8.927593589760363E-004;-1.557892537675798E-003;6.791907799197361E-005;
2.409166666666667E+009;1.751035302877426E-001;-6.667065463261679E-005;-1.439785351976752E-003;-2.300079358974472E-005;
2.409333333333334E+009;1.745895892381668E-001;-1.360825030133128E-003;-1.429726253263652E-003;7.161423127399758E-005;
2.409500000000000E+009;1.737261414527893E-001;-2.763096243143082E-003;-1.461415202356875E-003;8.576811524108052E-005;
2.409666666666667E+009;1.731648892164230E-001;-3.879258874803782E-003;-1.557741779834032E-003;8.605559560237452E-005;
2.409833333333334E+009;1.724584251642227E-001;-5.386617034673691E-003;-1.379375578835607E-003;1.193437710753642E-004;
2.410000000000000E+009;1.719746887683868E-001;-6.876646075397730E-003;-1.563554862514138E-003;2.255830040667206E-004;
2.410166666666667E+009;1.712968051433563E-001;-8.518406189978123E-003;-1.648428034968674E-003;1.095006809919141E-004;
2.410333333333334E+009;1.707205772399902E-001;-1.019965857267380E-002;-1.646955381147564E-003;1.609388273209333E-004;
2.410500000000000E+009;1.700060218572617E-001;-1.161409635096788E-002;-1.607004203833640E-003;1.474085875088349E-004;
2.410666666666667E+009;1.696623861789703E-001;-1.356173027306795E-002;-1.640499336645007E-003;1.158477316494100E-004;
2.410833333333334E+009;1.694014072418213E-001;-1.533422246575356E-002;-1.797536504454911E-003;1.037362599163316E-004;
2.411000000000000E+009;1.688364744186401E-001;-1.707915589213371E-002;-1.661652233451605E-003;1.478729245718569E-004;
2.411166666666667E+009;1.686468273401260E-001;-1.900810003280640E-002;-1.636650995351374E-003;2.404246915830299E-004;
2.411333333333334E+009;1.684265434741974E-001;-2.082542888820171E-002;-1.662701833993197E-003;1.534421753603965E-004;
2.411500000000000E+009;1.681758761405945E-001;-2.298257499933243E-002;-1.906579942442477E-003;2.064429136225954E-004;
2.411666666666667E+009;1.682338267564774E-001;-2.473149821162224E-002;-1.794260577298701E-003;2.134737296728417E-004;
2.411833333333334E+009;1.680356562137604E-001;-2.640913613140583E-002;-1.916850917041302E-003;2.749345439951867E-004;
2.412000000000000E+009;1.682651787996292E-001;-2.854258008301258E-002;-1.946444972418249E-003;2.382247621426359E-004;
2.412166666666667E+009;1.679871529340744E-001;-3.028483316302300E-002;-2.038106787949801E-003;3.021380980499089E-004;
2.412333333333334E+009;1.686456650495529E-001;-3.211892396211624E-002;-1.996397273615003E-003;3.776086086872965E-004;
2.412500000000000E+009;1.686065047979355E-001;-3.413043916225433E-002;-2.235963474959135E-003;5.276231677271426E-004;
2.412666666666667E+009;1.689757555723190E-001;-3.598463535308838E-002;-2.409955486655235E-003;7.507771370001137E-004;
2.412833333333334E+009;1.693998128175736E-001;-3.794892504811287E-002;-2.246322575956583E-003;6.514458218589425E-004;
2.413000000000000E+009;1.698736250400543E-001;-3.958102688193321E-002;-2.333879936486483E-003;7.663118303753436E-004;
2.413166666666667E+009;1.700347810983658E-001;-4.127796366810799E-002;-2.263845643028617E-003;7.837291341274977E-004;
2.413333333333334E+009;1.705320179462433E-001;-4.291465878486633E-002;-2.394505310803652E-003;9.113487321883440E-004;
2.413500000000000E+009;1.710652559995651E-001;-4.450520128011704E-002;-2.393454546108842E-003;9.030653163790703E-004;
2.413666666666667E+009;1.715783923864365E-001;-4.604336619377136E-002;-2.309261355549097E-003;1.100772409699857E-003;
2.413833333333334E+009;1.722433418035507E-001;-4.754106700420380E-002;-2.405574312433600E-003;1.252807676792145E-003;
2.414000000000000E+009;1.726156920194626E-001;-4.879361018538475E-002;-2.374479779973626E-003;1.443956512957811E-003;
2.414166666666667E+009;1.731392741203308E-001;-5.017377436161041E-002;-2.389682689681649E-003;1.771201728843153E-003;
2.414333333333334E+009;1.736897826194763E-001;-5.133819207549095E-002;-2.383649582043290E-003;1.578651834279299E-003;
2.414500000000000E+009;1.744046807289124E-001;-5.256840586662293E-002;-2.371509093791246E-003;1.797758392058313E-003;
2.414666666666667E+009;1.747255921363831E-001;-5.339784920215607E-002;-2.434825059026480E-003;1.845585764385760E-003;
2.414833333333334E+009;1.752626448869705E-001;-5.448893085122109E-002;-2.330738585442305E-003;2.035771962255240E-003;
2.415000000000000E+009;1.755948811769486E-001;-5.539684742689133E-002;-2.384404884651303E-003;2.213810570538044E-003;
2.415166666666667E+009;1.761267781257629E-001;-5.601244419813156E-002;-2.265745541080833E-003;2.335305325686932E-003;
2.415333333333334E+009;1.764454543590546E-001;-5.687802284955978E-002;-2.091567264869809E-003;2.482566284015775E-003;
2.415500000000000E+009;1.767478585243225E-001;-5.741792917251587E-002;-2.132955007255077E-003;2.677032491192222E-003;
2.415666666666667E+009;1.769733726978302E-001;-5.791164934635162E-002;-2.117264317348599E-003;2.723285928368568E-003;
2.415833333333334E+009;1.773140430450440E-001;-5.855432525277138E-002;-2.039899583905935E-003;2.910284791141748E-003;
2.416000000000000E+009;1.771942973136902E-001;-5.898748710751534E-002;-1.908762962557375E-003;2.926879795268178E-003;
2.416166666666667E+009;1.774623692035675E-001;-5.939507111907005E-002;-1.714378246106207E-003;2.976513234898448E-003;
2.416333333333334E+009;1.773041635751724E-001;-5.971160158514977E-002;-1.532553811557591E-003;3.018426941707730E-003;
2.416500000000000E+009;1.772302240133286E-001;-6.006860360503197E-002;-1.542581710964441E-003;3.304688492789865E-003;
2.416666666666667E+009;1.770467758178711E-001;-6.034003570675850E-002;-1.318675465881825E-003;3.402389818802476E-003;
2.416833333333334E+009;1.767783463001251E-001;-6.075029447674751E-002;-1.249307417310774E-003;3.470735158771277E-003;
2.417000000000000E+009;1.762505918741226E-001;-6.097038835287094E-002;-1.112584141083062E-003;3.635490080341697E-003;
2.417166666666667E+009;1.759026795625687E-001;-6.104777753353119E-002;-8.670440292917192E-004;3.676560707390308E-003;
2.417333333333334E+009;1.752942651510239E-001;-6.136246770620346E-002;-8.213974069803953E-004;3.843434154987335E-003;
2.417500000000000E+009;1.745415180921555E-001;-6.178548559546471E-002;-5.123318405821919E-004;3.790193470194936E-003;
2.417666666666667E+009;1.739383786916733E-001;-6.188905239105225E-002;-4.505249380599707E-004;3.824863350018859E-003;
2.417833333333334E+009;1.732625067234039E-001;-6.216402724385262E-002;-3.990686964243650E-004;3.974542487412691E-003;
2.418000000000000E+009;1.723273694515228E-001;-6.266471743583679E-002;-1.150052557932213E-004;3.875137073919177E-003;
2.418166666666667E+009;1.714546680450440E-001;-6.287060678005219E-002;1.062816663761623E-004;3.975080326199532E-003;
2.418333333333334E+009;1.706880629062653E-001;-6.329685449600220E-002;2.017365623032674E-004;3.836634801700711E-003;
2.418500000000000E+009;1.695949435234070E-001;-6.374946981668472E-002;3.184340603183955E-004;3.878634423017502E-003;
2.418666666666667E+009;1.685553789138794E-001;-6.428194046020508E-002;5.807894049212337E-004;3.837852738797665E-003;
2.418833333333334E+009;1.672002524137497E-001;-6.489772349596024E-002;7.772654644213617E-004;3.783029271289706E-003;
2.419000000000000E+009;1.660279482603073E-001;-6.559685617685318E-002;8.645000634714961E-004;3.679932095110416E-003;
2.419166666666667E+009;1.650343537330627E-001;-6.621309369802475E-002;9.618560434319079E-004;3.781889798119664E-003;
2.419333333333334E+009;1.637576222419739E-001;-6.679277867078781E-002;1.170879811979830E-003;3.663341980427504E-003;
2.419500000000000E+009;1.627553850412369E-001;-6.787759810686112E-002;1.316110021434724E-003;3.703841473907232E-003;
2.419666666666667E+009;1.615968048572540E-001;-6.881564110517502E-002;1.442314940504730E-003;3.623258555307984E-003;
2.419833333333334E+009;1.603486835956574E-001;-6.966865807771683E-002;1.713993842713535E-003;3.457698738202453E-003;
2.420000000000000E+009;1.591716855764389E-001;-7.079102843999863E-002;1.813485985621810E-003;3.526316490024328E-003;
2.420166666666667E+009;1.581687182188034E-001;-7.191888988018036E-002;1.931202365085483E-003;3.346528392285109E-003;
2.420333333333334E+009;1.572396755218506E-001;-7.317250967025757E-002;1.940342946909368E-003;3.175602992996573E-003;
2.420500000000000E+009;1.562429666519165E-001;-7.422113418579102E-002;2.176910638809204E-003;3.201754065230489E-003;
2.420666666666667E+009;1.552031040191650E-001;-7.560861855745316E-002;2.172647975385189E-003;3.028213744983077E-003;
2.420833333333334E+009;1.543935388326645E-001;-7.715130597352982E-002;2.304079011082649E-003;2.986310748383403E-003;
2.421000000000000E+009;1.534471958875656E-001;-7.844259589910507E-002;2.258332679048181E-003;2.919776132330298E-003;
2.421166666666667E+009;1.527283489704132E-001;-8.002208918333054E-002;2.506075426936150E-003;2.792775630950928E-003;
2.421333333333334E+009;1.522727608680725E-001;-8.154591917991638E-002;2.633369062095881E-003;2.657387172803283E-003;
2.421500000000000E+009;1.514850258827210E-001;-8.304318040609360E-002;2.519036876037717E-003;2.527457196265459E-003;
2.421666666666667E+009;1.510354131460190E-001;-8.474953472614288E-002;2.628199523314834E-003;2.530020428821445E-003;
2.421833333333334E+009;1.507157832384110E-001;-8.626741170883179E-002;2.647855319082737E-003;2.283338690176606E-003;
2.422000000000000E+009;1.503312587738037E-001;-8.807330578565598E-002;2.891606651246548E-003;2.325471490621567E-003;
2.422166666666667E+009;1.500981599092484E-001;-8.985146880149841E-002;2.838013926520944E-003;2.118775155395269E-003;
2.422333333333334E+009;1.499293297529221E-001;-9.134697169065476E-002;2.788927638903260E-003;1.936036860570312E-003;
2.422500000000000E+009;1.496634781360626E-001;-9.297999739646912E-002;2.809935249388218E-003;1.946592819876969E-003;
2.422666666666667E+009;1.496305167675018E-001;-9.467633068561554E-002;2.741324715316296E-003;1.892299973405898E-003;
2.422833333333334E+009;1.496848464012146E-001;-9.649500250816345E-002;2.843058202415705E-003;1.791992573998869E-003;
2.423000000000000E+009;1.498025655746460E-001;-9.808867424726486E-002;2.904806984588504E-003;1.736614969559014E-003;
2.423166666666667E+009;1.501452624797821E-001;-9.960057586431503E-002;2.832523314282298E-003;1.719214953482151E-003;
2.423333333333334E+009;1.504790484905243E-001;-1.011810451745987E-001;3.073066938668490E-003;1.544160884805024E-003;
2.423500000000000E+009;1.507435441017151E-001;-1.027496606111527E-001;3.005125094205141E-003;1.464998233132064E-003;
2.423666666666667E+009;1.508346647024155E-001;-1.043859124183655E-001;3.069464350119233E-003;1.404655631631613E-003;
2.423833333333334E+009;1.512633413076401E-001;-1.056611239910126E-001;3.256402444094420E-003;1.355024171061814E-003;
2.424000000000000E+009;1.516313999891281E-001;-1.069536805152893E-001;3.202604129910469E-003;1.176536432467401E-003;
2.424166666666667E+009;1.519480645656586E-001;-1.082220599055290E-001;3.143018344417214E-003;1.203220454044640E-003;
2.424333333333334E+009;1.526785343885422E-001;-1.093197241425514E-001;3.345165867358446E-003;1.342176226899028E-003;
2.424500000000000E+009;1.529574245214462E-001;-1.106156110763550E-001;3.357376204803586E-003;1.118452055379748E-003;
2.424666666666667E+009;1.534489393234253E-001;-1.115152984857559E-001;3.492427524179220E-003;1.038223854266107E-003;
2.424833333333334E+009;1.538264900445938E-001;-1.124825105071068E-001;3.401132067665458E-003;8.047170704230666E-004;
2.425000000000000E+009;1.543247252702713E-001;-1.134615465998650E-001;3.535684430971742E-003;8.681652834638953E-004;
2.425166666666667E+009;1.545994132757187E-001;-1.142541170120239E-001;3.630443243309856E-003;6.271155434660614E-004;
2.425333333333334E+009;1.550267636775971E-001;-1.150262579321861E-001;3.620902542024851E-003;4.925091052427888E-004;
2.425500000000000E+009;1.553629189729691E-001;-1.158256009221077E-001;3.589056432247162E-003;4.677712277043611E-004;
2.425666666666667E+009;1.554774343967438E-001;-1.162839010357857E-001;3.695551306009293E-003;3.362389979884028E-004;
2.425833333333334E+009;1.556726843118668E-001;-1.168562844395638E-001;3.760203719139099E-003;1.629509497433901E-004;
2.426000000000000E+009;1.559398621320725E-001;-1.173021867871285E-001;3.630685620009899E-003;2.490560291334987E-005;
2.426166666666667E+009;1.561941653490067E-001;-1.177720278501511E-001;3.702838672325015E-003;-4.333743345341645E-005;
2.426333333333334E+009;1.560571044683456E-001;-1.180618330836296E-001;3.863846184685826E-003;-2.385670377407223E-004;
2.426500000000000E+009;1.559962481260300E-001;-1.182439997792244E-001;3.750070696696639E-003;-4.739009309560061E-004;
2.426666666666667E+009;1.561458259820938E-001;-1.183851510286331E-001;3.717814572155476E-003;-4.780181916430593E-004;
2.426833333333334E+009;1.557823568582535E-001;-1.186660602688789E-001;3.685431089252234E-003;-6.588528049178422E-004;
2.427000000000000E+009;1.554284542798996E-001;-1.188452988862991E-001;3.749161493033171E-003;-8.335307356901467E-004;
2.427166666666667E+009;1.550325453281403E-001;-1.189375817775726E-001;3.700059838593006E-003;-1.002425909973681E-003;
2.427333333333334E+009;1.544466316699982E-001;-1.191294193267822E-001;3.831347450613976E-003;-8.980422280728817E-004;
2.427500000000000E+009;1.539319008588791E-001;-1.191615760326386E-001;3.676032414659858E-003;-1.246288768015802E-003;
2.427666666666667E+009;1.532969325780869E-001;-1.193296909332275E-001;3.685420844703913E-003;-1.262236037291586E-003;
