# Version 1.00
#
freq[Hz];re:Trc1_S11;im:Trc1_S11;re:Trc2_S21;im:Trc2_S21;
2.400000000000000E+009;1.573944985866547E-001;6.031461432576180E-002;-1.293255249038339E-003;-6.397786200977862E-004;
2.400166666666667E+009;1.574488878250122E-001;5.869698897004128E-002;-9.388465550728142E-004;-5.862070247530937E-004;
2.400333333333334E+009;1.575259268283844E-001;5.662437155842781E-002;-1.105745439417660E-003;-4.986254498362541E-004;
2.400500000000000E+009;1.576229333877564E-001;5.478104576468468E-002;-1.079159788787365E-003;-4.132333269808441E-004;
2.400666666666667E+009;1.579386293888092E-001;5.281181260943413E-002;-8.668638183735311E-004;-3.215392061974853E-004;
2.400833333333334E+009;1.581438779830933E-001;5.094278976321220E-002;-8.662704494781792E-004;-2.758032351266593E-004;
2.401000000000000E+009;1.584529876708984E-001;4.887737333774567E-002;-8.385597029700875E-004;-2.199099108111113E-004;
2.401166666666667E+009;1.588340103626251E-001;4.681296646595001E-002;-6.702863029204309E-004;-2.534364175517112E-004;
2.401333333333334E+009;1.591285914182663E-001;4.479502886533737E-002;-5.991013022139669E-004;-1.081823938875459E-005;
2.401500000000000E+009;1.598916500806809E-001;4.282373189926148E-002;-6.720831734128296E-004;-1.563806872582063E-004;
2.401666666666667E+009;1.601962745189667E-001;4.119042307138443E-002;-5.572952213697135E-004;-1.913328305818141E-004;
2.401833333333334E+009;1.606828868389130E-001;3.904674947261810E-002;-2.614928234834224E-004;-1.079034846043214E-004;
2.402000000000000E+009;1.612081080675125E-001;3.728788346052170E-002;-4.075451288372278E-004;-2.072152710752562E-004;
2.402166666666667E+009;1.618573963642120E-001;3.529334440827370E-002;-3.683343820739538E-004;-2.491066115908325E-004;
2.402333333333334E+009;1.626362651586533E-001;3.365727514028549E-002;-2.355054311919957E-004;-3.686769923660904E-004;
2.402500000000000E+009;1.633680611848831E-001;3.222676366567612E-002;-1.941687951330096E-004;-2.342010848224163E-004;
2.402666666666667E+009;1.641619801521301E-001;3.059553168714047E-002;-3.212283263565041E-005;-3.128027601633221E-004;
2.402833333333334E+009;1.649271994829178E-001;2.901558764278889E-002;-2.404156111879274E-004;-5.197346908971667E-004;
2.403000000000000E+009;1.659180521965027E-001;2.745617181062698E-002;-1.658880064496771E-004;-4.118817741982639E-004;
2.403166666666667E+009;1.666897237300873E-001;2.612965367734432E-002;-7.085676770657301E-005;-5.277888849377632E-004;
2.403333333333334E+009;1.676381081342697E-001;2.496327459812164E-002;-1.069209101842716E-004;-6.426044274121523E-004;
2.403500000000000E+009;1.684286445379257E-001;2.370041050016880E-002;4.375184653326869E-005;-7.851644768379629E-004;
2.403666666666667E+009;1.693738251924515E-001;2.239655703306198E-002;-6.663382373517379E-005;-9.502430330030620E-004;
2.403833333333334E+009;1.702664792537689E-001;2.131338603794575E-002;-1.447695249225944E-004;-9.284320403821766E-004;
2.404000000000000E+009;1.710899770259857E-001;2.044240944087505E-002;-1.409906690241769E-004;-8.516123634763062E-004;
2.404166666666667E+009;1.720479875802994E-001;1.936577074229717E-002;-2.856294850062113E-005;-1.065911026671529E-003;
2.404333333333334E+009;1.727571934461594E-001;1.859236508607864E-002;-2.760068455245346E-004;-9.997687302529812E-004;
2.404500000000000E+009;1.734523028135300E-001;1.776692457497120E-002;-3.187058027833700E-004;-1.268185209482908E-003;
2.404666666666667E+009;1.742471307516098E-001;1.709510385990143E-002;-3.675986663438380E-004;-1.180898281745613E-003;
2.404833333333334E+009;1.749178320169449E-001;1.643082126975060E-002;-3.124557551927865E-004;-1.270762993954122E-003;
2.405000000000000E+009;1.757125407457352E-001;1.573129370808601E-002;-4.934744792990387E-004;-1.285389414988458E-003;
2.405166666666667E+009;1.763493418693543E-001;1.521883904933929E-002;-5.535870441235602E-004;-1.397446496412158E-003;
2.405333333333334E+009;1.770961582660675E-001;1.466381270438433E-002;-5.950107006356120E-004;-1.398109598085284E-003;
2.405500000000000E+009;1.774525344371796E-001;1.423296052962542E-002;-6.008046329952776E-004;-1.453474164009094E-003;
2.405666666666667E+009;1.780098378658295E-001;1.378938183188438E-002;-6.752968183718622E-004;-1.388350385241211E-003;
2.405833333333334E+009;1.782496571540833E-001;1.366953551769257E-002;-8.351637516170740E-004;-1.460928353480995E-003;
2.406000000000000E+009;1.786635667085648E-001;1.301066577434540E-002;-8.360545616596937E-004;-1.469644485041499E-003;
2.406166666666667E+009;1.786861568689346E-001;1.283616386353970E-002;-1.024881843477488E-003;-1.414222759194672E-003;
2.406333333333334E+009;1.791275292634964E-001;1.261070184409618E-002;-9.447454358451068E-004;-1.634089392609894E-003;
2.406500000000000E+009;1.792840063571930E-001;1.209729630500078E-002;-1.190555281937122E-003;-1.478415564633906E-003;
2.406666666666667E+009;1.791122704744339E-001;1.174967736005783E-002;-1.164864981546998E-003;-1.356199849396944E-003;
2.406833333333334E+009;1.791161447763443E-001;1.131238322705030E-002;-1.338223577477038E-003;-1.349197002127767E-003;
2.407000000000000E+009;1.790967732667923E-001;1.094244047999382E-002;-1.247849198989570E-003;-1.319169066846371E-003;
2.407166666666667E+009;1.790423095226288E-001;1.049126032739878E-002;-1.577658695168793E-003;-1.362794428132474E-003;
2.407333333333334E+009;1.786488741636276E-001;9.861779399216175E-003;-1.508251763880253E-003;-1.362625509500504E-003;
2.407500000000000E+009;1.784095168113709E-001;9.348238818347454E-003;-1.637594192288816E-003;-1.065323594957590E-003;
2.407666666666667E+009;1.781997829675674E-001;8.743364363908768E-003;-1.505353255197406E-003;-1.196888391859829E-003;
2.407833333333334E+009;1.775143593549728E-001;7.916220463812351E-003;-1.624086173251271E-003;-1.191420364193618E-003;
2.408000000000000E+009;1.771180778741837E-001;7.116013206541538E-003;-1.669651479460299E-003;-1.060566399246454E-003;
2.408166666666667E+009;1.768036633729935E-001;6.346277892589569E-003;-1.684432616457343E-003;-1.017714268527925E-003;
2.408333333333334E+009;1.764674335718155E-001;5.475101061165333E-003;-1.737578888423741E-003;-8.070754702202976E-004;
2.408500000000000E+009;1.756371259689331E-001;4.384485073387623E-003;-1.719724736176431E-003;-1.057344255968928E-003;
2.408666666666667E+009;1.750805526971817E-001;3.398740896955133E-003;-1.873205415904522E-003;-8.633306715637445E-004;
2.408833333333334E+009;1.744464784860611E-001;2.194819739088416E-003;-1.774345408193767E-003;-8.423096733167768E-004;
2.409000000000000E+009;1.737910956144333E-001;1.013709697872400E-003;-1.886280835606158E-003;-6.781382253393531E-004;
2.409166666666667E+009;1.731813102960587E-001;-2.783736272249371E-004;-1.767210662364960E-003;-9.694875916466117E-004;
2.409333333333334E+009;1.727375388145447E-001;-1.731031574308872E-003;-1.935936976224184E-003;-7.935339817777276E-004;
2.409500000000000E+009;1.720972657203674E-001;-3.171178279444575E-003;-1.630382146686316E-003;-6.993865245021880E-004;
2.409666666666667E+009;1.714304685592651E-001;-4.620535299181938E-003;-1.814939896576107E-003;-7.844112697057426E-004;
2.409833333333334E+009;1.709220558404923E-001;-6.190998014062643E-003;-1.887106918729842E-003;-7.278430857695639E-004;
2.410000000000000E+009;1.704591363668442E-001;-7.739345543086529E-003;-1.969599863514304E-003;-7.248149486258626E-004;
2.410166666666667E+009;1.700092554092407E-001;-9.441283531486988E-003;-2.001856919378042E-003;-7.270482601597905E-004;
2.410333333333334E+009;1.696128398180008E-001;-1.127834804356098E-002;-2.109178574755788E-003;-7.079547503963113E-004;
2.410500000000000E+009;1.692691892385483E-001;-1.309601496905088E-002;-2.003379398956895E-003;-5.927078309468925E-004;
2.410666666666667E+009;1.687590330839157E-001;-1.501822285354137E-002;-2.137175761163235E-003;-5.443024565465748E-004;
2.410833333333334E+009;1.685967892408371E-001;-1.660475507378578E-002;-2.146976068615913E-003;-6.430997163988650E-004;
2.411000000000000E+009;1.684897392988205E-001;-1.850061118602753E-002;-2.267332747578621E-003;-5.914325010962784E-004;
2.411166666666667E+009;1.683002263307571E-001;-2.042846009135246E-002;-2.279225736856461E-003;-6.324628484435380E-004;
2.411333333333334E+009;1.681933254003525E-001;-2.221647277474403E-002;-2.476057037711144E-003;-4.239480185788125E-004;
2.411500000000000E+009;1.681616604328156E-001;-2.417210675776005E-002;-2.358342520892620E-003;-4.556830681394786E-004;
2.411666666666667E+009;1.684009581804276E-001;-2.620908990502358E-002;-2.538674976676703E-003;-4.821144102606922E-004;
2.411833333333334E+009;1.684594899415970E-001;-2.786710672080517E-002;-2.368059940636158E-003;-3.539854369591922E-004;
2.412000000000000E+009;1.688430905342102E-001;-2.986780181527138E-002;-2.586944960057735E-003;-2.604449400678277E-004;
2.412166666666667E+009;1.690231263637543E-001;-3.183864057064056E-002;-2.678173128515482E-003;-3.400904533918947E-004;
2.412333333333334E+009;1.695262789726257E-001;-3.339811041951180E-002;-2.753181383013725E-003;-1.152523618657142E-004;
2.412500000000000E+009;1.697199046611786E-001;-3.513897582888603E-002;-2.831736113876104E-003;-3.343710341141559E-005;
2.412666666666667E+009;1.701431125402451E-001;-3.689019381999970E-002;-2.966115949675441E-003;-4.408376844367012E-005;
2.412833333333334E+009;1.706075072288513E-001;-3.866339474916458E-002;-3.049186896532774E-003;1.145982605521567E-004;
2.413000000000000E+009;1.712462157011032E-001;-4.029062762856484E-002;-3.011579392477870E-003;2.988438063766807E-004;
2.413166666666667E+009;1.715899258852005E-001;-4.182294756174088E-002;-3.085340373218060E-003;4.904627567157149E-004;
2.413333333333334E+009;1.720569133758545E-001;-4.326720908284187E-002;-3.152324818074703E-003;4.272729274816811E-004;
2.413500000000000E+009;1.727341860532761E-001;-4.479312896728516E-002;-3.175152232870460E-003;5.399945657700300E-004;
2.413666666666667E+009;1.732661873102188E-001;-4.624634608626366E-002;-3.200554288923740E-003;7.684283191338182E-004;
2.413833333333334E+009;1.737524718046188E-001;-4.740889742970467E-002;-3.181525738909841E-003;1.084550982341170E-003;
2.414000000000000E+009;1.742856949567795E-001;-4.871593043208122E-002;-3.011990105733275E-003;1.134824822656810E-003;
2.414166666666667E+009;1.748632788658142E-001;-4.990023747086525E-002;-3.093548817560077E-003;1.130552147515118E-003;
2.414333333333334E+009;1.753583550453186E-001;-5.097232758998871E-002;-2.957683522254229E-003;1.436399295926094E-003;
2.414500000000000E+009;1.760807931423187E-001;-5.189092084765434E-002;-3.146558068692684E-003;1.577261369675398E-003;
2.414666666666667E+009;1.764876693487167E-001;-5.279912427067757E-002;-2.991963410750032E-003;1.729534589685500E-003;
2.414833333333334E+009;1.768517494201660E-001;-5.375902354717255E-002;-3.013442968949676E-003;1.826167339459062E-003;
2.415000000000000E+009;1.769794821739197E-001;-5.432525649666786E-002;-2.949528861790896E-003;2.121347934007645E-003;
2.415166666666667E+009;1.773920059204102E-001;-5.503992363810539E-002;-3.054242813959718E-003;2.184037351980805E-003;
2.415333333333334E+009;1.778069287538528E-001;-5.567401275038719E-002;-2.832187572494149E-003;2.216913271695375E-003;
2.415500000000000E+009;1.779675930738449E-001;-5.613427981734276E-002;-2.678358461707830E-003;2.460803603753448E-003;
2.415666666666667E+009;1.780973076820374E-001;-5.670346692204475E-002;-2.611841075122356E-003;2.621285151690245E-003;
2.415833333333334E+009;1.781718432903290E-001;-5.712059140205383E-002;-2.515441970899701E-003;2.795877167955041E-003;
2.416000000000000E+009;1.779845505952835E-001;-5.751669034361839E-002;-2.385984873399139E-003;2.760879928246141E-003;
2.416166666666667E+009;1.780612617731094E-001;-5.781521275639534E-002;-2.392638707533479E-003;2.946114633232355E-003;
2.416333333333334E+009;1.778550744056702E-001;-5.803278833627701E-002;-2.252814359962940E-003;3.110485849902034E-003;
2.416500000000000E+009;1.775010377168655E-001;-5.842350795865059E-002;-2.194258384406567E-003;3.127004252746701E-003;
2.416666666666667E+009;1.770979315042496E-001;-5.879560112953186E-002;-1.998872263357043E-003;3.264172468334436E-003;
2.416833333333334E+009;1.767353415489197E-001;-5.909225344657898E-002;-1.825120300054550E-003;3.332489170134068E-003;
2.417000000000000E+009;1.761207729578018E-001;-5.931602418422699E-002;-1.720379106700420E-003;3.378863446414471E-003;
2.417166666666667E+009;1.755129396915436E-001;-5.964889377355576E-002;-1.654854859225452E-003;3.416866995394230E-003;
2.417333333333334E+009;1.748981624841690E-001;-5.985632538795471E-002;-1.418456784449518E-003;3.548906650394201E-003;
2.417500000000000E+009;1.741105169057846E-001;-6.026194244623184E-002;-1.226392691023648E-003;3.473178250715137E-003;
2.417666666666667E+009;1.733780205249786E-001;-6.057164445519447E-002;-1.289655570872128E-003;3.593343542888761E-003;
2.417833333333334E+009;1.724659353494644E-001;-6.091026589274406E-002;-1.049695769324899E-003;3.649759804829955E-003;
2.418000000000000E+009;1.714410930871964E-001;-6.160154938697815E-002;-7.866210071370006E-004;3.631795523688197E-003;
2.418166666666667E+009;1.703587472438812E-001;-6.181001663208008E-002;-6.563980132341385E-004;3.604807425290346E-003;
2.418333333333334E+009;1.695374697446823E-001;-6.252821534872055E-002;-6.611569551751018E-004;3.707835916429758E-003;
2.418500000000000E+009;1.681769341230393E-001;-6.305787712335587E-002;-3.935852146241814E-004;3.662092378363013E-003;
2.418666666666667E+009;1.672911643981934E-001;-6.367557495832443E-002;-3.067513462156057E-004;3.675221465528011E-003;
2.418833333333334E+009;1.659684628248215E-001;-6.440432369709015E-002;-1.599814131623134E-004;3.817818360403180E-003;
2.419000000000000E+009;1.647308915853500E-001;-6.517618894577026E-002;-3.822761573246680E-005;3.679320216178894E-003;
2.419166666666667E+009;1.637596786022186E-001;-6.615765392780304E-002;-6.283656693994999E-005;3.630474908277392E-003;
2.419333333333334E+009;1.623642593622208E-001;-6.678622215986252E-002;2.195972629124299E-004;3.674457548186183E-003;
2.419500000000000E+009;1.612921804189682E-001;-6.791515648365021E-002;3.031389205716550E-004;3.542385995388031E-003;
2.419666666666667E+009;1.602926254272461E-001;-6.899438053369522E-002;4.525404947344214E-004;3.470562864094973E-003;
2.419833333333334E+009;1.589288413524628E-001;-7.007407397031784E-002;4.742399614769965E-004;3.468910930678248E-003;
2.420000000000000E+009;1.579814702272415E-001;-7.118573039770126E-002;7.962291711010039E-004;3.430625190958381E-003;
2.420166666666667E+009;1.569537669420242E-001;-7.247079163789749E-002;6.223184755071998E-004;3.524015424773097E-003;
2.420333333333334E+009;1.560567915439606E-001;-7.387721538543701E-002;9.662314550951123E-004;3.443200839683414E-003;
2.420500000000000E+009;1.551077663898468E-001;-7.509320229291916E-002;9.096621070057154E-004;3.418535459786654E-003;
2.420666666666667E+009;1.542522311210632E-001;-7.648197561502457E-002;1.019323244690895E-003;3.144251415506005E-003;
2.420833333333334E+009;1.535156071186066E-001;-7.771618664264679E-002;1.120408414863050E-003;3.310489701107144E-003;
2.421000000000000E+009;1.527544856071472E-001;-7.957783341407776E-002;1.128085074014962E-003;3.352520754560828E-003;
2.421166666666667E+009;1.521353423595429E-001;-8.105637878179550E-002;1.234536292031407E-003;3.170303301885724E-003;
2.421333333333334E+009;1.517453491687775E-001;-8.252229541540146E-002;1.346315839327872E-003;3.135519335046411E-003;
2.421500000000000E+009;1.510120034217835E-001;-8.420579880475998E-002;1.497048186138272E-003;3.196450183168054E-003;
2.421666666666667E+009;1.506710648536682E-001;-8.588287234306335E-002;1.465780893340707E-003;3.039611736312509E-003;
2.421833333333334E+009;1.504618972539902E-001;-8.740203082561493E-002;1.408980460837483E-003;2.924476517364383E-003;
2.422000000000000E+009;1.502012163400650E-001;-8.904905617237091E-002;1.721421373076737E-003;2.889322815462947E-003;
2.422166666666667E+009;1.500071883201599E-001;-9.092185646295548E-002;1.730687450617552E-003;2.862287918105722E-003;
2.422333333333334E+009;1.500125080347061E-001;-9.236843138933182E-002;1.780048944056034E-003;2.834145911037922E-003;
2.422500000000000E+009;1.498386412858963E-001;-9.380102157592773E-002;1.897722831927240E-003;2.793198451399803E-003;
2.422666666666667E+009;1.498697251081467E-001;-9.550631791353226E-002;1.930123544298112E-003;2.845599781721830E-003;
2.422833333333334E+009;1.501941531896591E-001;-9.714514762163162E-002;1.951670041307807E-003;2.758424263447523E-003;
2.423000000000000E+009;1.502277106046677E-001;-9.864638745784760E-002;2.004429465159774E-003;2.530368743464351E-003;
2.423166666666667E+009;1.506894379854202E-001;-1.001644581556320E-001;2.165405312553048E-003;2.530432539060712E-003;
2.423333333333334E+009;1.508555859327316E-001;-1.014579311013222E-001;1.990744145587087E-003;2.511637518182397E-003;
2.423500000000000E+009;1.512524932622910E-001;-1.029727756977081E-001;2.326521323993802E-003;2.509085461497307E-003;
2.423666666666667E+009;1.514435410499573E-001;-1.044043079018593E-001;2.377878408879042E-003;2.446944359689951E-003;
2.423833333333334E+009;1.521385908126831E-001;-1.056355088949204E-001;2.386700129136443E-003;2.362219616770744E-003;
2.424000000000000E+009;1.523982286453247E-001;-1.066031381487846E-001;2.509176498278976E-003;2.347647212445736E-003;
2.424166666666667E+009;1.528188437223434E-001;-1.077825650572777E-001;2.552688354626298E-003;2.155714901164174E-003;
2.424333333333334E+009;1.534367948770523E-001;-1.088447645306587E-001;2.609580056741834E-003;2.120296005159617E-003;
2.424500000000000E+009;1.538562178611755E-001;-1.098999306559563E-001;2.752155298367143E-003;2.139023505151272E-003;
2.424666666666667E+009;1.542858928442001E-001;-1.105639263987541E-001;2.805654192343354E-003;1.836716430261731E-003;
2.424833333333334E+009;1.545825898647308E-001;-1.115022674202919E-001;2.836283994838595E-003;1.888368977233768E-003;
2.425000000000000E+009;1.551253199577332E-001;-1.124350354075432E-001;3.005407517775893E-003;1.835389179177582E-003;
2.425166666666667E+009;1.552660465240479E-001;-1.130321845412254E-001;2.945643384009600E-003;1.681208494119346E-003;
2.425333333333334E+009;1.556674987077713E-001;-1.135813370347023E-001;2.950115827843547E-003;1.691634301096201E-003;
2.425500000000000E+009;1.559882611036301E-001;-1.142553538084030E-001;3.069358645007014E-003;1.757933408953250E-003;
2.425666666666667E+009;1.560276150703430E-001;-1.147776097059250E-001;3.089508973062038E-003;1.249892404302955E-003;
2.425833333333334E+009;1.562303602695465E-001;-1.151510775089264E-001;3.264969680458307E-003;1.277644885703921E-003;
2.426000000000000E+009;1.562601476907730E-001;-1.156896352767944E-001;3.254850860685110E-003;1.250130240805447E-003;
2.426166666666667E+009;1.564262658357620E-001;-1.159383058547974E-001;3.374123713001609E-003;1.041925046592951E-003;
2.426333333333334E+009;1.562081277370453E-001;-1.161558032035828E-001;3.218992147594690E-003;1.108242431655526E-003;
2.426500000000000E+009;1.561287492513657E-001;-1.163284704089165E-001;3.458456369116902E-003;9.322838159278035E-004;
2.426666666666667E+009;1.560072004795075E-001;-1.165569499135017E-001;3.600912634283304E-003;7.541636587120593E-004;
2.426833333333334E+009;1.556530594825745E-001;-1.168753281235695E-001;3.424379974603653E-003;6.094818236306310E-004;
2.427000000000000E+009;1.552672386169434E-001;-1.170826479792595E-001;3.424902446568012E-003;4.405959625728428E-004;
2.427166666666667E+009;1.546488553285599E-001;-1.171222478151321E-001;3.527817083522677E-003;3.521511098369956E-004;
2.427333333333334E+009;1.540687084197998E-001;-1.173257082700729E-001;3.394760424271226E-003;3.294540219940245E-004;
2.427500000000000E+009;1.535005122423172E-001;-1.175571829080582E-001;3.506524022668600E-003;1.442736102035269E-004;
2.427666666666667E+009;1.527388840913773E-001;-1.177437677979469E-001;3.530115354806185E-003;2.209981757914648E-004;
