# Version 1.00
#
freq[Hz];re:Trc1_S11;im:Trc1_S11;re:Trc2_S21;im:Trc2_S21;
2.400000000000000E+009;1.573024541139603E-001;6.033911556005478E-002;-1.268057851120830E-003;-6.032575620338321E-004;
2.400166666666667E+009;1.573776304721832E-001;5.860306695103645E-002;-1.225410262122750E-003;-6.221454241313040E-004;
2.400333333333334E+009;1.574474871158600E-001;5.659979954361916E-002;-9.253399330191314E-004;-4.617280792444944E-004;
2.400500000000000E+009;1.578742861747742E-001;5.470737442374229E-002;-1.157167833298445E-003;-3.292830369900912E-004;
2.400666666666667E+009;1.577523648738861E-001;5.277073755860329E-002;-9.923436446115375E-004;-3.995646839030087E-004;
2.400833333333334E+009;1.583009362220764E-001;5.095018818974495E-002;-1.049662474542856E-003;-4.002826171927154E-004;
2.401000000000000E+009;1.585868895053864E-001;4.884986206889153E-002;-7.608288433402777E-004;-3.232270246371627E-004;
2.401166666666667E+009;1.588321328163147E-001;4.693391174077988E-002;-6.772259948775172E-004;-1.533926115371287E-004;
2.401333333333334E+009;1.590773612260819E-001;4.472332447767258E-002;-7.708224584348500E-004;-3.235577896703035E-004;
2.401500000000000E+009;1.597744524478912E-001;4.287034273147583E-002;-6.641966756433249E-004;-1.126784118241631E-004;
2.401666666666667E+009;1.602563858032227E-001;4.105403274297714E-002;-4.434701986610889E-004;-3.205071261618286E-004;
2.401833333333334E+009;1.606619805097580E-001;3.908863663673401E-002;-4.570200107991695E-004;-3.123815113212913E-004;
2.402000000000000E+009;1.612682789564133E-001;3.705909848213196E-002;-3.338010574225336E-004;-3.035960544366390E-004;
2.402166666666667E+009;1.619571000337601E-001;3.511935472488403E-002;-2.740675408858806E-004;-2.233221312053502E-004;
2.402333333333334E+009;1.625614762306213E-001;3.357389569282532E-002;-2.546697796788067E-004;-2.514889929443598E-004;
2.402500000000000E+009;1.636251956224442E-001;3.192814439535141E-002;-1.161714535555802E-004;-3.653543244581670E-004;
2.402666666666667E+009;1.640838235616684E-001;3.041495196521282E-002;-8.127323235385120E-005;-3.134789294563234E-004;
2.402833333333334E+009;1.650062650442123E-001;2.892409265041351E-002;9.385033081343863E-006;-4.689629131462425E-004;
2.403000000000000E+009;1.657273322343826E-001;2.749506384134293E-002;-8.176521805580705E-005;-6.152354762889445E-004;
2.403166666666667E+009;1.667521297931671E-001;2.615867368876934E-002;-9.179873450193554E-005;-7.063676603138447E-004;
2.403333333333334E+009;1.675484776496887E-001;2.490319497883320E-002;1.462448126403615E-004;-6.787605234421790E-004;
2.403500000000000E+009;1.681850254535675E-001;2.369432896375656E-002;-3.055142587982118E-005;-8.743313373997808E-004;
2.403666666666667E+009;1.692281216382980E-001;2.226715348660946E-002;-1.233843649970368E-004;-8.294719154946506E-004;
2.403833333333334E+009;1.701997369527817E-001;2.144043147563934E-002;-1.381393230985850E-004;-9.735743515193462E-004;
2.404000000000000E+009;1.711171567440033E-001;2.036572992801666E-002;-1.007874670904130E-004;-1.041564391925931E-003;
2.404166666666667E+009;1.718412935733795E-001;1.943442597985268E-002;-1.863913057604805E-004;-1.104203867726028E-003;
2.404333333333334E+009;1.726347357034683E-001;1.867301575839520E-002;-1.502222730778158E-004;-9.575486765243113E-004;
2.404500000000000E+009;1.733168959617615E-001;1.768163032829762E-002;-2.235127903986722E-004;-1.200994011014700E-003;
2.404666666666667E+009;1.742940247058868E-001;1.707840897142887E-002;-2.964214945677668E-004;-1.304812962189317E-003;
2.404833333333334E+009;1.750280559062958E-001;1.636529341340065E-002;-3.610168059822172E-004;-1.420397311449051E-003;
2.405000000000000E+009;1.757156401872635E-001;1.575572229921818E-002;-4.732428060378879E-004;-1.358725246973336E-003;
2.405166666666667E+009;1.764722615480423E-001;1.518391072750092E-002;-5.568265914916992E-004;-1.432931167073548E-003;
2.405333333333334E+009;1.770567893981934E-001;1.469014212489128E-002;-6.241197697818279E-004;-1.516070566140115E-003;
2.405500000000000E+009;1.774108558893204E-001;1.429971866309643E-002;-5.219486192800105E-004;-1.546076848171651E-003;
2.405666666666667E+009;1.779926717281342E-001;1.397495530545712E-002;-8.316740277223289E-004;-1.425741123966873E-003;
2.405833333333334E+009;1.782484650611877E-001;1.354538276791573E-002;-9.028678759932518E-004;-1.374925253912807E-003;
2.406000000000000E+009;1.787378787994385E-001;1.305143255740404E-002;-1.017942675389350E-003;-1.611086074262857E-003;
2.406166666666667E+009;1.787797212600708E-001;1.293711736798286E-002;-9.553898125886917E-004;-1.429364318028092E-003;
2.406333333333334E+009;1.790987402200699E-001;1.252009905874729E-002;-1.305004116147757E-003;-1.395773375406861E-003;
2.406500000000000E+009;1.790692806243897E-001;1.211647316813469E-002;-1.085576368495822E-003;-1.390104531310499E-003;
2.406666666666667E+009;1.790939122438431E-001;1.182729937136173E-002;-1.155557343736291E-003;-1.562507008202374E-003;
2.406833333333334E+009;1.792048066854477E-001;1.134422607719898E-002;-1.429330557584763E-003;-1.328020356595516E-003;
2.407000000000000E+009;1.790325045585632E-001;1.092232298105955E-002;-1.510891481302679E-003;-1.360963564366102E-003;
2.407166666666667E+009;1.791117042303085E-001;1.049409806728363E-002;-1.447748858481646E-003;-1.363793155178428E-003;
2.407333333333334E+009;1.787382513284683E-001;9.913466870784760E-003;-1.559528638608754E-003;-1.228225417435169E-003;
2.407500000000000E+009;1.784186512231827E-001;9.275146760046482E-003;-1.461825799196959E-003;-1.321011804975569E-003;
2.407666666666667E+009;1.781125068664551E-001;8.691960945725441E-003;-1.671381643973291E-003;-1.160726300440729E-003;
2.407833333333334E+009;1.776533573865891E-001;7.962144911289215E-003;-1.603173092007637E-003;-1.109770848415792E-003;
2.408000000000000E+009;1.771714240312576E-001;7.196638733148575E-003;-1.582628465257585E-003;-1.030755462124944E-003;
2.408166666666667E+009;1.765950322151184E-001;6.390942260622978E-003;-1.736678415909410E-003;-1.015395508147776E-003;
2.408333333333334E+009;1.764470338821411E-001;5.438617430627346E-003;-1.699451357126236E-003;-1.033098553307355E-003;
2.408500000000000E+009;1.756711453199387E-001;4.458878189325333E-003;-1.763700740411878E-003;-9.231345029547811E-004;
2.408666666666667E+009;1.750805974006653E-001;3.354833694174886E-003;-1.825405517593026E-003;-9.370844345539808E-004;
2.408833333333334E+009;1.743580996990204E-001;2.151567023247480E-003;-1.764714135788381E-003;-8.783115190453827E-004;
2.409000000000000E+009;1.738974303007126E-001;1.048222533427179E-003;-1.893369131721556E-003;-7.563411490991712E-004;
2.409166666666667E+009;1.733485758304596E-001;-4.565013223327696E-004;-1.761995721608400E-003;-7.251756615005434E-004;
2.409333333333334E+009;1.728415340185165E-001;-1.725059119053185E-003;-1.766680739820004E-003;-7.974528707563877E-004;
2.409500000000000E+009;1.720430403947830E-001;-3.273506881669164E-003;-1.793573959730566E-003;-6.715353811159730E-004;
2.409666666666667E+009;1.714223623275757E-001;-4.685965832322836E-003;-1.906748395413160E-003;-7.284288876689971E-004;
2.409833333333334E+009;1.708553731441498E-001;-6.195335183292627E-003;-1.798756304197013E-003;-6.793705979362130E-004;
2.410000000000000E+009;1.703662872314453E-001;-7.883228361606598E-003;-1.855333568528295E-003;-6.976582226343453E-004;
2.410166666666667E+009;1.699870079755783E-001;-9.550415910780430E-003;-1.957283820956945E-003;-7.644754950888455E-004;
2.410333333333334E+009;1.695476621389389E-001;-1.131919585168362E-002;-2.033520955592394E-003;-7.378061418421567E-004;
2.410500000000000E+009;1.691894531250000E-001;-1.316305622458458E-002;-2.112440066412091E-003;-5.197918508201838E-004;
2.410666666666667E+009;1.688048690557480E-001;-1.497635059058666E-002;-1.940533518791199E-003;-6.317177903838456E-004;
2.410833333333334E+009;1.686296612024307E-001;-1.680018566548824E-002;-2.161748241633177E-003;-7.070229621604085E-004;
2.411000000000000E+009;1.683820039033890E-001;-1.851506531238556E-002;-2.269285032525659E-003;-6.122305640019476E-004;
2.411166666666667E+009;1.682906150817871E-001;-2.048210054636002E-002;-2.064471831545234E-003;-5.123820155858994E-004;
2.411333333333334E+009;1.681309491395950E-001;-2.221532352268696E-002;-2.324823057278991E-003;-5.870924214832485E-004;
2.411500000000000E+009;1.682443916797638E-001;-2.430834248661995E-002;-2.446699189022183E-003;-4.997091018594801E-004;
2.411666666666667E+009;1.682027280330658E-001;-2.603882178664208E-002;-2.458048285916448E-003;-4.163533740211278E-004;
2.411833333333334E+009;1.684786826372147E-001;-2.785442583262920E-002;-2.557516563683748E-003;-4.574214399326593E-004;
2.412000000000000E+009;1.688254624605179E-001;-2.982511930167675E-002;-2.670072251930833E-003;-3.026588528882712E-004;
2.412166666666667E+009;1.689756065607071E-001;-3.177010640501976E-002;-2.800366608425975E-003;-3.024669713340700E-004;
2.412333333333334E+009;1.694290786981583E-001;-3.327608853578568E-002;-2.870750380679965E-003;-2.542251022532582E-004;
2.412500000000000E+009;1.696824431419373E-001;-3.511217236518860E-002;-2.915699733421207E-003;-4.456144233699888E-005;
2.412666666666667E+009;1.702488213777542E-001;-3.693995624780655E-002;-2.865989692509174E-003;6.953253614483401E-005;
2.412833333333334E+009;1.706612408161163E-001;-3.857483714818955E-002;-2.943869680166245E-003;2.263497590320185E-004;
2.413000000000000E+009;1.711177378892899E-001;-4.020274803042412E-002;-2.949069254100323E-003;2.590595395304263E-004;
2.413166666666667E+009;1.717041581869125E-001;-4.179903119802475E-002;-3.013239474967122E-003;3.350838960614055E-004;
2.413333333333334E+009;1.720289736986160E-001;-4.329094663262367E-002;-3.149693133309484E-003;4.164729616604745E-004;
2.413500000000000E+009;1.726465225219727E-001;-4.488840326666832E-002;-3.294831607490778E-003;6.912836106494069E-004;
2.413666666666667E+009;1.732919663190842E-001;-4.613839462399483E-002;-3.066922305151820E-003;7.923655211925507E-004;
2.413833333333334E+009;1.736813634634018E-001;-4.750790819525719E-002;-3.213784657418728E-003;8.592536323703826E-004;
2.414000000000000E+009;1.742483675479889E-001;-4.857796803116798E-002;-3.101710230112076E-003;1.102233771234751E-003;
2.414166666666667E+009;1.747710108757019E-001;-4.985177516937256E-002;-3.158083884045482E-003;1.330618397332728E-003;
2.414333333333334E+009;1.753696799278259E-001;-5.099730566143990E-002;-3.173350356519222E-003;1.487971749156714E-003;
2.414500000000000E+009;1.761021167039871E-001;-5.194393917918205E-002;-3.178059356287122E-003;1.638812595047057E-003;
2.414666666666667E+009;1.764867305755615E-001;-5.268748849630356E-002;-3.106854623183608E-003;1.688685035333037E-003;
2.414833333333334E+009;1.768502444028854E-001;-5.367140099406242E-002;-2.855609636753798E-003;1.814424409531057E-003;
2.415000000000000E+009;1.771468073129654E-001;-5.441685765981674E-002;-2.920303260907531E-003;1.836122479289770E-003;
2.415166666666667E+009;1.774082630872726E-001;-5.507545545697212E-002;-2.874979516491294E-003;2.089973539113998E-003;
2.415333333333334E+009;1.777331084012985E-001;-5.572683364152908E-002;-2.740265568718314E-003;2.251568250358105E-003;
2.415500000000000E+009;1.779049634933472E-001;-5.622243881225586E-002;-2.838395303115249E-003;2.333758398890495E-003;
2.415666666666667E+009;1.779098063707352E-001;-5.651627480983734E-002;-2.640355378389359E-003;2.688555978238583E-003;
2.415833333333334E+009;1.781053990125656E-001;-5.705180391669273E-002;-2.433477900922298E-003;2.738872310146689E-003;
2.416000000000000E+009;1.778766214847565E-001;-5.741354078054428E-002;-2.449191408231854E-003;2.887674374505878E-003;
2.416166666666667E+009;1.780572086572647E-001;-5.783681571483612E-002;-2.351767383515835E-003;2.903475426137447E-003;
2.416333333333334E+009;1.777902841567993E-001;-5.818453431129456E-002;-2.214020118117333E-003;3.039655508473516E-003;
2.416500000000000E+009;1.776152402162552E-001;-5.848520994186401E-002;-1.972394995391369E-003;3.037144197151065E-003;
2.416666666666667E+009;1.771485656499863E-001;-5.874233320355415E-002;-2.051810035482049E-003;3.208251670002937E-003;
2.416833333333334E+009;1.767880618572235E-001;-5.916211009025574E-002;-1.836431445553899E-003;3.238763194531202E-003;
2.417000000000000E+009;1.760818660259247E-001;-5.947242304682732E-002;-1.716847997158766E-003;3.376345150172710E-003;
2.417166666666667E+009;1.756083667278290E-001;-5.968061834573746E-002;-1.603473559953272E-003;3.431257558986545E-003;
2.417333333333334E+009;1.748285442590714E-001;-5.985508859157562E-002;-1.504297717474401E-003;3.594488836824894E-003;
2.417500000000000E+009;1.741112768650055E-001;-6.047070026397705E-002;-1.167722744867206E-003;3.642478957772255E-003;
2.417666666666667E+009;1.732933372259140E-001;-6.059372797608376E-002;-1.098972745239735E-003;3.691693302243948E-003;
2.417833333333334E+009;1.723841130733490E-001;-6.107196956872940E-002;-9.498459985479713E-004;3.661009250208736E-003;
2.418000000000000E+009;1.713013648986816E-001;-6.155405938625336E-002;-8.082768181338906E-004;3.608025144785643E-003;
2.418166666666667E+009;1.702612787485123E-001;-6.181053072214127E-002;-7.734224200248718E-004;3.739770734682679E-003;
2.418333333333334E+009;1.694750636816025E-001;-6.247486174106598E-002;-5.286957602947950E-004;3.676313674077392E-003;
2.418500000000000E+009;1.682690531015396E-001;-6.317277252674103E-002;-4.310641379561275E-004;3.631305648013949E-003;
2.418666666666667E+009;1.672051101922989E-001;-6.381167471408844E-002;-4.029118863400072E-004;3.764923429116607E-003;
2.418833333333334E+009;1.659446507692337E-001;-6.440725177526474E-002;-1.945311669260263E-004;3.638056106865406E-003;
2.419000000000000E+009;1.648307740688324E-001;-6.523369252681732E-002;-1.798256562324241E-004;3.724090289324522E-003;
2.419166666666667E+009;1.635741442441940E-001;-6.619285047054291E-002;2.472004598530475E-005;3.570666071027517E-003;
2.419333333333334E+009;1.622929275035858E-001;-6.685594469308853E-002;1.013060173136182E-004;3.612958826124668E-003;
2.419500000000000E+009;1.612268239259720E-001;-6.796813011169434E-002;2.168364444514737E-004;3.672457532957196E-003;
2.419666666666667E+009;1.601639091968536E-001;-6.915724277496338E-002;3.724315902218223E-004;3.486605826765299E-003;
2.419833333333334E+009;1.589449197053909E-001;-6.999642401933670E-002;5.279588513076305E-004;3.411668352782726E-003;
2.420000000000000E+009;1.579123735427856E-001;-7.130674272775650E-002;6.239729118533433E-004;3.346025710925460E-003;
2.420166666666667E+009;1.569475233554840E-001;-7.249294966459274E-002;9.242642554454505E-004;3.353051841259003E-003;
2.420333333333334E+009;1.560800522565842E-001;-7.384160906076431E-002;8.005055715329945E-004;3.378743771463633E-003;
2.420500000000000E+009;1.551645994186401E-001;-7.515360414981842E-002;8.968905312940478E-004;3.353930311277509E-003;
2.420666666666667E+009;1.541835814714432E-001;-7.637426257133484E-002;9.425781317986548E-004;3.223592415452004E-003;
2.420833333333334E+009;1.534035652875900E-001;-7.801070809364319E-002;1.154054887592793E-003;3.215919248759747E-003;
2.421000000000000E+009;1.526822894811630E-001;-7.951348274946213E-002;1.079278066754341E-003;3.335815388709307E-003;
2.421166666666667E+009;1.521500647068024E-001;-8.105373382568359E-002;1.183295855298638E-003;3.075140062719584E-003;
2.421333333333334E+009;1.516102850437164E-001;-8.267930150032044E-002;1.369894715026021E-003;3.184802364557982E-003;
2.421500000000000E+009;1.510154157876968E-001;-8.409952372312546E-002;1.496938872151077E-003;2.974062925204635E-003;
2.421666666666667E+009;1.507344394922257E-001;-8.578915148973465E-002;1.406724331900477E-003;3.091631224378943E-003;
2.421833333333334E+009;1.505040228366852E-001;-8.754593878984451E-002;1.668071025051177E-003;2.942055463790894E-003;
2.422000000000000E+009;1.502939015626907E-001;-8.907859027385712E-002;1.587107079103589E-003;2.804560819640756E-003;
2.422166666666667E+009;1.499051600694656E-001;-9.099201112985611E-002;1.770456554368138E-003;3.027903847396374E-003;
2.422333333333334E+009;1.498884707689285E-001;-9.239394962787628E-002;1.756699522957206E-003;2.849443117156625E-003;
2.422500000000000E+009;1.499864906072617E-001;-9.395705908536911E-002;1.920102396979928E-003;2.652541734278202E-003;
2.422666666666667E+009;1.499041765928268E-001;-9.553804993629456E-002;1.983591355383396E-003;2.695344621315599E-003;
2.422833333333334E+009;1.500053405761719E-001;-9.721514582633972E-002;2.013894263654947E-003;2.603287575766444E-003;
2.423000000000000E+009;1.503224968910217E-001;-9.867773950099945E-002;2.036322373896837E-003;2.547922544181347E-003;
2.423166666666667E+009;1.506890356540680E-001;-1.001438349485397E-001;2.129795495420694E-003;2.475432353094220E-003;
2.423333333333334E+009;1.509627550840378E-001;-1.014636307954788E-001;2.355206524953246E-003;2.618147060275078E-003;
2.423500000000000E+009;1.513525396585465E-001;-1.028543263673782E-001;2.314490731805563E-003;2.454262925311923E-003;
2.423666666666667E+009;1.514860689640045E-001;-1.043275818228722E-001;2.363379579037428E-003;2.391159301623702E-003;
2.423833333333334E+009;1.520765572786331E-001;-1.055552288889885E-001;2.569653792306781E-003;2.301915315911174E-003;
2.424000000000000E+009;1.525234729051590E-001;-1.065978631377220E-001;2.552628051489592E-003;2.150636864826083E-003;
2.424166666666667E+009;1.528519690036774E-001;-1.077736467123032E-001;2.547406125813723E-003;2.181762596592307E-003;
2.424333333333334E+009;1.533705294132233E-001;-1.087348833680153E-001;2.682099118828774E-003;2.144227502867580E-003;
2.424500000000000E+009;1.538235247135162E-001;-1.098439022898674E-001;2.802158473059535E-003;2.163614379242063E-003;
2.424666666666667E+009;1.543753445148468E-001;-1.106883212924004E-001;2.890640404075384E-003;2.013196703046560E-003;
2.424833333333334E+009;1.547119468450546E-001;-1.115940958261490E-001;3.018917283043265E-003;1.808319007977843E-003;
2.425000000000000E+009;1.550642848014832E-001;-1.123322099447250E-001;2.962975064292550E-003;1.785688102245331E-003;
2.425166666666667E+009;1.551852226257324E-001;-1.130049154162407E-001;2.958984579890966E-003;1.703575137071312E-003;
2.425333333333334E+009;1.557763814926148E-001;-1.136305928230286E-001;3.073771717026830E-003;1.617465168237686E-003;
2.425500000000000E+009;1.559696793556213E-001;-1.142599210143089E-001;3.187996102496982E-003;1.501600956544280E-003;
2.425666666666667E+009;1.560508012771606E-001;-1.147263720631599E-001;3.038757480680943E-003;1.280484721064568E-003;
2.425833333333334E+009;1.562206149101257E-001;-1.151877716183662E-001;3.074412699788809E-003;1.261928700841963E-003;
2.426000000000000E+009;1.562655717134476E-001;-1.156188473105431E-001;3.082818351686001E-003;1.345594879239798E-003;
2.426166666666667E+009;1.563253849744797E-001;-1.160604059696198E-001;3.250519745051861E-003;9.733119513839483E-004;
2.426333333333334E+009;1.562084853649139E-001;-1.163356825709343E-001;3.294645575806499E-003;7.973556057550013E-004;
2.426500000000000E+009;1.560531854629517E-001;-1.165244877338409E-001;3.375490894541144E-003;7.740863366052508E-004;
2.426666666666667E+009;1.560443192720413E-001;-1.166962757706642E-001;3.365969983860850E-003;7.483858498744667E-004;
2.426833333333334E+009;1.556628644466400E-001;-1.169528886675835E-001;3.231354290619493E-003;6.361496634781361E-004;
2.427000000000000E+009;1.550938636064529E-001;-1.172052472829819E-001;3.309252671897411E-003;4.261687863618136E-004;
2.427166666666667E+009;1.546447426080704E-001;-1.172133684158325E-001;3.358059795573354E-003;3.150455886498094E-004;
2.427333333333334E+009;1.539883762598038E-001;-1.173809096217156E-001;3.276394214481115E-003;2.684728824533522E-004;
2.427500000000000E+009;1.534320563077927E-001;-1.176467239856720E-001;3.363962285220623E-003;1.883885270217434E-004;
2.427666666666667E+009;1.525897085666657E-001;-1.178141310811043E-001;3.297128248959780E-003;2.786000550258905E-005;
