# Version 1.00
#
freq[Hz];re:Trc1_S11;im:Trc1_S11;re:Trc2_S21;im:Trc2_S21;
2.400000000000000E+009;1.688539534807205E-001;4.584362730383873E-002;-5.684693809598684E-003;-1.189849339425564E-003;
2.400166666666667E+009;1.698559075593948E-001;4.488712549209595E-002;-6.004913244396448E-003;-9.001786820590496E-004;
2.400333333333334E+009;1.707436591386795E-001;4.378198832273483E-002;-6.124394014477730E-003;-8.042276604101062E-004;
2.400500000000000E+009;1.716504096984863E-001;4.289328679442406E-002;-6.104378029704094E-003;-7.299559074454010E-004;
2.400666666666667E+009;1.726518720388413E-001;4.176137223839760E-002;-6.178240291774273E-003;-5.851003224961460E-004;
2.400833333333334E+009;1.736659556627274E-001;4.101391881704330E-002;-6.224858574569225E-003;-2.322578075109050E-004;
2.401000000000000E+009;1.743724346160889E-001;4.032217338681221E-002;-6.422594655305147E-003;-1.987353025469929E-004;
2.401166666666667E+009;1.751558333635330E-001;3.957581892609596E-002;-6.427888758480549E-003;4.223725773044862E-005;
2.401333333333334E+009;1.758885979652405E-001;3.885543346405029E-002;-6.474636960774660E-003;2.489287580829114E-004;
2.401500000000000E+009;1.765905022621155E-001;3.820264339447022E-002;-6.549394689500332E-003;4.588036390487105E-004;
2.401666666666667E+009;1.773000508546829E-001;3.769327700138092E-002;-6.713021546602249E-003;8.765608654357493E-004;
2.401833333333334E+009;1.777756214141846E-001;3.695299103856087E-002;-6.626896560192108E-003;9.536915458738804E-004;
2.402000000000000E+009;1.781584769487381E-001;3.648205474019051E-002;-6.669630296528339E-003;1.182818901725113E-003;
2.402166666666667E+009;1.786886751651764E-001;3.565418347716332E-002;-6.830664817243815E-003;1.403152360580862E-003;
2.402333333333334E+009;1.788329184055328E-001;3.517613559961319E-002;-6.806019693613052E-003;1.763222389854491E-003;
2.402500000000000E+009;1.795380562543869E-001;3.488628193736076E-002;-6.750443484634161E-003;2.189693273976445E-003;
2.402666666666667E+009;1.795566380023956E-001;3.403991833329201E-002;-6.769886240363121E-003;2.376188058406115E-003;
2.402833333333334E+009;1.798480898141861E-001;3.327113017439842E-002;-6.733810994774103E-003;2.596985781565309E-003;
2.403000000000000E+009;1.797565221786499E-001;3.256453573703766E-002;-6.838525179773569E-003;2.862045774236321E-003;
2.403166666666667E+009;1.799340546131134E-001;3.188344836235046E-002;-6.535840686410666E-003;3.209641436114907E-003;
2.403333333333334E+009;1.798802614212036E-001;3.100741468369961E-002;-6.509236525744200E-003;3.549459856003523E-003;
2.403500000000000E+009;1.796234548091888E-001;3.011498227715492E-002;-6.464781239628792E-003;3.734902944415808E-003;
2.403666666666667E+009;1.793467849493027E-001;2.910653688013554E-002;-6.330108735710383E-003;4.101655911654234E-003;
2.403833333333334E+009;1.789910197257996E-001;2.813881821930409E-002;-6.149276159703732E-003;4.231562372297049E-003;
2.404000000000000E+009;1.787376999855042E-001;2.720201946794987E-002;-5.981865804642439E-003;4.663649480789900E-003;
2.404166666666667E+009;1.784020215272903E-001;2.584561891853809E-002;-5.883789621293545E-003;4.797153640538454E-003;
2.404333333333334E+009;1.779088973999023E-001;2.466836944222450E-002;-5.631000734865665E-003;5.082081072032452E-003;
2.404500000000000E+009;1.773018240928650E-001;2.322695031762123E-002;-5.499334074556828E-003;5.565448664128780E-003;
2.404666666666667E+009;1.770628094673157E-001;2.189454995095730E-002;-5.241089966148138E-003;5.632417742162943E-003;
2.404833333333334E+009;1.764075011014938E-001;2.060239575803280E-002;-4.905897192656994E-003;5.853555630892515E-003;
2.405000000000000E+009;1.759728342294693E-001;1.900569163262844E-002;-4.695031791925430E-003;5.999944172799587E-003;
2.405166666666667E+009;1.754803955554962E-001;1.756473816931248E-002;-4.590132273733616E-003;6.218220572918654E-003;
2.405333333333334E+009;1.750629693269730E-001;1.570613682270050E-002;-4.155723843723536E-003;6.376510020345449E-003;
2.405500000000000E+009;1.747017800807953E-001;1.408151909708977E-002;-3.957934677600861E-003;6.513700354844332E-003;
2.405666666666667E+009;1.741618514060974E-001;1.245084218680859E-002;-3.552687820047140E-003;6.817288696765900E-003;
2.405833333333334E+009;1.738020032644272E-001;1.072025950998068E-002;-3.395568113774061E-003;6.754451896995306E-003;
2.406000000000000E+009;1.735344529151917E-001;8.704544045031071E-003;-2.935982309281826E-003;6.915991660207510E-003;
2.406166666666667E+009;1.731830388307571E-001;7.029390893876553E-003;-2.756211673840880E-003;6.865070667117834E-003;
2.406333333333334E+009;1.731467843055725E-001;4.881429020315409E-003;-2.583900932222605E-003;6.969313602894545E-003;
2.406500000000000E+009;1.729920357465744E-001;2.994279609993100E-003;-2.051439834758639E-003;6.967628374695778E-003;
2.406666666666667E+009;1.726922988891602E-001;9.958479786291719E-004;-1.852222136221826E-003;6.945524364709854E-003;
2.406833333333334E+009;1.728471219539642E-001;-1.246348489075899E-003;-1.537655596621335E-003;7.144466973841190E-003;
2.407000000000000E+009;1.729626059532166E-001;-3.200926119461656E-003;-1.336661865934730E-003;6.980401463806629E-003;
2.407166666666667E+009;1.730332076549530E-001;-5.278348457068205E-003;-1.075317501090467E-003;7.000104989856482E-003;
2.407333333333334E+009;1.730167716741562E-001;-7.396034430712462E-003;-8.653035038150847E-004;6.964552216231823E-003;
2.407500000000000E+009;1.732799559831619E-001;-9.577285498380661E-003;-6.120691541582346E-004;6.903895176947117E-003;
2.407666666666667E+009;1.736492514610291E-001;-1.156173180788755E-002;-2.574344398453832E-004;6.971864961087704E-003;
2.407833333333334E+009;1.737667322158814E-001;-1.392809767276049E-002;-1.715251710265875E-004;6.868712604045868E-003;
2.408000000000000E+009;1.741086542606354E-001;-1.605343073606491E-002;1.073461098712869E-004;6.915834266692400E-003;
2.408166666666667E+009;1.744409799575806E-001;-1.780889928340912E-002;3.502884646877646E-004;6.693998351693153E-003;
2.408333333333334E+009;1.749802380800247E-001;-1.981180347502232E-002;6.119910976849496E-004;6.639345083385706E-003;
2.408500000000000E+009;1.752962619066238E-001;-2.182732895016670E-002;7.506920373998582E-004;6.566277239471674E-003;
2.408666666666667E+009;1.757133454084396E-001;-2.376095764338970E-002;1.095330342650414E-003;6.450003944337368E-003;
2.408833333333334E+009;1.759862452745438E-001;-2.548240311443806E-002;1.170215778984129E-003;6.325013004243374E-003;
2.409000000000000E+009;1.762907505035400E-001;-2.711127325892448E-002;1.212889561429620E-003;6.405781488865614E-003;
2.409166666666667E+009;1.769039630889893E-001;-2.859810367226601E-002;1.325731747783721E-003;6.124579813331366E-003;
2.409333333333334E+009;1.772904396057129E-001;-3.010627813637257E-002;1.409246237017214E-003;6.125390529632568E-003;
2.409500000000000E+009;1.776159554719925E-001;-3.150262683629990E-002;1.421564607881010E-003;6.062899716198444E-003;
2.409666666666667E+009;1.780558526515961E-001;-3.280074149370194E-002;1.605773344635963E-003;6.093524862080813E-003;
2.409833333333334E+009;1.786006093025208E-001;-3.382904082536697E-002;1.800931873731315E-003;6.107597611844540E-003;
2.410000000000000E+009;1.790906935930252E-001;-3.479455411434174E-002;1.909230835735798E-003;5.954022519290447E-003;
2.410166666666667E+009;1.796248555183411E-001;-3.574373945593834E-002;1.991784432902932E-003;5.890610162168741E-003;
2.410333333333334E+009;1.798349916934967E-001;-3.661112114787102E-002;2.217940287664533E-003;5.939567461609840E-003;
2.410500000000000E+009;1.802515834569931E-001;-3.742178902029991E-002;2.298752544447780E-003;5.996318999677897E-003;
2.410666666666667E+009;1.805437505245209E-001;-3.816264495253563E-002;2.588127739727497E-003;5.987768061459065E-003;
2.410833333333334E+009;1.811146885156632E-001;-3.856937587261200E-002;2.611312782391906E-003;5.881286691874266E-003;
2.411000000000000E+009;1.813014149665833E-001;-3.926126658916473E-002;2.816450316458941E-003;5.981946364045143E-003;
2.411166666666667E+009;1.814945191144943E-001;-3.993958607316017E-002;3.013927023857832E-003;5.903378129005432E-003;
2.411333333333334E+009;1.817223429679871E-001;-4.030485451221466E-002;3.245818195864558E-003;5.944696255028248E-003;
2.411500000000000E+009;1.817029565572739E-001;-4.089782387018204E-002;3.501847386360169E-003;5.886828526854515E-003;
2.411666666666667E+009;1.819639503955841E-001;-4.119245335459709E-002;3.761064028367400E-003;5.875282455235720E-003;
2.411833333333334E+009;1.818076670169830E-001;-4.146048054099083E-002;3.861698554828763E-003;5.672028753906488E-003;
2.412000000000000E+009;1.814940422773361E-001;-4.185577481985092E-002;4.191075451672077E-003;5.619452334940434E-003;
2.412166666666667E+009;1.813681721687317E-001;-4.224943742156029E-002;4.445774480700493E-003;5.674804095178843E-003;
2.412333333333334E+009;1.810367256402969E-001;-4.259732738137245E-002;4.757050424814224E-003;5.648166872560978E-003;
2.412500000000000E+009;1.804749667644501E-001;-4.284250363707542E-002;4.973194561898708E-003;5.581392440944910E-003;
2.412666666666667E+009;1.797772794961929E-001;-4.350038617849350E-002;5.207264330238104E-003;5.318514537066221E-003;
2.412833333333334E+009;1.792498081922531E-001;-4.359830915927887E-002;5.580798722803593E-003;5.112167913466692E-003;
2.413000000000000E+009;1.785230785608292E-001;-4.406219720840454E-002;5.867504514753819E-003;4.930437076836824E-003;
2.413166666666667E+009;1.777690500020981E-001;-4.436532407999039E-002;5.894540809094906E-003;4.631663672626019E-003;
2.413333333333334E+009;1.767619103193283E-001;-4.489526152610779E-002;6.198717281222343E-003;4.427278880029917E-003;
2.413500000000000E+009;1.759890317916870E-001;-4.534571617841721E-002;6.495635956525803E-003;4.214221145957708E-003;
2.413666666666667E+009;1.749523729085922E-001;-4.592338576912880E-002;6.745544727891684E-003;3.953725565224886E-003;
2.413833333333334E+009;1.738290935754776E-001;-4.651315137743950E-002;6.856620777398348E-003;3.682535374537110E-003;
2.414000000000000E+009;1.726119220256805E-001;-4.701919108629227E-002;6.997721269726753E-003;3.330432111397386E-003;
2.414166666666667E+009;1.714702546596527E-001;-4.782772809267044E-002;7.166435010731220E-003;3.233166178688407E-003;
2.414333333333334E+009;1.703717410564423E-001;-4.864438995718956E-002;7.217450998723507E-003;2.913380041718483E-003;
2.414500000000000E+009;1.694433540105820E-001;-4.949849098920822E-002;7.458521984517574E-003;2.591271884739399E-003;
2.414666666666667E+009;1.681964695453644E-001;-5.034775286912918E-002;7.672011852264404E-003;2.165994141250849E-003;
2.414833333333334E+009;1.668148934841156E-001;-5.148240923881531E-002;7.584173697978258E-003;1.840866985730827E-003;
2.415000000000000E+009;1.656948029994965E-001;-5.250610411167145E-002;7.813669741153717E-003;1.467708381824195E-003;
2.415166666666667E+009;1.645583957433701E-001;-5.370166897773743E-002;7.683858275413513E-003;1.167218084447086E-003;
2.415333333333334E+009;1.634865999221802E-001;-5.523474887013435E-002;7.745524402707815E-003;8.438178338110447E-004;
2.415500000000000E+009;1.622853726148605E-001;-5.655416846275330E-002;7.679418195039034E-003;4.940974176861346E-004;
2.415666666666667E+009;1.611146181821823E-001;-5.797991156578064E-002;7.691374979913235E-003;1.531509042251855E-004;
2.415833333333334E+009;1.600438952445984E-001;-5.957569181919098E-002;7.720417808741331E-003;-1.738265418680385E-004;
2.416000000000000E+009;1.589447706937790E-001;-6.130859255790710E-002;7.572252769023180E-003;-3.405345487408340E-004;
2.416166666666667E+009;1.581799387931824E-001;-6.300084292888641E-002;7.501262705773115E-003;-6.011661607772112E-004;
2.416333333333334E+009;1.571644842624664E-001;-6.472975760698319E-002;7.431271020323038E-003;-8.758487529121339E-004;
2.416500000000000E+009;1.561940908432007E-001;-6.666088104248047E-002;7.511167321354151E-003;-1.175286364741623E-003;
2.416666666666667E+009;1.552706658840179E-001;-6.845673173666000E-002;7.274174131453037E-003;-1.297922688536346E-003;
2.416833333333334E+009;1.545420587062836E-001;-7.052064687013626E-002;7.074179127812386E-003;-1.586469821631908E-003;
2.417000000000000E+009;1.535200178623200E-001;-7.243924587965012E-002;7.006167899817228E-003;-1.966794487088919E-003;
2.417166666666667E+009;1.528080254793167E-001;-7.426200807094574E-002;7.107893005013466E-003;-2.100564772263169E-003;
2.417333333333334E+009;1.522689163684845E-001;-7.619212567806244E-002;6.758098956197500E-003;-2.325220964848995E-003;
2.417500000000000E+009;1.516842097043991E-001;-7.829518616199493E-002;6.486312486231327E-003;-2.613029442727566E-003;
2.417666666666667E+009;1.512413173913956E-001;-8.001843094825745E-002;6.582784000784159E-003;-2.803716575726867E-003;
2.417833333333334E+009;1.506731361150742E-001;-8.179567754268646E-002;6.332531571388245E-003;-2.997682197019458E-003;
2.418000000000000E+009;1.502057760953903E-001;-8.371207118034363E-002;6.252222694456577E-003;-3.180810948833823E-003;
2.418166666666667E+009;1.498062908649445E-001;-8.540613949298859E-002;6.185809615999460E-003;-3.245824016630650E-003;
2.418333333333334E+009;1.499327719211578E-001;-8.713113516569138E-002;5.879704840481281E-003;-3.417604835703969E-003;
2.418500000000000E+009;1.495651006698608E-001;-8.867941051721573E-002;5.785535089671612E-003;-3.560965647920966E-003;
2.418666666666667E+009;1.496341675519943E-001;-9.031061828136444E-002;5.824920255690813E-003;-3.803235478699207E-003;
2.418833333333334E+009;1.493616998195648E-001;-9.166438132524490E-002;5.542839411646128E-003;-4.144300241023302E-003;
2.419000000000000E+009;1.492671668529511E-001;-9.295168519020081E-002;5.524554755538702E-003;-4.296443425118923E-003;
2.419166666666667E+009;1.493511497974396E-001;-9.412434697151184E-002;5.297329276800156E-003;-4.571476951241493E-003;
2.419333333333334E+009;1.494990885257721E-001;-9.505634009838104E-002;5.179083440452814E-003;-4.571547731757164E-003;
2.419500000000000E+009;1.496371179819107E-001;-9.626063704490662E-002;4.840154200792313E-003;-4.765145014971495E-003;
2.419666666666667E+009;1.498377025127411E-001;-9.719435870647430E-002;4.740807227790356E-003;-4.899476654827595E-003;
2.419833333333334E+009;1.499894261360169E-001;-9.798955172300339E-002;4.662684164941311E-003;-5.175176076591015E-003;
2.420000000000000E+009;1.502249538898468E-001;-9.854077547788620E-002;4.461362492293119E-003;-5.373148713260889E-003;
2.420166666666667E+009;1.505692750215530E-001;-9.904599934816361E-002;4.253452178090811E-003;-5.402500741183758E-003;
2.420333333333334E+009;1.509398669004440E-001;-9.956848621368408E-002;4.027103539556265E-003;-5.567409098148346E-003;
2.420500000000000E+009;1.511267572641373E-001;-9.988272935152054E-002;3.809297224506736E-003;-5.609505344182253E-003;
2.420666666666667E+009;1.511904299259186E-001;-1.000616848468781E-001;3.628371516242623E-003;-5.684006493538618E-003;
2.420833333333334E+009;1.516139358282089E-001;-1.003755107522011E-001;3.416808787733316E-003;-6.010224111378193E-003;
2.421000000000000E+009;1.516996473073959E-001;-1.005679666996002E-001;3.281933953985572E-003;-6.120636127889156E-003;
2.421166666666667E+009;1.521576493978500E-001;-1.003849878907204E-001;2.938149031251669E-003;-6.169222760945559E-003;
2.421333333333334E+009;1.523235440254211E-001;-1.003569215536118E-001;2.851400757208467E-003;-6.316613405942917E-003;
2.421500000000000E+009;1.521607041358948E-001;-1.002198681235313E-001;2.679159166291356E-003;-6.296553183346987E-003;
2.421666666666667E+009;1.523572951555252E-001;-1.001911014318466E-001;2.365027787163854E-003;-6.364870816469193E-003;
2.421833333333334E+009;1.523247957229614E-001;-1.000458523631096E-001;2.425636397674680E-003;-6.570044904947281E-003;
2.422000000000000E+009;1.520825475454330E-001;-9.980213642120361E-002;2.004316542297602E-003;-6.661183200776577E-003;
2.422166666666667E+009;1.517698615789414E-001;-9.960886836051941E-002;1.748218317516148E-003;-6.944959983229637E-003;
2.422333333333334E+009;1.514317691326141E-001;-9.911952912807465E-002;1.608535065315664E-003;-7.050734478980303E-003;
2.422500000000000E+009;1.510278284549713E-001;-9.878075122833252E-002;1.268062274903059E-003;-7.076553534716368E-003;
2.422666666666667E+009;1.502432972192764E-001;-9.868573397397995E-002;1.020502648316324E-003;-7.174578960984945E-003;
2.422833333333334E+009;1.497216671705246E-001;-9.845095872879028E-002;6.141252815723419E-004;-7.243447471410036E-003;
2.423000000000000E+009;1.489738821983337E-001;-9.778519719839096E-002;3.084643976762891E-004;-7.312948815524578E-003;
2.423166666666667E+009;1.480865925550461E-001;-9.771896153688431E-002;1.103968388633803E-004;-7.412487175315619E-003;
2.423333333333334E+009;1.472946107387543E-001;-9.709539264440537E-002;-3.605033562052995E-004;-7.521164603531361E-003;
2.423500000000000E+009;1.461071819067001E-001;-9.687265008687973E-002;-5.513487267307937E-004;-7.511735428124666E-003;
2.423666666666667E+009;1.447268873453140E-001;-9.673872590065002E-002;-9.315100032836199E-004;-7.442783564329147E-003;
2.423833333333334E+009;1.435946226119995E-001;-9.648974984884262E-002;-1.391405472531915E-003;-7.177453953772783E-003;
2.424000000000000E+009;1.423647105693817E-001;-9.599654376506805E-002;-1.615613582544029E-003;-7.320828735828400E-003;
2.424166666666667E+009;1.411018818616867E-001;-9.594510495662689E-002;-1.952961087226868E-003;-7.138843182474375E-003;
2.424333333333334E+009;1.398161351680756E-001;-9.580279141664505E-002;-2.444916870445013E-003;-6.983415689319372E-003;
2.424500000000000E+009;1.383658051490784E-001;-9.580091387033463E-002;-2.817895496264100E-003;-6.870776880532503E-003;
2.424666666666667E+009;1.370091587305069E-001;-9.582367539405823E-002;-3.282998688519001E-003;-6.850699428468943E-003;
2.424833333333334E+009;1.354954391717911E-001;-9.608057141304016E-002;-3.657378721982241E-003;-6.580908782780170E-003;
2.425000000000000E+009;1.340242326259613E-001;-9.645323455333710E-002;-3.969122655689716E-003;-6.483481265604496E-003;
2.425166666666667E+009;1.324506402015686E-001;-9.678694605827332E-002;-4.101568832993507E-003;-6.011712830513716E-003;
2.425333333333334E+009;1.310876160860062E-001;-9.736759215593338E-002;-4.430531058460474E-003;-5.647661630064249E-003;
2.425500000000000E+009;1.297532916069031E-001;-9.803968667984009E-002;-4.568282514810562E-003;-5.508673842996359E-003;
2.425666666666667E+009;1.281632781028748E-001;-9.878225624561310E-002;-4.918200429528952E-003;-5.071826279163361E-003;
2.425833333333334E+009;1.267743855714798E-001;-9.963513165712357E-002;-5.135202314704657E-003;-4.852425772696734E-003;
2.426000000000000E+009;1.253416538238525E-001;-1.007516458630562E-001;-5.320188123732805E-003;-4.245888907462359E-003;
2.426166666666667E+009;1.241213828325272E-001;-1.018912941217423E-001;-5.374931730329990E-003;-4.067624919116497E-003;
2.426333333333334E+009;1.227728798985481E-001;-1.030648946762085E-001;-5.507579538971186E-003;-3.692849073559046E-003;
2.426500000000000E+009;1.215421408414841E-001;-1.043192520737648E-001;-5.602890159934759E-003;-3.251446411013603E-003;
2.426666666666667E+009;1.205184757709503E-001;-1.055642217397690E-001;-5.658070556819439E-003;-2.789459424093366E-003;
2.426833333333334E+009;1.193275526165962E-001;-1.071076095104218E-001;-5.521289538592100E-003;-2.438054187223315E-003;
2.427000000000000E+009;1.182646453380585E-001;-1.087062433362007E-001;-5.650402046740055E-003;-2.124409889802337E-003;
2.427166666666667E+009;1.172792837023735E-001;-1.101676896214485E-001;-5.442799068987370E-003;-1.685063354671001E-003;
2.427333333333334E+009;1.162811145186424E-001;-1.118128523230553E-001;-5.445112939924002E-003;-1.231645001098514E-003;
2.427500000000000E+009;1.156643033027649E-001;-1.134721711277962E-001;-5.147656891494989E-003;-1.073565683327615E-003;
2.427666666666667E+009;1.148425713181496E-001;-1.152453199028969E-001;-5.074150394648314E-003;-8.692237897776067E-004;
