# Version 1.00
#
freq[Hz];re:Trc1_S11;im:Trc1_S11;re:Trc2_S21;im:Trc2_S21;
2.400000000000000E+009;1.688762605190277E-001;4.575643315911293E-002;-5.707560572773218E-003;-1.091932994313538E-003;
2.400166666666667E+009;1.698560565710068E-001;4.482517763972282E-002;-6.004492752254009E-003;-1.086249598301947E-003;
2.400333333333334E+009;1.705901771783829E-001;4.366258904337883E-002;-6.028352770954371E-003;-8.172935340553522E-004;
2.400500000000000E+009;1.718098521232605E-001;4.273189231753349E-002;-6.211487576365471E-003;-7.267068140208721E-004;
2.400666666666667E+009;1.726551651954651E-001;4.176114127039909E-002;-6.296905688941479E-003;-5.635673878714442E-004;
2.400833333333334E+009;1.735429167747498E-001;4.112919420003891E-002;-6.263083778321743E-003;-3.595909802243114E-004;
2.401000000000000E+009;1.743710041046143E-001;4.028994962573052E-002;-6.553713697940111E-003;-2.018274826696143E-004;
2.401166666666667E+009;1.751731187105179E-001;3.944564238190651E-002;-6.429004948586226E-003;-8.114363299682736E-005;
2.401333333333334E+009;1.759352385997772E-001;3.879964351654053E-002;-6.527436431497335E-003;3.568860120140016E-004;
2.401500000000000E+009;1.768423169851303E-001;3.820786997675896E-002;-6.668566726148129E-003;5.077029345557094E-004;
2.401666666666667E+009;1.774983108043671E-001;3.765024244785309E-002;-6.757994648069143E-003;6.959962774999440E-004;
2.401833333333334E+009;1.777829825878143E-001;3.684806823730469E-002;-6.861558184027672E-003;1.097953529097140E-003;
2.402000000000000E+009;1.782297044992447E-001;3.634395077824593E-002;-6.865434348583221E-003;1.285332138650119E-003;
2.402166666666667E+009;1.787296086549759E-001;3.573790937662125E-002;-6.901569198817015E-003;1.524084713310003E-003;
2.402333333333334E+009;1.790716648101807E-001;3.527658060193062E-002;-6.771415006369352E-003;1.968441298231483E-003;
2.402500000000000E+009;1.794603914022446E-001;3.462756052613258E-002;-6.800227798521519E-003;2.194518456235528E-003;
2.402666666666667E+009;1.795655637979507E-001;3.398194909095764E-002;-6.733650807291269E-003;2.403072779998183E-003;
2.402833333333334E+009;1.796720772981644E-001;3.329830989241600E-002;-6.725190673023462E-003;2.548774937167764E-003;
2.403000000000000E+009;1.798707842826843E-001;3.247904032468796E-002;-6.748883519321680E-003;2.866002032533288E-003;
2.403166666666667E+009;1.799241155385971E-001;3.170710802078247E-002;-6.682355888187885E-003;3.166520502418280E-003;
2.403333333333334E+009;1.798622012138367E-001;3.094258718192577E-002;-6.662687286734581E-003;3.551009343937039E-003;
2.403500000000000E+009;1.795631796121597E-001;3.009879775345326E-002;-6.655199918895960E-003;3.764698281884193E-003;
2.403666666666667E+009;1.793391704559326E-001;2.897150255739689E-002;-6.572689861059189E-003;4.092823714017868E-003;
2.403833333333334E+009;1.791183650493622E-001;2.800516784191132E-002;-6.312136072665453E-003;4.400712903589010E-003;
2.404000000000000E+009;1.787163615226746E-001;2.699809521436691E-002;-6.146843545138836E-003;4.758844152092934E-003;
2.404166666666667E+009;1.782872378826141E-001;2.569670788943768E-002;-5.815597251057625E-003;4.964272957295179E-003;
2.404333333333334E+009;1.778122931718826E-001;2.453258447349072E-002;-5.694197490811348E-003;5.196411628276110E-003;
2.404500000000000E+009;1.773008555173874E-001;2.322702854871750E-002;-5.646426696330309E-003;5.448897369205952E-003;
2.404666666666667E+009;1.769248247146606E-001;2.194032631814480E-002;-5.370096769183874E-003;5.633013322949410E-003;
2.404833333333334E+009;1.763943135738373E-001;2.041539922356606E-002;-5.129929631948471E-003;5.768277682363987E-003;
2.405000000000000E+009;1.759456843137741E-001;1.888959854841232E-002;-4.848371259868145E-003;6.054589990526438E-003;
2.405166666666667E+009;1.754418909549713E-001;1.734844781458378E-002;-4.639615304768086E-003;6.240449845790863E-003;
2.405333333333334E+009;1.751532256603241E-001;1.579811982810497E-002;-4.092397633939982E-003;6.337949074804783E-003;
2.405500000000000E+009;1.746240407228470E-001;1.423303876072168E-002;-3.889411222189665E-003;6.589975208044052E-003;
2.405666666666667E+009;1.741234213113785E-001;1.235802005976439E-002;-3.563178237527609E-003;6.635549943894148E-003;
2.405833333333334E+009;1.736651808023453E-001;1.078244764357805E-002;-3.276586066931486E-003;6.636202801018953E-003;
2.406000000000000E+009;1.734717935323715E-001;8.639433421194553E-003;-3.091909224167466E-003;6.887811701744795E-003;
2.406166666666667E+009;1.732710599899292E-001;6.994538009166718E-003;-2.725599799305201E-003;6.891097873449326E-003;
2.406333333333334E+009;1.731423288583756E-001;4.955764859914780E-003;-2.477704081684351E-003;7.009909953922033E-003;
2.406500000000000E+009;1.728691160678864E-001;2.906915964558721E-003;-2.212474821135402E-003;7.049955427646637E-003;
2.406666666666667E+009;1.726769059896469E-001;1.061707967892289E-003;-1.861895667389035E-003;7.146731950342655E-003;
2.406833333333334E+009;1.727688461542130E-001;-1.179021899588406E-003;-1.553131151013076E-003;7.154553197324276E-003;
2.407000000000000E+009;1.727997958660126E-001;-3.300632350146771E-003;-1.313710818067193E-003;7.118551526218653E-003;
2.407166666666667E+009;1.730841249227524E-001;-5.261980462819338E-003;-1.092730439268053E-003;7.174892816692591E-003;
2.407333333333334E+009;1.731585711240768E-001;-7.418728899210692E-003;-9.329771855846047E-004;7.003170438110828E-003;
2.407500000000000E+009;1.733677983283997E-001;-9.474157355725765E-003;-6.142604397609830E-004;7.009324617683888E-003;
2.407666666666667E+009;1.738341748714447E-001;-1.166415121406317E-002;-1.933830499183387E-004;7.055157329887152E-003;
2.407833333333334E+009;1.737653017044067E-001;-1.388110499829054E-002;-1.245524908881635E-004;6.899568717926741E-003;
2.408000000000000E+009;1.741891205310822E-001;-1.589902676641941E-002;3.388694676687010E-005;6.770142354071140E-003;
2.408166666666667E+009;1.745651513338089E-001;-1.783040910959244E-002;3.887872735504061E-004;6.546791177242994E-003;
2.408333333333334E+009;1.750530302524567E-001;-1.988963410258293E-002;5.896170041523874E-004;6.737200077623129E-003;
2.408500000000000E+009;1.754224300384522E-001;-2.190459519624710E-002;7.347373757511377E-004;6.584115326404572E-003;
2.408666666666667E+009;1.758370399475098E-001;-2.380503900349140E-002;9.001470170915127E-004;6.603971123695374E-003;
2.408833333333334E+009;1.759694963693619E-001;-2.548640221357346E-002;1.094102044589818E-003;6.490691564977169E-003;
2.409000000000000E+009;1.763548254966736E-001;-2.716425433754921E-002;1.185812754556537E-003;6.262443494051695E-003;
2.409166666666667E+009;1.769270151853561E-001;-2.858929708600044E-002;1.320700976066291E-003;6.169234402477741E-003;
2.409333333333334E+009;1.772913634777069E-001;-3.016305528581142E-002;1.382405520416796E-003;6.199035327881575E-003;
2.409500000000000E+009;1.778351515531540E-001;-3.167136758565903E-002;1.555978204123676E-003;6.266195327043533E-003;
2.409666666666667E+009;1.780801117420197E-001;-3.275490924715996E-002;1.774329110048711E-003;6.102881394326687E-003;
2.409833333333334E+009;1.785455793142319E-001;-3.362369909882546E-002;1.845348975621164E-003;6.094107404351234E-003;
2.410000000000000E+009;1.790619939565659E-001;-3.477442637085915E-002;1.874368404969573E-003;6.064220797270536E-003;
2.410166666666667E+009;1.796018928289414E-001;-3.579780086874962E-002;1.952307880856097E-003;6.073838565498591E-003;
2.410333333333334E+009;1.798080801963806E-001;-3.658282756805420E-002;2.215599175542593E-003;5.997276864945889E-003;
2.410500000000000E+009;1.803320497274399E-001;-3.725078701972961E-002;2.382865874096751E-003;5.983179435133934E-003;
2.410666666666667E+009;1.807494908571243E-001;-3.806013241410255E-002;2.618233440443873E-003;5.995905026793480E-003;
2.410833333333334E+009;1.810908615589142E-001;-3.871922567486763E-002;2.699025208130479E-003;5.891313310712576E-003;
2.411000000000000E+009;1.813396215438843E-001;-3.922501951456070E-002;2.863977104425430E-003;6.074284669011831E-003;
2.411166666666667E+009;1.816699951887131E-001;-3.978506848216057E-002;3.086587879806757E-003;5.973347462713718E-003;
2.411333333333334E+009;1.818861663341522E-001;-4.026874154806137E-002;3.343245014548302E-003;5.986792501062155E-003;
2.411500000000000E+009;1.817144006490707E-001;-4.085236042737961E-002;3.422953421249986E-003;5.925021599978209E-003;
2.411666666666667E+009;1.818775534629822E-001;-4.124956578016281E-002;3.744442015886307E-003;5.771289113909006E-003;
2.411833333333334E+009;1.818168163299561E-001;-4.142016172409058E-002;4.027151968330145E-003;5.832780618220568E-003;
2.412000000000000E+009;1.816271096467972E-001;-4.207770153880119E-002;4.295221995562315E-003;5.751520395278931E-003;
2.412166666666667E+009;1.813641935586929E-001;-4.237565025687218E-002;4.387770313769579E-003;5.714570172131062E-003;
2.412333333333334E+009;1.811492741107941E-001;-4.260390251874924E-002;4.858183674514294E-003;5.436489824205637E-003;
2.412500000000000E+009;1.804423034191132E-001;-4.287243261933327E-002;5.091391038149595E-003;5.453046876937151E-003;
2.412666666666667E+009;1.799826025962830E-001;-4.329321533441544E-002;5.354696419090033E-003;5.229067057371140E-003;
2.412833333333334E+009;1.793515086174011E-001;-4.369604587554932E-002;5.540712736546993E-003;5.205837078392506E-003;
2.413000000000000E+009;1.786849647760391E-001;-4.411209002137184E-002;5.824185442179442E-003;4.913205746561289E-003;
2.413166666666667E+009;1.777870655059815E-001;-4.439913481473923E-002;6.074004340916872E-003;4.709539934992790E-003;
2.413333333333334E+009;1.769798249006271E-001;-4.496806487441063E-002;6.306102033704519E-003;4.485561978071928E-003;
2.413500000000000E+009;1.758906394243240E-001;-4.541164636611939E-002;6.597849540412426E-003;4.204994998872280E-003;
2.413666666666667E+009;1.749154776334763E-001;-4.598201066255570E-002;6.765278521925211E-003;4.027180839329958E-003;
2.413833333333334E+009;1.739489436149597E-001;-4.646078497171402E-002;6.845438387244940E-003;3.727275878190994E-003;
2.414000000000000E+009;1.727483719587326E-001;-4.722455143928528E-002;7.077835034579039E-003;3.533797571435571E-003;
2.414166666666667E+009;1.716083735227585E-001;-4.780403152108192E-002;7.218736689537764E-003;3.107901895418763E-003;
2.414333333333334E+009;1.705090254545212E-001;-4.866943880915642E-002;7.233434356749058E-003;2.878335770219564E-003;
2.414500000000000E+009;1.694878488779068E-001;-4.961854219436646E-002;7.377589121460915E-003;2.590636024251580E-003;
2.414666666666667E+009;1.683737933635712E-001;-5.047070235013962E-002;7.427664939314127E-003;2.083341358229518E-003;
2.414833333333334E+009;1.670006960630417E-001;-5.148313939571381E-002;7.554158102720976E-003;1.847837120294571E-003;
2.415000000000000E+009;1.656499058008194E-001;-5.262965708971024E-002;7.792274933308363E-003;1.424891990609467E-003;
2.415166666666667E+009;1.645217686891556E-001;-5.376851931214333E-002;7.725658826529980E-003;1.231033354997635E-003;
2.415333333333334E+009;1.634702235460281E-001;-5.522146448493004E-002;7.668736390769482E-003;8.649275405332446E-004;
2.415500000000000E+009;1.623015552759171E-001;-5.666494369506836E-002;7.661463692784309E-003;5.150054348632693E-004;
2.415666666666667E+009;1.611670404672623E-001;-5.792289599776268E-002;7.666653487831354E-003;8.066607551882044E-005;
2.415833333333334E+009;1.601304709911346E-001;-5.963355675339699E-002;7.562635000795126E-003;-7.670595368836075E-005;
2.416000000000000E+009;1.589690744876862E-001;-6.134196743369103E-002;7.483133114874363E-003;-3.174232842866331E-004;
2.416166666666667E+009;1.581470072269440E-001;-6.307581812143326E-002;7.550354581326246E-003;-8.655936107970774E-004;
2.416333333333334E+009;1.570603251457214E-001;-6.489245593547821E-002;7.380579598248005E-003;-8.616034174337983E-004;
2.416500000000000E+009;1.561940610408783E-001;-6.666920334100723E-002;7.217254489660263E-003;-1.319583971053362E-003;
2.416666666666667E+009;1.552587002515793E-001;-6.846477836370468E-002;7.115233223885298E-003;-1.498677302151918E-003;
2.416833333333334E+009;1.546263396739960E-001;-7.062496989965439E-002;7.100478280335665E-003;-1.758961123414338E-003;
2.417000000000000E+009;1.535978913307190E-001;-7.253481447696686E-002;7.121315691620112E-003;-2.043752465397120E-003;
2.417166666666667E+009;1.528090536594391E-001;-7.431215047836304E-002;6.774321664124727E-003;-2.211792860180140E-003;
2.417333333333334E+009;1.522204577922821E-001;-7.629397511482239E-002;6.677170284092426E-003;-2.377918222919107E-003;
2.417500000000000E+009;1.517760157585144E-001;-7.831817120313644E-002;6.547932978719473E-003;-2.582948654890060E-003;
2.417666666666667E+009;1.512050926685333E-001;-8.013784885406494E-002;6.498096045106649E-003;-2.774449763819575E-003;
2.417833333333334E+009;1.507674753665924E-001;-8.190997689962387E-002;6.329825613647699E-003;-2.968375338241458E-003;
2.418000000000000E+009;1.502584069967270E-001;-8.394344151020050E-002;6.332858465611935E-003;-3.162044566124678E-003;
2.418166666666667E+009;1.499113440513611E-001;-8.539605885744095E-002;6.206538993865252E-003;-3.334861015900970E-003;
2.418333333333334E+009;1.498032808303833E-001;-8.706775307655335E-002;5.929469596594572E-003;-3.648178186267614E-003;
2.418500000000000E+009;1.495452821254730E-001;-8.874104171991348E-002;5.957765504717827E-003;-3.769348608329892E-003;
2.418666666666667E+009;1.496286690235138E-001;-9.028720855712891E-002;5.665945820510387E-003;-3.956528380513191E-003;
2.418833333333334E+009;1.494896709918976E-001;-9.174724668264389E-002;5.492763128131628E-003;-4.072744399309158E-003;
2.419000000000000E+009;1.493536978960037E-001;-9.286514669656754E-002;5.296051502227783E-003;-4.321035463362932E-003;
2.419166666666667E+009;1.495873183012009E-001;-9.432585537433624E-002;5.263062193989754E-003;-4.477757029235363E-003;
2.419333333333334E+009;1.494463980197907E-001;-9.510558843612671E-002;4.934968426823616E-003;-4.603103734552860E-003;
2.419500000000000E+009;1.496111750602722E-001;-9.635078161954880E-002;4.879985470324755E-003;-4.567607305943966E-003;
2.419666666666667E+009;1.499709933996201E-001;-9.727421402931213E-002;4.548082593828440E-003;-4.969134926795960E-003;
2.419833333333334E+009;1.499227136373520E-001;-9.797938913106918E-002;4.546906799077988E-003;-5.145437549799681E-003;
2.420000000000000E+009;1.504755020141602E-001;-9.874527901411057E-002;4.346142988651991E-003;-5.269765388220549E-003;
2.420166666666667E+009;1.503903716802597E-001;-9.917058795690537E-002;4.105224739760160E-003;-5.359548144042492E-003;
2.420333333333334E+009;1.508197635412216E-001;-9.973642975091934E-002;4.000435117632151E-003;-5.473888944834471E-003;
2.420500000000000E+009;1.511066108942032E-001;-9.976938366889954E-002;3.826500615105033E-003;-5.635284818708897E-003;
2.420666666666667E+009;1.512384563684464E-001;-1.000603139400482E-001;3.722297726199031E-003;-5.739756859838963E-003;
2.420833333333334E+009;1.515503227710724E-001;-1.003957614302635E-001;3.457229118794203E-003;-5.896967835724354E-003;
2.421000000000000E+009;1.517072916030884E-001;-1.005795523524284E-001;3.266877960413694E-003;-6.077973172068596E-003;
2.421166666666667E+009;1.520196348428726E-001;-1.004515141248703E-001;3.003948135301471E-003;-6.062923930585384E-003;
2.421333333333334E+009;1.521179080009460E-001;-1.004760637879372E-001;2.831877674907446E-003;-6.209981162101030E-003;
2.421500000000000E+009;1.522980332374573E-001;-1.002379953861237E-001;2.595737576484680E-003;-6.279975175857544E-003;
2.421666666666667E+009;1.522872000932694E-001;-1.001463979482651E-001;2.405577106401324E-003;-6.298022810369730E-003;
2.421833333333334E+009;1.523258686065674E-001;-9.985001385211945E-002;2.328675007447600E-003;-6.507052108645439E-003;
2.422000000000000E+009;1.520111113786697E-001;-9.974880516529083E-002;1.999330474063754E-003;-6.740311160683632E-003;
2.422166666666667E+009;1.517865955829620E-001;-9.954418987035751E-002;1.927508856169879E-003;-6.731778383255005E-003;
2.422333333333334E+009;1.514738798141480E-001;-9.917130321264267E-002;1.583567704074085E-003;-6.822971161454916E-003;
2.422500000000000E+009;1.509324163198471E-001;-9.884009510278702E-002;1.336540794000030E-003;-7.000437937676907E-003;
2.422666666666667E+009;1.502099931240082E-001;-9.858579933643341E-002;1.049606362357736E-003;-7.210495881736279E-003;
2.422833333333334E+009;1.497105211019516E-001;-9.830596297979355E-002;7.963157841004431E-004;-7.221614010632038E-003;
2.423000000000000E+009;1.488705426454544E-001;-9.795924276113510E-002;4.000460612587631E-004;-7.378938607871532E-003;
2.423166666666667E+009;1.481518000364304E-001;-9.768643230199814E-002;4.501663170231041E-006;-7.357603870332241E-003;
2.423333333333334E+009;1.471899002790451E-001;-9.712198376655579E-002;-1.607787562534213E-004;-7.324060425162315E-003;
2.423500000000000E+009;1.460697501897812E-001;-9.686267375946045E-002;-6.632459117099643E-004;-7.368820253759623E-003;
2.423666666666667E+009;1.447103321552277E-001;-9.656104445457459E-002;-9.188734693452716E-004;-7.416625972837210E-003;
2.423833333333334E+009;1.436885744333267E-001;-9.630101174116135E-002;-1.373693463392556E-003;-7.399894297122955E-003;
2.424000000000000E+009;1.423008441925049E-001;-9.597875922918320E-002;-1.774122240021825E-003;-7.406824734061956E-003;
2.424166666666667E+009;1.409987360239029E-001;-9.581296145915985E-002;-2.046487526968122E-003;-7.252756506204605E-003;
2.424333333333334E+009;1.396981328725815E-001;-9.581530094146729E-002;-2.442026510834694E-003;-7.110862992703915E-003;
2.424500000000000E+009;1.383955627679825E-001;-9.584392607212067E-002;-2.972858026623726E-003;-6.991487927734852E-003;
2.424666666666667E+009;1.371609717607498E-001;-9.569800645112991E-002;-3.230905160307884E-003;-6.898187566548586E-003;
2.424833333333334E+009;1.355247050523758E-001;-9.592048823833466E-002;-3.560600569471717E-003;-6.600841879844666E-003;
2.425000000000000E+009;1.341044306755066E-001;-9.639599919319153E-002;-3.973560873419046E-003;-6.336684338748455E-003;
2.425166666666667E+009;1.324309855699539E-001;-9.672113507986069E-002;-4.273684229701757E-003;-6.187264807522297E-003;
2.425333333333334E+009;1.311501860618591E-001;-9.741102904081345E-002;-4.535502288490534E-003;-5.744308233261108E-003;
2.425500000000000E+009;1.296339184045792E-001;-9.794571250677109E-002;-4.841228947043419E-003;-5.489561241120100E-003;
2.425666666666667E+009;1.281487643718720E-001;-9.870114922523499E-002;-4.897067788988352E-003;-5.191621836274862E-003;
2.425833333333334E+009;1.268106848001480E-001;-9.967515617609024E-002;-5.256621632725000E-003;-4.809609614312649E-003;
2.426000000000000E+009;1.253814697265625E-001;-1.006550863385201E-001;-5.302447360008955E-003;-4.385085776448250E-003;
2.426166666666667E+009;1.241755560040474E-001;-1.018230617046356E-001;-5.606092512607575E-003;-3.903610864654183E-003;
2.426333333333334E+009;1.227186322212219E-001;-1.030125766992569E-001;-5.512826610356569E-003;-3.559190779924393E-003;
2.426500000000000E+009;1.216245144605637E-001;-1.042458415031433E-001;-5.551586858928204E-003;-3.210327355191112E-003;
2.426666666666667E+009;1.205703094601631E-001;-1.055549755692482E-001;-5.690789315849543E-003;-2.822320675477386E-003;
2.426833333333334E+009;1.193031966686249E-001;-1.070311665534973E-001;-5.612167064100504E-003;-2.425263402983546E-003;
2.427000000000000E+009;1.181789711117744E-001;-1.087364330887795E-001;-5.562721751630306E-003;-2.097966149449348E-003;
2.427166666666667E+009;1.172661706805229E-001;-1.101699098944664E-001;-5.516314879059792E-003;-1.750749652273953E-003;
2.427333333333334E+009;1.163944229483604E-001;-1.118544787168503E-001;-5.428458563983440E-003;-1.399930682964623E-003;
2.427500000000000E+009;1.156372353434563E-001;-1.135404631495476E-001;-5.228594876825810E-003;-1.071475213393569E-003;
2.427666666666667E+009;1.148547977209091E-001;-1.151859313249588E-001;-4.903884138911963E-003;-7.224747678264976E-004;
