# Version 1.00
#
freq[Hz];re:Trc1_S11;im:Trc1_S11;re:Trc2_S21;im:Trc2_S21;
2.400000000000000E+009;1.508791297674179E-001;1.148506775498390E-001;3.192757721990347E-003;2.918914426118136E-003;
2.400166666666667E+009;1.504649370908737E-001;1.126087382435799E-001;3.364764619618654E-003;2.701047807931900E-003;
2.400333333333334E+009;1.504487842321396E-001;1.105002611875534E-001;3.322697244584560E-003;2.432083478197455E-003;
2.400500000000000E+009;1.501249521970749E-001;1.078858003020287E-001;3.660965012386441E-003;2.193294232711196E-003;
2.400666666666667E+009;1.502749919891357E-001;1.054914891719818E-001;3.686318174004555E-003;1.994153019040823E-003;
2.400833333333334E+009;1.502913385629654E-001;1.026898548007011E-001;3.749402239918709E-003;1.784748281352222E-003;
2.401000000000000E+009;1.503261923789978E-001;9.991469234228134E-002;3.763682674616575E-003;1.417009276337922E-003;
2.401166666666667E+009;1.502518206834793E-001;9.709850698709488E-002;3.886912483721972E-003;1.101092319004238E-003;
2.401333333333334E+009;1.503913700580597E-001;9.440237283706665E-002;3.721167799085379E-003;1.042159390635788E-003;
2.401500000000000E+009;1.508520245552063E-001;9.144017100334168E-002;3.668637713417411E-003;8.184209582395852E-004;
2.401666666666667E+009;1.511041373014450E-001;8.856713026762009E-002;3.468890674412251E-003;3.397057880647481E-004;
2.401833333333334E+009;1.516325473785400E-001;8.573704212903976E-002;3.546590916812420E-003;3.363477881066501E-004;
2.402000000000000E+009;1.525723487138748E-001;8.290216326713562E-002;3.214732976630330E-003;3.135535225737840E-004;
2.402166666666667E+009;1.532544642686844E-001;8.036019653081894E-002;3.204963635653257E-003;7.103433745214716E-005;
2.402333333333334E+009;1.542791277170181E-001;7.766439020633698E-002;3.077974775806069E-003;2.199753653258085E-004;
2.402500000000000E+009;1.553709059953690E-001;7.484544068574905E-002;3.126640338450670E-003;2.252077974844724E-004;
2.402666666666667E+009;1.566100120544434E-001;7.265529036521912E-002;3.104265313595533E-003;3.943023330066353E-004;
2.402833333333334E+009;1.579516083002091E-001;6.997872143983841E-002;3.090411890298128E-003;2.732160501182079E-004;
2.403000000000000E+009;1.598033010959625E-001;6.759447604417801E-002;3.064042655751109E-003;2.908085589297116E-004;
2.403166666666667E+009;1.613778024911881E-001;6.522980332374573E-002;3.107251599431038E-003;1.923782547237352E-004;
2.403333333333334E+009;1.632853150367737E-001;6.292282789945602E-002;3.328491002321243E-003;1.309436920564622E-004;
2.403500000000000E+009;1.649644076824188E-001;6.070960313081741E-002;3.424202324822545E-003;5.808849527966231E-005;
2.403666666666667E+009;1.667928844690323E-001;5.874585360288620E-002;3.529886482283473E-003;-2.636277349665761E-005;
2.403833333333334E+009;1.689838916063309E-001;5.654542893171310E-002;3.754158969968557E-003;-2.031199983321130E-004;
2.404000000000000E+009;1.706116646528244E-001;5.461679399013519E-002;3.878763178363442E-003;-3.317686205264181E-004;
2.404166666666667E+009;1.725674569606781E-001;5.306634679436684E-002;3.587046870961785E-003;-6.547885132022202E-004;
2.404333333333334E+009;1.745752990245819E-001;5.114611983299255E-002;3.815551986917853E-003;-8.871938334777951E-004;
2.404500000000000E+009;1.765648722648621E-001;4.980469867587090E-002;3.809349378570914E-003;-1.007345621474087E-003;
2.404666666666667E+009;1.786116212606430E-001;4.847741127014160E-002;3.790465882048011E-003;-1.329435734078288E-003;
2.404833333333334E+009;1.804120093584061E-001;4.723897948861122E-002;3.829499240964651E-003;-1.675747567787767E-003;
2.405000000000000E+009;1.820774525403976E-001;4.652971401810646E-002;3.637305228039622E-003;-1.666611875407398E-003;
2.405166666666667E+009;1.839703321456909E-001;4.569415748119354E-002;3.232724498957396E-003;-2.069220878183842E-003;
2.405333333333334E+009;1.856905966997147E-001;4.500830173492432E-002;3.267234656959772E-003;-2.177255926653743E-003;
2.405500000000000E+009;1.872681230306625E-001;4.446185380220413E-002;3.161497181281447E-003;-2.273198449984193E-003;
2.405666666666667E+009;1.890207082033157E-001;4.391559213399887E-002;2.988761756569147E-003;-2.413079608231783E-003;
2.405833333333334E+009;1.905595213174820E-001;4.365605115890503E-002;2.826175652444363E-003;-2.432470442727208E-003;
2.406000000000000E+009;1.919187307357788E-001;4.352044686675072E-002;2.616778947412968E-003;-2.526495140045881E-003;
2.406166666666667E+009;1.932811141014099E-001;4.317153245210648E-002;2.389451721683145E-003;-2.472858643159270E-003;
2.406333333333334E+009;1.945387572050095E-001;4.320627078413963E-002;2.108909189701080E-003;-2.882678294554353E-003;
2.406500000000000E+009;1.955755800008774E-001;4.308936744928360E-002;2.120854100212455E-003;-2.716871676966548E-003;
2.406666666666667E+009;1.964591294527054E-001;4.317152872681618E-002;1.773683587089181E-003;-2.813136670738459E-003;
2.406833333333334E+009;1.973596066236496E-001;4.329447448253632E-002;1.856130547821522E-003;-2.810589270666242E-003;
2.407000000000000E+009;1.979986578226090E-001;4.337301850318909E-002;1.571720698848367E-003;-2.732132328674197E-003;
2.407166666666667E+009;1.984935104846954E-001;4.318165406584740E-002;1.554134651087225E-003;-2.722422359511256E-003;
2.407333333333334E+009;1.986257582902908E-001;4.342804476618767E-002;1.721773878671229E-003;-2.617177553474903E-003;
2.407500000000000E+009;1.987486332654953E-001;4.356192424893379E-002;1.504644751548767E-003;-2.705379854887724E-003;
2.407666666666667E+009;1.989780366420746E-001;4.346187785267830E-002;1.462455606088042E-003;-2.726506907492876E-003;
2.407833333333334E+009;1.987313628196716E-001;4.337418824434280E-002;1.347870100289583E-003;-2.818139502778649E-003;
2.408000000000000E+009;1.986287236213684E-001;4.329263046383858E-002;1.382654765620828E-003;-2.652510069310665E-003;
2.408166666666667E+009;1.981097608804703E-001;4.307846352458000E-002;1.280374242924154E-003;-2.901192288845778E-003;
2.408333333333334E+009;1.976169645786285E-001;4.275906085968018E-002;1.142846536822617E-003;-2.743289340287447E-003;
2.408500000000000E+009;1.970102787017822E-001;4.259436577558518E-002;1.143578556366265E-003;-2.845875918865204E-003;
2.408666666666667E+009;1.964060366153717E-001;4.217112436890602E-002;1.013547182083130E-003;-2.780204638838768E-003;
2.408833333333334E+009;1.956440955400467E-001;4.164064675569534E-002;9.760989923961461E-004;-2.803202020004392E-003;
2.409000000000000E+009;1.946574598550797E-001;4.080480337142944E-002;7.967985002323985E-004;-2.892154501751065E-003;
2.409166666666667E+009;1.934461295604706E-001;4.005945101380348E-002;8.745582890696824E-004;-2.933298237621784E-003;
2.409333333333334E+009;1.924451291561127E-001;3.927659243345261E-002;6.559208268299699E-004;-2.845081733539701E-003;
2.409500000000000E+009;1.912053972482681E-001;3.814838826656342E-002;8.103180443868041E-004;-3.098620800301433E-003;
2.409666666666667E+009;1.900717765092850E-001;3.684276714920998E-002;7.422034395858645E-004;-2.921381732448936E-003;
2.409833333333334E+009;1.888342201709747E-001;3.540987893939018E-002;7.264245650731027E-004;-3.102158429101110E-003;
2.410000000000000E+009;1.877229809761047E-001;3.416566923260689E-002;6.652581505477428E-004;-3.270223969593644E-003;
2.410166666666667E+009;1.865561306476593E-001;3.227017447352409E-002;6.318594678305090E-004;-3.212645417079330E-003;
2.410333333333334E+009;1.853877007961273E-001;3.064955770969391E-002;5.019445670768619E-004;-3.371565137058497E-003;
2.410500000000000E+009;1.843133419752121E-001;2.882698550820351E-002;3.338871756568551E-004;-3.435801016166806E-003;
2.410666666666667E+009;1.831826716661453E-001;2.674261853098869E-002;3.396583779249340E-004;-3.446279093623161E-003;
2.410833333333334E+009;1.823667585849762E-001;2.467583678662777E-002;1.251155190402642E-004;-3.386430442333221E-003;
2.411000000000000E+009;1.813397705554962E-001;2.233933471143246E-002;-7.804899360053241E-005;-3.633605781942606E-003;
2.411166666666667E+009;1.805607080459595E-001;2.016712352633476E-002;-3.467454807832837E-004;-3.756584366783500E-003;
2.411333333333334E+009;1.797351241111755E-001;1.769225113093853E-002;-3.396741522010416E-004;-3.773439209908247E-003;
2.411500000000000E+009;1.792376339435577E-001;1.536778453737497E-002;-6.763832061551511E-004;-3.806364024057984E-003;
2.411666666666667E+009;1.786420643329620E-001;1.301044225692749E-002;-8.295640000142157E-004;-3.732965560629964E-003;
2.411833333333334E+009;1.781183332204819E-001;1.036098785698414E-002;-1.065457356162369E-003;-3.539365716278553E-003;
2.412000000000000E+009;1.780739724636078E-001;7.793174590915442E-003;-1.149495830759406E-003;-3.726620692759752E-003;
2.412166666666667E+009;1.781655699014664E-001;5.392401479184628E-003;-1.472713542170823E-003;-3.565141465514898E-003;
2.412333333333334E+009;1.781745702028275E-001;2.777646062895656E-003;-1.549450331367552E-003;-3.459255676716566E-003;
2.412500000000000E+009;1.783857047557831E-001;2.455621724948287E-004;-1.846696948632598E-003;-3.485965542495251E-003;
2.412666666666667E+009;1.787140071392059E-001;-2.239932073280215E-003;-1.731057534925640E-003;-3.293940098956227E-003;
2.412833333333334E+009;1.794867515563965E-001;-4.974884912371635E-003;-1.949483761563897E-003;-3.094361396506429E-003;
2.413000000000000E+009;1.798547953367233E-001;-7.384731899946928E-003;-2.219527726992965E-003;-2.953897695988417E-003;
2.413166666666667E+009;1.806002259254456E-001;-9.822004474699497E-003;-2.196720102801919E-003;-2.923520049080253E-003;
2.413333333333334E+009;1.816207915544510E-001;-1.229771506041288E-002;-2.434510271996260E-003;-2.580592408776283E-003;
2.413500000000000E+009;1.824919581413269E-001;-1.474547479301691E-002;-2.475125947967172E-003;-2.570368349552155E-003;
2.413666666666667E+009;1.838867962360382E-001;-1.702747121453285E-002;-2.529933350160718E-003;-2.299770480021834E-003;
2.413833333333334E+009;1.846998929977417E-001;-1.919671334326267E-002;-2.642747480422258E-003;-2.065422479063273E-003;
2.414000000000000E+009;1.858736425638199E-001;-2.139250189065933E-002;-2.654633717611432E-003;-2.033842960372567E-003;
2.414166666666667E+009;1.870018243789673E-001;-2.319340221583843E-002;-2.505365293473005E-003;-1.910815248265863E-003;
2.414333333333334E+009;1.881837248802185E-001;-2.546359971165657E-002;-2.573760692030191E-003;-1.792721566744149E-003;
2.414500000000000E+009;1.895774304866791E-001;-2.725552767515183E-002;-2.530043246224523E-003;-1.722276792861521E-003;
2.414666666666667E+009;1.908209323883057E-001;-2.883461490273476E-002;-2.601851243525744E-003;-1.563911908306181E-003;
2.414833333333334E+009;1.920350492000580E-001;-3.037897497415543E-002;-2.509469632059336E-003;-1.696088002063334E-003;
2.415000000000000E+009;1.931943744421005E-001;-3.173682466149330E-002;-2.579509047791362E-003;-1.440975698642433E-003;
2.415166666666667E+009;1.946519911289215E-001;-3.294762223958969E-002;-2.725288737565279E-003;-1.534346607513726E-003;
2.415333333333334E+009;1.959982365369797E-001;-3.406774252653122E-002;-2.716411836445332E-003;-1.380148343741894E-003;
2.415500000000000E+009;1.971895843744278E-001;-3.483190014958382E-002;-2.961092395707965E-003;-1.439134008251131E-003;
2.415666666666667E+009;1.983252316713333E-001;-3.577812388539314E-002;-2.917413599789143E-003;-1.261634402908385E-003;
2.415833333333334E+009;1.993189901113510E-001;-3.640176728367806E-002;-3.026140388101339E-003;-1.268342952243984E-003;
2.416000000000000E+009;2.002979815006256E-001;-3.696800395846367E-002;-3.022959688678384E-003;-9.897875133901835E-004;
2.416166666666667E+009;2.012742161750794E-001;-3.754647076129913E-002;-3.177550155669451E-003;-1.012171618640423E-003;
2.416333333333334E+009;2.020539194345474E-001;-3.788100928068161E-002;-3.201210172846913E-003;-6.781893898732960E-004;
2.416500000000000E+009;2.027406096458435E-001;-3.817184641957283E-002;-3.144423943012953E-003;-5.105331656523049E-004;
2.416666666666667E+009;2.032823711633682E-001;-3.841812908649445E-002;-3.148587187752128E-003;-4.486647376324982E-004;
2.416833333333334E+009;2.035304158926010E-001;-3.844774886965752E-002;-3.110807389020920E-003;-3.260580997448415E-004;
2.417000000000000E+009;2.039154469966888E-001;-3.844535723328590E-002;-3.101872513070703E-003;-7.934379391372204E-005;
2.417166666666667E+009;2.039445489645004E-001;-3.811717033386231E-002;-2.885222900658846E-003;-3.504668711684644E-005;
2.417333333333334E+009;2.038372009992600E-001;-3.794843703508377E-002;-2.986114704981446E-003;1.056833280017600E-004;
2.417500000000000E+009;2.038856744766235E-001;-3.792577981948853E-002;-2.943641971796751E-003;2.290994016220793E-004;
2.417666666666667E+009;2.034449726343155E-001;-3.748933225870132E-002;-2.815918531268835E-003;2.560068678576499E-004;
2.417833333333334E+009;2.032290250062943E-001;-3.706015646457672E-002;-2.740198513492942E-003;4.301692533772439E-004;
2.418000000000000E+009;2.029127180576325E-001;-3.658892214298248E-002;-2.709309337660670E-003;2.907307061832398E-004;
2.418166666666667E+009;2.022233009338379E-001;-3.630972281098366E-002;-2.651747083291411E-003;3.238140488974750E-004;
2.418333333333334E+009;2.014640420675278E-001;-3.609507158398628E-002;-2.653377829119563E-003;4.286057956051081E-004;
2.418500000000000E+009;2.005131244659424E-001;-3.600201010704041E-002;-2.592684468254447E-003;4.670007620006800E-004;
2.418666666666667E+009;1.999139636754990E-001;-3.566664457321167E-002;-2.622825792059302E-003;4.113028990104795E-004;
2.418833333333334E+009;1.987832188606262E-001;-3.553418442606926E-002;-2.608839422464371E-003;4.068200069013983E-004;
2.419000000000000E+009;1.975975036621094E-001;-3.555056452751160E-002;-2.655807882547379E-003;5.563126760534942E-004;
2.419166666666667E+009;1.965919137001038E-001;-3.585172072052956E-002;-2.555815503001213E-003;4.735200491268188E-004;
2.419333333333334E+009;1.951437145471573E-001;-3.597966954112053E-002;-2.620965475216508E-003;6.063185865059495E-004;
2.419500000000000E+009;1.938346773386002E-001;-3.637958690524101E-002;-2.892950316891074E-003;6.649711867794395E-004;
2.419666666666667E+009;1.923380494117737E-001;-3.696011751890183E-002;-2.782026305794716E-003;7.989340228959918E-004;
2.419833333333334E+009;1.907406598329544E-001;-3.744781762361527E-002;-2.982416190207005E-003;8.061757544055581E-004;
2.420000000000000E+009;1.890902817249298E-001;-3.837288543581963E-002;-2.905074041336775E-003;8.648238144814968E-004;
2.420166666666667E+009;1.875655651092529E-001;-3.905723989009857E-002;-2.922290004789829E-003;1.068725949153304E-003;
2.420333333333334E+009;1.858521252870560E-001;-4.019874706864357E-002;-2.998365787789226E-003;1.286960323341191E-003;
2.420500000000000E+009;1.840863376855850E-001;-4.151446744799614E-002;-3.000171622261405E-003;1.470894785597920E-003;
2.420666666666667E+009;1.823468953371048E-001;-4.255336150527000E-002;-2.990998560562730E-003;1.569264335557818E-003;
2.420833333333334E+009;1.807072311639786E-001;-4.408558085560799E-002;-2.968040062114596E-003;1.857821363955736E-003;
2.421000000000000E+009;1.789720654487610E-001;-4.542957991361618E-002;-2.559463726356626E-003;2.095758216455579E-003;
2.421166666666667E+009;1.775665432214737E-001;-4.715706408023834E-002;-2.450807020068169E-003;2.179895527660847E-003;
2.421333333333334E+009;1.755532473325729E-001;-4.851426929235458E-002;-2.291208831593394E-003;2.260714536532760E-003;
2.421500000000000E+009;1.742836833000183E-001;-5.055438354611397E-002;-1.999666681513190E-003;2.311813412234187E-003;
2.421666666666667E+009;1.729266643524170E-001;-5.232256650924683E-002;-1.870533567853272E-003;2.433176152408123E-003;
2.421833333333334E+009;1.715774387121201E-001;-5.408092215657234E-002;-1.665478688664734E-003;2.529742429032922E-003;
2.422000000000000E+009;1.703204363584518E-001;-5.623884499073029E-002;-1.593315741047263E-003;2.395795192569494E-003;
2.422166666666667E+009;1.694215089082718E-001;-5.810202285647392E-002;-1.486735767684877E-003;2.305328147485852E-003;
2.422333333333334E+009;1.682822555303574E-001;-6.024848297238350E-002;-1.409541117027402E-003;2.309064613655210E-003;
2.422500000000000E+009;1.673423796892166E-001;-6.235028803348541E-002;-1.170631032437086E-003;2.317049540579319E-003;
2.422666666666667E+009;1.667047291994095E-001;-6.441384553909302E-002;-1.173796714283526E-003;2.143117599189282E-003;
2.422833333333334E+009;1.659606993198395E-001;-6.654862314462662E-002;-1.140259671956301E-003;2.150103682652116E-003;
2.423000000000000E+009;1.655001491308212E-001;-6.864656507968903E-002;-1.184110878966749E-003;2.043049549683929E-003;
2.423166666666667E+009;1.651511192321777E-001;-7.084604352712631E-002;-1.126611139625311E-003;2.260499168187380E-003;
2.423333333333334E+009;1.646826714277268E-001;-7.288057357072830E-002;-1.109822769649327E-003;2.321599749848247E-003;
2.423500000000000E+009;1.645834743976593E-001;-7.473605126142502E-002;-1.055502332746983E-003;2.171687316149473E-003;
2.423666666666667E+009;1.646314114332199E-001;-7.685304433107376E-002;-1.163949724286795E-003;2.313549397513270E-003;
2.423833333333334E+009;1.645846515893936E-001;-7.869482040405273E-002;-1.011587446555495E-003;2.457173075526953E-003;
2.424000000000000E+009;1.648257821798325E-001;-8.087870478630066E-002;-1.102627138607204E-003;2.589233452454209E-003;
2.424166666666667E+009;1.648522466421127E-001;-8.268958330154419E-002;-1.109153614379466E-003;2.642277628183365E-003;
2.424333333333334E+009;1.651643812656403E-001;-8.430700004100800E-002;-7.120502414181829E-004;2.678141929209232E-003;
2.424500000000000E+009;1.655392646789551E-001;-8.612514287233353E-002;-7.909004343673587E-004;2.758612157776952E-003;
2.424666666666667E+009;1.657985299825668E-001;-8.767512440681458E-002;-4.898799816146493E-004;2.680578036233783E-003;
2.424833333333334E+009;1.665161550045013E-001;-8.914486318826675E-002;-4.458577313926071E-004;2.773654414340854E-003;
2.425000000000000E+009;1.669991910457611E-001;-9.037315100431442E-002;-3.842678561341018E-004;2.784952521324158E-003;
2.425166666666667E+009;1.675188690423966E-001;-9.174101054668427E-002;-2.212531835539267E-004;2.749431179836392E-003;
2.425333333333334E+009;1.680379509925842E-001;-9.274551272392273E-002;-3.040070296265185E-004;2.865569666028023E-003;
2.425500000000000E+009;1.685837805271149E-001;-9.395353496074677E-002;4.141042609262513E-006;2.531653037294745E-003;
2.425666666666667E+009;1.691661328077316E-001;-9.485868364572525E-002;1.615284854779020E-004;2.622353378683329E-003;
2.425833333333334E+009;1.697208434343338E-001;-9.583112597465515E-002;2.791162696667016E-004;2.652156632393599E-003;
2.426000000000000E+009;1.704467535018921E-001;-9.628701210021973E-002;2.321688079973683E-004;2.649241825565696E-003;
2.426166666666667E+009;1.709949225187302E-001;-9.697526693344116E-002;3.131007251795381E-004;2.491101855412126E-003;
2.426333333333334E+009;1.714806854724884E-001;-9.761304408311844E-002;4.890436539426446E-004;2.484472934156656E-003;
2.426500000000000E+009;1.720653474330902E-001;-9.800495952367783E-002;5.385701078921557E-004;2.381070284172893E-003;
2.426666666666667E+009;1.725208610296249E-001;-9.841169416904450E-002;6.268897559493780E-004;2.446513622999191E-003;
2.426833333333334E+009;1.729921400547028E-001;-9.876477718353272E-002;6.330378819257021E-004;2.316379221156240E-003;
2.427000000000000E+009;1.731871664524078E-001;-9.914284944534302E-002;8.521907147951424E-004;2.275577979162335E-003;
2.427166666666667E+009;1.736170947551727E-001;-9.933213144540787E-002;8.525962475687265E-004;2.377853961661458E-003;
2.427333333333334E+009;1.735780090093613E-001;-9.965056926012039E-002;9.390618070028722E-004;2.253405749797821E-003;
2.427500000000000E+009;1.736262440681458E-001;-9.981974959373474E-002;9.358507231809199E-004;2.043303335085511E-003;
2.427666666666667E+009;1.735332459211350E-001;-9.993137419223785E-002;9.140438050962985E-004;1.986424671486020E-003;
2.427833333333334E+009;1.733020693063736E-001;-1.000523343682289E-001;9.891298832371831E-004;1.888041035272181E-003;
