# Version 1.00
#
freq[Hz];re:Trc1_S11;im:Trc1_S11;re:Trc2_S21;im:Trc2_S21;
2.400000000000000E+009;1.508874446153641E-001;1.146828457713127E-001;2.914248267188668E-003;2.910289913415909E-003;
2.400166666666667E+009;1.502898931503296E-001;1.125689819455147E-001;3.198466263711453E-003;2.752402797341347E-003;
2.400333333333334E+009;1.504565626382828E-001;1.103607192635536E-001;3.540346166118980E-003;2.493573818355799E-003;
2.400500000000000E+009;1.503209769725800E-001;1.077870801091194E-001;3.476471640169621E-003;2.180295996367931E-003;
2.400666666666667E+009;1.502144783735275E-001;1.054890304803848E-001;3.565530292689800E-003;2.108216518536210E-003;
2.400833333333334E+009;1.500310748815537E-001;1.026274114847183E-001;3.793392796069384E-003;1.870187581516802E-003;
2.401000000000000E+009;1.503431349992752E-001;9.981240332126617E-002;3.658606437966228E-003;1.347071025520563E-003;
2.401166666666667E+009;1.502142399549484E-001;9.716425091028214E-002;3.724693786352873E-003;1.188417430967093E-003;
2.401333333333334E+009;1.504785269498825E-001;9.437504410743713E-002;3.737541846930981E-003;8.505973964929581E-004;
2.401500000000000E+009;1.508078724145889E-001;9.136442095041275E-002;3.666485426947475E-003;6.330831674858928E-004;
2.401666666666667E+009;1.512655317783356E-001;8.860069513320923E-002;3.420580876991153E-003;6.160154007375240E-004;
2.401833333333334E+009;1.516032367944717E-001;8.573999255895615E-002;3.292662324383855E-003;4.453408182598651E-004;
2.402000000000000E+009;1.523441374301910E-001;8.312597870826721E-002;3.161158412694931E-003;3.898233117070049E-004;
2.402166666666667E+009;1.533011794090271E-001;8.046043664216995E-002;3.132530720904470E-003;3.330678446218371E-004;
2.402333333333334E+009;1.542169749736786E-001;7.751164585351944E-002;2.946730004623532E-003;2.780854119919241E-004;
2.402500000000000E+009;1.553005278110504E-001;7.492306828498840E-002;3.030159045010805E-003;1.839905744418502E-004;
2.402666666666667E+009;1.565055996179581E-001;7.243391871452332E-002;2.902025589719415E-003;3.414718376006931E-004;
2.402833333333334E+009;1.579244136810303E-001;6.990162283182144E-002;3.049871185794473E-003;2.826749405357987E-004;
2.403000000000000E+009;1.595249623060226E-001;6.758099794387817E-002;2.955293515697122E-003;3.966752847190946E-004;
2.403166666666667E+009;1.613529622554779E-001;6.516750156879425E-002;3.061264986172319E-003;7.400062895612791E-005;
2.403333333333334E+009;1.631178110837936E-001;6.284000724554062E-002;3.183039603754878E-003;1.883077202364802E-004;
2.403500000000000E+009;1.648855060338974E-001;6.070897355675697E-002;3.341427538543940E-003;1.361674658255652E-004;
2.403666666666667E+009;1.669384986162186E-001;5.869198590517044E-002;3.501975676044822E-003;1.222908667841693E-005;
2.403833333333334E+009;1.688403487205505E-001;5.643495544791222E-002;3.563754260540009E-003;-2.129062631865963E-004;
2.404000000000000E+009;1.706689447164536E-001;5.465178936719894E-002;3.610899904742837E-003;-5.721543129766360E-005;
2.404166666666667E+009;1.726777851581574E-001;5.308857187628746E-002;3.741526044905186E-003;-3.909776278305799E-004;
2.404333333333334E+009;1.746536642313004E-001;5.135326832532883E-002;3.840055782347918E-003;-7.348883664235473E-004;
2.404500000000000E+009;1.764037013053894E-001;4.985412955284119E-002;3.837778931483626E-003;-9.970718529075384E-004;
2.404666666666667E+009;1.786129176616669E-001;4.859875142574310E-002;3.779507474973798E-003;-1.145433518104255E-003;
2.404833333333334E+009;1.804612576961517E-001;4.720491170883179E-002;3.719165455549955E-003;-1.601278432644904E-003;
2.405000000000000E+009;1.821541637182236E-001;4.640631750226021E-002;3.484332468360663E-003;-1.782519626431167E-003;
2.405166666666667E+009;1.840913891792297E-001;4.551728442311287E-002;3.322932869195938E-003;-1.878164475783706E-003;
2.405333333333334E+009;1.857770830392838E-001;4.509617388248444E-002;3.278007265180349E-003;-2.160993870347738E-003;
2.405500000000000E+009;1.875135302543640E-001;4.445093870162964E-002;3.044599900022149E-003;-2.351007424294949E-003;
2.405666666666667E+009;1.889840066432953E-001;4.393092170357704E-002;2.835266524925828E-003;-2.427038270980120E-003;
2.405833333333334E+009;1.905388236045837E-001;4.372766241431236E-002;2.634196542203426E-003;-2.366052707657218E-003;
2.406000000000000E+009;1.918789297342300E-001;4.342655092477799E-002;2.540995832532644E-003;-2.312368480488658E-003;
2.406166666666667E+009;1.932773739099503E-001;4.309372231364250E-002;2.422703430056572E-003;-2.482691546902061E-003;
2.406333333333334E+009;1.946413516998291E-001;4.317486658692360E-002;2.252743579447269E-003;-2.703083911910653E-003;
2.406500000000000E+009;1.956164538860321E-001;4.312413930892944E-002;2.124038990586996E-003;-2.699617296457291E-003;
2.406666666666667E+009;1.967378556728363E-001;4.329992458224297E-002;1.961643807590008E-003;-2.609175629913807E-003;
2.406833333333334E+009;1.974018216133118E-001;4.312282428145409E-002;1.823841943405569E-003;-2.606180030852556E-003;
2.407000000000000E+009;1.979213804006577E-001;4.349532723426819E-002;1.802458311431110E-003;-2.665506210178137E-003;
2.407166666666667E+009;1.984784007072449E-001;4.325773566961289E-002;1.535936258733273E-003;-2.685382030904293E-003;
2.407333333333334E+009;1.987947672605515E-001;4.341404139995575E-002;1.669714460149407E-003;-2.639259211719036E-003;
2.407500000000000E+009;1.988943219184876E-001;4.349498078227043E-002;1.359070651233196E-003;-2.730983775109053E-003;
2.407666666666667E+009;1.990865617990494E-001;4.341547191143036E-002;1.425525173544884E-003;-2.550142118707299E-003;
2.407833333333334E+009;1.987182646989822E-001;4.346533492207527E-002;1.282142708078027E-003;-2.688849112018943E-003;
2.408000000000000E+009;1.986712515354157E-001;4.328374192118645E-002;1.302368124015629E-003;-2.540329471230507E-003;
2.408166666666667E+009;1.981789320707321E-001;4.316597059369087E-002;1.249241176992655E-003;-2.700708573684096E-003;
2.408333333333334E+009;1.978309303522110E-001;4.269619658589363E-002;1.206316985189915E-003;-2.796705579385161E-003;
2.408500000000000E+009;1.970635801553726E-001;4.267268255352974E-002;1.170822535641491E-003;-2.632910851389170E-003;
2.408666666666667E+009;1.965251863002777E-001;4.212066531181335E-002;1.064471900463104E-003;-2.752611413598061E-003;
2.408833333333334E+009;1.957755088806152E-001;4.160862416028976E-002;1.163879525847733E-003;-2.795529086142778E-003;
2.409000000000000E+009;1.947510093450546E-001;4.082185775041580E-002;9.442135342396796E-004;-3.026577178388834E-003;
2.409166666666667E+009;1.936055719852448E-001;4.000302776694298E-002;9.867008775472641E-004;-2.839681226760149E-003;
2.409333333333334E+009;1.927808076143265E-001;3.929690644145012E-002;8.926434093154967E-004;-2.938471967354417E-003;
2.409500000000000E+009;1.913232058286667E-001;3.803903609514237E-002;8.299887995235622E-004;-2.812317106872797E-003;
2.409666666666667E+009;1.902600973844528E-001;3.676634654402733E-002;8.133447845466435E-004;-2.986078849062324E-003;
2.409833333333334E+009;1.889908760786057E-001;3.544548526406288E-002;7.605716236867011E-004;-2.805426483973861E-003;
2.410000000000000E+009;1.879797726869583E-001;3.400770947337151E-002;6.374373333528638E-004;-3.012446686625481E-003;
2.410166666666667E+009;1.865550726652145E-001;3.227878361940384E-002;4.960004589520395E-004;-3.190109506249428E-003;
2.410333333333334E+009;1.854336261749268E-001;3.059124760329723E-002;4.938068450428546E-004;-3.285875311121345E-003;
2.410500000000000E+009;1.842419952154160E-001;2.867563627660275E-002;4.055188910569996E-004;-3.450059564784169E-003;
2.410666666666667E+009;1.832781285047531E-001;2.648693695664406E-002;3.521814651321620E-004;-3.380076726898551E-003;
2.410833333333334E+009;1.822415441274643E-001;2.453788369894028E-002;1.128876174334437E-004;-3.376427339389920E-003;
2.411000000000000E+009;1.814377307891846E-001;2.232368104159832E-002;8.844187505019363E-006;-3.648075275123119E-003;
2.411166666666667E+009;1.806298494338989E-001;2.013089321553707E-002;-3.614635206758976E-004;-3.576901741325855E-003;
2.411333333333334E+009;1.795730292797089E-001;1.770168915390968E-002;-5.107033066451550E-004;-3.724445588886738E-003;
2.411500000000000E+009;1.791966706514359E-001;1.520282495766878E-002;-5.995175451971591E-004;-3.601946868002415E-003;
2.411666666666667E+009;1.787713319063187E-001;1.270033698529005E-002;-9.630182175897062E-004;-3.584239166229963E-003;
2.411833333333334E+009;1.782363355159760E-001;1.040085870772600E-002;-8.940646075643599E-004;-3.539453726261854E-003;
2.412000000000000E+009;1.782162636518478E-001;7.692051120102406E-003;-1.286155311390758E-003;-3.506509121507406E-003;
2.412166666666667E+009;1.781626641750336E-001;5.514292512089014E-003;-1.396851148456335E-003;-3.576134098693728E-003;
2.412333333333334E+009;1.781683266162872E-001;2.712239976972342E-003;-1.518800971098244E-003;-3.461022395640612E-003;
2.412500000000000E+009;1.783656328916550E-001;9.168004908133298E-006;-1.691719749942422E-003;-3.384691663086414E-003;
2.412666666666667E+009;1.787651032209396E-001;-2.581757260486484E-003;-1.746385591104627E-003;-3.048366634175181E-003;
2.412833333333334E+009;1.791992783546448E-001;-5.123533308506012E-003;-1.960230059921742E-003;-3.013301873579621E-003;
2.413000000000000E+009;1.799795180559158E-001;-7.441295776516199E-003;-2.102639293298125E-003;-2.891645999625325E-003;
2.413166666666667E+009;1.806061416864395E-001;-9.902023710310459E-003;-2.229433506727219E-003;-2.868703566491604E-003;
2.413333333333334E+009;1.816073656082153E-001;-1.235479582101107E-002;-2.352482872083783E-003;-2.706807805225253E-003;
2.413500000000000E+009;1.822562813758850E-001;-1.482632290571928E-002;-2.478047739714384E-003;-2.473278203979135E-003;
2.413666666666667E+009;1.836862117052078E-001;-1.723781041800976E-002;-2.363630570471287E-003;-2.318024402484298E-003;
2.413833333333334E+009;1.845752447843552E-001;-1.925076544284821E-002;-2.397348638623953E-003;-2.235140651464462E-003;
2.414000000000000E+009;1.857693046331406E-001;-2.147937566041946E-002;-2.675411989912391E-003;-1.970719778910279E-003;
2.414166666666667E+009;1.870066225528717E-001;-2.341040596365929E-002;-2.587128896266222E-003;-1.991265453398228E-003;
2.414333333333334E+009;1.881881058216095E-001;-2.552747353911400E-002;-2.440082840621471E-003;-1.812829752452672E-003;
2.414500000000000E+009;1.893721967935562E-001;-2.714482694864273E-002;-2.530299127101898E-003;-1.604747609235346E-003;
2.414666666666667E+009;1.909245252609253E-001;-2.885792776942253E-002;-2.550318604335189E-003;-1.641747774556279E-003;
2.414833333333334E+009;1.920364648103714E-001;-3.043795004487038E-002;-2.554595470428467E-003;-1.626339508220553E-003;
2.415000000000000E+009;1.932443380355835E-001;-3.186678141355515E-002;-2.751726889982820E-003;-1.685354742221534E-003;
2.415166666666667E+009;1.945848912000656E-001;-3.301240876317024E-002;-2.697471063584089E-003;-1.509930822066963E-003;
2.415333333333334E+009;1.958376318216324E-001;-3.413063660264015E-002;-2.770528430119157E-003;-1.529380911961198E-003;
2.415500000000000E+009;1.971553713083267E-001;-3.482270985841751E-002;-2.828977536410093E-003;-1.306433579884470E-003;
2.415666666666667E+009;1.983637511730194E-001;-3.576339036226273E-002;-2.824649214744568E-003;-1.263752579689026E-003;
2.415833333333334E+009;1.992278695106506E-001;-3.644773364067078E-002;-2.894215052947402E-003;-1.122897490859032E-003;
2.416000000000000E+009;2.002985179424286E-001;-3.706700727343559E-002;-2.902054693549871E-003;-1.088532269932330E-003;
2.416166666666667E+009;2.012263238430023E-001;-3.760866075754166E-002;-2.930975984781981E-003;-9.556639706715941E-004;
2.416333333333334E+009;2.020675987005234E-001;-3.798464685678482E-002;-3.134606871753931E-003;-6.927835056558251E-004;
2.416500000000000E+009;2.026675492525101E-001;-3.819600865244865E-002;-3.203654894605279E-003;-4.904269590042532E-004;
2.416666666666667E+009;2.032100707292557E-001;-3.854175284504890E-002;-3.095841966569424E-003;-3.494492848403752E-004;
2.416833333333334E+009;2.035858482122421E-001;-3.848031535744667E-002;-3.192791482433677E-003;-3.370956983417273E-004;
2.417000000000000E+009;2.038852721452713E-001;-3.854554146528244E-002;-3.109965007752180E-003;-1.416293962392956E-004;
2.417166666666667E+009;2.037186622619629E-001;-3.824120387434959E-002;-2.915688091889024E-003;1.059290952980518E-004;
2.417333333333334E+009;2.037770152091980E-001;-3.798815235495567E-002;-2.867151750251651E-003;1.279732823604718E-004;
2.417500000000000E+009;2.037965655326843E-001;-3.788506612181664E-002;-2.831684192642570E-003;1.677414547884837E-004;
2.417666666666667E+009;2.034974247217178E-001;-3.754945099353790E-002;-2.761379582807422E-003;4.174413625150919E-004;
2.417833333333334E+009;2.032313346862793E-001;-3.723155707120895E-002;-2.634763950482011E-003;4.040822386741638E-004;
2.418000000000000E+009;2.026367038488388E-001;-3.667810931801796E-002;-2.695540897548199E-003;3.684829280246049E-004;
2.418166666666667E+009;2.021579146385193E-001;-3.636710718274117E-002;-2.574114827439189E-003;4.093571624252945E-004;
2.418333333333334E+009;2.014090269804001E-001;-3.607301786541939E-002;-2.379749901592732E-003;5.258220480754972E-004;
2.418500000000000E+009;2.006011158227921E-001;-3.595123067498207E-002;-2.545868977904320E-003;5.566672189161181E-004;
2.418666666666667E+009;1.999023556709290E-001;-3.559348359704018E-002;-2.531676786020398E-003;4.413553106132895E-004;
2.418833333333334E+009;1.986598968505859E-001;-3.575458005070686E-002;-2.543051959946752E-003;3.544275241438299E-004;
2.419000000000000E+009;1.975623220205307E-001;-3.570597246289253E-002;-2.483340213075280E-003;6.233773892745376E-004;
2.419166666666667E+009;1.962994635105133E-001;-3.578529879450798E-002;-2.547661773860455E-003;4.065332177560777E-004;
2.419333333333334E+009;1.951934993267059E-001;-3.605899587273598E-002;-2.597135026007891E-003;5.709314718842506E-004;
2.419500000000000E+009;1.937862783670425E-001;-3.644233569502831E-002;-2.605591434985399E-003;6.053543766029179E-004;
2.419666666666667E+009;1.921169608831406E-001;-3.707215934991837E-002;-2.757341833785176E-003;5.854031187482178E-004;
2.419833333333334E+009;1.906151473522186E-001;-3.752617537975311E-002;-2.797092078253627E-003;7.133570616133511E-004;
2.420000000000000E+009;1.891115903854370E-001;-3.833063691854477E-002;-2.899591112509370E-003;8.694374701008201E-004;
2.420166666666667E+009;1.873153150081635E-001;-3.925300389528275E-002;-2.862500259652734E-003;1.071265316568315E-003;
2.420333333333334E+009;1.857268065214157E-001;-4.022821038961411E-002;-2.963396254926920E-003;1.240865676663816E-003;
2.420500000000000E+009;1.839881688356400E-001;-4.155435040593147E-002;-2.852248260751367E-003;1.411966281011701E-003;
2.420666666666667E+009;1.823161691427231E-001;-4.247672483325005E-002;-2.842734334990382E-003;1.665159710682929E-003;
2.420833333333334E+009;1.805927455425263E-001;-4.405579715967178E-002;-2.677268348634243E-003;1.770324772223830E-003;
2.421000000000000E+009;1.790021359920502E-001;-4.535649716854096E-002;-2.604874549433589E-003;1.893716631457210E-003;
2.421166666666667E+009;1.774525940418243E-001;-4.716492816805840E-002;-2.393583301454783E-003;2.122591715306044E-003;
2.421333333333334E+009;1.754696965217590E-001;-4.860717058181763E-002;-2.116317860782147E-003;2.306850394234061E-003;
2.421500000000000E+009;1.742098629474640E-001;-5.051532760262489E-002;-2.042056759819388E-003;2.389906905591488E-003;
2.421666666666667E+009;1.726907789707184E-001;-5.233309790492058E-002;-1.937125576660037E-003;2.323960885405541E-003;
2.421833333333334E+009;1.715349107980728E-001;-5.423958227038384E-002;-1.701619010418654E-003;2.314489101991057E-003;
2.422000000000000E+009;1.702968627214432E-001;-5.610695108771324E-002;-1.565263024531305E-003;2.490555867552757E-003;
2.422166666666667E+009;1.692380309104919E-001;-5.817331746220589E-002;-1.401837216690183E-003;2.435547998175025E-003;
2.422333333333334E+009;1.681564450263977E-001;-6.020171940326691E-002;-1.294938614591956E-003;2.147338120266795E-003;
2.422500000000000E+009;1.672740578651428E-001;-6.221994012594223E-002;-1.130767748691142E-003;2.146636601537466E-003;
2.422666666666667E+009;1.664861291646957E-001;-6.441558152437210E-002;-1.128824427723885E-003;2.250166609883308E-003;
2.422833333333334E+009;1.660027354955673E-001;-6.643895059823990E-002;-1.205527223646641E-003;2.178815659135580E-003;
2.423000000000000E+009;1.652493327856064E-001;-6.873997300863266E-002;-1.152959652245045E-003;2.117550699040294E-003;
2.423166666666667E+009;1.650534868240356E-001;-7.069704681634903E-002;-1.270587672479451E-003;2.170100808143616E-003;
2.423333333333334E+009;1.647087782621384E-001;-7.279729843139648E-002;-1.084486488252878E-003;2.000583335757256E-003;
2.423500000000000E+009;1.646096557378769E-001;-7.470712810754776E-002;-1.046079676598311E-003;2.122536767274141E-003;
2.423666666666667E+009;1.647349148988724E-001;-7.678297907114029E-002;-1.154830912128091E-003;2.278949134051800E-003;
2.423833333333334E+009;1.646576821804047E-001;-7.874470204114914E-002;-1.224842737428844E-003;2.307656686753035E-003;
2.424000000000000E+009;1.647299379110336E-001;-8.082387596368790E-002;-1.214242656715214E-003;2.493046224117279E-003;
2.424166666666667E+009;1.648514121770859E-001;-8.242455124855042E-002;-9.644680540077388E-004;2.454616129398346E-003;
2.424333333333334E+009;1.652155220508575E-001;-8.417720347642899E-002;-8.238022564910352E-004;2.422651275992394E-003;
2.424500000000000E+009;1.654936373233795E-001;-8.615231513977051E-002;-6.125963409431279E-004;2.615914680063725E-003;
2.424666666666667E+009;1.657594889402390E-001;-8.763807266950607E-002;-5.938644753769040E-004;2.622055588290095E-003;
2.424833333333334E+009;1.665297001600266E-001;-8.904884010553360E-002;-3.738277009688318E-004;2.637265017256141E-003;
2.425000000000000E+009;1.669162809848785E-001;-9.051198512315750E-002;-3.294218913652003E-004;2.694142283871770E-003;
2.425166666666667E+009;1.674458086490631E-001;-9.170708805322647E-002;-2.202271862188354E-004;2.659301506355405E-003;
2.425333333333334E+009;1.679161041975021E-001;-9.283868223428726E-002;-1.958287029992789E-004;2.766876015812159E-003;
2.425500000000000E+009;1.685924977064133E-001;-9.390933066606522E-002;-8.920556865632534E-006;2.564625116065145E-003;
2.425666666666667E+009;1.691846847534180E-001;-9.474614262580872E-002;4.245974196237512E-005;2.503451425582171E-003;
2.425833333333334E+009;1.697425991296768E-001;-9.565238654613495E-002;3.645845863502473E-004;2.483631018549204E-003;
2.426000000000000E+009;1.703662276268005E-001;-9.619044512510300E-002;2.965879684779793E-004;2.428135834634304E-003;
2.426166666666667E+009;1.709673255681992E-001;-9.691146761178970E-002;3.628620761446655E-004;2.503549214452505E-003;
2.426333333333334E+009;1.713357567787170E-001;-9.756082296371460E-002;4.043601802550256E-004;2.448553685098887E-003;
2.426500000000000E+009;1.719808280467987E-001;-9.792851656675339E-002;4.960746737197042E-004;2.486954675987363E-003;
2.426666666666667E+009;1.725017875432968E-001;-9.843266010284424E-002;4.312171367928386E-004;2.578542102128267E-003;
2.426833333333334E+009;1.729788631200790E-001;-9.874663501977921E-002;6.243244279175997E-004;2.376158954575658E-003;
2.427000000000000E+009;1.731690019369125E-001;-9.903657436370850E-002;7.816686411388218E-004;2.392827998846769E-003;
2.427166666666667E+009;1.734814345836639E-001;-9.922828525304794E-002;9.723755647428334E-004;2.118163509294391E-003;
2.427333333333334E+009;1.736391782760620E-001;-9.962612390518189E-002;9.608033578842878E-004;2.133722882717848E-003;
2.427500000000000E+009;1.735296398401260E-001;-9.983520209789276E-002;8.755690068937838E-004;2.110553439706564E-003;
2.427666666666667E+009;1.735080033540726E-001;-9.992911666631699E-002;9.778093080967665E-004;2.108790213242173E-003;
2.427833333333334E+009;1.733822375535965E-001;-1.000733003020287E-001;9.745086426846683E-004;1.908463425934315E-003;
