# Version 1.00
#
freq[Hz];re:Trc1_S11;im:Trc1_S11;re:Trc2_S21;im:Trc2_S21;
2.400000000000000E+009;1.587672829627991E-001;6.280260533094406E-002;-2.526234369724989E-003;-2.189631108194590E-003;
2.400166666666667E+009;1.587388515472412E-001;6.115207076072693E-002;-2.562658628448844E-003;-2.187780104577541E-003;
2.400333333333334E+009;1.584454327821732E-001;5.922479927539825E-002;-2.606104826554656E-003;-2.101808087900281E-003;
2.400500000000000E+009;1.583826690912247E-001;5.744264274835587E-002;-2.742100507020950E-003;-2.013477962464094E-003;
2.400666666666667E+009;1.581664234399796E-001;5.554312095046043E-002;-2.747145248576999E-003;-1.846128609031439E-003;
2.400833333333334E+009;1.582694500684738E-001;5.348774418234825E-002;-2.807733835652471E-003;-1.706138951703906E-003;
2.401000000000000E+009;1.583459228277206E-001;5.173795670270920E-002;-2.761505544185638E-003;-1.677741413004696E-003;
2.401166666666667E+009;1.585188657045364E-001;4.945666715502739E-002;-2.823274116963148E-003;-1.364283380098641E-003;
2.401333333333334E+009;1.584311276674271E-001;4.747470095753670E-002;-2.820313908159733E-003;-1.353330793790519E-003;
2.401500000000000E+009;1.588539332151413E-001;4.551775753498077E-002;-2.643104875460267E-003;-1.205895910970867E-003;
2.401666666666667E+009;1.591641455888748E-001;4.358322918415070E-002;-2.732360269874334E-003;-1.109716831706464E-003;
2.401833333333334E+009;1.592747867107391E-001;4.129502922296524E-002;-2.677730983123183E-003;-1.075415639206767E-003;
2.402000000000000E+009;1.595885008573532E-001;3.937254846096039E-002;-2.704784506931901E-003;-8.552869549021125E-004;
2.402166666666667E+009;1.600722521543503E-001;3.738457709550858E-002;-2.592240925878286E-003;-6.515334243886173E-004;
2.402333333333334E+009;1.606816202402115E-001;3.542120382189751E-002;-2.535340841859579E-003;-6.520585739053786E-004;
2.402500000000000E+009;1.613075584173203E-001;3.384759649634361E-002;-2.381382277235389E-003;-6.698356010019779E-004;
2.402666666666667E+009;1.620389819145203E-001;3.195380792021751E-002;-2.295845886692405E-003;-4.551756137516350E-004;
2.402833333333334E+009;1.625208407640457E-001;3.024904243648052E-002;-2.312749391421676E-003;-6.127860979177058E-004;
2.403000000000000E+009;1.633248776197434E-001;2.861740440130234E-002;-2.077575307339430E-003;-4.435105947777629E-004;
2.403166666666667E+009;1.641937196254730E-001;2.687514759600163E-002;-2.069139620289207E-003;-4.729661741293967E-004;
2.403333333333334E+009;1.651464998722076E-001;2.545729652047157E-002;-2.029565628618002E-003;-4.193393397144973E-004;
2.403500000000000E+009;1.659322381019592E-001;2.391386777162552E-002;-2.022926928475499E-003;-3.903679898940027E-004;
2.403666666666667E+009;1.667568087577820E-001;2.249262854456902E-002;-1.707869698293507E-003;-4.344676272012293E-004;
2.403833333333334E+009;1.679172664880753E-001;2.114715054631233E-002;-1.903268392197788E-003;-4.391826514620334E-004;
2.404000000000000E+009;1.688169538974762E-001;1.987860165536404E-002;-1.835008501075208E-003;-5.075301742181182E-004;
2.404166666666667E+009;1.697624623775482E-001;1.874709688127041E-002;-1.815739902667701E-003;-4.056234902236611E-004;
2.404333333333334E+009;1.705574989318848E-001;1.778148300945759E-002;-1.789231551811099E-003;-4.883368965238333E-004;
2.404500000000000E+009;1.716187745332718E-001;1.666045375168324E-002;-1.830454217270017E-003;-4.173294291831553E-004;
2.404666666666667E+009;1.725662797689438E-001;1.571056433022022E-002;-1.759225968271494E-003;-5.086345481686294E-004;
2.404833333333334E+009;1.735385656356812E-001;1.499542128294706E-002;-1.813576091080904E-003;-5.303960642777383E-004;
2.405000000000000E+009;1.743388175964356E-001;1.411049906164408E-002;-1.763359527103603E-003;-5.798378260806203E-004;
2.405166666666667E+009;1.752306967973709E-001;1.351480185985565E-002;-1.882337033748627E-003;-6.199889467097819E-004;
2.405333333333334E+009;1.761727035045624E-001;1.271556969732046E-002;-1.780152553692460E-003;-5.311518907546997E-004;
2.405500000000000E+009;1.768257468938828E-001;1.233388110995293E-002;-1.810809946618974E-003;-6.999619654379785E-004;
2.405666666666667E+009;1.775919348001480E-001;1.178571395576000E-002;-1.774492324329913E-003;-5.119468551129103E-004;
2.405833333333334E+009;1.781119108200073E-001;1.142957061529160E-002;-1.769687747582793E-003;-5.329717532731593E-004;
2.406000000000000E+009;1.787502616643906E-001;1.083078514784575E-002;-1.954139675945044E-003;-6.654805620200932E-004;
2.406166666666667E+009;1.792629510164261E-001;1.058977190405130E-002;-2.063043415546417E-003;-6.475787376984954E-004;
2.406333333333334E+009;1.798452585935593E-001;1.024154014885426E-002;-1.955582294613123E-003;-5.446296418085694E-004;
2.406500000000000E+009;1.802064776420593E-001;9.879534132778645E-003;-1.925857271999121E-003;-5.967860925011337E-004;
2.406666666666667E+009;1.803195178508759E-001;9.590447880327702E-003;-2.026408212259412E-003;-5.895427311770618E-004;
2.406833333333334E+009;1.805881112813950E-001;9.189050644636154E-003;-2.206910634413362E-003;-5.280770128592849E-004;
2.407000000000000E+009;1.806724667549133E-001;8.951247669756413E-003;-2.091132570058107E-003;-6.920877494849265E-004;
2.407166666666667E+009;1.809747219085693E-001;8.559757843613625E-003;-2.113502239808440E-003;-7.046679966151714E-004;
2.407333333333334E+009;1.808790415525436E-001;8.173598907887936E-003;-2.356259152293205E-003;-5.096626700833440E-004;
2.407500000000000E+009;1.806703209877014E-001;7.737220264971256E-003;-2.229402773082256E-003;-5.496810190379620E-004;
2.407666666666667E+009;1.806633919477463E-001;7.347467821091414E-003;-2.328866859897971E-003;-3.893509856425226E-004;
2.407833333333334E+009;1.801773905754089E-001;6.869886070489883E-003;-2.439840929582715E-003;-3.567663079593331E-004;
2.408000000000000E+009;1.799222677946091E-001;6.115082185715437E-003;-2.409307984635234E-003;-2.998645650222898E-004;
2.408166666666667E+009;1.796508580446243E-001;5.620254203677177E-003;-2.393326954916120E-003;-7.239198021125048E-005;
2.408333333333334E+009;1.794195622205734E-001;4.972510039806366E-003;-2.474423497915268E-003;-2.121187571901828E-004;
2.408500000000000E+009;1.788726150989533E-001;4.165589343756437E-003;-2.597564598545432E-003;-2.579673018772155E-004;
2.408666666666667E+009;1.781187802553177E-001;3.195708617568016E-003;-2.346844179555774E-003;-1.959899964276701E-005;
2.408833333333334E+009;1.775543838739395E-001;2.350360155105591E-003;-2.493846463039517E-003;2.507683166186325E-005;
2.409000000000000E+009;1.768853068351746E-001;1.274940674193203E-003;-2.749341307207942E-003;9.407877223566175E-005;
2.409166666666667E+009;1.762619614601135E-001;3.822142025455833E-004;-2.532865386456251E-003;9.348105231765658E-005;
2.409333333333334E+009;1.757373362779617E-001;-7.891725399531424E-004;-2.560345223173499E-003;2.739883202593774E-004;
2.409500000000000E+009;1.749273985624313E-001;-2.222222276031971E-003;-2.636245451867580E-003;2.685193321667612E-004;
2.409666666666667E+009;1.743180453777313E-001;-3.516363678500056E-003;-2.536386484280229E-003;2.492602216079831E-004;
2.409833333333334E+009;1.734952181577683E-001;-4.807492718100548E-003;-2.630401402711868E-003;4.040000494569540E-004;
2.410000000000000E+009;1.730693876743317E-001;-6.185567937791348E-003;-2.615420613437891E-003;3.509851812850684E-004;
2.410166666666667E+009;1.724488288164139E-001;-7.786714006215334E-003;-2.679632510989904E-003;3.641634248197079E-004;
2.410333333333334E+009;1.716762334108353E-001;-9.369404986500740E-003;-2.639707177877426E-003;3.729996096808463E-004;
2.410500000000000E+009;1.710318177938461E-001;-1.100392267107964E-002;-2.590324962511659E-003;6.327381706796587E-004;
2.410666666666667E+009;1.704520434141159E-001;-1.288115885108709E-002;-2.514119725674391E-003;6.237759371288121E-004;
2.410833333333334E+009;1.700107753276825E-001;-1.456478051841259E-002;-2.640565624460578E-003;7.590915192849934E-004;
2.411000000000000E+009;1.697346717119217E-001;-1.632149890065193E-002;-2.564607886597514E-003;6.424429593607783E-004;
2.411166666666667E+009;1.692515611648560E-001;-1.816997490823269E-002;-2.462254837155342E-003;7.465336238965392E-004;
2.411333333333334E+009;1.689360588788986E-001;-2.027126960456371E-002;-2.639553043991327E-003;7.175682694651187E-004;
2.411500000000000E+009;1.686074286699295E-001;-2.210395224392414E-002;-2.546028234064579E-003;8.131592767313123E-004;
2.411666666666667E+009;1.686832755804062E-001;-2.397751621901989E-002;-2.453656634315848E-003;9.265948319807649E-004;
2.411833333333334E+009;1.683607846498489E-001;-2.585629560053349E-002;-2.614568686112762E-003;1.082228031009436E-003;
2.412000000000000E+009;1.684910655021668E-001;-2.771554142236710E-002;-2.696612384170294E-003;9.984477655962110E-004;
2.412166666666667E+009;1.683584451675415E-001;-2.981574647128582E-002;-2.520892070606351E-003;9.650965221226215E-004;
2.412333333333334E+009;1.687715351581574E-001;-3.177498281002045E-002;-2.741180825978518E-003;1.097808126360178E-003;
2.412500000000000E+009;1.686367541551590E-001;-3.360233455896378E-002;-2.674882067367435E-003;9.898775024339557E-004;
2.412666666666667E+009;1.689219176769257E-001;-3.550326824188232E-002;-2.656865632161498E-003;1.148124807514250E-003;
2.412833333333334E+009;1.692000180482864E-001;-3.741347417235375E-002;-2.682278165593743E-003;1.294350950047374E-003;
2.413000000000000E+009;1.694647073745728E-001;-3.913827240467072E-002;-2.776234410703182E-003;1.327622914686799E-003;
2.413166666666667E+009;1.698838770389557E-001;-4.098035395145416E-002;-2.873976249247789E-003;1.408500596880913E-003;
2.413333333333334E+009;1.701431721448898E-001;-4.265727847814560E-002;-2.922425046563149E-003;1.419172971509397E-003;
2.413500000000000E+009;1.709267199039459E-001;-4.427757114171982E-002;-2.882005879655480E-003;1.510105561465025E-003;
2.413666666666667E+009;1.714452356100082E-001;-4.576621204614639E-002;-2.868975047022104E-003;1.686398521997035E-003;
2.413833333333334E+009;1.717288345098496E-001;-4.729321599006653E-002;-2.932094270363450E-003;1.714957295916975E-003;
2.414000000000000E+009;1.722464412450790E-001;-4.887019842863083E-002;-2.881265711039305E-003;1.994437538087368E-003;
2.414166666666667E+009;1.728394180536270E-001;-5.010985210537911E-002;-2.946511609479785E-003;2.020589541643858E-003;
2.414333333333334E+009;1.732879430055618E-001;-5.144221708178520E-002;-2.994464477524161E-003;1.966371200978756E-003;
2.414500000000000E+009;1.742038428783417E-001;-5.243181437253952E-002;-2.910238457843661E-003;2.157480688765645E-003;
2.414666666666667E+009;1.744526773691177E-001;-5.350753664970398E-002;-2.871065400540829E-003;2.335712779313326E-003;
2.414833333333334E+009;1.750696897506714E-001;-5.475652590394020E-002;-2.822332317009568E-003;2.538970904424787E-003;
2.415000000000000E+009;1.754394322633743E-001;-5.545638874173164E-002;-2.808806486427784E-003;2.476392313838005E-003;
2.415166666666667E+009;1.759323179721832E-001;-5.632849782705307E-002;-2.780500799417496E-003;2.776429289951921E-003;
2.415333333333334E+009;1.764055490493774E-001;-5.714229866862297E-002;-2.738216659054160E-003;2.902934094890952E-003;
2.415500000000000E+009;1.766609698534012E-001;-5.779382586479187E-002;-2.678574295714498E-003;3.139755222946405E-003;
2.415666666666667E+009;1.769606322050095E-001;-5.830564722418785E-002;-2.732911147177219E-003;3.246103180572391E-003;
2.415833333333334E+009;1.772910356521606E-001;-5.894926935434341E-002;-2.547266660258174E-003;3.545877756550908E-003;
2.416000000000000E+009;1.773377656936646E-001;-5.947148799896240E-002;-2.697914838790894E-003;3.547218395397067E-003;
2.416166666666667E+009;1.775968670845032E-001;-5.988955125212669E-002;-2.489164005964994E-003;3.601649543270469E-003;
2.416333333333334E+009;1.776278913021088E-001;-6.025295332074165E-002;-2.284753834828734E-003;3.887237049639225E-003;
2.416500000000000E+009;1.775153279304504E-001;-6.069540232419968E-002;-2.178501104936004E-003;3.813852090388537E-003;
2.416666666666667E+009;1.773030757904053E-001;-6.083611771464348E-002;-1.967356540262699E-003;4.127876833081245E-003;
2.416833333333334E+009;1.772763133049011E-001;-6.126365065574646E-002;-1.937105203978717E-003;4.209979902952910E-003;
2.417000000000000E+009;1.766956746578217E-001;-6.148993223905563E-002;-1.784938620403409E-003;4.294598940759897E-003;
2.417166666666667E+009;1.763879209756851E-001;-6.163312867283821E-002;-1.528394175693393E-003;4.555257037281990E-003;
2.417333333333334E+009;1.760005652904511E-001;-6.180790811777115E-002;-1.441960106603801E-003;4.540952388197184E-003;
2.417500000000000E+009;1.753266304731369E-001;-6.227071583271027E-002;-1.181899220682681E-003;4.643102642148733E-003;
2.417666666666667E+009;1.748238056898117E-001;-6.241381913423538E-002;-1.042518764734268E-003;4.748609848320484E-003;
2.417833333333334E+009;1.741411089897156E-001;-6.262690573930740E-002;-1.065929653123021E-003;4.644317086786032E-003;
2.418000000000000E+009;1.731254011392593E-001;-6.302816420793533E-002;-7.513682940043509E-004;4.921996500343084E-003;
2.418166666666667E+009;1.723498255014420E-001;-6.328576058149338E-002;-5.835705087520182E-004;4.868848249316216E-003;
2.418333333333334E+009;1.715052127838135E-001;-6.369200348854065E-002;-3.579119802452624E-004;5.005049519240856E-003;
2.418500000000000E+009;1.704720407724381E-001;-6.411134451627731E-002;-2.719179901760072E-004;5.015596747398377E-003;
2.418666666666667E+009;1.694388836622238E-001;-6.458369642496109E-002;-2.785114884318318E-005;4.986025393009186E-003;
2.418833333333334E+009;1.680984646081924E-001;-6.504438817501068E-002;3.381912028999068E-005;5.007392261177301E-003;
2.419000000000000E+009;1.671065241098404E-001;-6.571532040834427E-002;3.809652407653630E-004;5.033606197685003E-003;
2.419166666666667E+009;1.659170389175415E-001;-6.633250415325165E-002;4.940504441037774E-004;5.123013164848089E-003;
2.419333333333334E+009;1.646399646997452E-001;-6.687166541814804E-002;7.904029334895313E-004;5.129888653755188E-003;
2.419500000000000E+009;1.634032428264618E-001;-6.778465211391449E-002;1.025472651235759E-003;5.036077927798033E-003;
2.419666666666667E+009;1.623942703008652E-001;-6.884238868951798E-002;1.034402637742460E-003;5.075796041637659E-003;
2.419833333333334E+009;1.611476689577103E-001;-6.964626163244247E-002;1.185921719297767E-003;5.018539261072874E-003;
2.420000000000000E+009;1.599407345056534E-001;-7.049562036991119E-002;1.272594672627747E-003;5.029508844017983E-003;
2.420166666666667E+009;1.588625907897949E-001;-7.171599566936493E-002;1.591091626323760E-003;4.932959564030170E-003;
2.420333333333334E+009;1.578766405582428E-001;-7.279389351606369E-002;1.976523082703352E-003;4.948670975863934E-003;
2.420500000000000E+009;1.568401306867600E-001;-7.393721491098404E-002;1.911001163534820E-003;4.858542233705521E-003;
2.420666666666667E+009;1.557457149028778E-001;-7.521857321262360E-002;2.027392620220780E-003;4.707800224423409E-003;
2.420833333333334E+009;1.547750383615494E-001;-7.662180066108704E-002;2.315943827852607E-003;4.707443062216044E-003;
2.421000000000000E+009;1.539622396230698E-001;-7.810816168785095E-002;2.361630322411656E-003;4.509562626481056E-003;
2.421166666666667E+009;1.532864123582840E-001;-7.945447415113449E-002;2.455132082104683E-003;4.417691845446825E-003;
2.421333333333334E+009;1.523952633142471E-001;-8.103431761264801E-002;2.741964533925057E-003;4.455506801605225E-003;
2.421500000000000E+009;1.516128480434418E-001;-8.247622102499008E-002;2.988948253914714E-003;4.342584405094385E-003;
2.421666666666667E+009;1.511375010013580E-001;-8.410974591970444E-002;3.181728767231107E-003;4.229139536619186E-003;
2.421833333333334E+009;1.506463438272476E-001;-8.583428710699081E-002;3.265372011810541E-003;4.159889183938503E-003;
2.422000000000000E+009;1.501523554325104E-001;-8.741199225187302E-002;3.218099242076278E-003;3.963025286793709E-003;
2.422166666666667E+009;1.498687714338303E-001;-8.928437530994415E-002;3.456335049122572E-003;3.863962600007653E-003;
2.422333333333334E+009;1.497205644845963E-001;-9.079802781343460E-002;3.701968817040324E-003;3.702350659295917E-003;
2.422500000000000E+009;1.495585292577744E-001;-9.242135286331177E-002;3.769121132791042E-003;3.551411908119917E-003;
2.422666666666667E+009;1.492634713649750E-001;-9.422183036804199E-002;3.774714656174183E-003;3.473348449915648E-003;
2.422833333333334E+009;1.495251655578613E-001;-9.600722789764404E-002;3.805205691605806E-003;3.336823778226972E-003;
2.423000000000000E+009;1.494300663471222E-001;-9.755270928144455E-002;4.028297029435635E-003;3.247405169531703E-003;
2.423166666666667E+009;1.497873514890671E-001;-9.917263686656952E-002;4.224380012601614E-003;3.037168178707361E-003;
2.423333333333334E+009;1.501163244247437E-001;-1.006967723369598E-001;4.302502144128084E-003;2.920222235843539E-003;
2.423500000000000E+009;1.501169353723526E-001;-1.022992581129074E-001;4.359217360615730E-003;2.892811549827457E-003;
2.423666666666667E+009;1.502433717250824E-001;-1.038943901658058E-001;4.387978464365006E-003;2.708408283069730E-003;
2.423833333333334E+009;1.508514881134033E-001;-1.054313704371452E-001;4.484238103032112E-003;2.538775093853474E-003;
2.424000000000000E+009;1.512991487979889E-001;-1.064823940396309E-001;4.457405768334866E-003;2.346696564927697E-003;
2.424166666666667E+009;1.515712887048721E-001;-1.079727038741112E-001;4.696914460510016E-003;2.328097121790052E-003;
2.424333333333334E+009;1.521142274141312E-001;-1.092043891549110E-001;4.742618184536696E-003;2.151320688426495E-003;
2.424500000000000E+009;1.525951325893402E-001;-1.104607731103897E-001;4.849412012845278E-003;2.033588942140341E-003;
2.424666666666667E+009;1.530785113573074E-001;-1.113165542483330E-001;4.868814721703529E-003;1.841083867475390E-003;
2.424833333333334E+009;1.534986943006516E-001;-1.125073358416557E-001;4.961621016263962E-003;1.626225188374519E-003;
2.425000000000000E+009;1.540162265300751E-001;-1.134742498397827E-001;5.097161047160626E-003;1.412246609106660E-003;
2.425166666666667E+009;1.543198674917221E-001;-1.142311915755272E-001;4.974182229489088E-003;1.380799920298159E-003;
2.425333333333334E+009;1.547690182924271E-001;-1.150275468826294E-001;5.167819559574127E-003;1.168196089565754E-003;
2.425500000000000E+009;1.551398783922195E-001;-1.158474385738373E-001;5.041765980422497E-003;1.180995372124016E-003;
2.425666666666667E+009;1.553614139556885E-001;-1.164097934961319E-001;5.145124625414610E-003;1.015649759210646E-003;
2.425833333333334E+009;1.556620001792908E-001;-1.169730350375176E-001;5.136550869792700E-003;7.281459402292967E-004;
2.426000000000000E+009;1.558379530906677E-001;-1.175735667347908E-001;5.231591407209635E-003;4.997669020667672E-004;
2.426166666666667E+009;1.562196165323257E-001;-1.179298311471939E-001;5.171040073037148E-003;3.871474764309824E-004;
2.426333333333334E+009;1.560863703489304E-001;-1.182980015873909E-001;5.296177696436644E-003;1.567882281960920E-004;
2.426500000000000E+009;1.562062650918961E-001;-1.185016855597496E-001;5.354708526283503E-003;-8.439650628133677E-006;
2.426666666666667E+009;1.563027799129486E-001;-1.185973584651947E-001;5.233713891357184E-003;-2.086738095385954E-004;
2.426833333333334E+009;1.560079902410507E-001;-1.188776120543480E-001;5.276100710034370E-003;-3.652664599940181E-004;
2.427000000000000E+009;1.558083295822144E-001;-1.191307157278061E-001;5.249831359833479E-003;-5.236348370090127E-004;
2.427166666666667E+009;1.553433239459992E-001;-1.191063299775124E-001;5.164107773452997E-003;-6.919337320141494E-004;
2.427333333333334E+009;1.549923121929169E-001;-1.192284300923348E-001;5.222654901444912E-003;-8.515373920090497E-004;
2.427500000000000E+009;1.546362638473511E-001;-1.194268465042114E-001;5.098637193441391E-003;-9.297584765590727E-004;
2.427666666666667E+009;1.539017856121063E-001;-1.194860935211182E-001;5.075347609817982E-003;-1.236118143424392E-003;
