# Version 1.00
#
freq[Hz];re:Trc1_S11;im:Trc1_S11;re:Trc2_S21;im:Trc2_S21;
2.400000000000000E+009;1.579119861125946E-001;1.117624118924141E-001;2.277793682878837E-004;-4.937957040965557E-003;
2.400166666666667E+009;1.573261469602585E-001;1.096612513065338E-001;-2.877490987884812E-005;-5.058430135250092E-003;
2.400333333333334E+009;1.572095006704330E-001;1.076251342892647E-001;-1.719552383292466E-004;-4.876452032476664E-003;
2.400500000000000E+009;1.568026542663574E-001;1.049810424447060E-001;-4.114227485843003E-004;-4.971342626959086E-003;
2.400666666666667E+009;1.564792394638062E-001;1.024871394038200E-001;-6.817457033321261E-004;-5.035773850977421E-003;
2.400833333333334E+009;1.560948044061661E-001;9.977737814188004E-002;-7.839647587388754E-004;-4.872960969805718E-003;
2.401000000000000E+009;1.559423059225082E-001;9.693033248186112E-002;-8.889301097951829E-004;-4.667314700782299E-003;
2.401166666666667E+009;1.556394845247269E-001;9.402790665626526E-002;-1.025297446176410E-003;-4.691355861723423E-003;
2.401333333333334E+009;1.556037813425064E-001;9.132555872201920E-002;-1.288077328354120E-003;-4.771558567881584E-003;
2.401500000000000E+009;1.557600200176239E-001;8.814169466495514E-002;-1.281412784010172E-003;-4.688975866883993E-003;
2.401666666666667E+009;1.556725353002548E-001;8.508566021919251E-002;-1.542883692309260E-003;-4.673403687775135E-003;
2.401833333333334E+009;1.560101509094238E-001;8.228040486574173E-002;-1.586891710758209E-003;-4.427303094416857E-003;
2.402000000000000E+009;1.564392149448395E-001;7.922042906284332E-002;-1.636484754271805E-003;-4.677732475101948E-003;
2.402166666666667E+009;1.570037454366684E-001;7.633639872074127E-002;-1.911244355142117E-003;-4.705609753727913E-003;
2.402333333333334E+009;1.577015370130539E-001;7.335739582777023E-002;-2.030028961598873E-003;-4.551758989691734E-003;
2.402500000000000E+009;1.586380004882813E-001;7.057236135005951E-002;-2.351261908188462E-003;-4.677406046539545E-003;
2.402666666666667E+009;1.596074849367142E-001;6.782118976116180E-002;-2.536944579333067E-003;-4.681782796978951E-003;
2.402833333333334E+009;1.607142835855484E-001;6.508810818195343E-002;-2.922639716416597E-003;-4.541529342532158E-003;
2.403000000000000E+009;1.617334634065628E-001;6.252955645322800E-002;-3.184129949659109E-003;-4.509317222982645E-003;
2.403166666666667E+009;1.634187847375870E-001;5.994854494929314E-002;-3.465274581685662E-003;-4.482571035623550E-003;
2.403333333333334E+009;1.648133248090744E-001;5.724566429853439E-002;-3.717584302648902E-003;-4.406131338328123E-003;
2.403500000000000E+009;1.664801239967346E-001;5.475382506847382E-002;-4.157005809247494E-003;-4.105649422854185E-003;
2.403666666666667E+009;1.681648194789887E-001;5.252915248274803E-002;-4.204487428069115E-003;-3.878111718222499E-003;
2.403833333333334E+009;1.698496639728546E-001;5.016604810953140E-002;-4.594693426042795E-003;-3.638828173279762E-003;
2.404000000000000E+009;1.714087128639221E-001;4.797940701246262E-002;-4.950834903866053E-003;-3.299701027572155E-003;
2.404166666666667E+009;1.732729673385620E-001;4.616519808769226E-002;-5.110851023346186E-003;-2.987998072057962E-003;
2.404333333333334E+009;1.750595122575760E-001;4.427144676446915E-002;-5.079053342342377E-003;-2.575077116489410E-003;
2.404500000000000E+009;1.766627132892609E-001;4.260626807808876E-002;-5.086822435259819E-003;-2.140257274731994E-003;
2.404666666666667E+009;1.785614788532257E-001;4.120841622352600E-002;-5.021887831389904E-003;-1.930776517838240E-003;
2.404833333333334E+009;1.806418895721436E-001;3.981503844261169E-002;-5.113479215651751E-003;-1.425999682396650E-003;
2.405000000000000E+009;1.819737106561661E-001;3.882681205868721E-002;-4.917621146887541E-003;-1.203080988489091E-003;
2.405166666666667E+009;1.837742030620575E-001;3.790938481688500E-002;-4.930110648274422E-003;-9.162214701063931E-004;
2.405333333333334E+009;1.855030953884125E-001;3.717663511633873E-002;-4.868777003139257E-003;-7.220425177365542E-004;
2.405500000000000E+009;1.871769726276398E-001;3.660439699888229E-002;-4.766234662383795E-003;-3.357492678333074E-004;
2.405666666666667E+009;1.887508481740952E-001;3.611629083752632E-002;-4.653875250369310E-003;-3.520404061418958E-005;
2.405833333333334E+009;1.902370601892471E-001;3.575874119997025E-002;-4.714377690106630E-003;7.391113467747346E-005;
2.406000000000000E+009;1.916099786758423E-001;3.551642969250679E-002;-4.385336302220821E-003;2.688064123503864E-004;
2.406166666666667E+009;1.929234564304352E-001;3.519422933459282E-002;-4.126357845962048E-003;3.138128085993230E-004;
2.406333333333334E+009;1.942199915647507E-001;3.541802614927292E-002;-4.236130043864250E-003;5.251935799606144E-004;
2.406500000000000E+009;1.954200863838196E-001;3.540419414639473E-002;-3.973878454416990E-003;8.607981726527214E-004;
2.406666666666667E+009;1.963395625352860E-001;3.559353947639465E-002;-3.914451692253351E-003;8.780139614827931E-004;
2.406833333333334E+009;1.971582919359207E-001;3.577666357159615E-002;-3.525596810504794E-003;1.002937904559076E-003;
2.407000000000000E+009;1.977573484182358E-001;3.609044849872589E-002;-3.450263058766723E-003;1.003134180791676E-003;
2.407166666666667E+009;1.986283361911774E-001;3.620646893978119E-002;-3.431384451687336E-003;1.058307010680437E-003;
2.407333333333334E+009;1.989207863807678E-001;3.664792329072952E-002;-3.249456640332937E-003;1.223704428412020E-003;
2.407500000000000E+009;1.990999281406403E-001;3.693981468677521E-002;-3.093792125582695E-003;1.200556871481240E-003;
2.407666666666667E+009;1.994778215885162E-001;3.719178214669228E-002;-2.822926733642817E-003;1.177798141725361E-003;
2.407833333333334E+009;1.993728429079056E-001;3.734963759779930E-002;-2.718316158279777E-003;1.203348743729293E-003;
2.408000000000000E+009;1.994191408157349E-001;3.760098293423653E-002;-2.706465777009726E-003;1.330096158199012E-003;
2.408166666666667E+009;1.990508884191513E-001;3.771003708243370E-002;-2.548041287809610E-003;1.338686677627266E-003;
2.408333333333334E+009;1.987987011671066E-001;3.747516125440598E-002;-2.378106350079179E-003;1.239401404745877E-003;
2.408500000000000E+009;1.983691006898880E-001;3.752863407135010E-002;-2.338987775146961E-003;1.456782454624772E-003;
2.408666666666667E+009;1.976783424615860E-001;3.731879219412804E-002;-2.147543011233211E-003;1.332125393673778E-003;
2.408833333333334E+009;1.970098614692688E-001;3.689771518111229E-002;-2.177711343392730E-003;1.310764579102397E-003;
2.409000000000000E+009;1.962296664714813E-001;3.653703257441521E-002;-2.108220476657152E-003;1.397872692905366E-003;
2.409166666666667E+009;1.950941085815430E-001;3.595031425356865E-002;-1.875950023531914E-003;1.277482951991260E-003;
2.409333333333334E+009;1.941628158092499E-001;3.531978651881218E-002;-1.674474566243589E-003;1.248267362825573E-003;
2.409500000000000E+009;1.929628700017929E-001;3.446515649557114E-002;-1.680660760030150E-003;1.123603084124625E-003;
2.409666666666667E+009;1.918585300445557E-001;3.345856070518494E-002;-1.706901588477194E-003;1.182161038741469E-003;
2.409833333333334E+009;1.906428337097168E-001;3.222576528787613E-002;-1.629659207537770E-003;8.950984338298440E-004;
2.410000000000000E+009;1.895628124475479E-001;3.098318353295326E-002;-1.548074884340167E-003;1.008648658171296E-003;
2.410166666666667E+009;1.882966458797455E-001;2.940700761973858E-002;-1.343242009170353E-003;9.303396218456328E-004;
2.410333333333334E+009;1.870025098323822E-001;2.790536917746067E-002;-1.540843164548278E-003;9.085262427106500E-004;
2.410500000000000E+009;1.858250945806503E-001;2.620769664645195E-002;-1.535153365693986E-003;8.795358007773757E-004;
2.410666666666667E+009;1.847866773605347E-001;2.409522049129009E-002;-1.474125892855227E-003;8.057663217186928E-004;
2.410833333333334E+009;1.837322711944580E-001;2.210290171205998E-002;-1.586822210811079E-003;7.090832223184407E-004;
2.411000000000000E+009;1.825980991125107E-001;2.008447237312794E-002;-1.524410326965153E-003;5.822404054924846E-004;
2.411166666666667E+009;1.817207336425781E-001;1.795403473079205E-002;-1.607424230314791E-003;5.752617726102471E-004;
2.411333333333334E+009;1.808754056692123E-001;1.547370571643114E-002;-1.671256730332971E-003;5.142618319950998E-004;
2.411500000000000E+009;1.800429373979569E-001;1.316369418054819E-002;-1.659673987887800E-003;3.755323123186827E-004;
2.411666666666667E+009;1.795630306005478E-001;1.075086835771799E-002;-1.685031806118786E-003;4.051567520946264E-004;
2.411833333333334E+009;1.787830740213394E-001;8.304655551910400E-003;-1.740718842484057E-003;3.600348427426070E-004;
2.412000000000000E+009;1.785640865564346E-001;5.628573242574930E-003;-1.790075679309666E-003;3.866081242449582E-004;
2.412166666666667E+009;1.784510910511017E-001;3.311517415568233E-003;-1.888273051008582E-003;3.489601949695498E-004;
2.412333333333334E+009;1.782756745815277E-001;5.313650472089648E-004;-2.028671791777015E-003;3.044390759896487E-004;
2.412500000000000E+009;1.785590052604675E-001;-2.227922901511192E-003;-2.157648326829076E-003;2.518189721740782E-004;
2.412666666666667E+009;1.786871403455734E-001;-4.771706182509661E-003;-2.180742099881172E-003;3.272758622188121E-004;
2.412833333333334E+009;1.792428195476532E-001;-7.455282378941774E-003;-2.458561211824417E-003;2.598087303340435E-004;
2.413000000000000E+009;1.796216368675232E-001;-1.001453679054976E-002;-2.435452537611127E-003;4.219653492327780E-004;
2.413166666666667E+009;1.801062822341919E-001;-1.262602675706148E-002;-2.638755133375526E-003;4.976544878445566E-004;
2.413333333333334E+009;1.810416728258133E-001;-1.518315263092518E-002;-2.924830187112093E-003;6.167917163111270E-004;
2.413500000000000E+009;1.817160844802856E-001;-1.784562692046166E-002;-3.104532836005092E-003;7.577934302389622E-004;
2.413666666666667E+009;1.827908456325531E-001;-2.035990171134472E-002;-3.057025372982025E-003;8.648008806630969E-004;
2.413833333333334E+009;1.839668750762940E-001;-2.253331802785397E-002;-3.251245012506843E-003;1.184610882773995E-003;
2.414000000000000E+009;1.849445253610611E-001;-2.489508688449860E-002;-3.290113527327776E-003;1.439205720089376E-003;
2.414166666666667E+009;1.862891465425491E-001;-2.708972245454788E-002;-3.271763911470771E-003;1.606319798156619E-003;
2.414333333333334E+009;1.874227076768875E-001;-2.944042347371578E-002;-3.422148060053587E-003;1.891136867925525E-003;
2.414500000000000E+009;1.885762810707092E-001;-3.131107613444328E-002;-3.340542316436768E-003;2.159827854484320E-003;
2.414666666666667E+009;1.898410469293594E-001;-3.288716822862625E-002;-3.221380058676004E-003;2.316609723493457E-003;
2.414833333333334E+009;1.910670250654221E-001;-3.474205732345581E-002;-3.007602412253618E-003;2.455448498949409E-003;
2.415000000000000E+009;1.924620866775513E-001;-3.622506931424141E-002;-2.924350788816810E-003;2.770215738564730E-003;
2.415166666666667E+009;1.937011033296585E-001;-3.769815340638161E-002;-2.915187738835812E-003;2.945826156064868E-003;
2.415333333333334E+009;1.952060163021088E-001;-3.891377151012421E-002;-2.779793227091432E-003;3.207070287317038E-003;
2.415500000000000E+009;1.965123862028122E-001;-3.980367630720139E-002;-2.531420672312379E-003;3.208401380106807E-003;
2.415666666666667E+009;1.977152973413467E-001;-4.089854657649994E-002;-2.430630149319768E-003;3.350477432832122E-003;
2.415833333333334E+009;1.988951265811920E-001;-4.152029007673264E-002;-2.206542994827032E-003;3.440185450017452E-003;
2.416000000000000E+009;1.999491453170776E-001;-4.237631335854530E-002;-2.053046831861138E-003;3.626575926318765E-003;
2.416166666666667E+009;2.009239345788956E-001;-4.294366016983986E-002;-1.893717912025750E-003;3.668374614790082E-003;
2.416333333333334E+009;2.018169164657593E-001;-4.327080771327019E-002;-1.598848612047732E-003;3.760834690183401E-003;
2.416500000000000E+009;2.028170824050903E-001;-4.376285150647163E-002;-1.548693748190999E-003;3.904748940840364E-003;
2.416666666666667E+009;2.034632414579392E-001;-4.404523223638535E-002;-1.381534850224853E-003;4.026500042527914E-003;
2.416833333333334E+009;2.039310187101364E-001;-4.406961426138878E-002;-1.270979875698686E-003;3.941886126995087E-003;
2.417000000000000E+009;2.042572647333145E-001;-4.414868727326393E-002;-1.011406769976020E-003;4.083336796611548E-003;
2.417166666666667E+009;2.044026851654053E-001;-4.401116073131561E-002;-8.649754454381764E-004;4.098394419997931E-003;
2.417333333333334E+009;2.044938802719116E-001;-4.379119351506233E-002;-7.532229647040367E-004;4.212671890854836E-003;
2.417500000000000E+009;2.045432776212692E-001;-4.355834051966667E-002;-6.380432751029730E-004;4.150037188082933E-003;
2.417666666666667E+009;2.043556123971939E-001;-4.318091273307800E-002;-3.883234167005867E-004;4.102884791791439E-003;
2.417833333333334E+009;2.041399180889130E-001;-4.291787743568420E-002;-1.102905443985947E-004;4.111753776669502E-003;
2.418000000000000E+009;2.037077397108078E-001;-4.240849986672401E-002;9.810916526475921E-005;4.224035423249006E-003;
2.418166666666667E+009;2.031536996364594E-001;-4.204242303967476E-002;1.676646643318236E-004;4.127211868762970E-003;
2.418333333333334E+009;2.025401592254639E-001;-4.167289286851883E-002;2.132609952241182E-004;4.014300648123026E-003;
2.418500000000000E+009;2.016450762748718E-001;-4.144246131181717E-002;3.863200836349279E-004;4.155423026531935E-003;
2.418666666666667E+009;2.010320872068405E-001;-4.103457555174828E-002;5.160508444532752E-004;4.108139779418707E-003;
2.418833333333334E+009;1.997353881597519E-001;-4.102337360382080E-002;7.756911800242961E-004;4.096593242138624E-003;
2.419000000000000E+009;1.986125409603119E-001;-4.077895358204842E-002;1.001078286208212E-003;4.035445395857096E-003;
2.419166666666667E+009;1.973337829113007E-001;-4.091779887676239E-002;1.160421059466898E-003;4.013095516711474E-003;
2.419333333333334E+009;1.959838867187500E-001;-4.095630347728729E-002;1.345788477919996E-003;3.929605241864920E-003;
2.419500000000000E+009;1.945369243621826E-001;-4.110807180404663E-002;1.536408090032637E-003;3.993821796029806E-003;
2.419666666666667E+009;1.928783506155014E-001;-4.161272197961807E-002;1.644617295823991E-003;3.806190332397819E-003;
2.419833333333334E+009;1.910962760448456E-001;-4.192801192402840E-002;1.796832541003823E-003;3.774018492549658E-003;
2.420000000000000E+009;1.895314306020737E-001;-4.242843016982079E-002;1.985753653571010E-003;3.644621931016445E-003;
2.420166666666667E+009;1.876419782638550E-001;-4.323647171258926E-002;2.120585413649678E-003;3.346549812704325E-003;
2.420333333333334E+009;1.858493387699127E-001;-4.403067380189896E-002;2.429804997518659E-003;3.408413380384445E-003;
2.420500000000000E+009;1.840509921312332E-001;-4.507072642445564E-002;2.391976770013571E-003;3.067148849368095E-003;
2.420666666666667E+009;1.821276545524597E-001;-4.600945115089417E-002;2.516671782359481E-003;2.968934364616871E-003;
2.420833333333334E+009;1.802751719951630E-001;-4.733691364526749E-002;2.494330983608961E-003;2.720680553466082E-003;
2.421000000000000E+009;1.785442829132080E-001;-4.881370812654495E-002;2.563024871051312E-003;2.678964752703905E-003;
2.421166666666667E+009;1.769270002841950E-001;-5.035248771309853E-002;2.645428758114576E-003;2.532325452193618E-003;
2.421333333333334E+009;1.749382913112640E-001;-5.172480270266533E-002;2.492724219337106E-003;2.448983257636428E-003;
2.421500000000000E+009;1.733944714069367E-001;-5.356935039162636E-002;2.530947560444474E-003;2.071282826364040E-003;
2.421666666666667E+009;1.717047542333603E-001;-5.517746880650520E-002;2.495073247700930E-003;2.060238970443606E-003;
2.421833333333334E+009;1.704322248697281E-001;-5.718784779310226E-002;2.637653844431043E-003;1.967236399650574E-003;
2.422000000000000E+009;1.689816862344742E-001;-5.901145190000534E-002;2.578644780442119E-003;1.978146145120263E-003;
2.422166666666667E+009;1.676551699638367E-001;-6.128655374050140E-002;2.571703167632222E-003;1.868037390522659E-003;
2.422333333333334E+009;1.663025915622711E-001;-6.335552781820297E-002;2.641035709530115E-003;1.795029384084046E-003;
2.422500000000000E+009;1.655466407537460E-001;-6.540022045373917E-002;2.749805571511388E-003;1.723357592709363E-003;
2.422666666666667E+009;1.642335802316666E-001;-6.764109432697296E-002;2.786976518109441E-003;1.622033189050853E-003;
2.422833333333334E+009;1.636911630630493E-001;-6.972378492355347E-002;2.716457238420844E-003;1.541544101200998E-003;
2.423000000000000E+009;1.629177033901215E-001;-7.213743776082993E-002;2.856249455362558E-003;1.297471811994910E-003;
2.423166666666667E+009;1.623518168926239E-001;-7.415781170129776E-002;2.617287216708064E-003;1.130304764956236E-003;
2.423333333333334E+009;1.619949638843536E-001;-7.632680237293243E-002;2.737240632995963E-003;1.201478298753500E-003;
2.423500000000000E+009;1.618219465017319E-001;-7.855974137783051E-002;2.681930549442768E-003;1.083759590983391E-003;
2.423666666666667E+009;1.616479754447937E-001;-8.061394840478897E-002;2.645631320774555E-003;8.498099632561207E-004;
2.423833333333334E+009;1.614651083946228E-001;-8.279360085725784E-002;2.640119986608625E-003;7.098088972270489E-004;
2.424000000000000E+009;1.614556759595871E-001;-8.482651412487030E-002;2.560708206146956E-003;6.310428725555539E-004;
2.424166666666667E+009;1.614951342344284E-001;-8.669799566268921E-002;2.797625260427594E-003;4.926054971292615E-004;
2.424333333333334E+009;1.619153469800949E-001;-8.855237811803818E-002;2.600136911496520E-003;4.172278859186918E-004;
2.424500000000000E+009;1.621139496564865E-001;-9.065823256969452E-002;2.562259789556265E-003;3.527534427121282E-004;
2.424666666666667E+009;1.626082956790924E-001;-9.217713773250580E-002;2.587827621027827E-003;2.141154254786670E-004;
2.424833333333334E+009;1.632885783910751E-001;-9.382320195436478E-002;2.444338053464890E-003;2.041792322415859E-004;
2.425000000000000E+009;1.637446433305740E-001;-9.535321593284607E-002;2.312986413016915E-003;1.428763498552144E-004;
2.425166666666667E+009;1.642398387193680E-001;-9.675675630569458E-002;2.275970065966249E-003;3.954701605834998E-005;
2.425333333333334E+009;1.648175716400147E-001;-9.799721837043762E-002;2.159775467589498E-003;6.827420293120667E-005;
2.425500000000000E+009;1.655609309673309E-001;-9.926859289407730E-002;2.207841724157333E-003;-9.945010788214859E-006;
2.425666666666667E+009;1.661141961812973E-001;-1.001473590731621E-001;1.976583851501346E-003;-1.373889535898343E-004;
2.425833333333334E+009;1.666119694709778E-001;-1.012747213244438E-001;2.032307209447026E-003;-1.807717490009964E-004;
2.426000000000000E+009;1.674787253141403E-001;-1.018370538949966E-001;1.919946284033358E-003;-3.641817602328956E-005;
2.426166666666667E+009;1.680963486433029E-001;-1.025895774364471E-001;1.909055397845805E-003;9.382825373904780E-005;
2.426333333333334E+009;1.685302704572678E-001;-1.033428683876991E-001;1.696970546618104E-003;1.707200717646629E-004;
2.426500000000000E+009;1.693885326385498E-001;-1.035979241132736E-001;1.820273348130286E-003;1.002919671009295E-004;
2.426666666666667E+009;1.698444336652756E-001;-1.041642948985100E-001;1.752539654262364E-003;1.495396136306226E-004;
2.426833333333334E+009;1.704994887113571E-001;-1.044423133134842E-001;1.791518647223711E-003;1.088647113647312E-004;
2.427000000000000E+009;1.708147376775742E-001;-1.047792881727219E-001;1.718505634926260E-003;5.734363003284670E-005;
2.427166666666667E+009;1.712971329689026E-001;-1.048515960574150E-001;1.818797667510808E-003;1.329010556219146E-004;
2.427333333333334E+009;1.715074777603149E-001;-1.051595360040665E-001;1.954687060788274E-003;4.391887705423869E-005;
2.427500000000000E+009;1.716220974922180E-001;-1.051805615425110E-001;1.746292924508452E-003;1.947851851582527E-004;
2.427666666666667E+009;1.716784685850143E-001;-1.052628532052040E-001;1.780615071766079E-003;8.245882781920955E-005;
2.427833333333334E+009;1.716708540916443E-001;-1.053918674588203E-001;1.888393308036029E-003;1.573883928358555E-004;
