# Version 1.00
#
freq[Hz];re:Trc1_S11;im:Trc1_S11;re:Trc2_S21;im:Trc2_S21;
2.400000000000000E+009;1.581234931945801E-001;1.118054687976837E-001;1.916396868182346E-004;-4.796473309397697E-003;
2.400166666666667E+009;1.574875265359879E-001;1.095991805195808E-001;-6.161880446597934E-005;-4.960817284882069E-003;
2.400333333333334E+009;1.572623103857040E-001;1.075635850429535E-001;-2.083338331431150E-004;-4.804392810910940E-003;
2.400500000000000E+009;1.567955017089844E-001;1.048923507332802E-001;-4.273409722372890E-004;-4.919184837490320E-003;
2.400666666666667E+009;1.565978676080704E-001;1.023345738649368E-001;-6.686983397230506E-004;-4.855005070567131E-003;
2.400833333333334E+009;1.562927812337875E-001;9.952746331691742E-002;-7.830364047549665E-004;-4.752700682729483E-003;
2.401000000000000E+009;1.560589671134949E-001;9.680336713790894E-002;-1.050779246725142E-003;-4.714038223028183E-003;
2.401166666666667E+009;1.557245999574661E-001;9.389822930097580E-002;-1.095248037017882E-003;-4.874334670603275E-003;
2.401333333333334E+009;1.557437926530838E-001;9.110566973686218E-002;-1.304486766457558E-003;-4.689464345574379E-003;
2.401500000000000E+009;1.556866616010666E-001;8.791898190975189E-002;-1.206672168336809E-003;-4.549419973045588E-003;
2.401666666666667E+009;1.557860225439072E-001;8.516532927751541E-002;-1.466746325604618E-003;-4.525211174041033E-003;
2.401833333333334E+009;1.559552550315857E-001;8.215469866991043E-002;-1.545407343655825E-003;-4.659637343138456E-003;
2.402000000000000E+009;1.563919037580490E-001;7.921975851058960E-002;-1.600554795004427E-003;-4.671851173043251E-003;
2.402166666666667E+009;1.567790061235428E-001;7.637266814708710E-002;-1.916895038448274E-003;-4.706041887402535E-003;
2.402333333333334E+009;1.577126830816269E-001;7.329440861940384E-002;-1.993244746699929E-003;-4.608022514730692E-003;
2.402500000000000E+009;1.585092991590500E-001;7.057047635316849E-002;-2.465210389345884E-003;-4.666972439736128E-003;
2.402666666666667E+009;1.595082432031632E-001;6.789166480302811E-002;-2.737411763519049E-003;-4.723693709820509E-003;
2.402833333333334E+009;1.603824198246002E-001;6.489995121955872E-002;-2.856353996321559E-003;-4.639325197786093E-003;
2.403000000000000E+009;1.617932468652725E-001;6.221498548984528E-002;-3.070810111239553E-003;-4.587758332490921E-003;
2.403166666666667E+009;1.633863598108292E-001;5.953976511955261E-002;-3.443213645368815E-003;-4.513558000326157E-003;
2.403333333333334E+009;1.647767871618271E-001;5.714265629649162E-002;-3.646441735327244E-003;-4.387247841805220E-003;
2.403500000000000E+009;1.663949787616730E-001;5.465767532587051E-002;-4.059855826199055E-003;-4.248877521604300E-003;
2.403666666666667E+009;1.680164188146591E-001;5.244277790188789E-002;-4.395209252834320E-003;-3.952849190682173E-003;
2.403833333333334E+009;1.697807312011719E-001;5.016246438026428E-002;-4.532638005912304E-003;-3.658856963738799E-003;
2.404000000000000E+009;1.712284088134766E-001;4.814742505550385E-002;-4.774422850459814E-003;-3.321703989058733E-003;
2.404166666666667E+009;1.732084900140762E-001;4.610095545649529E-002;-5.057032220065594E-003;-2.984219230711460E-003;
2.404333333333334E+009;1.749829947948456E-001;4.420865699648857E-002;-5.142799578607082E-003;-2.538887783885002E-003;
2.404500000000000E+009;1.766152530908585E-001;4.259228333830833E-002;-5.140560679137707E-003;-2.324114553630352E-003;
2.404666666666667E+009;1.784446686506271E-001;4.107632860541344E-002;-5.018551833927631E-003;-1.785482978448272E-003;
2.404833333333334E+009;1.804362535476685E-001;3.967981040477753E-002;-5.177874583750963E-003;-1.405792892910540E-003;
2.405000000000000E+009;1.821170896291733E-001;3.885965794324875E-002;-5.283628124743700E-003;-1.126353978179395E-003;
2.405166666666667E+009;1.837128549814224E-001;3.793543949723244E-002;-5.160703323781490E-003;-7.805737550370395E-004;
2.405333333333334E+009;1.852877438068390E-001;3.716536611318588E-002;-4.812509287148714E-003;-5.331704160198569E-004;
2.405500000000000E+009;1.871275603771210E-001;3.654326125979424E-002;-4.777802620083094E-003;-4.870657576248050E-004;
2.405666666666667E+009;1.886122524738312E-001;3.600516915321350E-002;-4.685810767114162E-003;-1.504645624663681E-004;
2.405833333333334E+009;1.902405023574829E-001;3.574866801500320E-002;-4.722211044281721E-003;6.906955240992829E-005;
2.406000000000000E+009;1.915935575962067E-001;3.539287671446800E-002;-4.473187960684300E-003;3.456546110101044E-004;
2.406166666666667E+009;1.928209662437439E-001;3.514637798070908E-002;-4.463876131922007E-003;3.990254772361368E-004;
2.406333333333334E+009;1.942666321992874E-001;3.539507836103439E-002;-4.105606582015753E-003;4.588244773913175E-004;
2.406500000000000E+009;1.952987313270569E-001;3.545407950878143E-002;-4.083233419805765E-003;7.955657201819122E-004;
2.406666666666667E+009;1.962578743696213E-001;3.563748300075531E-002;-3.783462801948190E-003;9.531355462968350E-004;
2.406833333333334E+009;1.971304118633270E-001;3.575818240642548E-002;-3.641296410933137E-003;8.943615830503404E-004;
2.407000000000000E+009;1.979160904884338E-001;3.617026656866074E-002;-3.581734606996179E-003;1.139832660555840E-003;
2.407166666666667E+009;1.985211670398712E-001;3.601252287626267E-002;-3.404191462323070E-003;1.171638607047498E-003;
2.407333333333334E+009;1.987871080636978E-001;3.657928109169006E-002;-3.224913962185383E-003;1.199623104184866E-003;
2.407500000000000E+009;1.990861892700195E-001;3.697776421904564E-002;-2.948286943137646E-003;1.360137597657740E-003;
2.407666666666667E+009;1.993665844202042E-001;3.711397200822830E-002;-2.963154809549451E-003;1.236549927853048E-003;
2.407833333333334E+009;1.992233991622925E-001;3.722504898905754E-002;-2.837874926626682E-003;1.355654560029507E-003;
2.408000000000000E+009;1.994041949510574E-001;3.746030107140541E-002;-2.672214526683092E-003;1.390593010000885E-003;
2.408166666666667E+009;1.989568918943405E-001;3.753527998924255E-002;-2.565543632954359E-003;1.478148042224348E-003;
2.408333333333334E+009;1.987799406051636E-001;3.725083917379379E-002;-2.279375912621617E-003;1.358400564640760E-003;
2.408500000000000E+009;1.981681436300278E-001;3.748347982764244E-002;-2.238291082903743E-003;1.257336349226534E-003;
2.408666666666667E+009;1.975987404584885E-001;3.722535073757172E-002;-2.276657149195671E-003;1.422268804162741E-003;
2.408833333333334E+009;1.969962418079376E-001;3.685852512717247E-002;-2.131451386958361E-003;1.437324448488653E-003;
2.409000000000000E+009;1.961356699466705E-001;3.637661412358284E-002;-1.927616656757891E-003;1.371908234432340E-003;
2.409166666666667E+009;1.952276676893234E-001;3.581456840038300E-002;-1.886543352156878E-003;1.196076162159443E-003;
2.409333333333334E+009;1.940930038690567E-001;3.526848182082176E-002;-1.857939059846103E-003;1.178125385195017E-003;
2.409500000000000E+009;1.929649263620377E-001;3.429552912712097E-002;-1.764146378263831E-003;1.254400936886668E-003;
2.409666666666667E+009;1.919144093990326E-001;3.331582620739937E-002;-1.627881312742829E-003;1.133589539676905E-003;
2.409833333333334E+009;1.906418353319168E-001;3.219849616289139E-002;-1.644223346374929E-003;1.117595355026424E-003;
2.410000000000000E+009;1.895531117916107E-001;3.092257492244244E-002;-1.483650412410498E-003;1.034620101563633E-003;
2.410166666666667E+009;1.881320774555206E-001;2.929979376494885E-002;-1.371581689454615E-003;8.482841658405960E-004;
2.410333333333334E+009;1.869041919708252E-001;2.793760970234871E-002;-1.538001350127161E-003;7.485697278752923E-004;
2.410500000000000E+009;1.858043521642685E-001;2.614100836217403E-002;-1.581909949891269E-003;7.734754472039640E-004;
2.410666666666667E+009;1.845036894083023E-001;2.412209101021290E-002;-1.506375148892403E-003;6.656941841356456E-004;
2.410833333333334E+009;1.836017966270447E-001;2.207236364483833E-002;-1.520176767371595E-003;6.615401362068951E-004;
2.411000000000000E+009;1.824636608362198E-001;2.000343054533005E-002;-1.594298402778804E-003;5.844309926033020E-004;
2.411166666666667E+009;1.815915852785111E-001;1.800985820591450E-002;-1.538046635687351E-003;6.812125211581588E-004;
2.411333333333334E+009;1.806599795818329E-001;1.542822923511267E-002;-1.533272792585194E-003;4.612062475644052E-004;
2.411500000000000E+009;1.798665523529053E-001;1.316921226680279E-002;-1.730931107886136E-003;4.187934682704508E-004;
2.411666666666667E+009;1.794985383749008E-001;1.079741306602955E-002;-1.787628279998899E-003;3.764086868613958E-004;
2.411833333333334E+009;1.786575913429260E-001;8.223816752433777E-003;-1.773351687006652E-003;4.217427340336144E-004;
2.412000000000000E+009;1.786339730024338E-001;5.674743559211493E-003;-1.876348280347884E-003;4.331970121711493E-004;
2.412166666666667E+009;1.781738996505737E-001;3.132778685539961E-003;-1.887283055111766E-003;3.431114018894732E-004;
2.412333333333334E+009;1.782676726579666E-001;5.770362331531942E-004;-2.128141699358821E-003;2.802134258672595E-004;
2.412500000000000E+009;1.784327179193497E-001;-2.158145885914564E-003;-2.257038373500109E-003;2.415349590592086E-004;
2.412666666666667E+009;1.785484105348587E-001;-4.791967105120421E-003;-2.222736133262515E-003;1.633862702874467E-004;
2.412833333333334E+009;1.791216135025024E-001;-7.384864613413811E-003;-2.496883971616626E-003;3.365802986081690E-004;
2.413000000000000E+009;1.795530766248703E-001;-1.000179816037417E-002;-2.547302981838584E-003;2.910713956225663E-004;
2.413166666666667E+009;1.802222430706024E-001;-1.261162664741278E-002;-2.743448130786419E-003;4.131892928853631E-004;
2.413333333333334E+009;1.810150593519211E-001;-1.519113965332508E-002;-2.849680604413152E-003;5.003818660043180E-004;
2.413500000000000E+009;1.816757172346115E-001;-1.803842373192310E-002;-3.066848497837782E-003;5.108852637931705E-004;
2.413666666666667E+009;1.827527582645416E-001;-2.041615918278694E-002;-3.142781322821975E-003;8.500100229866803E-004;
2.413833333333334E+009;1.837310343980789E-001;-2.273482270538807E-002;-3.238862613216043E-003;1.119594322517514E-003;
2.414000000000000E+009;1.850030869245529E-001;-2.497210167348385E-002;-3.375787986442447E-003;1.391937606967986E-003;
2.414166666666667E+009;1.860826313495636E-001;-2.721292525529862E-002;-3.279652213677764E-003;1.591672888025641E-003;
2.414333333333334E+009;1.872966289520264E-001;-2.949267067015171E-002;-3.268331056460738E-003;1.775996410287917E-003;
2.414500000000000E+009;1.885085254907608E-001;-3.130872175097466E-002;-3.240246558561921E-003;2.150509273633361E-003;
2.414666666666667E+009;1.898368000984192E-001;-3.313602879643440E-002;-3.145373892039061E-003;2.159265102818608E-003;
2.414833333333334E+009;1.910408139228821E-001;-3.466168418526650E-002;-2.971316454932094E-003;2.468627179041505E-003;
2.415000000000000E+009;1.923300176858902E-001;-3.636300191283226E-002;-3.001383971422911E-003;2.720488002523780E-003;
2.415166666666667E+009;1.937928497791290E-001;-3.760140761733055E-002;-2.936382079496980E-003;2.932533854618669E-003;
2.415333333333334E+009;1.951173692941666E-001;-3.878998383879662E-002;-2.657622098922730E-003;2.976164687424898E-003;
2.415500000000000E+009;1.964969933032990E-001;-3.977717086672783E-002;-2.521534450352192E-003;3.163494169712067E-003;
2.415666666666667E+009;1.977413147687912E-001;-4.081838205456734E-002;-2.559196436777711E-003;3.226236905902624E-003;
2.415833333333334E+009;1.988647878170013E-001;-4.153138399124146E-002;-2.294521545991302E-003;3.334469161927700E-003;
2.416000000000000E+009;1.998897045850754E-001;-4.221814125776291E-002;-2.052864525467157E-003;3.574869129806757E-003;
2.416166666666667E+009;2.008777707815170E-001;-4.295600578188896E-002;-1.999228494241834E-003;3.607764840126038E-003;
2.416333333333334E+009;2.019094675779343E-001;-4.344519600272179E-002;-1.918746740557253E-003;3.755211597308517E-003;
2.416500000000000E+009;2.026735097169876E-001;-4.368038102984428E-002;-1.698644948191941E-003;3.801376093178988E-003;
2.416666666666667E+009;2.033029049634934E-001;-4.400388896465302E-002;-1.454424578696489E-003;3.985372837632895E-003;
2.416833333333334E+009;2.038012742996216E-001;-4.402488097548485E-002;-1.214717747643590E-003;3.942715935409069E-003;
2.417000000000000E+009;2.042834311723709E-001;-4.409210756421089E-002;-1.002263859845698E-003;4.168570041656494E-003;
2.417166666666667E+009;2.042715996503830E-001;-4.401698708534241E-002;-7.037164759822190E-004;4.201397299766541E-003;
2.417333333333334E+009;2.044859379529953E-001;-4.369947686791420E-002;-6.899563595652580E-004;4.109412897378206E-003;
2.417500000000000E+009;2.044045031070709E-001;-4.356391355395317E-002;-5.769361159764230E-004;4.179695621132851E-003;
2.417666666666667E+009;2.042212635278702E-001;-4.315683245658875E-002;-2.709573891479522E-004;4.142423160374165E-003;
2.417833333333334E+009;2.041638791561127E-001;-4.283742234110832E-002;2.199434129579458E-005;4.136071540415287E-003;
2.418000000000000E+009;2.037713974714279E-001;-4.232352599501610E-002;3.302797631477006E-005;4.073365125805140E-003;
2.418166666666667E+009;2.031968235969544E-001;-4.209532216191292E-002;2.499049587640911E-004;4.217451438307762E-003;
2.418333333333334E+009;2.024691551923752E-001;-4.171802103519440E-002;3.759366518352181E-004;4.042235668748617E-003;
2.418500000000000E+009;2.016721963882446E-001;-4.149500653147697E-002;4.154630878474563E-004;4.029095172882080E-003;
2.418666666666667E+009;2.008997350931168E-001;-4.098638147115707E-002;5.814958130940795E-004;4.188073333352804E-003;
2.418833333333334E+009;1.996852457523346E-001;-4.101994261145592E-002;8.239201852120459E-004;4.027841147035360E-003;
2.419000000000000E+009;1.985688805580139E-001;-4.072253406047821E-002;9.314761846326292E-004;4.175771959125996E-003;
2.419166666666667E+009;1.973004192113876E-001;-4.078258946537972E-002;9.774974314495921E-004;3.923573531210423E-003;
2.419333333333334E+009;1.959122866392136E-001;-4.093311354517937E-002;1.346489763818681E-003;3.892271779477596E-003;
2.419500000000000E+009;1.943959295749664E-001;-4.097192361950874E-002;1.497413963079453E-003;3.825940657407045E-003;
2.419666666666667E+009;1.928878277540207E-001;-4.141160100698471E-002;1.783040235750377E-003;3.892081324011087E-003;
2.419833333333334E+009;1.911306828260422E-001;-4.189527779817581E-002;1.934360247105360E-003;3.828026819974184E-003;
2.420000000000000E+009;1.893769353628159E-001;-4.241421818733215E-002;2.097034128382802E-003;3.603933146223426E-003;
2.420166666666667E+009;1.876842379570007E-001;-4.303774982690811E-002;2.271675970405340E-003;3.553530666977167E-003;
2.420333333333334E+009;1.858252584934235E-001;-4.400488734245300E-002;2.416696166619659E-003;3.326229518279433E-003;
2.420500000000000E+009;1.840468645095825E-001;-4.498013108968735E-002;2.416257979348302E-003;3.116845153272152E-003;
2.420666666666667E+009;1.822067350149155E-001;-4.613038897514343E-002;2.460211748257279E-003;3.058880101889372E-003;
2.420833333333334E+009;1.802417486906052E-001;-4.723998904228210E-002;2.467899816110730E-003;2.892002929002047E-003;
2.421000000000000E+009;1.785309016704559E-001;-4.859444871544838E-002;2.583436667919159E-003;2.636298537254334E-003;
2.421166666666667E+009;1.768318712711334E-001;-5.016207695007324E-002;2.589542185887694E-003;2.493116771802306E-003;
2.421333333333334E+009;1.748245060443878E-001;-5.154071375727654E-002;2.638169331476092E-003;2.311269519850612E-003;
2.421500000000000E+009;1.734035015106201E-001;-5.352278053760529E-002;2.652092836797237E-003;2.228559693321586E-003;
2.421666666666667E+009;1.717247962951660E-001;-5.522068217396736E-002;2.753253094851971E-003;2.085919026285410E-003;
2.421833333333334E+009;1.702551245689392E-001;-5.703762918710709E-002;2.655219053849578E-003;2.082116436213255E-003;
2.422000000000000E+009;1.688953787088394E-001;-5.895534157752991E-002;2.545026130974293E-003;1.875335350632668E-003;
2.422166666666667E+009;1.677634119987488E-001;-6.124293059110642E-002;2.702498342841864E-003;1.813330803997815E-003;
2.422333333333334E+009;1.664460301399231E-001;-6.341982632875443E-002;2.699322300031781E-003;1.820365199819207E-003;
2.422500000000000E+009;1.653397679328919E-001;-6.545300036668778E-002;2.563511952757835E-003;1.630036043934524E-003;
2.422666666666667E+009;1.644132733345032E-001;-6.756864488124847E-002;2.764789387583733E-003;1.471480121836066E-003;
2.422833333333334E+009;1.636564731597900E-001;-6.974286586046219E-002;2.725081518292427E-003;1.385609968565404E-003;
2.423000000000000E+009;1.628877073526382E-001;-7.193733006715775E-002;2.785003511235118E-003;1.317685004323721E-003;
2.423166666666667E+009;1.624041944742203E-001;-7.426216453313828E-002;2.732527907937765E-003;1.052418723702431E-003;
2.423333333333334E+009;1.619882434606552E-001;-7.649391144514084E-002;2.641219645738602E-003;1.123804599046707E-003;
2.423500000000000E+009;1.617470681667328E-001;-7.852184772491455E-002;2.844900125637651E-003;9.285330888815224E-004;
2.423666666666667E+009;1.616436839103699E-001;-8.057105541229248E-002;2.784914569929242E-003;8.341699140146375E-004;
2.423833333333334E+009;1.614675819873810E-001;-8.271779119968414E-002;2.661516424268484E-003;7.356079295277596E-004;
2.424000000000000E+009;1.615741103887558E-001;-8.479604125022888E-002;2.721082186326385E-003;6.629836279898882E-004;
2.424166666666667E+009;1.614652574062347E-001;-8.664936572313309E-002;2.563276328146458E-003;5.642766482196748E-004;
2.424333333333334E+009;1.619517505168915E-001;-8.848177641630173E-002;2.418854972347617E-003;3.270751039963216E-004;
2.424500000000000E+009;1.622845530509949E-001;-9.050776809453964E-002;2.523839473724365E-003;4.741090815514326E-004;
2.424666666666667E+009;1.626614779233933E-001;-9.218309819698334E-002;2.532987389713526E-003;2.142992452718318E-004;
2.424833333333334E+009;1.633926033973694E-001;-9.378369152545929E-002;2.330398187041283E-003;1.075197869795375E-004;
2.425000000000000E+009;1.638104468584061E-001;-9.521500021219254E-002;2.250420395284891E-003;2.017046790570021E-004;
2.425166666666667E+009;1.642429083585739E-001;-9.666262567043304E-002;2.316920086741447E-003;6.797845708206296E-005;
2.425333333333334E+009;1.648717522621155E-001;-9.799410402774811E-002;2.208518795669079E-003;6.612997094634920E-005;
2.425500000000000E+009;1.655839383602142E-001;-9.922713041305542E-002;2.025163499638438E-003;-3.284690683358349E-005;
2.425666666666667E+009;1.661474704742432E-001;-1.001986190676689E-001;1.940796035341919E-003;-3.329960964038037E-005;
2.425833333333334E+009;1.667231321334839E-001;-1.010996922850609E-001;1.844104263000190E-003;-5.371444058255293E-005;
2.426000000000000E+009;1.675175875425339E-001;-1.018493920564652E-001;1.861090655438602E-003;-5.806858825962991E-005;
2.426166666666667E+009;1.681792140007019E-001;-1.024730205535889E-001;1.747644157148898E-003;-4.411748523125425E-005;
2.426333333333334E+009;1.686519831418991E-001;-1.032111495733261E-001;1.801426056772471E-003;1.980040178750642E-005;
2.426500000000000E+009;1.693663597106934E-001;-1.036548987030983E-001;1.701320754364133E-003;-7.114344043657184E-006;
2.426666666666667E+009;1.699588745832443E-001;-1.040453016757965E-001;1.751181553117931E-003;5.750958371208981E-005;
2.426833333333334E+009;1.705529987812042E-001;-1.045156344771385E-001;1.692029065452516E-003;2.108036132995039E-004;
2.427000000000000E+009;1.709769815206528E-001;-1.046626791357994E-001;1.690348261035979E-003;1.685061579337344E-004;
2.427166666666667E+009;1.713597327470779E-001;-1.048574820160866E-001;1.766719855368137E-003;1.216285454574972E-004;
2.427333333333334E+009;1.715525984764099E-001;-1.050778403878212E-001;1.709876814857125E-003;2.354512253077701E-004;
2.427500000000000E+009;1.716467589139938E-001;-1.051786392927170E-001;1.754840952344239E-003;2.051883784588426E-004;
2.427666666666667E+009;1.717043370008469E-001;-1.052576079964638E-001;1.806477783247829E-003;1.035527093335986E-004;
2.427833333333334E+009;1.716773211956024E-001;-1.052847951650620E-001;1.918911351822317E-003;1.655156665947288E-004;
