# Version 1.00
#
freq[Hz];re:Trc1_S11;im:Trc1_S11;re:Trc2_S21;im:Trc2_S21;
2.400000000000000E+009;1.552542299032211E-001;1.108081266283989E-001;-1.256383140571415E-003;2.656168304383755E-003;
2.400166666666667E+009;1.546363085508347E-001;1.084545329213142E-001;-1.199793070554733E-003;2.592481905594468E-003;
2.400333333333334E+009;1.545024067163467E-001;1.061909273266792E-001;-9.679580107331276E-004;2.763657364994288E-003;
2.400500000000000E+009;1.542439013719559E-001;1.035638079047203E-001;-1.026045298203826E-003;2.792238490656018E-003;
2.400666666666667E+009;1.539404690265656E-001;1.011153161525726E-001;-8.662113104946911E-004;2.762622432783246E-003;
2.400833333333334E+009;1.538114100694656E-001;9.826914221048355E-002;-7.626741426065564E-004;2.814275911077857E-003;
2.401000000000000E+009;1.537278294563294E-001;9.541193395853043E-002;-7.155496277846396E-004;2.828434109687805E-003;
2.401166666666667E+009;1.535816937685013E-001;9.255150705575943E-002;-5.079301190562546E-004;2.817738102748990E-003;
2.401333333333334E+009;1.535924822092056E-001;8.960303664207459E-002;-4.046750254929066E-004;2.972850343212485E-003;
2.401500000000000E+009;1.538443118333817E-001;8.660310506820679E-002;-3.721428511198610E-004;2.898274920880795E-003;
2.401666666666667E+009;1.540593653917313E-001;8.382607251405716E-002;-1.293523964704946E-004;2.978927688673139E-003;
2.401833333333334E+009;1.541482210159302E-001;8.079056441783905E-002;-1.086668853531592E-004;2.964670304208994E-003;
2.402000000000000E+009;1.550496369600296E-001;7.778883725404739E-002;9.849259367911145E-005;3.149513155221939E-003;
2.402166666666667E+009;1.556755602359772E-001;7.498046010732651E-002;3.046779602300376E-004;3.139066044241190E-003;
2.402333333333334E+009;1.564569622278214E-001;7.191635668277741E-002;4.995692870579660E-004;3.017196198925376E-003;
2.402500000000000E+009;1.573477089405060E-001;6.927617639303207E-002;8.845665724948049E-004;3.241626312956214E-003;
2.402666666666667E+009;1.585223674774170E-001;6.660045683383942E-002;1.013828907161951E-003;2.958533586934209E-003;
2.402833333333334E+009;1.595080792903900E-001;6.372027844190598E-002;1.238105935044587E-003;2.759611699730158E-003;
2.403000000000000E+009;1.611225008964539E-001;6.128674745559692E-002;1.424817950464785E-003;2.783742267638445E-003;
2.403166666666667E+009;1.629274934530258E-001;5.882660672068596E-002;1.669679419137538E-003;2.612727694213390E-003;
2.403333333333334E+009;1.641598343849182E-001;5.634577199816704E-002;1.984504982829094E-003;2.498269546777010E-003;
2.403500000000000E+009;1.659676879644394E-001;5.423486232757568E-002;2.193847903981805E-003;2.296040067449212E-003;
2.403666666666667E+009;1.677863299846649E-001;5.193388834595680E-002;2.272762358188629E-003;1.950620091520250E-003;
2.403833333333334E+009;1.695344895124435E-001;4.993520304560661E-002;2.557502826675773E-003;1.707089366391301E-003;
2.404000000000000E+009;1.710176914930344E-001;4.785821586847305E-002;2.483264077454805E-003;1.200842903926969E-003;
2.404166666666667E+009;1.730860620737076E-001;4.626042395830154E-002;2.517459448426962E-003;9.966129437088966E-004;
2.404333333333334E+009;1.747445464134216E-001;4.447081312537193E-002;2.373361261561513E-003;5.890689790248871E-004;
2.404500000000000E+009;1.765505522489548E-001;4.297490790486336E-002;2.220352878794074E-003;3.044665209017694E-004;
2.404666666666667E+009;1.785639226436615E-001;4.171682894229889E-002;1.892137224785984E-003;-2.416385723336134E-005;
2.404833333333334E+009;1.803516596555710E-001;4.056288674473763E-002;1.870686421170831E-003;1.140149925049627E-005;
2.405000000000000E+009;1.819716095924377E-001;3.975176811218262E-002;1.687803072854877E-003;-3.011009539477527E-004;
2.405166666666667E+009;1.836468726396561E-001;3.885739669203758E-002;1.472654985263944E-003;-3.536547592375428E-004;
2.405333333333334E+009;1.851995438337326E-001;3.846222162246704E-002;1.143357134424150E-003;-3.496392164379358E-004;
2.405500000000000E+009;1.870133876800537E-001;3.791182860732079E-002;9.401188581250608E-004;-4.708771884907037E-004;
2.405666666666667E+009;1.884165108203888E-001;3.752300515770912E-002;9.325985447503626E-004;-2.864302077796310E-004;
2.405833333333334E+009;1.900307387113571E-001;3.728817403316498E-002;7.865161751396954E-004;-5.086794262751937E-004;
2.406000000000000E+009;1.911940127611160E-001;3.717094659805298E-002;5.107052857056260E-004;-5.245294887572527E-004;
2.406166666666667E+009;1.925896853208542E-001;3.715118020772934E-002;4.870257980655879E-004;-5.491047049872577E-004;
2.406333333333334E+009;1.936819702386856E-001;3.724833577871323E-002;3.399767738301307E-004;-3.121722838841379E-004;
2.406500000000000E+009;1.946724355220795E-001;3.736197575926781E-002;1.641530689084902E-004;-4.712562658824027E-004;
2.406666666666667E+009;1.955153793096542E-001;3.748537600040436E-002;1.463614462409169E-004;-4.980250960215926E-004;
2.406833333333334E+009;1.963482052087784E-001;3.776597604155541E-002;-1.567149447510019E-004;-4.480280913412571E-004;
2.407000000000000E+009;1.968236714601517E-001;3.821057453751564E-002;-1.459395571146160E-004;-4.922893713228405E-004;
2.407166666666667E+009;1.974659562110901E-001;3.827704116702080E-002;-2.673014823812991E-004;-2.711867564357817E-004;
2.407333333333334E+009;1.976365894079208E-001;3.862600028514862E-002;-5.271638510748744E-004;-2.166363847209141E-004;
2.407500000000000E+009;1.976705491542816E-001;3.906039893627167E-002;-5.756251630373299E-004;-8.001451351447031E-005;
2.407666666666667E+009;1.977985501289368E-001;3.937056660652161E-002;-7.332450477406383E-004;9.131449769483879E-005;
2.407833333333334E+009;1.975192427635193E-001;3.956701606512070E-002;-8.031916804611683E-004;2.584540343377739E-004;
2.408000000000000E+009;1.975706368684769E-001;3.971215337514877E-002;-9.713020408526063E-004;3.232593298889697E-004;
2.408166666666667E+009;1.970292478799820E-001;3.986017405986786E-002;-9.458730928599834E-004;5.976117099635303E-004;
2.408333333333334E+009;1.965554803609848E-001;3.961869701743126E-002;-8.912536432035267E-004;6.340297404676676E-004;
2.408500000000000E+009;1.959136575460434E-001;3.972200304269791E-002;-8.720969781279564E-004;8.471457404084504E-004;
2.408666666666667E+009;1.952327787876129E-001;3.953615948557854E-002;-9.633144945837557E-004;1.080651418305934E-003;
2.408833333333334E+009;1.945838928222656E-001;3.914584591984749E-002;-9.983966592699289E-004;1.198323443531990E-003;
2.409000000000000E+009;1.936331838369370E-001;3.858079761266708E-002;-8.317085448652506E-004;1.360963680781424E-003;
2.409166666666667E+009;1.926922649145126E-001;3.788514062762260E-002;-7.331831729970872E-004;1.520485733635724E-003;
2.409333333333334E+009;1.915145516395569E-001;3.728456795215607E-002;-6.668376154266298E-004;1.680348184891045E-003;
2.409500000000000E+009;1.905776709318161E-001;3.621685132384300E-002;-7.116669439710677E-004;1.864923164248467E-003;
2.409666666666667E+009;1.890370994806290E-001;3.510731086134911E-002;-4.735022666864097E-004;1.887897029519081E-003;
2.409833333333334E+009;1.879995614290237E-001;3.379414975643158E-002;-2.747558755800128E-004;2.056909957900643E-003;
2.410000000000000E+009;1.869110018014908E-001;3.239040076732636E-002;-2.727672690525651E-004;2.187814330682159E-003;
2.410166666666667E+009;1.855577528476715E-001;3.076339699327946E-002;-5.810462607769296E-005;2.122821053490043E-003;
2.410333333333334E+009;1.844135820865631E-001;2.901931665837765E-002;1.296366972383112E-004;2.203807700425386E-003;
2.410500000000000E+009;1.831608265638351E-001;2.751508541405201E-002;3.062417963519692E-004;2.425158629193902E-003;
2.410666666666667E+009;1.821421533823013E-001;2.539198286831379E-002;3.177007602062076E-004;2.448259619995952E-003;
2.410833333333334E+009;1.812729388475418E-001;2.314101345837116E-002;4.267639887984842E-004;2.362396102398634E-003;
2.411000000000000E+009;1.801491528749466E-001;2.108658663928509E-002;5.363419768400490E-004;2.434475580230355E-003;
2.411166666666667E+009;1.794939190149307E-001;1.900847256183624E-002;5.714371218346059E-004;2.623690059408546E-003;
2.411333333333334E+009;1.787443161010742E-001;1.638930663466454E-002;7.733666570857167E-004;2.610143274068832E-003;
2.411500000000000E+009;1.780245900154114E-001;1.400745939463377E-002;1.011831220239401E-003;2.482062438502908E-003;
2.411666666666667E+009;1.777380853891373E-001;1.163233537226915E-002;1.045076060108841E-003;2.599834231659770E-003;
2.411833333333334E+009;1.770020276308060E-001;9.179245680570602E-003;1.240458805114031E-003;2.597861224785447E-003;
2.412000000000000E+009;1.771294474601746E-001;6.272762548178434E-003;1.550819491967559E-003;2.799584995955229E-003;
2.412166666666667E+009;1.770355850458145E-001;3.803492989391089E-003;1.813772018067539E-003;2.593560144305229E-003;
2.412333333333334E+009;1.769780516624451E-001;1.291735563427210E-003;1.896167173981667E-003;2.660197904333472E-003;
2.412500000000000E+009;1.775367110967636E-001;-1.432757009752095E-003;2.239578636363149E-003;2.486149081960321E-003;
2.412666666666667E+009;1.777781397104263E-001;-4.215985070914030E-003;2.494717016816139E-003;2.501196460798383E-003;
2.412833333333334E+009;1.784635931253433E-001;-6.677426863461733E-003;2.559328218922019E-003;2.438680035993457E-003;
2.413000000000000E+009;1.790111064910889E-001;-9.189957752823830E-003;2.935897558927536E-003;2.156549599021673E-003;
2.413166666666667E+009;1.798502653837204E-001;-1.160037145018578E-002;3.183005610480905E-003;2.021776977926493E-003;
2.413333333333334E+009;1.807631701231003E-001;-1.429244223982096E-002;3.447969211265445E-003;1.855368376709521E-003;
2.413500000000000E+009;1.816587597131729E-001;-1.678172498941422E-002;3.702512476593256E-003;1.589630614034832E-003;
2.413666666666667E+009;1.829756498336792E-001;-1.923411525785923E-002;3.748917020857334E-003;1.169782364740968E-003;
2.413833333333334E+009;1.840133816003799E-001;-2.149298787117004E-002;3.841707715764642E-003;1.027640420943499E-003;
2.414000000000000E+009;1.853416711091995E-001;-2.369045466184616E-002;3.976369742304087E-003;7.172891637310386E-004;
2.414166666666667E+009;1.866869777441025E-001;-2.579382434487343E-002;4.047506954520941E-003;3.074493724852800E-004;
2.414333333333334E+009;1.878885030746460E-001;-2.792743034660816E-002;4.087353125214577E-003;-8.711085683899000E-005;
2.414500000000000E+009;1.893689185380936E-001;-2.941672690212727E-002;4.090044647455216E-003;-3.841757716145366E-004;
2.414666666666667E+009;1.907029002904892E-001;-3.137549012899399E-002;3.793371608480811E-003;-7.152560865506530E-004;
2.414833333333334E+009;1.921998858451843E-001;-3.282075747847557E-002;3.563579870387912E-003;-7.576941279694438E-004;
2.415000000000000E+009;1.935531497001648E-001;-3.448131307959557E-002;3.472204552963376E-003;-1.153040095232427E-003;
2.415166666666667E+009;1.950791925191879E-001;-3.568059206008911E-002;3.374365856871009E-003;-1.325965160503984E-003;
2.415333333333334E+009;1.965194642543793E-001;-3.681169822812080E-002;3.130373312160373E-003;-1.621657516807318E-003;
2.415500000000000E+009;1.977846175432205E-001;-3.767185285687447E-002;3.081925911828876E-003;-1.752770971506834E-003;
2.415666666666667E+009;1.990794688463211E-001;-3.866180032491684E-002;2.893784549087286E-003;-1.820818055421114E-003;
2.415833333333334E+009;2.003307938575745E-001;-3.938690945506096E-002;2.630926668643951E-003;-2.032769611105323E-003;
2.416000000000000E+009;2.014862149953842E-001;-4.009243100881577E-002;2.481113653630018E-003;-2.005255781114101E-003;
2.416166666666667E+009;2.025147974491119E-001;-4.072333127260208E-002;2.320193452760577E-003;-2.078775549307466E-003;
2.416333333333334E+009;2.034426629543304E-001;-4.108589515089989E-002;1.981075620278716E-003;-2.313732635229826E-003;
2.416500000000000E+009;2.042878866195679E-001;-4.138078913092613E-002;1.760034356266260E-003;-2.211045240983367E-003;
2.416666666666667E+009;2.048659473657608E-001;-4.169034585356712E-002;1.724342117086053E-003;-2.241613576188684E-003;
2.416833333333334E+009;2.052948325872421E-001;-4.170684143900871E-002;1.671343576163054E-003;-2.263857051730156E-003;
2.417000000000000E+009;2.056644111871719E-001;-4.184040427207947E-002;1.432328484952450E-003;-2.455630106851459E-003;
2.417166666666667E+009;2.056789547204971E-001;-4.166912660002708E-002;1.300492906011641E-003;-2.403066027909517E-003;
2.417333333333334E+009;2.058308571577072E-001;-4.134253039956093E-002;1.005153055302799E-003;-2.365484600886703E-003;
2.417500000000000E+009;2.056906819343567E-001;-4.124227911233902E-002;8.602532325312495E-004;-2.242295304313302E-003;
2.417666666666667E+009;2.053937762975693E-001;-4.091650247573853E-002;6.579117616638541E-004;-2.257291693240404E-003;
2.417833333333334E+009;2.053180634975433E-001;-4.069920256733894E-002;7.890338310971856E-004;-2.286719158291817E-003;
2.418000000000000E+009;2.047169804573059E-001;-4.017927497625351E-002;4.484134260565043E-004;-2.126894891262054E-003;
2.418166666666667E+009;2.041544467210770E-001;-3.993513435125351E-002;3.300587122794241E-004;-1.908796839416027E-003;
2.418333333333334E+009;2.034176886081696E-001;-3.958183526992798E-002;3.541347978170961E-004;-1.897551352158189E-003;
2.418500000000000E+009;2.025643438100815E-001;-3.946219757199287E-002;2.879245148506016E-004;-1.877215923741460E-003;
2.418666666666667E+009;2.016819119453430E-001;-3.911146149039269E-002;6.397502147592604E-005;-1.663994742557406E-003;
2.418833333333334E+009;2.004768997430801E-001;-3.905789926648140E-002;-1.137556246249005E-004;-1.557250740006566E-003;
2.419000000000000E+009;1.992512941360474E-001;-3.918225690722466E-002;-3.315801222925074E-005;-1.361072296276689E-003;
2.419166666666667E+009;1.980570107698441E-001;-3.925307095050812E-002;-1.561394310556352E-004;-1.442132284864783E-003;
2.419333333333334E+009;1.966218352317810E-001;-3.949191421270371E-002;-1.979105290956795E-004;-1.082050264813006E-003;
2.419500000000000E+009;1.950716972351074E-001;-3.978436440229416E-002;-1.375470601487905E-004;-1.002570614218712E-003;
2.419666666666667E+009;1.934664398431778E-001;-4.039156436920166E-002;-8.326565875904635E-005;-7.758235442452133E-004;
2.419833333333334E+009;1.917639076709747E-001;-4.091666638851166E-002;-4.125773557461798E-005;-7.631066255271435E-004;
2.420000000000000E+009;1.900475621223450E-001;-4.156613722443581E-002;1.718877865641844E-005;-5.975812673568726E-004;
2.420166666666667E+009;1.882819980382919E-001;-4.251257702708244E-002;9.118203161051497E-005;-5.512495990842581E-004;
2.420333333333334E+009;1.865454763174057E-001;-4.329760372638702E-002;8.402043022215366E-005;-5.639711162075400E-004;
2.420500000000000E+009;1.847735792398453E-001;-4.464268684387207E-002;1.809158420655876E-004;-4.686552856583148E-004;
2.420666666666667E+009;1.828718185424805E-001;-4.570848867297173E-002;3.773352364078164E-004;-2.044019929599017E-004;
2.420833333333334E+009;1.810195595026016E-001;-4.721848294138908E-002;4.676782700698823E-004;-2.538310945965350E-004;
2.421000000000000E+009;1.794149130582809E-001;-4.875420406460762E-002;6.606542156077921E-004;-1.302943710470572E-004;
2.421166666666667E+009;1.776913255453110E-001;-5.056222900748253E-002;7.861282792873681E-004;-1.675163221079856E-004;
2.421333333333334E+009;1.757918298244476E-001;-5.201013013720512E-002;8.971933857537806E-004;-3.074621781706810E-004;
2.421500000000000E+009;1.742874383926392E-001;-5.411215499043465E-002;1.098481006920338E-003;-2.374510950176045E-004;
2.421666666666667E+009;1.728676706552506E-001;-5.585744976997376E-002;1.113513368181884E-003;-2.728273393586278E-004;
2.421833333333334E+009;1.713620722293854E-001;-5.792924389243126E-002;1.218737801536918E-003;-4.209100152365863E-004;
2.422000000000000E+009;1.698868572711945E-001;-5.987554043531418E-002;1.256679417565465E-003;-3.870603686664254E-004;
2.422166666666667E+009;1.689484566450119E-001;-6.217877939343453E-002;1.413234625943005E-003;-5.941890995018184E-004;
2.422333333333334E+009;1.678971499204636E-001;-6.441214680671692E-002;1.530264504253864E-003;-6.194063462316990E-004;
2.422500000000000E+009;1.666770726442337E-001;-6.640525907278061E-002;1.366451615467668E-003;-7.733969832770526E-004;
2.422666666666667E+009;1.659820824861527E-001;-6.871985644102097E-002;1.553498092107475E-003;-7.834185962565243E-004;
2.422833333333334E+009;1.651796102523804E-001;-7.099877297878265E-002;1.675065606832504E-003;-1.107262214645743E-003;
2.423000000000000E+009;1.644817292690277E-001;-7.314259558916092E-002;1.584373530931771E-003;-1.243502949364483E-003;
2.423166666666667E+009;1.641198992729187E-001;-7.543186843395233E-002;1.657247659750283E-003;-1.169742201454938E-003;
2.423333333333334E+009;1.636982858181000E-001;-7.765475660562515E-002;1.712160184979439E-003;-1.359215006232262E-003;
2.423500000000000E+009;1.634182780981064E-001;-7.972741127014160E-002;1.730458228848875E-003;-1.425686990842223E-003;
2.423666666666667E+009;1.634118407964706E-001;-8.201113343238831E-002;1.771034789271653E-003;-1.628348371013999E-003;
2.423833333333334E+009;1.632548719644547E-001;-8.389351516962051E-002;1.706702751107514E-003;-1.837250078096986E-003;
2.424000000000000E+009;1.634871512651444E-001;-8.589665591716766E-002;1.692502875812352E-003;-1.880135503597558E-003;
2.424166666666667E+009;1.635462045669556E-001;-8.765483647584915E-002;1.730412361212075E-003;-2.008397132158279E-003;
2.424333333333334E+009;1.638751029968262E-001;-8.959446847438812E-002;1.761465682648122E-003;-2.234388142824173E-003;
2.424500000000000E+009;1.640424132347107E-001;-9.149864315986633E-002;1.809065928682685E-003;-2.421152545139194E-003;
2.424666666666667E+009;1.646285653114319E-001;-9.312400966882706E-002;1.532753813080490E-003;-2.609570743516088E-003;
2.424833333333334E+009;1.652548760175705E-001;-9.479874372482300E-002;1.608618185855448E-003;-2.846121089532971E-003;
2.425000000000000E+009;1.656858772039414E-001;-9.616512060165405E-002;1.428923453204334E-003;-2.976469695568085E-003;
2.425166666666667E+009;1.660200059413910E-001;-9.751074761152268E-002;1.247024280019105E-003;-3.250574227422476E-003;
2.425333333333334E+009;1.666174083948135E-001;-9.856049716472626E-002;1.076809596270323E-003;-3.281116019934416E-003;
2.425500000000000E+009;1.672472506761551E-001;-9.969823062419891E-002;7.682648138143122E-004;-3.675222164019942E-003;
2.425666666666667E+009;1.678789407014847E-001;-1.005916744470596E-001;7.978226058185101E-004;-3.547526663169265E-003;
2.425833333333334E+009;1.683450639247894E-001;-1.016437932848930E-001;4.621140542440116E-004;-3.745420835912228E-003;
2.426000000000000E+009;1.690249294042587E-001;-1.021451056003571E-001;2.597915299702436E-004;-3.759717568755150E-003;
2.426166666666667E+009;1.696488112211227E-001;-1.028289124369621E-001;-1.197847541334340E-005;-3.980935551226139E-003;
2.426333333333334E+009;1.698825061321259E-001;-1.034600734710693E-001;-1.982660323847085E-004;-3.937273286283016E-003;
2.426500000000000E+009;1.705602556467056E-001;-1.036894693970680E-001;-2.787118719425052E-004;-3.936737310141325E-003;
2.426666666666667E+009;1.710817515850067E-001;-1.041437759995461E-001;-6.400817073881626E-004;-3.936561290174723E-003;
2.426833333333334E+009;1.714827418327332E-001;-1.043528243899345E-001;-8.328684489242733E-004;-3.909864462912083E-003;
2.427000000000000E+009;1.717693954706192E-001;-1.045697331428528E-001;-9.860011050477624E-004;-3.806684166193008E-003;
2.427166666666667E+009;1.719666123390198E-001;-1.045179739594460E-001;-1.165288733318448E-003;-3.842714708298445E-003;
2.427333333333334E+009;1.720485389232636E-001;-1.047850102186203E-001;-1.336033921688795E-003;-3.766714362427592E-003;
2.427500000000000E+009;1.720768064260483E-001;-1.048057898879051E-001;-1.615927438251674E-003;-3.819475416094065E-003;
2.427666666666667E+009;1.720519065856934E-001;-1.048436909914017E-001;-1.947724842466414E-003;-3.613931126892567E-003;
2.427833333333334E+009;1.717493236064911E-001;-1.048368215560913E-001;-1.886220881715417E-003;-3.691921243444085E-003;
