# Version 1.00
#
freq[Hz];re:Trc1_S11;im:Trc1_S11;re:Trc2_S21;im:Trc2_S21;
2.400000000000000E+009;1.553602218627930E-001;1.115928143262863E-001;-9.130788384936750E-004;2.312330063432455E-003;
2.400166666666667E+009;1.549040377140045E-001;1.092309281229973E-001;-9.679019567556679E-004;2.132383640855551E-003;
2.400333333333334E+009;1.547459661960602E-001;1.066124513745308E-001;-1.045914483256638E-003;2.140853554010391E-003;
2.400500000000000E+009;1.543585658073425E-001;1.042977347970009E-001;-8.331902790814638E-004;1.988731324672699E-003;
2.400666666666667E+009;1.543844491243362E-001;1.020090803503990E-001;-8.283464703708887E-004;1.977081643417478E-003;
2.400833333333334E+009;1.537531316280365E-001;9.904936701059341E-002;-1.015387941151857E-003;1.997079001739621E-003;
2.401000000000000E+009;1.536269336938858E-001;9.586829692125320E-002;-7.762972381897271E-004;1.875290181487799E-003;
2.401166666666667E+009;1.538058370351791E-001;9.318486601114273E-002;-8.354119490832090E-004;1.844718935899437E-003;
2.401333333333334E+009;1.534157544374466E-001;9.028420597314835E-002;-8.853162871673703E-004;2.104166662320495E-003;
2.401500000000000E+009;1.540391743183136E-001;8.723542839288712E-002;-7.626949809491634E-004;2.017810242250562E-003;
2.401666666666667E+009;1.542838811874390E-001;8.426300436258316E-002;-8.611391531303525E-004;2.121146535500884E-003;
2.401833333333334E+009;1.544058471918106E-001;8.146464824676514E-002;-8.787057595327497E-004;2.129698405042291E-003;
2.402000000000000E+009;1.552598327398300E-001;7.842470705509186E-002;-6.587526877410710E-004;2.335587050765753E-003;
2.402166666666667E+009;1.558745503425598E-001;7.567451894283295E-002;-7.025432423688471E-004;2.431467873975635E-003;
2.402333333333334E+009;1.568199396133423E-001;7.260543853044510E-002;-6.585529190488160E-004;2.557906787842512E-003;
2.402500000000000E+009;1.578887253999710E-001;6.984279304742813E-002;-3.605076635722071E-004;2.582194749265909E-003;
2.402666666666667E+009;1.587313562631607E-001;6.709838658571243E-002;-2.939042169600725E-004;2.679521217942238E-003;
2.402833333333334E+009;1.601079553365707E-001;6.441920995712280E-002;-8.646881906315684E-005;2.723378129303455E-003;
2.403000000000000E+009;1.615023463964462E-001;6.193884462118149E-002;7.165219722082838E-005;2.712954999879003E-003;
2.403166666666667E+009;1.629673093557358E-001;5.951987579464912E-002;9.093215339817107E-005;2.512827282771468E-003;
2.403333333333334E+009;1.645365208387375E-001;5.684033408761025E-002;3.738977538887411E-004;2.469794359058142E-003;
2.403500000000000E+009;1.662601083517075E-001;5.467243492603302E-002;6.661572842858732E-004;2.322086133062840E-003;
2.403666666666667E+009;1.683339029550552E-001;5.242810770869255E-002;8.797976188361645E-004;2.196286804974079E-003;
2.403833333333334E+009;1.699197739362717E-001;5.046868324279785E-002;8.508691680617631E-004;1.939586712978780E-003;
2.404000000000000E+009;1.716201007366180E-001;4.819210618734360E-002;1.073701190762222E-003;1.732140197418630E-003;
2.404166666666667E+009;1.734113246202469E-001;4.674805328249931E-002;9.565476211719215E-004;1.561203855089843E-003;
2.404333333333334E+009;1.753589510917664E-001;4.493886604905129E-002;1.009536907076836E-003;1.388579607009888E-003;
2.404500000000000E+009;1.770453006029129E-001;4.338749498128891E-002;9.308998123742640E-004;1.327378326095641E-003;
2.404666666666667E+009;1.790132969617844E-001;4.211362078785896E-002;7.355987909249961E-004;1.142396591603756E-003;
2.404833333333334E+009;1.807884126901627E-001;4.077931866049767E-002;7.092519081197679E-004;1.013723202049732E-003;
2.405000000000000E+009;1.823580414056778E-001;4.007358849048615E-002;5.780208157375455E-004;1.159856212325394E-003;
2.405166666666667E+009;1.840461790561676E-001;3.923758491873741E-002;4.009261610917747E-004;1.068483805283904E-003;
2.405333333333334E+009;1.858221441507340E-001;3.862558305263519E-002;3.207683039363474E-004;1.039417111314833E-003;
2.405500000000000E+009;1.875484734773636E-001;3.815437853336334E-002;2.836633648257703E-004;1.011341810226440E-003;
2.405666666666667E+009;1.890142560005188E-001;3.769649565219879E-002;1.374624407617375E-004;1.028895494528115E-003;
2.405833333333334E+009;1.905042380094528E-001;3.745828941464424E-002;1.466874382458627E-004;1.257302705198526E-003;
2.406000000000000E+009;1.918240338563919E-001;3.735331818461418E-002;1.382513801218011E-005;1.159675884991884E-003;
2.406166666666667E+009;1.930498182773590E-001;3.716855496168137E-002;6.009128264850006E-005;1.096760854125023E-003;
2.406333333333334E+009;1.942585110664368E-001;3.735312074422836E-002;6.007533011143096E-005;1.158888568170369E-003;
2.406500000000000E+009;1.953425258398056E-001;3.742032498121262E-002;1.665711752139032E-004;1.106664887629449E-003;
2.406666666666667E+009;1.961618661880493E-001;3.773048892617226E-002;4.203613571007736E-005;1.317778951488435E-003;
2.406833333333334E+009;1.969191133975983E-001;3.791197389364243E-002;-5.995290484861471E-005;1.311275176703930E-003;
2.407000000000000E+009;1.975302696228027E-001;3.822463005781174E-002;-1.809944224078208E-004;1.320437993854284E-003;
2.407166666666667E+009;1.980764418840408E-001;3.828445449471474E-002;-1.349887752439827E-004;1.413478283211589E-003;
2.407333333333334E+009;1.981498003005981E-001;3.870731964707375E-002;9.085141937248409E-005;1.438327832147479E-003;
2.407500000000000E+009;1.982194036245346E-001;3.906606510281563E-002;-1.669739140197635E-004;1.488450565375388E-003;
2.407666666666667E+009;1.984491348266602E-001;3.917143866419792E-002;-1.948583667399362E-004;1.587943872436881E-003;
2.407833333333334E+009;1.981838047504425E-001;3.935218974947929E-002;-2.536949177738279E-004;1.678259694017470E-003;
2.408000000000000E+009;1.980982571840286E-001;3.956450521945953E-002;-5.781554500572383E-005;1.869434490799904E-003;
2.408166666666667E+009;1.976654529571533E-001;3.961805999279022E-002;-5.050727850175463E-005;2.003792673349381E-003;
2.408333333333334E+009;1.973250210285187E-001;3.945815935730934E-002;-1.000246338662691E-004;2.015838166698813E-003;
2.408500000000000E+009;1.966053396463394E-001;3.951308503746986E-002;2.356448931095656E-005;2.166154561564326E-003;
2.408666666666667E+009;1.958132386207581E-001;3.919997811317444E-002;6.005824616295286E-006;2.413012785837054E-003;
2.408833333333334E+009;1.950466781854630E-001;3.888353705406189E-002;1.906614343170077E-004;2.437390154227614E-003;
2.409000000000000E+009;1.940804868936539E-001;3.826819360256195E-002;2.882393309846520E-004;2.513228217139840E-003;
2.409166666666667E+009;1.930962800979614E-001;3.771556168794632E-002;3.116820589639247E-004;2.595500554889441E-003;
2.409333333333334E+009;1.921319514513016E-001;3.698829188942909E-002;6.227799458429217E-004;2.730565378442407E-003;
2.409500000000000E+009;1.909262984991074E-001;3.592326864600182E-002;6.164518999867141E-004;2.847234951332212E-003;
2.409666666666667E+009;1.897725462913513E-001;3.477938100695610E-002;8.541965507902205E-004;2.817886183038354E-003;
2.409833333333334E+009;1.884474903345108E-001;3.358247876167297E-002;1.170033239759505E-003;2.883044537156820E-003;
2.410000000000000E+009;1.873502880334854E-001;3.217175975441933E-002;1.349413301795721E-003;2.750102197751403E-003;
2.410166666666667E+009;1.861423701047897E-001;3.060449473559856E-002;1.336996676400304E-003;2.687543164938688E-003;
2.410333333333334E+009;1.849530339241028E-001;2.904674783349037E-002;1.453808043152094E-003;2.681010169908404E-003;
2.410500000000000E+009;1.837057620286942E-001;2.714925073087215E-002;1.677309628576040E-003;2.657739911228418E-003;
2.410666666666667E+009;1.825185120105743E-001;2.517483755946159E-002;1.693972153589129E-003;2.696168376132846E-003;
2.410833333333334E+009;1.817765831947327E-001;2.298940345644951E-002;1.921627903357148E-003;2.742725191637874E-003;
2.411000000000000E+009;1.806490570306778E-001;2.092662081122398E-002;2.121529774740338E-003;2.650423208251596E-003;
2.411166666666667E+009;1.798508912324905E-001;1.869660057127476E-002;2.094806171953678E-003;2.589499810710549E-003;
2.411333333333334E+009;1.789362430572510E-001;1.617897674441338E-002;2.190703991800547E-003;2.681337529793382E-003;
2.411500000000000E+009;1.783652007579804E-001;1.374733541160822E-002;2.370582660660148E-003;2.669304376468062E-003;
2.411666666666667E+009;1.781950294971466E-001;1.132130157202482E-002;2.566647250205278E-003;2.444214886054397E-003;
2.411833333333334E+009;1.775164157152176E-001;8.681098930537701E-003;2.744499361142516E-003;2.653010422363877E-003;
2.412000000000000E+009;1.775770634412766E-001;5.944319069385529E-003;2.840858884155750E-003;2.390923909842968E-003;
2.412166666666667E+009;1.772865355014801E-001;3.772900672629476E-003;3.002797020599246E-003;2.447090810164809E-003;
2.412333333333334E+009;1.774226725101471E-001;8.603986934758723E-004;3.344409167766571E-003;2.184311626479030E-003;
2.412500000000000E+009;1.778380125761032E-001;-1.660206471569836E-003;3.588478779420257E-003;2.052247989922762E-003;
2.412666666666667E+009;1.779731959104538E-001;-4.310518503189087E-003;3.617750015109778E-003;2.129869535565376E-003;
2.412833333333334E+009;1.785840392112732E-001;-7.023931015282869E-003;3.823651699349284E-003;1.902861986309290E-003;
2.413000000000000E+009;1.793255060911179E-001;-9.512297809123993E-003;4.185423254966736E-003;1.834166701883078E-003;
2.413166666666667E+009;1.799701452255249E-001;-1.198458485305309E-002;4.225247073918581E-003;1.439129817299545E-003;
2.413333333333334E+009;1.808899939060211E-001;-1.463230140507221E-002;4.482150077819824E-003;1.251771929673851E-003;
2.413500000000000E+009;1.818578541278839E-001;-1.689215004444122E-002;4.754246212542057E-003;1.139288768172264E-003;
2.413666666666667E+009;1.830644607543945E-001;-1.954566687345505E-002;4.853117279708386E-003;7.042480865493417E-004;
2.413833333333334E+009;1.841823160648346E-001;-2.175888605415821E-002;5.011870060116053E-003;3.823703154921532E-004;
2.414000000000000E+009;1.854142844676971E-001;-2.391360141336918E-002;4.954305011779070E-003;-1.154637084255228E-005;
2.414166666666667E+009;1.867220252752304E-001;-2.593856863677502E-002;4.992843139916658E-003;-4.289576609153301E-004;
2.414333333333334E+009;1.880801916122437E-001;-2.822687476873398E-002;5.039638839662075E-003;-8.687798399478197E-004;
2.414500000000000E+009;1.894590705633164E-001;-2.985975332558155E-002;4.773752298206091E-003;-1.229500048793852E-003;
2.414666666666667E+009;1.908652484416962E-001;-3.171592950820923E-002;4.679195117205381E-003;-1.440170104615390E-003;
2.414833333333334E+009;1.921714991331101E-001;-3.326435014605522E-002;4.524308722466230E-003;-1.733754877932370E-003;
2.415000000000000E+009;1.934841722249985E-001;-3.483274206519127E-002;4.312349483370781E-003;-2.081394195556641E-003;
2.415166666666667E+009;1.951268315315247E-001;-3.611053153872490E-002;4.038737621158361E-003;-2.353039104491472E-003;
2.415333333333334E+009;1.963837742805481E-001;-3.729335963726044E-002;3.969226032495499E-003;-2.441881923004985E-003;
2.415500000000000E+009;1.977998018264771E-001;-3.811770305037499E-002;3.587206127122045E-003;-2.633934374898672E-003;
2.415666666666667E+009;1.990128159523010E-001;-3.916293010115624E-002;3.320358926430345E-003;-2.768008969724178E-003;
2.415833333333334E+009;2.003522813320160E-001;-3.984082490205765E-002;3.275002120062709E-003;-2.803767099976540E-003;
2.416000000000000E+009;2.013069689273834E-001;-4.055143520236015E-002;2.851182594895363E-003;-2.991858636960387E-003;
2.416166666666667E+009;2.023139148950577E-001;-4.120440036058426E-002;2.747283549979329E-003;-3.157612401992083E-003;
2.416333333333334E+009;2.032618820667267E-001;-4.157553240656853E-002;2.348140347748995E-003;-3.157617989927530E-003;
2.416500000000000E+009;2.041276395320892E-001;-4.183073341846466E-002;2.072802279144526E-003;-3.217717399820685E-003;
2.416666666666667E+009;2.046482264995575E-001;-4.210260882973671E-002;2.053039381280541E-003;-3.275071037933230E-003;
2.416833333333334E+009;2.051038295030594E-001;-4.226436465978622E-002;1.735868747346103E-003;-3.304665209725499E-003;
2.417000000000000E+009;2.055419981479645E-001;-4.228461906313896E-002;1.493425224907696E-003;-3.275556955486536E-003;
2.417166666666667E+009;2.054066807031632E-001;-4.216478019952774E-002;1.302176504395902E-003;-3.230493981391192E-003;
2.417333333333334E+009;2.054419517517090E-001;-4.195158928632736E-002;1.066702185198665E-003;-3.133467864245176E-003;
2.417500000000000E+009;2.054688185453415E-001;-4.184554517269135E-002;8.336266619153321E-004;-3.067895537242293E-003;
2.417666666666667E+009;2.050686925649643E-001;-4.140232503414154E-002;6.742156692780554E-004;-3.020563162863255E-003;
2.417833333333334E+009;2.048597037792206E-001;-4.099883139133453E-002;6.073423428460956E-004;-2.937472891062498E-003;
2.418000000000000E+009;2.044015675783157E-001;-4.066288098692894E-002;3.910668601747602E-004;-2.852969802916050E-003;
2.418166666666667E+009;2.037775963544846E-001;-4.036290571093559E-002;3.116162260994315E-004;-2.662653569132090E-003;
2.418333333333334E+009;2.029717564582825E-001;-4.000226408243179E-002;2.658662560861558E-004;-2.478123875334859E-003;
2.418500000000000E+009;2.020739763975143E-001;-3.992498666048050E-002;2.611120362416841E-005;-2.511505270376802E-003;
2.418666666666667E+009;2.011950165033341E-001;-3.947078809142113E-002;1.345319033134729E-004;-2.335805213078857E-003;
2.418833333333334E+009;1.999702304601669E-001;-3.947710618376732E-002;4.305473339627497E-005;-2.134752459824085E-003;
2.419000000000000E+009;1.988065391778946E-001;-3.933455422520638E-002;6.263021350605413E-005;-2.100194571539760E-003;
2.419166666666667E+009;1.975405067205429E-001;-3.942387923598290E-002;-6.033391400706023E-005;-1.826990162953734E-003;
2.419333333333334E+009;1.960634440183640E-001;-3.976515308022499E-002;-2.977238618768752E-004;-1.813029288314283E-003;
2.419500000000000E+009;1.945533752441406E-001;-3.994534909725189E-002;-1.639246038394049E-004;-1.735088764689863E-003;
2.419666666666667E+009;1.929734200239182E-001;-4.053314775228500E-002;-1.160421234089881E-004;-1.389140845276415E-003;
2.419833333333334E+009;1.912478953599930E-001;-4.104714095592499E-002;-3.050510167668108E-005;-1.322417170740664E-003;
2.420000000000000E+009;1.895361095666885E-001;-4.176424071192741E-002;6.157143798191100E-005;-1.163829700089991E-003;
2.420166666666667E+009;1.877082139253616E-001;-4.258457571268082E-002;2.403270191280171E-004;-1.092906342819333E-003;
2.420333333333334E+009;1.860161572694778E-001;-4.358397424221039E-002;3.251107118558139E-004;-1.023817691020668E-003;
2.420500000000000E+009;1.842132210731506E-001;-4.469579830765724E-002;4.453367728274316E-004;-1.013489672914147E-003;
2.420666666666667E+009;1.821612119674683E-001;-4.577874019742012E-002;4.870420380029827E-004;-1.015660003758967E-003;
2.420833333333334E+009;1.804261952638626E-001;-4.722578451037407E-002;6.356178200803697E-004;-9.765027207322419E-004;
2.421000000000000E+009;1.787999868392944E-001;-4.857379198074341E-002;7.168938172981143E-004;-8.857261273078620E-004;
2.421166666666667E+009;1.771708875894547E-001;-5.036126822233200E-002;8.545625023543835E-004;-8.624574984423816E-004;
2.421333333333334E+009;1.752326935529709E-001;-5.189464613795281E-002;1.006158301606774E-003;-1.012803753837943E-003;
2.421500000000000E+009;1.738170087337494E-001;-5.374698340892792E-002;1.175624318420887E-003;-9.962556650862098E-004;
2.421666666666667E+009;1.723636239767075E-001;-5.566018447279930E-002;1.321111805737019E-003;-1.207309891469777E-003;
2.421833333333334E+009;1.708869040012360E-001;-5.754144489765167E-002;1.449560280889273E-003;-1.134667312726378E-003;
2.422000000000000E+009;1.696259975433350E-001;-5.965580418705940E-002;1.549746841192246E-003;-1.520699704997242E-003;
2.422166666666667E+009;1.685496270656586E-001;-6.189264729619026E-002;1.621941570192576E-003;-1.580840675160289E-003;
2.422333333333334E+009;1.672040671110153E-001;-6.397307664155960E-002;1.575250178575516E-003;-1.700800959952176E-003;
2.422500000000000E+009;1.663632392883301E-001;-6.616759300231934E-002;1.785826170817018E-003;-1.896629109978676E-003;
2.422666666666667E+009;1.654848009347916E-001;-6.832031160593033E-002;1.585498335771263E-003;-1.944175106473267E-003;
2.422833333333334E+009;1.648054420948029E-001;-7.061229646205902E-002;1.715943682938814E-003;-2.233166480436921E-003;
2.423000000000000E+009;1.642135530710220E-001;-7.284734398126602E-002;1.558223972097039E-003;-2.374187577515841E-003;
2.423166666666667E+009;1.636123359203339E-001;-7.498511672019959E-002;1.638933783397079E-003;-2.489658538252115E-003;
2.423333333333334E+009;1.633556038141251E-001;-7.743888348340988E-002;1.510769012384117E-003;-2.618657425045967E-003;
2.423500000000000E+009;1.632582396268845E-001;-7.932680845260620E-002;1.549916109070182E-003;-2.774637192487717E-003;
2.423666666666667E+009;1.631309539079666E-001;-8.161494880914688E-002;1.549939857795835E-003;-3.044618060812354E-003;
2.423833333333334E+009;1.630436033010483E-001;-8.345644176006317E-002;1.204110449180007E-003;-3.160727443173528E-003;
2.424000000000000E+009;1.631549894809723E-001;-8.558735996484757E-002;1.258630072697997E-003;-3.195333527401090E-003;
2.424166666666667E+009;1.632430106401444E-001;-8.739051967859268E-002;1.192038063891232E-003;-3.452326171100140E-003;
2.424333333333334E+009;1.635085195302963E-001;-8.911123871803284E-002;1.033553970046341E-003;-3.669785801321268E-003;
2.424500000000000E+009;1.639422476291657E-001;-9.116464108228684E-002;9.097384172491729E-004;-3.883265424519777E-003;
2.424666666666667E+009;1.642445325851440E-001;-9.272489696741104E-002;7.438025204464793E-004;-4.037331789731979E-003;
2.424833333333334E+009;1.649269759654999E-001;-9.413405507802963E-002;5.247363005764782E-004;-4.236396402120590E-003;
2.425000000000000E+009;1.654613912105560E-001;-9.565824270248413E-002;3.617666952777654E-004;-4.311328753829002E-003;
2.425166666666667E+009;1.659167110919952E-001;-9.690931439399719E-002;2.607570495456457E-004;-4.516617860645056E-003;
2.425333333333334E+009;1.664272248744965E-001;-9.809325635433197E-002;-6.298474909272045E-005;-4.674201831221581E-003;
2.425500000000000E+009;1.670936197042465E-001;-9.924481809139252E-002;-3.339330432936549E-004;-4.772059153765440E-003;
2.425666666666667E+009;1.676793992519379E-001;-1.000859141349793E-001;-5.503830616362393E-004;-4.679396748542786E-003;
2.425833333333334E+009;1.682492643594742E-001;-1.010436788201332E-001;-1.060708891600370E-003;-4.719158634543419E-003;
2.426000000000000E+009;1.687995344400406E-001;-1.016657203435898E-001;-1.374854240566492E-003;-4.702222533524036E-003;
2.426166666666667E+009;1.694989353418350E-001;-1.022225245833397E-001;-1.623470918275416E-003;-4.768273327499628E-003;
2.426333333333334E+009;1.699087321758270E-001;-1.027891635894775E-001;-1.857782597653568E-003;-4.719835240393877E-003;
2.426500000000000E+009;1.704924851655960E-001;-1.031518355011940E-001;-2.044847933575511E-003;-4.547217860817909E-003;
2.426666666666667E+009;1.710333377122879E-001;-1.034948751330376E-001;-2.335655502974987E-003;-4.375008866190910E-003;
2.426833333333334E+009;1.714671999216080E-001;-1.037763133645058E-001;-2.642757957801223E-003;-4.306055605411530E-003;
2.427000000000000E+009;1.717882752418518E-001;-1.039991006255150E-001;-2.868177602067590E-003;-4.155672155320644E-003;
2.427166666666667E+009;1.719590872526169E-001;-1.040276587009430E-001;-3.073720494285226E-003;-3.970984369516373E-003;
2.427333333333334E+009;1.721694469451904E-001;-1.042468771338463E-001;-3.170513082295656E-003;-3.887912491336465E-003;
2.427500000000000E+009;1.722526997327805E-001;-1.043239831924439E-001;-3.401901805773377E-003;-3.783912863582373E-003;
2.427666666666667E+009;1.719839870929718E-001;-1.042462289333344E-001;-3.643817501142621E-003;-3.831899492070079E-003;
2.427833333333334E+009;1.719099134206772E-001;-1.043197214603424E-001;-3.658997593447566E-003;-3.413601312786341E-003;
