# Version 1.00
#
freq[Hz];re:Trc1_S11;im:Trc1_S11;re:Trc2_S21;im:Trc2_S21;
2.400000000000000E+009;1.558497101068497E-001;1.111630201339722E-001;-9.522031177766621E-004;2.255589468404651E-003;
2.400166666666667E+009;1.554168164730072E-001;1.089327782392502E-001;-9.474458638578653E-004;2.227142220363021E-003;
2.400333333333334E+009;1.551287472248077E-001;1.066964194178581E-001;-8.955009980127215E-004;2.130571752786636E-003;
2.400500000000000E+009;1.547235846519470E-001;1.038851737976074E-001;-1.099680201150477E-003;1.968318363651633E-003;
2.400666666666667E+009;1.546549499034882E-001;1.015576496720314E-001;-9.222609805874527E-004;2.040984109044075E-003;
2.400833333333334E+009;1.543488055467606E-001;9.840805828571320E-002;-1.105846604332328E-003;2.034395700320602E-003;
2.401000000000000E+009;1.541816145181656E-001;9.587444365024567E-002;-1.033086096867919E-003;1.897189882583916E-003;
2.401166666666667E+009;1.539789140224457E-001;9.285023808479309E-002;-8.695674478076398E-004;1.975846709683538E-003;
2.401333333333334E+009;1.542667448520660E-001;8.994066715240479E-002;-9.322182741016150E-004;1.950131379999220E-003;
2.401500000000000E+009;1.542429476976395E-001;8.695798367261887E-002;-1.036602421663702E-003;1.921160495840013E-003;
2.401666666666667E+009;1.543058007955551E-001;8.379991352558136E-002;-8.778784540481865E-004;2.172945998609066E-003;
2.401833333333334E+009;1.548266261816025E-001;8.088089525699616E-002;-8.715850417502224E-004;2.277524676173925E-003;
2.402000000000000E+009;1.555894315242767E-001;7.802234590053558E-002;-9.007683838717639E-004;2.320028608664870E-003;
2.402166666666667E+009;1.560060828924179E-001;7.508227229118347E-002;-6.785559817217290E-004;2.467687008902431E-003;
2.402333333333334E+009;1.568558216094971E-001;7.203972339630127E-002;-6.491849781014025E-004;2.497317036613822E-003;
2.402500000000000E+009;1.579227596521378E-001;6.947127729654312E-002;-5.258283345028758E-004;2.619960810989142E-003;
2.402666666666667E+009;1.588732749223709E-001;6.679067015647888E-002;-4.984458792023361E-004;2.564177382737398E-003;
2.402833333333334E+009;1.602116674184799E-001;6.399729102849960E-002;-5.131911166245118E-005;2.670581918209791E-003;
2.403000000000000E+009;1.616250276565552E-001;6.136376410722733E-002;-1.375258725602180E-004;2.637826139107347E-003;
2.403166666666667E+009;1.632661968469620E-001;5.886375904083252E-002;2.395978808635846E-004;2.663148567080498E-003;
2.403333333333334E+009;1.646043509244919E-001;5.651547387242317E-002;3.743298293557018E-004;2.686151070520282E-003;
2.403500000000000E+009;1.663471311330795E-001;5.404104292392731E-002;5.528313922695816E-004;2.403472084552050E-003;
2.403666666666667E+009;1.682932227849960E-001;5.208950489759445E-002;7.316596456803381E-004;2.225606935098767E-003;
2.403833333333334E+009;1.698725074529648E-001;4.978398233652115E-002;9.577016462571919E-004;2.119139302521944E-003;
2.404000000000000E+009;1.714065074920654E-001;4.792642965912819E-002;8.757084142416716E-004;2.015125704929233E-003;
2.404166666666667E+009;1.733668297529221E-001;4.612027108669281E-002;8.562966249883175E-004;1.753174816258252E-003;
2.404333333333334E+009;1.751915365457535E-001;4.433035850524902E-002;8.618474821560085E-004;1.404224429279566E-003;
2.404500000000000E+009;1.769409477710724E-001;4.290601983666420E-002;8.788045961409807E-004;1.491682254709303E-003;
2.404666666666667E+009;1.788482367992401E-001;4.144436120986939E-002;7.604014244861901E-004;1.134645543061197E-003;
2.404833333333334E+009;1.805465817451477E-001;4.033653065562248E-002;5.870459717698395E-004;1.080479822121561E-003;
2.405000000000000E+009;1.821186989545822E-001;3.955923020839691E-002;5.615353584289551E-004;1.174676697701216E-003;
2.405166666666667E+009;1.840327531099320E-001;3.876114636659622E-002;4.695572424679995E-004;1.182333799079061E-003;
2.405333333333334E+009;1.856474876403809E-001;3.815148398280144E-002;3.071013488806784E-004;9.982286719605327E-004;
2.405500000000000E+009;1.873277276754379E-001;3.757601603865624E-002;2.712809655349702E-004;1.199829508550465E-003;
2.405666666666667E+009;1.887314617633820E-001;3.722969070076942E-002;1.522455422673374E-004;1.235442701727152E-003;
2.405833333333334E+009;1.903087794780731E-001;3.711331635713577E-002;3.075767308473587E-004;1.280607306398451E-003;
2.406000000000000E+009;1.915365606546402E-001;3.681967779994011E-002;2.644186024554074E-004;1.186725450679660E-003;
2.406166666666667E+009;1.928089410066605E-001;3.668583929538727E-002;5.219935337663628E-005;1.311977161094546E-003;
2.406333333333334E+009;1.940287649631500E-001;3.684986382722855E-002;-5.672954284818843E-005;1.374265062622726E-003;
2.406500000000000E+009;1.949200332164764E-001;3.704591467976570E-002;1.066264521796256E-004;1.325963996350765E-003;
2.406666666666667E+009;1.958073526620865E-001;3.711724281311035E-002;-1.878199873317499E-005;1.351736835204065E-003;
2.406833333333334E+009;1.964966654777527E-001;3.733154758810997E-002;9.192695870297030E-005;1.421128632500768E-003;
2.407000000000000E+009;1.970810592174530E-001;3.779676929116249E-002;-2.518704422982410E-005;1.497874036431313E-003;
2.407166666666667E+009;1.978030353784561E-001;3.783585876226425E-002;-9.099308226723224E-005;1.320790499448776E-003;
2.407333333333334E+009;1.978034675121307E-001;3.816829994320869E-002;2.882780563595588E-006;1.503635197877884E-003;
2.407500000000000E+009;1.979063600301743E-001;3.862933441996574E-002;-9.681121446192265E-005;1.460023690015078E-003;
2.407666666666667E+009;1.980479657649994E-001;3.878236562013626E-002;-1.801074977265671E-004;1.730916323140264E-003;
2.407833333333334E+009;1.977328807115555E-001;3.900807723402977E-002;-2.650984097272158E-004;1.771304989233613E-003;
2.408000000000000E+009;1.976944357156754E-001;3.914997354149818E-002;-6.518873124150559E-005;1.823247759602964E-003;
2.408166666666667E+009;1.971991211175919E-001;3.917850926518440E-002;-1.455128222005442E-004;1.891329418867827E-003;
2.408333333333334E+009;1.967889368534088E-001;3.916326537728310E-002;-4.372401690488914E-006;2.132166875526309E-003;
2.408500000000000E+009;1.961158215999603E-001;3.909102454781532E-002;-1.924666321428958E-005;2.213430125266314E-003;
2.408666666666667E+009;1.955556571483612E-001;3.897044435143471E-002;7.985910633578897E-005;2.426866441965103E-003;
2.408833333333334E+009;1.946973949670792E-001;3.856391459703445E-002;3.618601767811924E-004;2.568304771557450E-003;
2.409000000000000E+009;1.936885416507721E-001;3.805839270353317E-002;4.221712297294289E-004;2.674650168046355E-003;
2.409166666666667E+009;1.926519870758057E-001;3.744188696146011E-002;4.181627300567925E-004;2.700269687920809E-003;
2.409333333333334E+009;1.916149258613586E-001;3.689919412136078E-002;8.216625428758562E-004;2.798490691930056E-003;
2.409500000000000E+009;1.903921067714691E-001;3.583944961428642E-002;8.623786270618439E-004;2.841599751263857E-003;
2.409666666666667E+009;1.891466975212097E-001;3.456449136137962E-002;1.032913336530328E-003;2.828109078109264E-003;
2.409833333333334E+009;1.879978775978088E-001;3.337521851062775E-002;1.225097454153001E-003;2.849296201020479E-003;
2.410000000000000E+009;1.867531239986420E-001;3.206194192171097E-002;1.426416332833469E-003;2.901941305026412E-003;
2.410166666666667E+009;1.856258213520050E-001;3.047697246074677E-002;1.462324871681631E-003;2.667283872142434E-003;
2.410333333333334E+009;1.842787563800812E-001;2.895571291446686E-002;1.748098875395954E-003;2.833283506333828E-003;
2.410500000000000E+009;1.831768304109573E-001;2.722155675292015E-002;1.643528114072979E-003;2.714843954890966E-003;
2.410666666666667E+009;1.820227652788162E-001;2.502927742898464E-002;1.841763965785503E-003;2.675861353054643E-003;
2.410833333333334E+009;1.812738776206970E-001;2.301354333758354E-002;2.089801011607051E-003;2.715858863666654E-003;
2.411000000000000E+009;1.800775378942490E-001;2.069301158189774E-002;2.240520669147372E-003;2.624090062454343E-003;
2.411166666666667E+009;1.792276054620743E-001;1.869575306773186E-002;2.436552895233035E-003;2.592182718217373E-003;
2.411333333333334E+009;1.784997284412384E-001;1.618736982345581E-002;2.534297993406653E-003;2.601719461381435E-003;
2.411500000000000E+009;1.777810454368591E-001;1.386806648224592E-002;2.666265005245805E-003;2.553475322201848E-003;
2.411666666666667E+009;1.775277107954025E-001;1.145833265036345E-002;2.676920266821981E-003;2.338827122002840E-003;
2.411833333333334E+009;1.767801344394684E-001;8.895097300410271E-003;2.911697141826153E-003;2.391170477494597E-003;
2.412000000000000E+009;1.768873631954193E-001;6.337024271488190E-003;3.048056503757834E-003;2.294944832101464E-003;
2.412166666666667E+009;1.768265366554260E-001;3.834253177046776E-003;3.336645197123289E-003;2.355495234951377E-003;
2.412333333333334E+009;1.768197268247604E-001;1.130224554799497E-003;3.355925902724266E-003;2.157984068617225E-003;
2.412500000000000E+009;1.771438419818878E-001;-1.519584562629461E-003;3.479330800473690E-003;2.102809026837349E-003;
2.412666666666667E+009;1.775992065668106E-001;-4.293731413781643E-003;3.642749274149537E-003;2.039083512499929E-003;
2.412833333333334E+009;1.782300770282745E-001;-6.808818783611059E-003;4.174037836492062E-003;1.770046772435308E-003;
2.413000000000000E+009;1.787606030702591E-001;-9.382302872836590E-003;4.125691484659910E-003;1.693729660473764E-003;
2.413166666666667E+009;1.795123219490051E-001;-1.183247473090887E-002;4.456070717424154E-003;1.490533119067550E-003;
2.413333333333334E+009;1.806610077619553E-001;-1.428924128413200E-002;4.663356579840183E-003;1.110388897359371E-003;
2.413500000000000E+009;1.816088259220123E-001;-1.682964153587818E-002;4.723230376839638E-003;9.266074048355222E-004;
2.413666666666667E+009;1.826983988285065E-001;-1.925357431173325E-002;4.932168405503035E-003;5.142209120094776E-004;
2.413833333333334E+009;1.838723272085190E-001;-2.156271599233151E-002;4.913645330816507E-003;1.776542776497081E-004;
2.414000000000000E+009;1.850209236145020E-001;-2.360789850354195E-002;5.033558234572411E-003;-1.822476042434573E-004;
2.414166666666667E+009;1.864742785692215E-001;-2.584970183670521E-002;5.036407615989447E-003;-5.270134424790740E-004;
2.414333333333334E+009;1.876723915338516E-001;-2.802041359245777E-002;5.030705127865076E-003;-7.889916305430234E-004;
2.414500000000000E+009;1.889885067939758E-001;-2.962267026305199E-002;5.005794577300549E-003;-1.293107168748975E-003;
2.414666666666667E+009;1.904129087924957E-001;-3.143098577857018E-002;4.926648456603289E-003;-1.503028674051166E-003;
2.414833333333334E+009;1.918957382440567E-001;-3.289504721760750E-002;4.747072700411081E-003;-2.083085477352142E-003;
2.415000000000000E+009;1.932432055473328E-001;-3.444239124655724E-002;4.273379221558571E-003;-2.236983738839626E-003;
2.415166666666667E+009;1.945486217737198E-001;-3.586798533797264E-002;4.182710777968168E-003;-2.458753762766719E-003;
2.415333333333334E+009;1.961591988801956E-001;-3.689646348357201E-002;4.023636691272259E-003;-2.733608009293675E-003;
2.415500000000000E+009;1.974574923515320E-001;-3.775310143828392E-002;3.580002114176750E-003;-2.750139450654388E-003;
2.415666666666667E+009;1.988437473773956E-001;-3.883063420653343E-002;3.334219334647059E-003;-2.937285928055644E-003;
2.415833333333334E+009;1.999984681606293E-001;-3.929635882377625E-002;3.172544064000249E-003;-3.168618306517601E-003;
2.416000000000000E+009;2.009746432304382E-001;-4.014821723103523E-002;2.949743531644344E-003;-3.173918230459094E-003;
2.416166666666667E+009;2.020490318536758E-001;-4.076039046049118E-002;2.606119727715850E-003;-3.339756745845079E-003;
2.416333333333334E+009;2.029442340135574E-001;-4.108135029673576E-002;2.469084225594997E-003;-3.359797643497586E-003;
2.416500000000000E+009;2.037106007337570E-001;-4.144710302352905E-002;2.134667942300439E-003;-3.359835827723146E-003;
2.416666666666667E+009;2.043381333351135E-001;-4.188744723796845E-002;1.951894955709577E-003;-3.424059366807342E-003;
2.416833333333334E+009;2.048239260911942E-001;-4.178763926029205E-002;1.621083472855389E-003;-3.333371831104159E-003;
2.417000000000000E+009;2.052856385707855E-001;-4.193212091922760E-002;1.319185947068036E-003;-3.494383534416556E-003;
2.417166666666667E+009;2.053661644458771E-001;-4.169443249702454E-002;1.276283059269190E-003;-3.316973568871617E-003;
2.417333333333334E+009;2.052761316299439E-001;-4.143024981021881E-002;9.953214321285486E-004;-3.271751338616014E-003;
2.417500000000000E+009;2.052945196628571E-001;-4.132691770792007E-002;9.198956540785730E-004;-3.171952441334724E-003;
2.417666666666667E+009;2.048402428627014E-001;-4.094488546252251E-002;6.683389074169099E-004;-2.982657169923186E-003;
2.417833333333334E+009;2.046831101179123E-001;-4.054870828986168E-002;4.727022023871541E-004;-2.955561038106680E-003;
2.418000000000000E+009;2.041819095611572E-001;-4.014190286397934E-002;3.219874342903495E-004;-3.005269449204207E-003;
2.418166666666667E+009;2.036882787942886E-001;-3.990841656923294E-002;2.528137410990894E-004;-2.725499216467142E-003;
2.418333333333334E+009;2.028916031122208E-001;-3.957688808441162E-002;2.357021876377985E-004;-2.641011262312532E-003;
2.418500000000000E+009;2.019828259944916E-001;-3.933149948716164E-002;4.310048097977415E-005;-2.529182238504291E-003;
2.418666666666667E+009;2.010990232229233E-001;-3.900162503123283E-002;-8.451692701783031E-005;-2.490504411980510E-003;
2.418833333333334E+009;1.999521106481552E-001;-3.906022757291794E-002;-9.293856419390068E-005;-2.213146304711700E-003;
2.419000000000000E+009;1.986995637416840E-001;-3.888481855392456E-002;-2.401415804342832E-005;-2.213950501754880E-003;
2.419166666666667E+009;1.974332928657532E-001;-3.895355388522148E-002;-2.314943267265335E-004;-2.032775664702058E-003;
2.419333333333334E+009;1.961324810981751E-001;-3.934888914227486E-002;-2.457685186527669E-004;-1.952213235199451E-003;
2.419500000000000E+009;1.945226341485977E-001;-3.947270289063454E-002;-2.379840007051826E-004;-1.667471835389733E-003;
2.419666666666667E+009;1.928634494543076E-001;-4.010806232690811E-002;-1.396361330989748E-004;-1.589054823853076E-003;
2.419833333333334E+009;1.912155151367188E-001;-4.053412750363350E-002;-3.095444481004961E-005;-1.339021488092840E-003;
2.420000000000000E+009;1.895181238651276E-001;-4.114959388971329E-002;-1.408232346875593E-004;-1.368665369227529E-003;
2.420166666666667E+009;1.877512186765671E-001;-4.209319502115250E-002;3.048497455893084E-005;-1.261711353436112E-003;
2.420333333333334E+009;1.859481036663055E-001;-4.303821176290512E-002;2.270633412990719E-004;-1.163037843070924E-003;
2.420500000000000E+009;1.841524988412857E-001;-4.432140663266182E-002;2.272554556839168E-004;-1.052318024449050E-003;
2.420666666666667E+009;1.822891831398010E-001;-4.526549205183983E-002;3.631750005297363E-004;-9.435761021450162E-004;
2.420833333333334E+009;1.806417852640152E-001;-4.674751311540604E-002;4.987131687812507E-004;-9.260268416255713E-004;
2.421000000000000E+009;1.787808239459992E-001;-4.806762933731079E-002;5.701541667804122E-004;-9.508833754807711E-004;
2.421166666666667E+009;1.773880720138550E-001;-4.994371160864830E-002;8.132127113640308E-004;-9.949206141754985E-004;
2.421333333333334E+009;1.753988862037659E-001;-5.126941204071045E-002;9.641316137276590E-004;-1.041676499880850E-003;
2.421500000000000E+009;1.739642769098282E-001;-5.345388501882553E-002;8.597327978350222E-004;-1.004578312858939E-003;
2.421666666666667E+009;1.723742038011551E-001;-5.517677962779999E-002;1.144608133472502E-003;-1.077190623618662E-003;
2.421833333333334E+009;1.711156219244003E-001;-5.724038183689117E-002;1.338859088718891E-003;-1.262881327420473E-003;
2.422000000000000E+009;1.696542203426361E-001;-5.927944183349609E-002;1.418143277987838E-003;-1.295732567086816E-003;
2.422166666666667E+009;1.687617897987366E-001;-6.142985448241234E-002;1.544608385302126E-003;-1.482423860579729E-003;
2.422333333333334E+009;1.675349175930023E-001;-6.358316540718079E-002;1.572133274748921E-003;-1.613249536603689E-003;
2.422500000000000E+009;1.665620058774948E-001;-6.574416160583496E-002;1.459747320041060E-003;-1.732161035761237E-003;
2.422666666666667E+009;1.655264645814896E-001;-6.782681494951248E-002;1.494953408837318E-003;-2.002881607040763E-003;
2.422833333333334E+009;1.650118827819824E-001;-7.008655369281769E-002;1.543918508104980E-003;-2.047001384198666E-003;
2.423000000000000E+009;1.643234938383102E-001;-7.243136316537857E-002;1.666348660364747E-003;-2.443254692479968E-003;
2.423166666666667E+009;1.639531701803207E-001;-7.445397228002548E-002;1.531502930447459E-003;-2.472479594871402E-003;
2.423333333333334E+009;1.635579168796539E-001;-7.694550603628159E-002;1.337986672297120E-003;-2.574258716776967E-003;
2.423500000000000E+009;1.635511666536331E-001;-7.900550961494446E-002;1.388402073644102E-003;-2.780637471005321E-003;
2.423666666666667E+009;1.634966582059860E-001;-8.114590495824814E-002;1.237044460140169E-003;-2.938206540420651E-003;
2.423833333333334E+009;1.633470654487610E-001;-8.307489752769470E-002;1.300312578678131E-003;-3.012051573023200E-003;
2.424000000000000E+009;1.635709851980209E-001;-8.521504700183868E-002;1.282379846088588E-003;-3.167351009324193E-003;
2.424166666666667E+009;1.636911481618881E-001;-8.711032569408417E-002;1.272383145987988E-003;-3.396486863493919E-003;
2.424333333333334E+009;1.639203727245331E-001;-8.877737075090408E-002;1.040837261825800E-003;-3.455139230936766E-003;
2.424500000000000E+009;1.643208712339401E-001;-9.084348380565643E-002;9.907602798193693E-004;-3.643906675279141E-003;
2.424666666666667E+009;1.646558493375778E-001;-9.245505183935165E-002;6.846798351034522E-004;-3.821132704615593E-003;
2.424833333333334E+009;1.653984338045120E-001;-9.403936564922333E-002;6.030094227753580E-004;-4.111805930733681E-003;
2.425000000000000E+009;1.658833622932434E-001;-9.546565264463425E-002;2.607053320389241E-004;-4.175795707851648E-003;
2.425166666666667E+009;1.663778573274612E-001;-9.667347371578217E-002;1.891832362161949E-004;-4.298443440347910E-003;
2.425333333333334E+009;1.669523417949677E-001;-9.788613021373749E-002;-1.064848693204112E-004;-4.724680446088314E-003;
2.425500000000000E+009;1.676038652658463E-001;-9.905845671892166E-002;-5.396659253165126E-004;-4.641316831111908E-003;
2.425666666666667E+009;1.681070774793625E-001;-9.985826909542084E-002;-7.398371235467494E-004;-4.424709826707840E-003;
2.425833333333334E+009;1.688730716705322E-001;-1.008829921483994E-001;-1.135436585173011E-003;-4.685360938310623E-003;
2.426000000000000E+009;1.693312823772430E-001;-1.014647856354713E-001;-1.434526173397899E-003;-4.607793875038624E-003;
2.426166666666667E+009;1.699251085519791E-001;-1.020518094301224E-001;-1.618857611902058E-003;-4.548105411231518E-003;
2.426333333333334E+009;1.703256368637085E-001;-1.027822494506836E-001;-1.896378584206104E-003;-4.579748027026653E-003;
2.426500000000000E+009;1.710052192211151E-001;-1.030745208263397E-001;-2.087466418743134E-003;-4.283033311367035E-003;
2.426666666666667E+009;1.714459061622620E-001;-1.034075170755386E-001;-2.420662902295589E-003;-4.321617074310780E-003;
2.426833333333334E+009;1.719386279582977E-001;-1.037158071994782E-001;-2.620785264298320E-003;-4.215712659060955E-003;
2.427000000000000E+009;1.721730530261993E-001;-1.039967611432076E-001;-2.807106822729111E-003;-4.122768994420767E-003;
2.427166666666667E+009;1.725428104400635E-001;-1.039732769131661E-001;-2.974807051941752E-003;-3.982406575232744E-003;
2.427333333333334E+009;1.725946217775345E-001;-1.041940823197365E-001;-3.217117860913277E-003;-3.712941193953157E-003;
2.427500000000000E+009;1.726377159357071E-001;-1.043829098343849E-001;-3.342424053698778E-003;-3.591970307752490E-003;
2.427666666666667E+009;1.725348234176636E-001;-1.043490990996361E-001;-3.592792432755232E-003;-3.488530870527029E-003;
2.427833333333334E+009;1.723636835813522E-001;-1.043677777051926E-001;-3.698187414556742E-003;-3.357260720804334E-003;
