# Version 1.00
#
freq[Hz];re:Trc1_S11;im:Trc1_S11;re:Trc2_S21;im:Trc2_S21;
2.400000000000000E+009;1.729411631822586E-001;4.857081547379494E-002;5.898741539567709E-003;1.278554205782712E-003;
2.400166666666667E+009;1.736579984426498E-001;4.811511933803558E-002;5.843461491167545E-003;9.188504773192108E-004;
2.400333333333334E+009;1.740875989198685E-001;4.735176637768745E-002;5.836105439811945E-003;6.295600323937833E-004;
2.400500000000000E+009;1.745010763406754E-001;4.651191085577011E-002;5.588911939412355E-003;2.404541155556217E-004;
2.400666666666667E+009;1.749452948570252E-001;4.593861475586891E-002;5.581002682447434E-003;-1.862930844254152E-006;
2.400833333333334E+009;1.754426360130310E-001;4.556718468666077E-002;5.235079675912857E-003;-2.147205523215234E-004;
2.401000000000000E+009;1.757234185934067E-001;4.489327967166901E-002;5.171633325517178E-003;-5.105108139105141E-004;
2.401166666666667E+009;1.757091432809830E-001;4.424512758851051E-002;4.906472750008106E-003;-5.861292593181133E-004;
2.401333333333334E+009;1.758233606815338E-001;4.365427047014237E-002;4.723655525594950E-003;-7.924835663288832E-004;
2.401500000000000E+009;1.760962754487991E-001;4.301321879029274E-002;4.596013110131025E-003;-1.035073539242148E-003;
2.401666666666667E+009;1.761190146207809E-001;4.246836155653000E-002;4.355895798653364E-003;-1.103211892768741E-003;
2.401833333333334E+009;1.761139333248138E-001;4.168419539928436E-002;4.145161714404821E-003;-1.027842517942190E-003;
2.402000000000000E+009;1.759797483682632E-001;4.113438725471497E-002;4.057429730892181E-003;-1.348319696262479E-003;
2.402166666666667E+009;1.758363842964172E-001;4.024755209684372E-002;3.868754953145981E-003;-1.258313423022628E-003;
2.402333333333334E+009;1.756393313407898E-001;3.948215767741203E-002;3.650102298706770E-003;-1.520176534540951E-003;
2.402500000000000E+009;1.755982488393784E-001;3.859502449631691E-002;3.653840860351920E-003;-1.442614709958434E-003;
2.402666666666667E+009;1.754522621631622E-001;3.774346038699150E-002;3.383150091394782E-003;-1.584436511620879E-003;
2.402833333333334E+009;1.751375049352646E-001;3.652367368340492E-002;3.332580672577024E-003;-1.773677533492446E-003;
2.403000000000000E+009;1.748736947774887E-001;3.527374565601349E-002;3.149670548737049E-003;-1.524647581391037E-003;
2.403166666666667E+009;1.744559556245804E-001;3.419211134314537E-002;3.010450396686792E-003;-1.575273810885847E-003;
2.403333333333334E+009;1.741860061883926E-001;3.263530507683754E-002;2.820112509652972E-003;-1.520257443189621E-003;
2.403500000000000E+009;1.736415028572083E-001;3.120658546686173E-002;2.740822266787291E-003;-1.496961456723511E-003;
2.403666666666667E+009;1.731519401073456E-001;2.963861823081970E-002;2.353546209633350E-003;-1.554140006192029E-003;
2.403833333333334E+009;1.729772835969925E-001;2.805778384208679E-002;2.466229023411870E-003;-1.463814522139728E-003;
2.404000000000000E+009;1.724552810192108E-001;2.648690901696682E-002;2.374173607677221E-003;-1.521247089840472E-003;
2.404166666666667E+009;1.721184551715851E-001;2.453834377229214E-002;2.452032174915075E-003;-1.430928241461515E-003;
2.404333333333334E+009;1.717978864908218E-001;2.299437299370766E-002;2.323206048458815E-003;-1.373806502670050E-003;
2.404500000000000E+009;1.712693274021149E-001;2.103222534060478E-002;2.206373726949096E-003;-1.256383839063346E-003;
2.404666666666667E+009;1.709430366754532E-001;1.911549456417561E-002;2.323839580640197E-003;-1.289964537136257E-003;
2.404833333333334E+009;1.706156283617020E-001;1.706631109118462E-002;2.258399268612266E-003;-1.177341910079122E-003;
2.405000000000000E+009;1.704578250646591E-001;1.511013973504305E-002;2.424933249130845E-003;-1.321467454545200E-003;
2.405166666666667E+009;1.703481525182724E-001;1.302218809723854E-002;2.478010253980756E-003;-9.451812366023660E-004;
2.405333333333334E+009;1.701523363590241E-001;1.089886669069529E-002;2.657315228134394E-003;-1.189130358397961E-003;
2.405500000000000E+009;1.701190173625946E-001;8.988226763904095E-003;2.525015734136105E-003;-1.212523900903761E-003;
2.405666666666667E+009;1.703016459941864E-001;6.939289160072804E-003;2.600440056994557E-003;-1.328568323515356E-003;
2.405833333333334E+009;1.702432036399841E-001;4.871446173638105E-003;2.517185639590025E-003;-1.372169004753232E-003;
2.406000000000000E+009;1.706021875143051E-001;2.545778173953295E-003;2.712508430704474E-003;-1.343488926067948E-003;
2.406166666666667E+009;1.706430166959763E-001;6.933449767529964E-004;2.564344322308898E-003;-1.327517675235868E-003;
2.406333333333334E+009;1.712136864662170E-001;-1.316859386861324E-003;2.763704629614949E-003;-1.616040826775134E-003;
2.406500000000000E+009;1.714916080236435E-001;-3.486174158751965E-003;2.697158139199019E-003;-1.546244951896370E-003;
2.406666666666667E+009;1.717004776000977E-001;-5.496237426996231E-003;2.890792908146977E-003;-1.819656114093959E-003;
2.406833333333334E+009;1.724806278944016E-001;-7.548248395323753E-003;2.802245551720262E-003;-1.968538388609886E-003;
2.407000000000000E+009;1.730880737304688E-001;-9.593825787305832E-003;2.661576028913260E-003;-2.081115730106831E-003;
2.407166666666667E+009;1.737978011369705E-001;-1.148603297770023E-002;2.771943109109998E-003;-2.247484400868416E-003;
2.407333333333334E+009;1.742402762174606E-001;-1.351192221045494E-002;2.680331002920866E-003;-2.226900774985552E-003;
2.407500000000000E+009;1.751453131437302E-001;-1.531672012060881E-002;2.711371751502156E-003;-2.502489835023880E-003;
2.407666666666667E+009;1.757963299751282E-001;-1.706998422741890E-002;2.880370011553168E-003;-2.653311705216765E-003;
2.407833333333334E+009;1.768974661827087E-001;-1.884580031037331E-002;2.559954999014735E-003;-2.571381628513336E-003;
2.408000000000000E+009;1.770389974117279E-001;-2.095675840973854E-002;2.833041362464428E-003;-3.130213357508183E-003;
2.408166666666667E+009;1.786110252141953E-001;-2.166870795190334E-002;1.913396292366087E-003;-2.869210671633482E-003;
2.408333333333334E+009;1.789429932832718E-001;-2.339879982173443E-002;2.056149533018470E-003;-3.408430609852076E-003;
2.408500000000000E+009;1.791682988405228E-001;-2.488155476748943E-002;1.829144661314786E-003;-3.894363529980183E-003;
2.408666666666667E+009;1.799549460411072E-001;-2.629478648304939E-002;1.627286663278937E-003;-4.024136811494827E-003;
2.408833333333334E+009;1.804952770471573E-001;-2.772044949233532E-002;1.558751915581524E-003;-4.074832890182734E-003;
2.409000000000000E+009;1.811151355504990E-001;-2.896459586918354E-002;1.444582012481988E-003;-4.131691530346870E-003;
2.409166666666667E+009;1.820071786642075E-001;-3.024387359619141E-002;1.289169071242213E-003;-3.850553184747696E-003;
2.409333333333334E+009;1.821567416191101E-001;-3.133975714445114E-002;1.252230838872492E-003;-4.224796779453754E-003;
2.409500000000000E+009;1.823835968971252E-001;-3.186375647783279E-002;6.241768714971840E-004;-4.417629446834326E-003;
2.409666666666667E+009;1.829378008842468E-001;-3.252752125263214E-002;3.089959209319204E-004;-4.032016266137362E-003;
2.409833333333334E+009;1.832692474126816E-001;-3.283763676881790E-002;-2.129515451088082E-005;-3.982149064540863E-003;
2.410000000000000E+009;1.834825724363327E-001;-3.351053223013878E-002;-1.114539481932297E-004;-4.107268527150154E-003;
2.410166666666667E+009;1.837565749883652E-001;-3.405874222517014E-002;-2.780920476652682E-004;-3.932281862944365E-003;
2.410333333333334E+009;1.839517802000046E-001;-3.440164774656296E-002;-5.327436956577003E-004;-3.542486345395446E-003;
2.410500000000000E+009;1.839623153209686E-001;-3.486077487468720E-002;-7.485530804842711E-004;-3.591641550883651E-003;
2.410666666666667E+009;1.839048564434052E-001;-3.511398285627365E-002;-1.172916730865836E-003;-3.585501108318567E-003;
2.410833333333334E+009;1.839320510625839E-001;-3.529854863882065E-002;-1.314141787588596E-003;-3.368939040228725E-003;
2.411000000000000E+009;1.838403195142746E-001;-3.565052151679993E-002;-1.393503858707845E-003;-3.170080948621035E-003;
2.411166666666667E+009;1.836872398853302E-001;-3.595311194658279E-002;-1.585321268066764E-003;-2.847817959263921E-003;
2.411333333333334E+009;1.832477301359177E-001;-3.618479147553444E-002;-1.546347979456186E-003;-2.734928391873837E-003;
2.411500000000000E+009;1.828623265028000E-001;-3.662161901593208E-002;-1.761905616149306E-003;-2.572980942204595E-003;
2.411666666666667E+009;1.823025941848755E-001;-3.694076091051102E-002;-1.667192089371383E-003;-2.353562042117119E-003;
2.411833333333334E+009;1.817110627889633E-001;-3.717840835452080E-002;-1.855165814049542E-003;-2.065712353214622E-003;
2.412000000000000E+009;1.811451464891434E-001;-3.758904337882996E-002;-1.973661594092846E-003;-1.909296610392630E-003;
2.412166666666667E+009;1.799061745405197E-001;-3.795107826590538E-002;-2.080415841192007E-003;-1.669559278525412E-003;
2.412333333333334E+009;1.793931722640991E-001;-3.830138221383095E-002;-1.886255224235356E-003;-1.372526981867850E-003;
2.412500000000000E+009;1.781052052974701E-001;-3.867921978235245E-002;-1.754116849042475E-003;-1.216707285493612E-003;
2.412666666666667E+009;1.772548854351044E-001;-3.953501582145691E-002;-1.796248834580183E-003;-8.623968460597098E-004;
2.412833333333334E+009;1.761051267385483E-001;-4.015270993113518E-002;-1.533197355456650E-003;-6.714657065458596E-004;
2.413000000000000E+009;1.747160106897354E-001;-4.083344712853432E-002;-1.663633855059743E-003;-6.499781738966703E-004;
2.413166666666667E+009;1.733461171388626E-001;-4.148583114147186E-002;-1.426762319169939E-003;-5.036814254708588E-004;
2.413333333333334E+009;1.721123456954956E-001;-4.225545749068260E-002;-1.205343636684120E-003;-3.181589709129185E-004;
2.413500000000000E+009;1.709293425083160E-001;-4.336663708090782E-002;-1.041356823407114E-003;-1.467581023462117E-004;
2.413666666666667E+009;1.696138978004456E-001;-4.426923394203186E-002;-8.268482633866370E-004;-1.354500709567219E-004;
2.413833333333334E+009;1.682463735342026E-001;-4.528009891510010E-002;-7.246696040965617E-004;-2.014722558669746E-004;
2.414000000000000E+009;1.666978150606155E-001;-4.645844548940659E-002;-3.332664782647044E-004;-1.187940870295279E-004;
2.414166666666667E+009;1.655951440334320E-001;-4.750314727425575E-002;-2.024811838055030E-004;-2.256058505736291E-004;
2.414333333333334E+009;1.642093211412430E-001;-4.892313852906227E-002;-2.568847412476316E-005;-4.715669638244435E-005;
2.414500000000000E+009;1.633026003837585E-001;-5.025334656238556E-002;1.118888612836599E-004;-3.681765811052173E-004;
2.414666666666667E+009;1.620079874992371E-001;-5.187499150633812E-002;1.127379437093623E-004;-3.540215548127890E-004;
2.414833333333334E+009;1.607489883899689E-001;-5.341143161058426E-002;3.436612314544618E-004;-4.279110580682755E-004;
2.415000000000000E+009;1.596332043409348E-001;-5.504750460386276E-002;3.612010041251779E-004;-5.162633606232703E-004;
2.415166666666667E+009;1.584992110729218E-001;-5.661797896027565E-002;6.208951817825437E-004;-6.240776856429875E-004;
2.415333333333334E+009;1.577468067407608E-001;-5.848208814859390E-002;4.985033883713186E-004;-8.523418800905347E-004;
2.415500000000000E+009;1.567132920026779E-001;-6.030033156275749E-002;7.307239575311542E-004;-9.927058126777411E-004;
2.415666666666667E+009;1.559787988662720E-001;-6.205383688211441E-002;7.906672544777393E-004;-1.016048598103225E-003;
2.415833333333334E+009;1.552817225456238E-001;-6.411173939704895E-002;7.340600714087486E-004;-1.225271495059133E-003;
2.416000000000000E+009;1.544228047132492E-001;-6.598769873380661E-002;8.954167133197188E-004;-1.354840118438005E-003;
2.416166666666667E+009;1.539651751518250E-001;-6.809879094362259E-002;7.546782144345343E-004;-1.390371005982161E-003;
2.416333333333334E+009;1.532514542341232E-001;-7.007199525833130E-002;8.010041201487184E-004;-1.564784441143274E-003;
2.416500000000000E+009;1.528239697217941E-001;-7.203536480665207E-002;7.945666438899934E-004;-1.662749797105789E-003;
2.416666666666667E+009;1.523889154195786E-001;-7.394630461931229E-002;5.417967331595719E-004;-1.821397338062525E-003;
2.416833333333334E+009;1.521638482809067E-001;-7.614114880561829E-002;6.160999764688313E-004;-1.951358746737242E-003;
2.417000000000000E+009;1.516568809747696E-001;-7.799663394689560E-002;6.051622331142426E-004;-2.043506130576134E-003;
2.417166666666667E+009;1.514960229396820E-001;-7.989179342985153E-002;6.028099451214075E-004;-2.181637799367309E-003;
2.417333333333334E+009;1.513324677944183E-001;-8.167748153209686E-002;5.413243197835982E-004;-2.349463524296880E-003;
2.417500000000000E+009;1.512642800807953E-001;-8.356837928295136E-002;5.209060036577284E-004;-2.344988286495209E-003;
2.417666666666667E+009;1.512393802404404E-001;-8.520703017711639E-002;5.051043699495494E-004;-2.535722916945815E-003;
2.417833333333334E+009;1.514174193143845E-001;-8.677265793085098E-002;4.156338982284069E-004;-2.745068399235606E-003;
2.418000000000000E+009;1.513895243406296E-001;-8.837350457906723E-002;5.806233384646475E-004;-2.960656071081758E-003;
2.418166666666667E+009;1.514700502157211E-001;-8.966485410928726E-002;3.318284580018371E-004;-3.212421899661422E-003;
2.418333333333334E+009;1.518147736787796E-001;-9.119044989347458E-002;5.241926191956736E-005;-3.226959146559238E-003;
2.418500000000000E+009;1.519235819578171E-001;-9.221682697534561E-002;-6.217801274033263E-005;-3.406080882996321E-003;
2.418666666666667E+009;1.522160023450851E-001;-9.343049675226212E-002;-1.107006901293062E-004;-3.668668912723661E-003;
2.418833333333334E+009;1.522951275110245E-001;-9.437225013971329E-002;-3.247057611588389E-004;-3.753588069230318E-003;
2.419000000000000E+009;1.525536626577377E-001;-9.526749700307846E-002;-7.829775568097830E-004;-3.824986517429352E-003;
2.419166666666667E+009;1.529774665832520E-001;-9.599389880895615E-002;-1.031184685416520E-003;-4.010846372693777E-003;
2.419333333333334E+009;1.528574079275131E-001;-9.649246931076050E-002;-1.272291759960353E-003;-4.086060915142298E-003;
2.419500000000000E+009;1.532304584980011E-001;-9.722492843866348E-002;-1.548054977320135E-003;-4.186845384538174E-003;
2.419666666666667E+009;1.535748243331909E-001;-9.772144258022308E-002;-1.855349983088672E-003;-4.077352117747068E-003;
2.419833333333334E+009;1.536537855863571E-001;-9.784954786300659E-002;-2.065489534288645E-003;-3.988675773143768E-003;
2.420000000000000E+009;1.539867520332336E-001;-9.802431613206863E-002;-2.370642265304923E-003;-3.965943120419979E-003;
2.420166666666667E+009;1.541220843791962E-001;-9.821179509162903E-002;-2.711786422878504E-003;-3.964192233979702E-003;
2.420333333333334E+009;1.543742269277573E-001;-9.827864915132523E-002;-2.983115613460541E-003;-3.795070573687553E-003;
2.420500000000000E+009;1.543971151113510E-001;-9.813346713781357E-002;-3.227812005206943E-003;-3.558668773621321E-003;
2.420666666666667E+009;1.543567031621933E-001;-9.780848771333695E-002;-3.655777079984546E-003;-3.547961357980967E-003;
2.420833333333334E+009;1.544423699378967E-001;-9.764939546585083E-002;-3.826692933216691E-003;-3.319237148389220E-003;
2.421000000000000E+009;1.541383415460587E-001;-9.745790064334869E-002;-4.105807747691870E-003;-3.257528180256486E-003;
2.421166666666667E+009;1.540933400392532E-001;-9.711127728223801E-002;-4.293273203074932E-003;-3.008184488862753E-003;
2.421333333333334E+009;1.539652794599533E-001;-9.691750258207321E-002;-4.604618065059185E-003;-2.903459127992392E-003;
2.421500000000000E+009;1.534524112939835E-001;-9.631364792585373E-002;-4.880005493760109E-003;-2.630999078974128E-003;
2.421666666666667E+009;1.532232314348221E-001;-9.606736153364182E-002;-5.126967560499907E-003;-2.350324997678399E-003;
2.421833333333334E+009;1.527330577373505E-001;-9.565595537424088E-002;-5.233907606452704E-003;-2.104192972183228E-003;
2.422000000000000E+009;1.519608646631241E-001;-9.541052579879761E-002;-5.314948968589306E-003;-1.818020711652935E-003;
2.422166666666667E+009;1.512702852487564E-001;-9.520889818668366E-002;-5.509351380169392E-003;-1.497936667874456E-003;
2.422333333333334E+009;1.504600793123245E-001;-9.479214996099472E-002;-5.757696460932493E-003;-1.006883685477078E-003;
2.422500000000000E+009;1.495266705751419E-001;-9.452723711729050E-002;-5.755288992077112E-003;-6.996300071477890E-004;
2.422666666666667E+009;1.484473943710327E-001;-9.429539740085602E-002;-5.750798154622316E-003;-2.710474655032158E-004;
2.422833333333334E+009;1.473554074764252E-001;-9.407908469438553E-002;-5.724850110709667E-003;2.361162478337064E-005;
2.423000000000000E+009;1.460391879081726E-001;-9.391570836305618E-002;-5.762392655014992E-003;4.030391282867640E-004;
2.423166666666667E+009;1.448757648468018E-001;-9.378480166196823E-002;-5.752588622272015E-003;6.940106977708638E-004;
2.423333333333334E+009;1.434679329395294E-001;-9.351248294115067E-002;-5.645901430398226E-003;1.063983771018684E-003;
2.423500000000000E+009;1.421146094799042E-001;-9.372593462467194E-002;-5.461147055029869E-003;1.311152707785368E-003;
2.423666666666667E+009;1.403598189353943E-001;-9.379713982343674E-002;-5.369048565626144E-003;1.581211923621595E-003;
2.423833333333334E+009;1.390703916549683E-001;-9.406654536724091E-002;-5.129301454871893E-003;1.941233291290700E-003;
2.424000000000000E+009;1.374618560075760E-001;-9.410232305526733E-002;-5.011195782572031E-003;2.147451974451542E-003;
2.424166666666667E+009;1.359503567218781E-001;-9.435708820819855E-002;-4.635840188711882E-003;2.356071723625064E-003;
2.424333333333334E+009;1.344009786844254E-001;-9.473190456628799E-002;-4.621878731995821E-003;2.695885254070163E-003;
2.424500000000000E+009;1.329086273908615E-001;-9.538200497627258E-002;-4.423219244927168E-003;2.832366386428475E-003;
2.424666666666667E+009;1.315229088068008E-001;-9.568966925144196E-002;-4.018824547529221E-003;3.007881110534072E-003;
2.424833333333334E+009;1.297399997711182E-001;-9.648313373327255E-002;-3.925201483070850E-003;3.214170923456550E-003;
2.425000000000000E+009;1.284726560115814E-001;-9.738740324974060E-002;-3.611888969317079E-003;3.329407423734665E-003;
2.425166666666667E+009;1.268569529056549E-001;-9.825399518013001E-002;-3.217897377908230E-003;3.380144946277142E-003;
2.425333333333334E+009;1.256212294101715E-001;-9.921789169311523E-002;-3.080724272876978E-003;3.529344219714403E-003;
2.425500000000000E+009;1.244456321001053E-001;-1.003766804933548E-001;-2.766180783510208E-003;3.367888974025846E-003;
2.425666666666667E+009;1.230080202221870E-001;-1.015288531780243E-001;-2.578339539468288E-003;3.522010752931237E-003;
2.425833333333334E+009;1.219560876488686E-001;-1.027710512280464E-001;-2.458222443237901E-003;3.564953571185470E-003;
2.426000000000000E+009;1.208330988883972E-001;-1.043012663722038E-001;-2.193542197346687E-003;3.424650058150291E-003;
2.426166666666667E+009;1.199943721294403E-001;-1.058196723461151E-001;-2.097230404615402E-003;3.590250387787819E-003;
2.426333333333334E+009;1.188866123557091E-001;-1.072478741407394E-001;-1.722535816952586E-003;3.495287615805864E-003;
2.426500000000000E+009;1.180766969919205E-001;-1.086923927068710E-001;-1.661453861743212E-003;3.382697002962232E-003;
2.426666666666667E+009;1.174539625644684E-001;-1.102702766656876E-001;-1.390321995131671E-003;3.340520896017551E-003;
2.426833333333334E+009;1.167637705802918E-001;-1.118519827723503E-001;-1.401828019879758E-003;3.201225539669395E-003;
2.427000000000000E+009;1.161003336310387E-001;-1.135870292782784E-001;-1.228186418302357E-003;3.037526970729232E-003;
2.427166666666667E+009;1.155914515256882E-001;-1.151305437088013E-001;-1.008634571917355E-003;3.202263964340091E-003;
2.427333333333334E+009;1.150253787636757E-001;-1.169559434056282E-001;-1.005256664939225E-003;3.054888686165214E-003;
2.427500000000000E+009;1.149042919278145E-001;-1.184794008731842E-001;-1.024161116220057E-003;2.856754697859287E-003;
2.427666666666667E+009;1.146058812737465E-001;-1.201456412672997E-001;-9.197326144203544E-004;2.831458114087582E-003;
