# Version 1.00
#
freq[Hz];re:Trc1_S11;im:Trc1_S11;re:Trc2_S21;im:Trc2_S21;
2.400000000000000E+009;1.573813855648041E-001;6.296757608652115E-002;-1.614331034943461E-003;-6.050410447642207E-004;
2.400166666666667E+009;1.573036760091782E-001;6.133463233709335E-002;-1.566045684739947E-003;-5.510810296982527E-004;
2.400333333333334E+009;1.572445034980774E-001;5.924622341990471E-002;-1.497338875196874E-003;-3.502082254271954E-004;
2.400500000000000E+009;1.572118699550629E-001;5.737055838108063E-002;-1.258087344467640E-003;-5.286719533614814E-004;
2.400666666666667E+009;1.572451144456863E-001;5.540711432695389E-002;-1.412011682987213E-003;-4.832852573599666E-004;
2.400833333333334E+009;1.573348641395569E-001;5.337897688150406E-002;-1.207431079819799E-003;-4.636856610886753E-004;
2.401000000000000E+009;1.572871357202530E-001;5.128045380115509E-002;-1.282440614886582E-003;-2.666954824235290E-004;
2.401166666666667E+009;1.576195210218430E-001;4.903449118137360E-002;-1.364727853797376E-003;-4.479893250390887E-004;
2.401333333333334E+009;1.579378396272659E-001;4.707499966025353E-002;-1.322823110967875E-003;-3.292894107289612E-004;
2.401500000000000E+009;1.582444459199905E-001;4.498305916786194E-002;-1.185473636724055E-003;-4.390591930132359E-004;
2.401666666666667E+009;1.584664285182953E-001;4.295435920357704E-002;-1.181957661174238E-003;-5.391917075030506E-004;
2.401833333333334E+009;1.589721739292145E-001;4.090480133891106E-002;-1.248782849870622E-003;-3.301758551970124E-004;
2.402000000000000E+009;1.594923436641693E-001;3.875747695565224E-002;-1.294890418648720E-003;-4.591044271364808E-004;
2.402166666666667E+009;1.599038690328598E-001;3.660300001502037E-002;-1.198745681904256E-003;-5.001497920602560E-004;
2.402333333333334E+009;1.606746912002564E-001;3.488369286060333E-002;-1.257451483979821E-003;-5.694715073332191E-004;
2.402500000000000E+009;1.614638715982437E-001;3.289889916777611E-002;-1.328697428107262E-003;-4.573308397084475E-004;
2.402666666666667E+009;1.620081961154938E-001;3.131596371531487E-002;-1.209237962029874E-003;-7.313989335671067E-004;
2.402833333333334E+009;1.628386527299881E-001;2.957886829972267E-002;-1.385124516673386E-003;-5.965267191641033E-004;
2.403000000000000E+009;1.637645810842514E-001;2.805452235043049E-002;-1.390001620166004E-003;-5.296480958350003E-004;
2.403166666666667E+009;1.647499948740006E-001;2.638319507241249E-002;-1.408862532116473E-003;-6.315557402558625E-004;
2.403333333333334E+009;1.655010879039764E-001;2.483426220715046E-002;-1.477750251069665E-003;-5.364376120269299E-004;
2.403500000000000E+009;1.664949208498001E-001;2.370206825435162E-002;-1.489743706770241E-003;-6.734887138009071E-004;
2.403666666666667E+009;1.675266325473785E-001;2.218172326683998E-002;-1.550695160403848E-003;-5.372327286750078E-004;
2.403833333333334E+009;1.684475541114807E-001;2.090037614107132E-002;-1.808314002119005E-003;-3.693198086693883E-004;
2.404000000000000E+009;1.695744246244431E-001;1.979524828493595E-002;-1.819075900129974E-003;-5.630266387015581E-004;
2.404166666666667E+009;1.705387383699417E-001;1.861824467778206E-002;-1.738444902002811E-003;-4.189145984128118E-004;
2.404333333333334E+009;1.715091764926910E-001;1.770344004034996E-002;-1.653797342441976E-003;-2.590502263046801E-004;
2.404500000000000E+009;1.724988967180252E-001;1.664885319769383E-002;-1.669271383434534E-003;-1.624217838980258E-004;
2.404666666666667E+009;1.734091937541962E-001;1.598008163273335E-002;-1.940410467796028E-003;-3.161540662404150E-004;
2.404833333333334E+009;1.744251102209091E-001;1.519487984478474E-002;-1.945946831256151E-003;-2.216107968706638E-004;
2.405000000000000E+009;1.752002090215683E-001;1.445419900119305E-002;-2.003737492486835E-003;-2.308367038494907E-005;
2.405166666666667E+009;1.760548800230026E-001;1.405907329171896E-002;-2.091462025418878E-003;-6.132484122645110E-005;
2.405333333333334E+009;1.769956499338150E-001;1.326498575508595E-002;-1.993151381611824E-003;2.300463820574805E-004;
2.405500000000000E+009;1.776246130466461E-001;1.296073198318481E-002;-1.909957616589963E-003;1.427376992069185E-004;
2.405666666666667E+009;1.783867180347443E-001;1.244393642991781E-002;-1.898624352179468E-003;3.135913284495473E-004;
2.405833333333334E+009;1.788456290960312E-001;1.214625500142574E-002;-1.945062656886876E-003;2.988778578583151E-004;
2.406000000000000E+009;1.794937849044800E-001;1.172926463186741E-002;-1.769127440638840E-003;6.963351042941213E-004;
2.406166666666667E+009;1.796685457229614E-001;1.164665445685387E-002;-2.058379119262099E-003;5.192382377572358E-004;
2.406333333333334E+009;1.803465783596039E-001;1.137804239988327E-002;-1.791801303625107E-003;5.996996769681573E-004;
2.406500000000000E+009;1.805618405342102E-001;1.094494014978409E-002;-1.789678703062236E-003;6.944861961528659E-004;
2.406666666666667E+009;1.805146187543869E-001;1.076777651906014E-002;-1.668837154284120E-003;7.400618633255363E-004;
2.406833333333334E+009;1.808730214834213E-001;1.041550189256668E-002;-1.699470914900303E-003;7.768205250613391E-004;
2.407000000000000E+009;1.809649020433426E-001;1.009961869567633E-002;-1.579332747496665E-003;9.077381691895425E-004;
2.407166666666667E+009;1.809531301259995E-001;9.891873225569725E-003;-1.566227641887963E-003;9.721019305288792E-004;
2.407333333333334E+009;1.807480901479721E-001;9.324148297309876E-003;-1.674692961387336E-003;8.868467411957681E-004;
2.407500000000000E+009;1.805447190999985E-001;9.126535616815090E-003;-1.328956801444292E-003;8.909323369152844E-004;
2.407666666666667E+009;1.803378611803055E-001;8.597664535045624E-003;-1.290634972974658E-003;1.001837430521846E-003;
2.407833333333334E+009;1.797667890787125E-001;7.984837517142296E-003;-1.284271129406989E-003;9.169357945211232E-004;
2.408000000000000E+009;1.795034855604172E-001;7.334352936595678E-003;-1.324819284491241E-003;9.976718574762344E-004;
2.408166666666667E+009;1.789730638265610E-001;6.984978448599577E-003;-1.125340466387570E-003;1.079171546734870E-003;
2.408333333333334E+009;1.786139756441116E-001;6.156487390398979E-003;-1.082664472050965E-003;8.477210067212582E-004;
2.408500000000000E+009;1.780049502849579E-001;5.338214337825775E-003;-1.075018197298050E-003;9.400627459399402E-004;
2.408666666666667E+009;1.773930191993713E-001;4.281367640942335E-003;-1.097330008633435E-003;8.997237309813500E-004;
2.408833333333334E+009;1.765310466289520E-001;3.361553652212024E-003;-1.031654071994126E-003;9.778437670320272E-004;
2.409000000000000E+009;1.759346127510071E-001;2.457086229696870E-003;-1.235226169228554E-003;9.148562676273286E-004;
2.409166666666667E+009;1.751693934202194E-001;1.136508770287037E-003;-1.038767863065004E-003;8.002595277503133E-004;
2.409333333333334E+009;1.745706051588059E-001;-1.456447935197502E-004;-1.056674285791814E-003;7.829442038200796E-004;
2.409500000000000E+009;1.739705950021744E-001;-1.409484189935029E-003;-1.030658022500575E-003;9.471332887187600E-004;
2.409666666666667E+009;1.730476915836334E-001;-2.764137461781502E-003;-1.099089742638171E-003;7.975251064635813E-004;
2.409833333333334E+009;1.724121123552322E-001;-4.298151936382055E-003;-1.037382637150586E-003;9.622615179978311E-004;
2.410000000000000E+009;1.718101799488068E-001;-5.820408463478088E-003;-1.158389961346984E-003;9.961444884538651E-004;
2.410166666666667E+009;1.712124198675156E-001;-7.514715660363436E-003;-1.091217854991555E-003;8.531642961315811E-004;
2.410333333333334E+009;1.705747842788696E-001;-9.074399247765541E-003;-1.054264954291284E-003;9.330906905233860E-004;
2.410500000000000E+009;1.699536293745041E-001;-1.083691790699959E-002;-1.238996279425919E-003;8.698072051629424E-004;
2.410666666666667E+009;1.693902015686035E-001;-1.283758133649826E-002;-1.248595654033124E-003;9.195339516736567E-004;
2.410833333333334E+009;1.689759492874146E-001;-1.457771006971598E-002;-1.113990903832018E-003;8.687757654115558E-004;
2.411000000000000E+009;1.686777770519257E-001;-1.642296276986599E-002;-1.106930314563215E-003;9.118255693465471E-004;
2.411166666666667E+009;1.682811677455902E-001;-1.848917827010155E-002;-1.121785375289619E-003;1.079478184692562E-003;
2.411333333333334E+009;1.681322604417801E-001;-2.024211362004280E-002;-1.092944876290858E-003;1.088405377231538E-003;
2.411500000000000E+009;1.676382571458817E-001;-2.250420488417149E-002;-1.149700488895178E-003;1.159666106104851E-003;
2.411666666666667E+009;1.679574102163315E-001;-2.448251284658909E-002;-1.144271576777101E-003;1.192937139421701E-003;
2.411833333333334E+009;1.678590774536133E-001;-2.630513906478882E-002;-1.070088823325932E-003;1.283035031519830E-003;
2.412000000000000E+009;1.679049283266068E-001;-2.825525589287281E-002;-1.073678373359144E-003;1.357173779979348E-003;
2.412166666666667E+009;1.680516451597214E-001;-3.023822233080864E-002;-1.115347491577268E-003;1.327356207184494E-003;
2.412333333333334E+009;1.683411747217178E-001;-3.217734396457672E-002;-9.529937524348497E-004;1.429253141395748E-003;
2.412500000000000E+009;1.684034019708633E-001;-3.411361202597618E-002;-9.460831643082202E-004;1.561975688673556E-003;
2.412666666666667E+009;1.689457893371582E-001;-3.612975776195526E-002;-1.027158694341779E-003;1.510254573076963E-003;
2.412833333333334E+009;1.693373918533325E-001;-3.803268820047379E-002;-8.553312509320676E-004;1.555346767418087E-003;
2.413000000000000E+009;1.696124821901321E-001;-3.968272358179092E-002;-9.290106245316565E-004;1.686038915067911E-003;
2.413166666666667E+009;1.701530814170837E-001;-4.143160581588745E-002;-6.748562445864081E-004;1.642988296225667E-003;
2.413333333333334E+009;1.705793887376785E-001;-4.320279136300087E-002;-9.340391261503100E-004;1.661279238760471E-003;
2.413500000000000E+009;1.711981147527695E-001;-4.486613348126411E-002;-7.469143602065742E-004;1.585816498845816E-003;
2.413666666666667E+009;1.718507856130600E-001;-4.645139724016190E-002;-6.204592064023018E-004;1.629684818908572E-003;
2.413833333333334E+009;1.724098473787308E-001;-4.784261807799339E-002;-4.525575786828995E-004;1.762070693075657E-003;
2.414000000000000E+009;1.728747636079788E-001;-4.941780492663384E-002;-5.626628990285099E-004;1.571908127516508E-003;
2.414166666666667E+009;1.734927445650101E-001;-5.037808790802956E-002;-4.323247412685305E-004;1.643438125029206E-003;
2.414333333333334E+009;1.741933822631836E-001;-5.179528146982193E-002;-2.746095124166459E-004;1.693005207926035E-003;
2.414500000000000E+009;1.749583631753922E-001;-5.286918208003044E-002;-2.951340575236827E-004;1.567755243740976E-003;
2.414666666666667E+009;1.752168983221054E-001;-5.385996028780937E-002;-3.935075656045228E-004;1.632221275940538E-003;
2.414833333333334E+009;1.757282167673111E-001;-5.473153665661812E-002;-2.077248063869774E-004;1.750188297592104E-003;
2.415000000000000E+009;1.763403713703156E-001;-5.549604445695877E-002;-2.040292747551575E-004;1.738886930979788E-003;
2.415166666666667E+009;1.766724288463593E-001;-5.626668408513069E-002;-8.928385796025395E-005;1.711898716166616E-003;
2.415333333333334E+009;1.772520244121552E-001;-5.728214234113693E-002;-3.396427928237245E-005;1.685979892499745E-003;
2.415500000000000E+009;1.774394065141678E-001;-5.767418444156647E-002;-7.428032404277474E-005;1.657375716604292E-003;
2.415666666666667E+009;1.777072697877884E-001;-5.802731215953827E-002;1.126797087636078E-006;1.662747934460640E-003;
2.415833333333334E+009;1.780172884464264E-001;-5.849201977252960E-002;-8.515178706147708E-006;1.789618167094886E-003;
2.416000000000000E+009;1.779944598674774E-001;-5.906273424625397E-002;-4.507920039031887E-006;1.687913201749325E-003;
2.416166666666667E+009;1.782916635274887E-001;-5.932311713695526E-002;-3.835582174360752E-005;1.581359538249672E-003;
2.416333333333334E+009;1.782519072294235E-001;-5.962483957409859E-002;5.152194353286177E-005;1.570842461660504E-003;
2.416500000000000E+009;1.781069040298462E-001;-5.989315733313561E-002;2.516701897548046E-005;1.536551979370415E-003;
2.416666666666667E+009;1.779210269451141E-001;-6.006971746683121E-002;1.001709533738904E-004;1.524099265225232E-003;
2.416833333333334E+009;1.777909696102142E-001;-6.033213809132576E-002;6.971075345063582E-005;1.414249534718692E-003;
2.417000000000000E+009;1.771559417247772E-001;-6.057031825184822E-002;4.959485158906318E-005;1.490857452154160E-003;
2.417166666666667E+009;1.766457855701447E-001;-6.060189753770828E-002;1.061353323166259E-004;1.613469445146620E-003;
2.417333333333334E+009;1.763023138046265E-001;-6.081803888082504E-002;1.708585768938065E-004;1.519534504041076E-003;
2.417500000000000E+009;1.755148917436600E-001;-6.115737557411194E-002;1.925146207213402E-004;1.500830752775073E-003;
2.417666666666667E+009;1.748654693365097E-001;-6.120203062891960E-002;1.865690501290374E-005;1.463326509110630E-003;
2.417833333333334E+009;1.740434020757675E-001;-6.149753183126450E-002;9.283130930271000E-005;1.519107143394649E-003;
2.418000000000000E+009;1.729533374309540E-001;-6.193073466420174E-002;8.108523616101593E-005;1.595415989868343E-003;
2.418166666666667E+009;1.720565706491470E-001;-6.198421865701675E-002;2.162518649129197E-004;1.589407795108855E-003;
2.418333333333334E+009;1.712573617696762E-001;-6.248217821121216E-002;1.899726630654186E-004;1.625714823603630E-003;
2.418500000000000E+009;1.701102107763290E-001;-6.278838217258453E-002;1.004428850137629E-004;1.685098512098193E-003;
2.418666666666667E+009;1.691385954618454E-001;-6.339643895626068E-002;4.762862954521552E-005;1.558145391754806E-003;
2.418833333333334E+009;1.677840948104858E-001;-6.385580450296402E-002;4.128587897866964E-005;1.606767065823078E-003;
2.419000000000000E+009;1.664662510156632E-001;-6.448971480131149E-002;1.930910802911967E-004;1.852996647357941E-003;
2.419166666666667E+009;1.653318852186203E-001;-6.510332971811295E-002;7.217635720735416E-005;1.869653584435582E-003;
2.419333333333334E+009;1.639146506786346E-001;-6.577584892511368E-002;2.436449285596609E-004;1.807191758416593E-003;
2.419500000000000E+009;1.628034263849258E-001;-6.682050973176956E-002;2.145460748579353E-004;2.070586197078228E-003;
2.419666666666667E+009;1.617198735475540E-001;-6.775797158479691E-002;3.926075587514788E-004;1.964969094842672E-003;
2.419833333333334E+009;1.603254377841950E-001;-6.850506365299225E-002;1.914174936246127E-004;1.928081037476659E-003;
2.420000000000000E+009;1.592822223901749E-001;-6.969317048788071E-002;2.888341259676963E-004;2.022966975346208E-003;
2.420166666666667E+009;1.581794023513794E-001;-7.080226391553879E-002;5.119848647154868E-004;2.177252667024732E-003;
2.420333333333334E+009;1.571352928876877E-001;-7.204718887805939E-002;5.234634154476225E-004;2.100481186062098E-003;
2.420500000000000E+009;1.560754179954529E-001;-7.309706509113312E-002;6.915977573953569E-004;2.225662814453244E-003;
2.420666666666667E+009;1.550931036472321E-001;-7.437960803508759E-002;7.183655397966504E-004;2.202676376327872E-003;
2.420833333333334E+009;1.542212814092636E-001;-7.605210691690445E-002;6.954419659450650E-004;2.270462224259973E-003;
2.421000000000000E+009;1.531230211257935E-001;-7.746865600347519E-002;7.958799251355231E-004;2.471133600920439E-003;
2.421166666666667E+009;1.525564640760422E-001;-7.901924103498459E-002;9.905389742925763E-004;2.400519559159875E-003;
2.421333333333334E+009;1.519826054573059E-001;-8.055401593446732E-002;1.243310165591538E-003;2.490865765139461E-003;
2.421500000000000E+009;1.511958390474320E-001;-8.219308406114578E-002;1.203929539769888E-003;2.509551588445902E-003;
2.421666666666667E+009;1.506887376308441E-001;-8.387867361307144E-002;1.377168460749090E-003;2.430220600217581E-003;
2.421833333333334E+009;1.502954810857773E-001;-8.548398315906525E-002;1.627411926165223E-003;2.565530594438314E-003;
2.422000000000000E+009;1.498796343803406E-001;-8.735794574022293E-002;1.815884606912732E-003;2.430533291772008E-003;
2.422166666666667E+009;1.497758179903030E-001;-8.916890621185303E-002;1.698132022283971E-003;2.252424834296107E-003;
2.422333333333334E+009;1.496333926916122E-001;-9.071314334869385E-002;1.986416988074780E-003;2.262987894937396E-003;
2.422500000000000E+009;1.495239734649658E-001;-9.244174510240555E-002;2.126771258190274E-003;2.333350479602814E-003;
2.422666666666667E+009;1.494420319795609E-001;-9.413857758045197E-002;2.124384744092822E-003;2.285310532897711E-003;
2.422833333333334E+009;1.496357023715973E-001;-9.602332860231400E-002;2.398787299171090E-003;1.974097685888410E-003;
2.423000000000000E+009;1.496648043394089E-001;-9.755223989486694E-002;2.582656219601631E-003;2.042787382379174E-003;
2.423166666666667E+009;1.500081121921539E-001;-9.920188039541245E-002;2.586603863164783E-003;1.976082799956203E-003;
2.423333333333334E+009;1.502103656530380E-001;-1.007800623774529E-001;2.778087044134736E-003;1.801674836315215E-003;
2.423500000000000E+009;1.505901515483856E-001;-1.025552824139595E-001;2.700315089896321E-003;1.597164082340896E-003;
2.423666666666667E+009;1.508091092109680E-001;-1.040850207209587E-001;3.041434567421675E-003;1.363850198686123E-003;
2.423833333333334E+009;1.513077616691589E-001;-1.054990887641907E-001;3.088449360802770E-003;1.273057539947331E-003;
2.424000000000000E+009;1.516072601079941E-001;-1.067865192890167E-001;3.078132867813110E-003;1.260980730876327E-003;
2.424166666666667E+009;1.521676182746887E-001;-1.080792918801308E-001;3.109126118943095E-003;1.155907870270312E-003;
2.424333333333334E+009;1.527370810508728E-001;-1.092685237526894E-001;3.257218981161714E-003;8.308804244734347E-004;
2.424500000000000E+009;1.531451344490051E-001;-1.105091571807861E-001;3.198126330971718E-003;6.212728912942112E-004;
2.424666666666667E+009;1.537692695856094E-001;-1.112780794501305E-001;3.162232926115394E-003;5.541379796341062E-004;
2.424833333333334E+009;1.541785448789597E-001;-1.124410107731819E-001;3.211672417819500E-003;3.408492193557322E-004;
2.425000000000000E+009;1.547377705574036E-001;-1.133087053894997E-001;3.210576949641109E-003;2.583671011961997E-004;
2.425166666666667E+009;1.550997942686081E-001;-1.140520796179771E-001;3.125896444544196E-003;2.090164343826473E-004;
2.425333333333334E+009;1.555749773979187E-001;-1.147731095552445E-001;3.116445848718286E-003;8.473128400510177E-005;
2.425500000000000E+009;1.559485942125320E-001;-1.155115365982056E-001;3.027115482836962E-003;-1.485433604102582E-004;
2.425666666666667E+009;1.561855673789978E-001;-1.160707324743271E-001;3.036733483895659E-003;-2.899728133343160E-004;
2.425833333333334E+009;1.565331965684891E-001;-1.165492460131645E-001;2.957998774945736E-003;-5.537737160921097E-004;
2.426000000000000E+009;1.566509455442429E-001;-1.170568987727165E-001;3.000386059284210E-003;-3.745538706425577E-004;
2.426166666666667E+009;1.569945663213730E-001;-1.174632087349892E-001;2.940163481980562E-003;-5.154546815901995E-004;
2.426333333333334E+009;1.569452881813049E-001;-1.177602186799049E-001;2.823058981448412E-003;-6.067072972655296E-004;
2.426500000000000E+009;1.569010168313980E-001;-1.179311349987984E-001;2.731827786192298E-003;-7.162806577980518E-004;
2.426666666666667E+009;1.569945365190506E-001;-1.179803386330605E-001;2.718906151130796E-003;-7.275756215676665E-004;
2.426833333333334E+009;1.567660719156265E-001;-1.182621568441391E-001;2.522348426282406E-003;-9.302629041485488E-004;
2.427000000000000E+009;1.564016789197922E-001;-1.184501945972443E-001;2.579281572252512E-003;-9.662574739195406E-004;
2.427166666666667E+009;1.560249179601669E-001;-1.183094829320908E-001;2.353342715650797E-003;-1.068054232746363E-003;
2.427333333333334E+009;1.555226445198059E-001;-1.184843480587006E-001;2.460607793182135E-003;-1.017514034174383E-003;
2.427500000000000E+009;1.551315933465958E-001;-1.185877546668053E-001;2.482685493305326E-003;-1.017172588035464E-003;
2.427666666666667E+009;1.543533504009247E-001;-1.187347546219826E-001;2.308032475411892E-003;-1.031433115713298E-003;
2.427833333333334E+009;1.535429954528809E-001;-1.188052222132683E-001;2.287104493007064E-003;-9.681740193627775E-004;
