# Version 1.00
#
freq[Hz];re:Trc1_S11;im:Trc1_S11;re:Trc2_S21;im:Trc2_S21;
2.400000000000000E+009;1.584216356277466E-001;6.301101297140122E-002;-5.360601353459060E-004;-3.353220643475652E-003;
2.400166666666667E+009;1.583708524703980E-001;6.144354119896889E-002;-6.635062745772302E-004;-3.398878965526819E-003;
2.400333333333334E+009;1.582412123680115E-001;5.928871035575867E-002;-6.119453464634717E-004;-3.395632840692997E-003;
2.400500000000000E+009;1.582331806421280E-001;5.763058736920357E-002;-6.188072147779167E-004;-3.350399201735854E-003;
2.400666666666667E+009;1.581066995859146E-001;5.567543208599091E-002;-9.113864507526159E-004;-3.628146136179566E-003;
2.400833333333334E+009;1.581950634717941E-001;5.362829566001892E-002;-8.112915675155819E-004;-3.558876691386104E-003;
2.401000000000000E+009;1.582661271095276E-001;5.165225267410278E-002;-9.042684105224907E-004;-3.636018140241504E-003;
2.401166666666667E+009;1.583735495805740E-001;4.946296289563179E-002;-9.638428455218673E-004;-3.579138545319438E-003;
2.401333333333334E+009;1.584248840808868E-001;4.741426929831505E-002;-9.926345665007830E-004;-3.558075986802578E-003;
2.401500000000000E+009;1.585797518491745E-001;4.533255100250244E-002;-1.301136100664735E-003;-3.697467269375920E-003;
2.401666666666667E+009;1.589689403772354E-001;4.340108484029770E-002;-1.303602824918926E-003;-3.516532480716705E-003;
2.401833333333334E+009;1.593310236930847E-001;4.120806604623795E-002;-1.332164392806590E-003;-3.711922327056527E-003;
2.402000000000000E+009;1.595009565353394E-001;3.925688937306404E-002;-1.362058217637241E-003;-3.843546146526933E-003;
2.402166666666667E+009;1.599624603986740E-001;3.704037144780159E-002;-1.517802826128900E-003;-3.806200809776783E-003;
2.402333333333334E+009;1.604979485273361E-001;3.517898172140122E-002;-1.688070013187826E-003;-3.675740677863360E-003;
2.402500000000000E+009;1.615214943885803E-001;3.345125913619995E-002;-1.801586826331914E-003;-3.821106161922216E-003;
2.402666666666667E+009;1.618569940328598E-001;3.159934654831886E-002;-1.858234754763544E-003;-3.674234962090850E-003;
2.402833333333334E+009;1.626350432634354E-001;2.992760576307774E-002;-2.114373957738280E-003;-3.723489120602608E-003;
2.403000000000000E+009;1.633098870515823E-001;2.819561585783958E-002;-2.231954131275415E-003;-4.179678391665220E-003;
2.403166666666667E+009;1.642870306968689E-001;2.646723389625549E-002;-2.623776206746697E-003;-3.920771181583405E-003;
2.403333333333334E+009;1.652283817529678E-001;2.507341094315052E-002;-2.487644320353866E-003;-3.769922768697143E-003;
2.403500000000000E+009;1.660332083702087E-001;2.338665910065174E-002;-2.758644288405776E-003;-3.574056085199118E-003;
2.403666666666667E+009;1.669933348894119E-001;2.211404591798782E-002;-3.106240183115006E-003;-3.763462183997035E-003;
2.403833333333334E+009;1.679663509130478E-001;2.076509594917297E-002;-3.200622275471687E-003;-3.307816805317998E-003;
2.404000000000000E+009;1.689251214265823E-001;1.958175189793110E-002;-3.365764394402504E-003;-3.296420210972428E-003;
2.404166666666667E+009;1.697708517313004E-001;1.823263801634312E-002;-3.903952427208424E-003;-3.138829953968525E-003;
2.404333333333334E+009;1.707600653171539E-001;1.732688210904598E-002;-3.862569108605385E-003;-3.248301101848483E-003;
2.404500000000000E+009;1.716667711734772E-001;1.611369475722313E-002;-4.431804176419973E-003;-2.952406881377101E-003;
2.404666666666667E+009;1.726171821355820E-001;1.537782885134220E-002;-4.186375532299280E-003;-2.409101929515600E-003;
2.404833333333334E+009;1.735777705907822E-001;1.468612719327211E-002;-4.320141393691301E-003;-2.528236247599125E-003;
2.405000000000000E+009;1.744742393493652E-001;1.371008250862360E-002;-4.544974770396948E-003;-2.362049883231521E-003;
2.405166666666667E+009;1.753053367137909E-001;1.319050136953592E-002;-4.283992107957602E-003;-2.245085779577494E-003;
2.405333333333334E+009;1.762719452381134E-001;1.238906756043434E-002;-4.659667145460844E-003;-1.989633077755570E-003;
2.405500000000000E+009;1.770305335521698E-001;1.189268566668034E-002;-4.943031352013350E-003;-1.588141662068665E-003;
2.405666666666667E+009;1.777021139860153E-001;1.147578097879887E-002;-4.798606038093567E-003;-1.765982247889042E-003;
2.405833333333334E+009;1.781991124153137E-001;1.110211946070194E-002;-4.979121498763561E-003;-1.405966002494097E-003;
2.406000000000000E+009;1.788539141416550E-001;1.052144728600979E-002;-4.833060316741467E-003;-1.170000527054071E-003;
2.406166666666667E+009;1.792763918638229E-001;1.031368318945169E-002;-4.854227416217327E-003;-1.003386918455362E-003;
2.406333333333334E+009;1.798494756221771E-001;9.901282377541065E-003;-4.873767029494047E-003;-6.911549135111272E-004;
2.406500000000000E+009;1.801954209804535E-001;9.651883505284786E-003;-4.850335419178009E-003;-5.308372783474624E-004;
2.406666666666667E+009;1.801818311214447E-001;9.367682971060276E-003;-4.962638486176729E-003;-4.023234941996634E-004;
2.406833333333334E+009;1.807461231946945E-001;8.948508650064468E-003;-4.807547200471163E-003;-2.387579588685185E-004;
2.407000000000000E+009;1.807399541139603E-001;8.673211559653282E-003;-4.899952095001936E-003;-7.614558853674680E-005;
2.407166666666667E+009;1.808608919382095E-001;8.382396772503853E-003;-4.810682032257319E-003;1.398040767526254E-004;
2.407333333333334E+009;1.807076781988144E-001;7.956970483064652E-003;-4.772575572133064E-003;2.470874169375747E-004;
2.407500000000000E+009;1.806118935346603E-001;7.676715031266213E-003;-4.851688630878925E-003;4.384326748549938E-004;
2.407666666666667E+009;1.805321127176285E-001;7.267603185027838E-003;-4.758152645081282E-003;6.743357516825199E-004;
2.407833333333334E+009;1.800798028707504E-001;6.701551843434572E-003;-4.631697665899992E-003;7.720167632214725E-004;
2.408000000000000E+009;1.797501146793366E-001;6.072863005101681E-003;-4.567974247038364E-003;8.691424736753106E-004;
2.408166666666667E+009;1.793099939823151E-001;5.637893918901682E-003;-4.541089758276939E-003;9.510860545560718E-004;
2.408333333333334E+009;1.790197044610977E-001;4.993774462491274E-003;-4.579101689159870E-003;1.246619271114469E-003;
2.408500000000000E+009;1.785277277231216E-001;4.200702998787165E-003;-4.551839549094439E-003;1.271336222998798E-003;
2.408666666666667E+009;1.778038740158081E-001;3.260518424212933E-003;-4.400128964334726E-003;1.399772474542260E-003;
2.408833333333334E+009;1.772312819957733E-001;2.455185400322080E-003;-4.425895400345326E-003;1.442831475287676E-003;
2.409000000000000E+009;1.765313297510147E-001;1.695283688604832E-003;-4.338936880230904E-003;1.621318864636123E-003;
2.409166666666667E+009;1.757902055978775E-001;4.851029952988029E-004;-4.118842538446188E-003;1.602243050001562E-003;
2.409333333333334E+009;1.753205209970474E-001;-8.479176321998239E-004;-4.201631527394056E-003;1.606934703886509E-003;
2.409500000000000E+009;1.743910908699036E-001;-1.999505795538425E-003;-4.044223576784134E-003;1.899892580695450E-003;
2.409666666666667E+009;1.737945973873138E-001;-3.302739001810551E-003;-4.090342205017805E-003;2.078339690342546E-003;
2.409833333333334E+009;1.729570627212524E-001;-4.679220262914896E-003;-3.812545211985707E-003;2.128808759152889E-003;
2.410000000000000E+009;1.723144799470902E-001;-6.161419209092856E-003;-3.971436526626349E-003;2.234664047136903E-003;
2.410166666666667E+009;1.718825697898865E-001;-7.546662352979183E-003;-3.845520783215761E-003;2.298415172845125E-003;
2.410333333333334E+009;1.710800826549530E-001;-8.999231271445751E-003;-3.705647541210055E-003;2.347310306504369E-003;
2.410500000000000E+009;1.706282794475555E-001;-1.073615811765194E-002;-3.673579078167677E-003;2.494432963430882E-003;
2.410666666666667E+009;1.700263619422913E-001;-1.274192519485951E-002;-3.716426901519299E-003;2.648942172527313E-003;
2.410833333333334E+009;1.695900112390518E-001;-1.436916552484036E-002;-3.663011593744159E-003;2.709172666072846E-003;
2.411000000000000E+009;1.691723018884659E-001;-1.619812846183777E-002;-3.329255850985646E-003;2.939416095614433E-003;
2.411166666666667E+009;1.688023954629898E-001;-1.812799833714962E-002;-3.391075879335403E-003;2.873215358704329E-003;
2.411333333333334E+009;1.685114502906799E-001;-1.990734040737152E-002;-3.206652356311679E-003;3.047794103622437E-003;
2.411500000000000E+009;1.683200001716614E-001;-2.196632139384747E-002;-3.135005477815867E-003;3.121143672615290E-003;
2.411666666666667E+009;1.681319773197174E-001;-2.392357215285301E-002;-3.173962701112032E-003;3.081112401559949E-003;
2.411833333333334E+009;1.681024730205536E-001;-2.569887600839138E-002;-3.068190533667803E-003;3.274149494245648E-003;
2.412000000000000E+009;1.682575345039368E-001;-2.779859304428101E-002;-3.046541241928935E-003;3.375462722033262E-003;
2.412166666666667E+009;1.680891066789627E-001;-2.968637645244598E-002;-2.735849237069488E-003;3.523574443534017E-003;
2.412333333333334E+009;1.683929711580277E-001;-3.159138187766075E-002;-2.771307015791535E-003;3.600117750465870E-003;
2.412500000000000E+009;1.685338169336319E-001;-3.351869061589241E-002;-2.734049223363400E-003;3.856742754578590E-003;
2.412666666666667E+009;1.688133180141449E-001;-3.544936701655388E-002;-2.647645538672805E-003;3.874781541526318E-003;
2.412833333333334E+009;1.692199856042862E-001;-3.744677454233170E-002;-2.579061081632972E-003;3.896924434229732E-003;
2.413000000000000E+009;1.695416420698166E-001;-3.925030305981636E-002;-2.434375928714871E-003;4.077266901731491E-003;
2.413166666666667E+009;1.700403690338135E-001;-4.096465930342674E-002;-2.392497844994068E-003;4.171138629317284E-003;
2.413333333333334E+009;1.704552173614502E-001;-4.277449846267700E-002;-2.109379973262548E-003;4.339897073805332E-003;
2.413500000000000E+009;1.708460450172424E-001;-4.462877288460732E-002;-2.062528394162655E-003;4.338601138442755E-003;
2.413666666666667E+009;1.714177131652832E-001;-4.613720253109932E-002;-1.835258794017136E-003;4.445077851414681E-003;
2.413833333333334E+009;1.718809902667999E-001;-4.756814986467362E-002;-1.518947654403746E-003;4.561386071145535E-003;
2.414000000000000E+009;1.724247783422470E-001;-4.907795041799545E-002;-1.573038403876126E-003;4.540104418992996E-003;
2.414166666666667E+009;1.729377508163452E-001;-5.043886229395866E-002;-1.355951651930809E-003;4.709963221102953E-003;
2.414333333333334E+009;1.735873967409134E-001;-5.173909664154053E-002;-9.619497577659786E-004;4.785599652677774E-003;
2.414500000000000E+009;1.743361800909042E-001;-5.277753993868828E-002;-8.384830434806645E-004;4.699447192251682E-003;
2.414666666666667E+009;1.747200191020966E-001;-5.387510359287262E-002;-7.434829603880644E-004;4.800342023372650E-003;
2.414833333333334E+009;1.751415729522705E-001;-5.503806099295616E-002;-4.873208235949278E-004;4.820360802114010E-003;
2.415000000000000E+009;1.755183488130570E-001;-5.600093677639961E-002;-3.031983505934477E-004;4.805685952305794E-003;
2.415166666666667E+009;1.759907305240631E-001;-5.687183514237404E-002;-2.570013457443565E-004;4.736257251352072E-003;
2.415333333333334E+009;1.765431016683579E-001;-5.764188244938850E-002;-7.767483475618064E-005;4.803005605936050E-003;
2.415500000000000E+009;1.768178641796112E-001;-5.825260654091835E-002;3.062025643885136E-004;4.585569258779287E-003;
2.415666666666667E+009;1.770081669092178E-001;-5.872109904885292E-002;5.568450433202088E-004;4.701614379882813E-003;
2.415833333333334E+009;1.774448752403259E-001;-5.939885973930359E-002;6.632111035287380E-004;4.634969867765904E-003;
2.416000000000000E+009;1.774125993251801E-001;-5.980232730507851E-002;8.140409481711686E-004;4.544661846011877E-003;
2.416166666666667E+009;1.776271015405655E-001;-6.027031317353249E-002;9.572341223247349E-004;4.452648106962442E-003;
2.416333333333334E+009;1.776917874813080E-001;-6.050716713070869E-002;1.166942762210965E-003;4.394060000777245E-003;
2.416500000000000E+009;1.775436401367188E-001;-6.085285171866417E-002;1.230834634043276E-003;4.197803791612387E-003;
2.416666666666667E+009;1.773722022771835E-001;-6.114600598812103E-002;1.267141313292086E-003;4.226109944283962E-003;
2.416833333333334E+009;1.771617829799652E-001;-6.142476946115494E-002;1.496169134043157E-003;4.078856203705072E-003;
2.417000000000000E+009;1.767928600311279E-001;-6.165529042482376E-002;1.620937138795853E-003;4.179645795375109E-003;
2.417166666666667E+009;1.762665212154388E-001;-6.181958690285683E-002;1.656654523685575E-003;3.947097808122635E-003;
2.417333333333334E+009;1.757408827543259E-001;-6.204641237854958E-002;1.795600634068251E-003;3.880899399518967E-003;
2.417500000000000E+009;1.750471889972687E-001;-6.239155679941177E-002;1.902623102068901E-003;3.625107929110527E-003;
2.417666666666667E+009;1.745086014270783E-001;-6.243491917848587E-002;1.953409286215901E-003;3.803216619417071E-003;
2.417833333333334E+009;1.737438440322876E-001;-6.263393908739090E-002;2.097086748108268E-003;3.463337197899818E-003;
2.418000000000000E+009;1.728069037199020E-001;-6.301791220903397E-002;2.145043574273586E-003;3.424370894208551E-003;
2.418166666666667E+009;1.718481928110123E-001;-6.321665644645691E-002;2.309342147782445E-003;3.374915104359388E-003;
2.418333333333334E+009;1.712980866432190E-001;-6.369344890117645E-002;2.163805300369859E-003;3.302327124401927E-003;
2.418500000000000E+009;1.700050234794617E-001;-6.389710307121277E-002;2.371277427300811E-003;3.150428179651499E-003;
2.418666666666667E+009;1.690436452627182E-001;-6.444121897220612E-002;2.580004744231701E-003;3.041749121621251E-003;
2.418833333333334E+009;1.679387837648392E-001;-6.512117385864258E-002;2.414685441181064E-003;3.024789737537503E-003;
2.419000000000000E+009;1.666169315576553E-001;-6.550551950931549E-002;2.554934471845627E-003;2.929037436842918E-003;
2.419166666666667E+009;1.654583662748337E-001;-6.617189943790436E-002;2.467764075845480E-003;2.860625274479389E-003;
2.419333333333334E+009;1.641763299703598E-001;-6.670000404119492E-002;2.589735668152571E-003;2.837923355400562E-003;
2.419500000000000E+009;1.631578207015991E-001;-6.754985451698303E-002;2.578676445409656E-003;2.699632430449128E-003;
2.419666666666667E+009;1.619790792465210E-001;-6.859365105628967E-002;2.709028311073780E-003;2.564344089478254E-003;
2.419833333333334E+009;1.606885194778442E-001;-6.928007304668427E-002;2.718568313866854E-003;2.686893101781607E-003;
2.420000000000000E+009;1.596631854772568E-001;-7.031776010990143E-002;2.674565417692065E-003;2.510235179215670E-003;
2.420166666666667E+009;1.585229635238648E-001;-7.145048677921295E-002;2.935925731435418E-003;2.426664112135768E-003;
2.420333333333334E+009;1.574874967336655E-001;-7.251734286546707E-002;2.827284159138799E-003;2.345673274248838E-003;
2.420500000000000E+009;1.564021855592728E-001;-7.366916537284851E-002;2.994792303070426E-003;2.352801384404302E-003;
2.420666666666667E+009;1.554702371358872E-001;-7.498316466808319E-002;2.840883564203978E-003;2.218478126451373E-003;
2.420833333333334E+009;1.543992012739182E-001;-7.625805586576462E-002;3.022712422534823E-003;2.073984825983644E-003;
2.421000000000000E+009;1.535405963659287E-001;-7.784155756235123E-002;3.119935980066657E-003;2.154330024495721E-003;
2.421166666666667E+009;1.528880596160889E-001;-7.925170660018921E-002;3.123748814687133E-003;1.861941535025835E-003;
2.421333333333334E+009;1.522808074951172E-001;-8.084044605493546E-002;3.206057939678431E-003;1.807516440749168E-003;
2.421500000000000E+009;1.514750719070435E-001;-8.240018039941788E-002;3.235684940591455E-003;1.774006057530642E-003;
2.421666666666667E+009;1.510803848505020E-001;-8.393819630146027E-002;3.327518468722701E-003;1.711755758151412E-003;
2.421833333333334E+009;1.505123376846314E-001;-8.564703911542893E-002;3.345617093145847E-003;1.731788041070104E-003;
2.422000000000000E+009;1.500225961208344E-001;-8.737040311098099E-002;3.472845302894712E-003;1.571423490531743E-003;
2.422166666666667E+009;1.497068107128143E-001;-8.929007500410080E-002;3.453627694398165E-003;1.516040530987084E-003;
2.422333333333334E+009;1.495357155799866E-001;-9.085837006568909E-002;3.526241285726428E-003;1.472305390052497E-003;
2.422500000000000E+009;1.493464261293411E-001;-9.246050566434860E-002;3.636445384472609E-003;1.407371484674513E-003;
2.422666666666667E+009;1.491053849458695E-001;-9.415317326784134E-002;3.601674921810627E-003;1.232628128491342E-003;
2.422833333333334E+009;1.493401378393173E-001;-9.606629610061646E-002;3.571159671992064E-003;1.111217425204814E-003;
2.423000000000000E+009;1.493328809738159E-001;-9.758525341749191E-002;3.557228716090322E-003;1.016173744574189E-003;
2.423166666666667E+009;1.494865417480469E-001;-9.926562011241913E-002;3.754446282982826E-003;9.712773025967181E-004;
2.423333333333334E+009;1.499072462320328E-001;-1.007071286439896E-001;3.646615426987410E-003;8.204680634662509E-004;
2.423500000000000E+009;1.501577198505402E-001;-1.022418588399887E-001;3.660542890429497E-003;8.362798835150898E-004;
2.423666666666667E+009;1.503404080867767E-001;-1.039192676544190E-001;3.731822129338980E-003;6.529479869641364E-004;
2.423833333333334E+009;1.507841348648071E-001;-1.053271740674973E-001;3.649807069450617E-003;5.633124383166432E-004;
2.424000000000000E+009;1.510882824659348E-001;-1.065387725830078E-001;3.694661427289248E-003;3.130522090941668E-004;
2.424166666666667E+009;1.515680253505707E-001;-1.080151200294495E-001;3.557175165042281E-003;3.092353872489184E-004;
2.424333333333334E+009;1.521375775337219E-001;-1.092505902051926E-001;3.693679580464959E-003;1.156933067250066E-004;
2.424500000000000E+009;1.525879502296448E-001;-1.104773879051209E-001;3.765306202694774E-003;5.429220254882239E-005;
2.424666666666667E+009;1.531304568052292E-001;-1.112601608037949E-001;3.731854259967804E-003;-1.127675350289792E-004;
2.424833333333334E+009;1.535461246967316E-001;-1.124069690704346E-001;3.682732349261642E-003;-2.083141735056415E-004;
2.425000000000000E+009;1.540596485137940E-001;-1.133804917335510E-001;3.642200492322445E-003;-3.119946923106909E-004;
2.425166666666667E+009;1.542653441429138E-001;-1.141940131783485E-001;3.648691810667515E-003;-3.981481422670186E-004;
2.425333333333334E+009;1.547928005456924E-001;-1.150914058089256E-001;3.583305282518268E-003;-6.014059181325138E-004;
2.425500000000000E+009;1.553623974323273E-001;-1.157602295279503E-001;3.648236393928528E-003;-7.328115170821548E-004;
2.425666666666667E+009;1.554980725049973E-001;-1.164238080382347E-001;3.569812746718526E-003;-6.956644938327372E-004;
2.425833333333334E+009;1.556635051965714E-001;-1.170268878340721E-001;3.590958658605814E-003;-8.478576783090830E-004;
2.426000000000000E+009;1.559771448373795E-001;-1.175816729664803E-001;3.526736050844193E-003;-9.822682477533817E-004;
2.426166666666667E+009;1.563975811004639E-001;-1.179537326097488E-001;3.364286618307233E-003;-1.038011047057807E-003;
2.426333333333334E+009;1.562316119670868E-001;-1.182800158858299E-001;3.378851106390357E-003;-1.204544678330421E-003;
2.426500000000000E+009;1.563207656145096E-001;-1.186228692531586E-001;3.421098459511995E-003;-1.219173078425229E-003;
2.426666666666667E+009;1.563584655523300E-001;-1.186727583408356E-001;3.221861319616437E-003;-1.453285920433700E-003;
2.426833333333334E+009;1.560428142547607E-001;-1.189143061637878E-001;3.181393956765533E-003;-1.583807985298336E-003;
2.427000000000000E+009;1.557858139276505E-001;-1.191280633211136E-001;3.289585001766682E-003;-1.569283776916564E-003;
2.427166666666667E+009;1.554832756519318E-001;-1.191767752170563E-001;3.118700347840786E-003;-1.664364826865494E-003;
2.427333333333334E+009;1.549700200557709E-001;-1.192791238427162E-001;3.001682693138719E-003;-1.699055079370737E-003;
2.427500000000000E+009;1.545561254024506E-001;-1.194381415843964E-001;2.893628552556038E-003;-1.653320970945060E-003;
2.427666666666667E+009;1.538851261138916E-001;-1.195431053638458E-001;2.989553380757570E-003;-1.887819264084101E-003;
