# Version 1.00
#
freq[Hz];re:Trc1_S11;im:Trc1_S11;re:Trc2_S21;im:Trc2_S21;
2.400000000000000E+009;1.686854958534241E-001;4.713263362646103E-002;3.382055787369609E-003;-1.329526770859957E-003;
2.400166666666667E+009;1.696552634239197E-001;4.621453955769539E-002;3.379904432222247E-003;-1.547511434182525E-003;
2.400333333333334E+009;1.705939024686813E-001;4.503817856311798E-002;3.168349619954824E-003;-1.602491596713662E-003;
2.400500000000000E+009;1.715527772903442E-001;4.401163384318352E-002;2.997679635882378E-003;-1.703443005681038E-003;
2.400666666666667E+009;1.723531633615494E-001;4.305919632315636E-002;2.684199484065175E-003;-1.664983225055039E-003;
2.400833333333334E+009;1.732888221740723E-001;4.247220978140831E-002;2.628150396049023E-003;-1.855638227425516E-003;
2.401000000000000E+009;1.741352379322052E-001;4.148862138390541E-002;2.357051009312272E-003;-1.779668149538338E-003;
2.401166666666667E+009;1.748376786708832E-001;4.073692113161087E-002;2.126296749338508E-003;-1.796192256733775E-003;
2.401333333333334E+009;1.754716485738754E-001;4.004585370421410E-002;2.174712717533112E-003;-1.767260837368667E-003;
2.401500000000000E+009;1.761256754398346E-001;3.920589759945869E-002;1.926143653690815E-003;-1.898199319839478E-003;
2.401666666666667E+009;1.767428815364838E-001;3.874836862087250E-002;1.686009345576167E-003;-1.795422867871821E-003;
2.401833333333334E+009;1.770532578229904E-001;3.798415884375572E-002;1.419011154212058E-003;-1.775091048330069E-003;
2.402000000000000E+009;1.776391714811325E-001;3.737781569361687E-002;1.233357004821301E-003;-1.788466819562018E-003;
2.402166666666667E+009;1.781387925148010E-001;3.645487502217293E-002;1.423745066858828E-003;-1.868297462351620E-003;
2.402333333333334E+009;1.785041093826294E-001;3.611626476049423E-002;1.103768823668361E-003;-1.637390232644975E-003;
2.402500000000000E+009;1.788223087787628E-001;3.535089269280434E-002;9.036722476594150E-004;-1.588590326718986E-003;
2.402666666666667E+009;1.789419502019882E-001;3.478336706757546E-002;8.756864699535072E-004;-1.539401826448739E-003;
2.402833333333334E+009;1.789403408765793E-001;3.398178517818451E-002;6.520525785163045E-004;-1.323807286098599E-003;
2.403000000000000E+009;1.791459769010544E-001;3.322994709014893E-002;6.151904817670584E-004;-1.176516409032047E-003;
2.403166666666667E+009;1.791357994079590E-001;3.248309344053268E-002;4.820659232791513E-004;-1.133459736593068E-003;
2.403333333333334E+009;1.792395412921906E-001;3.169594332575798E-002;4.482105432543904E-004;-8.336240425705910E-004;
2.403500000000000E+009;1.787337511777878E-001;3.062717989087105E-002;4.582178080454469E-004;-7.049370324239135E-004;
2.403666666666667E+009;1.785693317651749E-001;2.958668395876885E-002;3.483832988422364E-004;-5.274188588373363E-004;
2.403833333333334E+009;1.784164011478424E-001;2.846254780888557E-002;4.991050227545202E-004;-3.037528658751398E-004;
2.404000000000000E+009;1.780898422002792E-001;2.742636948823929E-002;4.870905540883541E-004;-7.000985078775557E-006;
2.404166666666667E+009;1.779982000589371E-001;2.608359977602959E-002;4.267840122338384E-004;6.167028914205730E-005;
2.404333333333334E+009;1.774722039699554E-001;2.495669573545456E-002;7.573745097033680E-004;1.748454524204135E-004;
2.404500000000000E+009;1.768531799316406E-001;2.342508547008038E-002;8.858659421093762E-004;5.580753786489368E-004;
2.404666666666667E+009;1.764911413192749E-001;2.209570817649365E-002;9.920806623995304E-004;4.435405426193029E-004;
2.404833333333334E+009;1.761486083269119E-001;2.055286243557930E-002;1.076849875971675E-003;6.163649959489703E-004;
2.405000000000000E+009;1.756042242050171E-001;1.916237175464630E-002;1.327064703218639E-003;6.753880879841745E-004;
2.405166666666667E+009;1.752508133649826E-001;1.738090999424458E-002;1.473210984840989E-003;6.581459310837090E-004;
2.405333333333334E+009;1.748851537704468E-001;1.568095386028290E-002;1.585077145136893E-003;6.521014147438109E-004;
2.405500000000000E+009;1.745370924472809E-001;1.405053865164518E-002;1.852851128205657E-003;6.959617021493614E-004;
2.405666666666667E+009;1.742907762527466E-001;1.236158888787031E-002;1.989398384466767E-003;5.905461148358882E-004;
2.405833333333334E+009;1.737058758735657E-001;1.050654053688049E-002;2.408068627119064E-003;4.650547634810209E-004;
2.406000000000000E+009;1.734693795442581E-001;8.437738753855228E-003;2.394339069724083E-003;3.761085099540651E-004;
2.406166666666667E+009;1.732385605573654E-001;6.684103514999151E-003;2.550981240347028E-003;2.598888240754604E-004;
2.406333333333334E+009;1.732534766197205E-001;4.722545854747295E-003;2.841060282662511E-003;3.076924185734242E-004;
2.406500000000000E+009;1.730392575263977E-001;2.724680351093411E-003;2.978562144562602E-003;4.743237877846696E-005;
2.406666666666667E+009;1.729102134704590E-001;6.960239261388779E-004;3.004339989274740E-003;-1.502569648437202E-004;
2.406833333333334E+009;1.730327308177948E-001;-1.366017851978540E-003;3.020323114469647E-003;-1.659201079746708E-004;
2.407000000000000E+009;1.730082184076309E-001;-3.439910942688584E-003;3.183027030900121E-003;-4.042885848321021E-004;
2.407166666666667E+009;1.732419133186340E-001;-5.491853225976229E-003;3.212565556168556E-003;-7.071355939842761E-004;
2.407333333333334E+009;1.733184158802033E-001;-7.611362729221582E-003;3.279991447925568E-003;-6.711837486363947E-004;
2.407500000000000E+009;1.735562533140183E-001;-9.525855071842670E-003;3.511876799166203E-003;-1.026034238748252E-003;
2.407666666666667E+009;1.738641411066055E-001;-1.162740122526884E-002;3.570754546672106E-003;-1.172509277239442E-003;
2.407833333333334E+009;1.739726662635803E-001;-1.378258783370256E-002;3.593769622966647E-003;-1.213879673741758E-003;
2.408000000000000E+009;1.745234727859497E-001;-1.565040461719036E-002;3.577751806005836E-003;-1.424628659151495E-003;
2.408166666666667E+009;1.749586611986160E-001;-1.757400110363960E-002;3.584896912798286E-003;-1.575866248458624E-003;
2.408333333333334E+009;1.754128932952881E-001;-1.949047297239304E-002;3.607116406783462E-003;-1.809047535061836E-003;
2.408500000000000E+009;1.757476478815079E-001;-2.135362103581429E-002;3.605870064347982E-003;-2.044973429292440E-003;
2.408666666666667E+009;1.761908978223801E-001;-2.315639145672321E-002;3.537101903930306E-003;-2.459794748574495E-003;
2.408833333333334E+009;1.765304654836655E-001;-2.479517087340355E-002;3.445144509896636E-003;-2.469409024342895E-003;
2.409000000000000E+009;1.769533753395081E-001;-2.658063732087612E-002;3.504570573568344E-003;-2.769342623651028E-003;
2.409166666666667E+009;1.774346232414246E-001;-2.802911773324013E-002;3.304018871858716E-003;-2.967840991914272E-003;
2.409333333333334E+009;1.780770272016525E-001;-2.934822626411915E-002;3.100475529208779E-003;-3.141483291983604E-003;
2.409500000000000E+009;1.782870143651962E-001;-3.074268810451031E-002;3.132178215309978E-003;-3.246963256970048E-003;
2.409666666666667E+009;1.787048131227493E-001;-3.183043748140335E-002;2.976965624839068E-003;-3.490379545837641E-003;
2.409833333333334E+009;1.792480051517487E-001;-3.287909552454948E-002;2.944925567135215E-003;-3.647236851975322E-003;
2.410000000000000E+009;1.798208355903626E-001;-3.389316424727440E-002;2.750571351498365E-003;-3.805334446951747E-003;
2.410166666666667E+009;1.801403909921646E-001;-3.473428264260292E-002;2.585136564448476E-003;-3.893557703122497E-003;
2.410333333333334E+009;1.805270612239838E-001;-3.561389818787575E-002;2.484566066414118E-003;-4.163278732448816E-003;
2.410500000000000E+009;1.810278445482254E-001;-3.644713386893272E-002;2.242782851681113E-003;-4.335498437285423E-003;
2.410666666666667E+009;1.813108175992966E-001;-3.727158531546593E-002;2.279589418321848E-003;-4.306576214730740E-003;
2.410833333333334E+009;1.815980970859528E-001;-3.756261989474297E-002;2.088595880195499E-003;-4.495784174650908E-003;
2.411000000000000E+009;1.819151788949966E-001;-3.819726780056953E-002;1.719476189464331E-003;-4.680624697357416E-003;
2.411166666666667E+009;1.820828020572662E-001;-3.877839073538780E-002;1.629336853511632E-003;-4.597075283527374E-003;
2.411333333333334E+009;1.822839379310608E-001;-3.921283781528473E-002;1.361156348139048E-003;-4.810034763067961E-003;
2.411500000000000E+009;1.820991039276123E-001;-3.988378494977951E-002;1.228644978255034E-003;-4.929388407617807E-003;
2.411666666666667E+009;1.821715682744980E-001;-4.016942903399468E-002;9.499777806922793E-004;-4.951789975166321E-003;
2.411833333333334E+009;1.820758879184723E-001;-4.049891605973244E-002;8.684856584295631E-004;-5.175858270376921E-003;
2.412000000000000E+009;1.820264309644699E-001;-4.100807011127472E-002;5.796708283014596E-004;-5.056583788245916E-003;
2.412166666666667E+009;1.815181970596314E-001;-4.144256934523583E-002;5.144097958691418E-004;-5.117796361446381E-003;
2.412333333333334E+009;1.813053637742996E-001;-4.151048511266708E-002;9.131649858318269E-005;-5.182975437492132E-003;
2.412500000000000E+009;1.804954409599304E-001;-4.195085167884827E-002;-1.179766186396591E-004;-5.113635212182999E-003;
2.412666666666667E+009;1.801080703735352E-001;-4.257527738809586E-002;-4.457206814549863E-004;-5.145733710378408E-003;
2.412833333333334E+009;1.794179826974869E-001;-4.279340803623200E-002;-5.113815423101187E-004;-5.105503834784031E-003;
2.413000000000000E+009;1.785539239645004E-001;-4.351112991571426E-002;-5.295905866660178E-004;-5.010630935430527E-003;
2.413166666666667E+009;1.776538938283920E-001;-4.364995658397675E-002;-8.703647181391716E-004;-5.119215697050095E-003;
2.413333333333334E+009;1.765940487384796E-001;-4.421579837799072E-002;-1.221509650349617E-003;-5.023273173719645E-003;
2.413500000000000E+009;1.757686585187912E-001;-4.472430795431137E-002;-1.289398875087500E-003;-4.871135577559471E-003;
2.413666666666667E+009;1.747144311666489E-001;-4.538602381944656E-002;-1.235644216649234E-003;-4.725555889308453E-003;
2.413833333333334E+009;1.734986454248428E-001;-4.609079286456108E-002;-1.642449060454965E-003;-4.692140966653824E-003;
2.414000000000000E+009;1.722105741500855E-001;-4.657045006752014E-002;-1.849287189543247E-003;-4.669845569878817E-003;
2.414166666666667E+009;1.711052358150482E-001;-4.731450602412224E-002;-1.859033363871276E-003;-4.603677894920111E-003;
2.414333333333334E+009;1.698361188173294E-001;-4.825971648097038E-002;-1.988300820812583E-003;-4.728427622467279E-003;
2.414500000000000E+009;1.689997762441635E-001;-4.911611601710320E-002;-2.193445339798927E-003;-4.520661663264036E-003;
2.414666666666667E+009;1.675784736871719E-001;-5.020829290151596E-002;-2.320795087143779E-003;-4.476754926145077E-003;
2.414833333333334E+009;1.661801785230637E-001;-5.113963037729263E-002;-2.539464971050620E-003;-4.369094967842102E-003;
2.415000000000000E+009;1.650762856006622E-001;-5.226561799645424E-002;-2.580166095867753E-003;-4.290830809623003E-003;
2.415166666666667E+009;1.637922227382660E-001;-5.354135483503342E-002;-2.665610052645207E-003;-4.170732107013464E-003;
2.415333333333334E+009;1.627793014049530E-001;-5.495170131325722E-002;-2.924926578998566E-003;-4.140154924243689E-003;
2.415500000000000E+009;1.615850031375885E-001;-5.630189925432205E-002;-2.884247107431293E-003;-4.048007540404797E-003;
2.415666666666667E+009;1.603820472955704E-001;-5.782863870263100E-002;-3.128194715827704E-003;-3.859196556732059E-003;
2.415833333333334E+009;1.593368649482727E-001;-5.934812873601914E-002;-3.107162425294519E-003;-3.986993338912725E-003;
2.416000000000000E+009;1.582979559898377E-001;-6.112339720129967E-002;-3.217882709577680E-003;-3.854780690744519E-003;
2.416166666666667E+009;1.573870331048966E-001;-6.272332370281220E-002;-3.123278729617596E-003;-3.645222168415785E-003;
2.416333333333334E+009;1.563021987676621E-001;-6.454414874315262E-002;-3.385609481483698E-003;-3.546154825016856E-003;
2.416500000000000E+009;1.555081456899643E-001;-6.642646342515945E-002;-3.534988034516573E-003;-3.504721913486719E-003;
2.416666666666667E+009;1.546651870012283E-001;-6.818564981222153E-002;-3.693085629492998E-003;-3.425237489864230E-003;
2.416833333333334E+009;1.540731936693192E-001;-7.021196186542511E-002;-3.622152842581272E-003;-3.350714221596718E-003;
2.417000000000000E+009;1.530914753675461E-001;-7.220186293125153E-002;-3.849998814985156E-003;-3.200025530532002E-003;
2.417166666666667E+009;1.525038778781891E-001;-7.400055974721909E-002;-3.859080839902163E-003;-3.224596148356795E-003;
2.417333333333334E+009;1.519370675086975E-001;-7.586612552404404E-002;-3.783396678045392E-003;-3.082683309912682E-003;
2.417500000000000E+009;1.514006555080414E-001;-7.791543006896973E-002;-3.933395724743605E-003;-3.065375844016671E-003;
2.417666666666667E+009;1.510615646839142E-001;-7.972011715173721E-002;-4.044852219521999E-003;-2.966992324218154E-003;
2.417833333333334E+009;1.506671160459518E-001;-8.152683824300766E-002;-4.165243823081255E-003;-2.710232045501471E-003;
2.418000000000000E+009;1.502207070589066E-001;-8.345780521631241E-002;-4.192308057099581E-003;-2.866161055862904E-003;
2.418166666666667E+009;1.499919444322586E-001;-8.507686853408814E-002;-4.285290371626616E-003;-2.841686829924583E-003;
2.418333333333334E+009;1.501310318708420E-001;-8.677284419536591E-002;-4.470977466553450E-003;-2.865413669496775E-003;
2.418500000000000E+009;1.498810201883316E-001;-8.846657723188400E-002;-4.575006198137999E-003;-2.781936433166266E-003;
2.418666666666667E+009;1.498923003673554E-001;-8.996450901031494E-002;-4.677290096879005E-003;-2.599654952064157E-003;
2.418833333333334E+009;1.498889774084091E-001;-9.138887375593185E-002;-4.982845857739449E-003;-2.594658173620701E-003;
2.419000000000000E+009;1.496415138244629E-001;-9.265076369047165E-002;-5.211568903177977E-003;-2.710380824282765E-003;
2.419166666666667E+009;1.498169302940369E-001;-9.388179332017899E-002;-5.361911375075579E-003;-2.574649872258306E-003;
2.419333333333334E+009;1.498517543077469E-001;-9.487615525722504E-002;-5.561079829931259E-003;-2.346193185076118E-003;
2.419500000000000E+009;1.500359624624252E-001;-9.608485549688339E-002;-5.817820783704519E-003;-2.277105115354061E-003;
2.419666666666667E+009;1.503711938858032E-001;-9.694556891918182E-002;-6.063518114387989E-003;-2.112915040925145E-003;
2.419833333333334E+009;1.504811793565750E-001;-9.750665724277496E-002;-6.398355588316917E-003;-1.923349569551647E-003;
2.420000000000000E+009;1.508538872003555E-001;-9.833801537752152E-002;-6.698213052004576E-003;-1.718826591968536E-003;
2.420166666666667E+009;1.510598808526993E-001;-9.876027703285217E-002;-6.815271452069283E-003;-1.506169675849378E-003;
2.420333333333334E+009;1.512793153524399E-001;-9.943977743387222E-002;-6.982533726841211E-003;-1.102256705053151E-003;
2.420500000000000E+009;1.516731977462769E-001;-9.945672750473023E-002;-7.367796264588833E-003;-8.081791456788778E-004;
2.420666666666667E+009;1.518590450286865E-001;-9.949505329132080E-002;-7.253678049892187E-003;-5.191473755985498E-004;
2.420833333333334E+009;1.519381105899811E-001;-9.981781989336014E-002;-7.536243647336960E-003;-5.482629421749152E-005;
2.421000000000000E+009;1.521402895450592E-001;-9.980379790067673E-002;-7.732209749519825E-003;3.443348978180438E-004;
2.421166666666667E+009;1.524579823017120E-001;-9.987001121044159E-002;-7.849895395338535E-003;9.023801540024579E-004;
2.421333333333334E+009;1.527861803770065E-001;-9.972093999385834E-002;-7.799880113452673E-003;1.252708258107305E-003;
2.421500000000000E+009;1.527772396802902E-001;-9.937378764152527E-002;-8.132034912705421E-003;1.604386256076396E-003;
2.421666666666667E+009;1.527556627988815E-001;-9.922670572996140E-002;-7.866154424846172E-003;2.088743494823575E-003;
2.421833333333334E+009;1.526691615581513E-001;-9.896589815616608E-002;-7.741366047412157E-003;2.726271981373429E-003;
2.422000000000000E+009;1.524087488651276E-001;-9.878046810626984E-002;-7.724406663328409E-003;3.080758731812239E-003;
2.422166666666667E+009;1.523474752902985E-001;-9.858180582523346E-002;-7.707205601036549E-003;3.405088558793068E-003;
2.422333333333334E+009;1.520970016717911E-001;-9.804622828960419E-002;-7.636466529220343E-003;4.016088321805000E-003;
2.422500000000000E+009;1.516093611717224E-001;-9.768229722976685E-002;-7.404734846204519E-003;4.396262578666210E-003;
2.422666666666667E+009;1.509261727333069E-001;-9.750500321388245E-002;-7.214342243969441E-003;4.878054838627577E-003;
2.422833333333334E+009;1.503018438816071E-001;-9.715073555707932E-002;-6.912032142281532E-003;5.214020609855652E-003;
2.423000000000000E+009;1.495287120342255E-001;-9.671127051115036E-002;-6.602894514799118E-003;5.735561251640320E-003;
2.423166666666667E+009;1.487142890691757E-001;-9.647646546363831E-002;-6.460552103817463E-003;6.099393591284752E-003;
2.423333333333334E+009;1.477686017751694E-001;-9.591361880302429E-002;-6.035187281668186E-003;6.365750916302204E-003;
2.423500000000000E+009;1.466724574565888E-001;-9.557910263538361E-002;-5.518829915672541E-003;6.558053661137819E-003;
2.423666666666667E+009;1.454610675573349E-001;-9.561100602149963E-002;-5.154914222657681E-003;6.970382761210203E-003;
2.423833333333334E+009;1.444593816995621E-001;-9.532817453145981E-002;-4.698137287050486E-003;7.304951082915068E-003;
2.424000000000000E+009;1.429917365312576E-001;-9.497736394405365E-002;-4.286867100745440E-003;7.594258058816195E-003;
2.424166666666667E+009;1.415245831012726E-001;-9.493365138769150E-002;-3.775625955313444E-003;7.764959707856178E-003;
2.424333333333334E+009;1.402329951524735E-001;-9.484149515628815E-002;-3.385179210454226E-003;7.792327087372541E-003;
2.424500000000000E+009;1.389470100402832E-001;-9.507551044225693E-002;-2.885411027818918E-003;8.004304952919483E-003;
2.424666666666667E+009;1.375566869974136E-001;-9.489678591489792E-002;-2.447723411023617E-003;7.846611551940441E-003;
2.424833333333334E+009;1.359277665615082E-001;-9.528951346874237E-002;-1.906958874315023E-003;8.136176504194737E-003;
2.425000000000000E+009;1.345563828945160E-001;-9.567225724458695E-002;-1.472443691454828E-003;8.118451572954655E-003;
2.425166666666667E+009;1.329342573881149E-001;-9.614738076925278E-002;-9.667137055657804E-004;7.864536717534065E-003;
2.425333333333334E+009;1.314747631549835E-001;-9.662805497646332E-002;-5.067979218438268E-004;7.867881096899509E-003;
2.425500000000000E+009;1.301853954792023E-001;-9.740938991308212E-002;-2.849131706170738E-004;7.852877490222454E-003;
2.425666666666667E+009;1.285700201988220E-001;-9.816587716341019E-002;2.169075305573642E-004;7.777271792292595E-003;
2.425833333333334E+009;1.270979642868042E-001;-9.907880425453186E-002;6.762674311175942E-004;7.714758627116680E-003;
2.426000000000000E+009;1.256771683692932E-001;-1.002524942159653E-001;9.530974784865975E-004;7.286363281309605E-003;
2.426166666666667E+009;1.245204433798790E-001;-1.013623923063278E-001;1.301576732657850E-003;7.157017476856709E-003;
2.426333333333334E+009;1.230766400694847E-001;-1.026843190193176E-001;1.604710356332362E-003;6.979665253311396E-003;
2.426500000000000E+009;1.218795925378799E-001;-1.039392650127411E-001;1.978422515094280E-003;6.834866013377905E-003;
2.426666666666667E+009;1.206856071949005E-001;-1.052898615598679E-001;2.306678332388401E-003;6.442375946789980E-003;
2.426833333333334E+009;1.196010857820511E-001;-1.068566665053368E-001;2.393725095316768E-003;6.244129035621882E-003;
2.427000000000000E+009;1.184590980410576E-001;-1.085604503750801E-001;2.620895626023412E-003;5.838599056005478E-003;
2.427166666666667E+009;1.174297258257866E-001;-1.099756732583046E-001;2.726434497162700E-003;5.550110246986151E-003;
2.427333333333334E+009;1.165842041373253E-001;-1.116879656910896E-001;2.889610128477216E-003;5.324487574398518E-003;
2.427500000000000E+009;1.158480718731880E-001;-1.135061234235764E-001;3.098643850535154E-003;4.772879648953676E-003;
2.427666666666667E+009;1.150428131222725E-001;-1.152884885668755E-001;3.178299171850085E-003;4.740282893180847E-003;
