# Version 1.00
#
freq[Hz];re:Trc1_S11;im:Trc1_S11;re:Trc2_S21;im:Trc2_S21;
2.400000000000000E+009;1.561858206987381E-001;1.114641353487968E-001;-6.477660499513149E-003;-4.841897753067315E-004;
2.400166666666667E+009;1.556332409381867E-001;1.091684773564339E-001;-6.481785792857409E-003;-2.530125784687698E-004;
2.400333333333334E+009;1.555647850036621E-001;1.067458391189575E-001;-6.579542532563210E-003;-7.744994945824146E-005;
2.400500000000000E+009;1.552442163228989E-001;1.041057258844376E-001;-6.409467197954655E-003;1.381507463520393E-004;
2.400666666666667E+009;1.550366878509522E-001;1.016129702329636E-001;-6.340024992823601E-003;2.685497747734189E-004;
2.400833333333334E+009;1.546456813812256E-001;9.898261725902557E-002;-6.296268198639154E-003;3.558790194801986E-004;
2.401000000000000E+009;1.546392440795898E-001;9.589876234531403E-002;-6.565239280462265E-003;5.506427842192352E-004;
2.401166666666667E+009;1.543166488409042E-001;9.303268790245056E-002;-6.303766276687384E-003;5.965519230812788E-004;
2.401333333333334E+009;1.544840335845947E-001;9.005359560251236E-002;-6.287603173404932E-003;9.405589662492275E-004;
2.401500000000000E+009;1.546272933483124E-001;8.698496222496033E-002;-6.346175447106361E-003;1.026522484607995E-003;
2.401666666666667E+009;1.547358632087708E-001;8.414123952388763E-002;-6.298998836427927E-003;1.231934991665185E-003;
2.401833333333334E+009;1.550780534744263E-001;8.127607405185700E-002;-6.399137899279594E-003;1.477138604968786E-003;
2.402000000000000E+009;1.556279063224793E-001;7.816857099533081E-002;-6.503480486571789E-003;1.536276889964938E-003;
2.402166666666667E+009;1.562840193510056E-001;7.544200867414475E-002;-6.396834272891283E-003;1.812317990697920E-003;
2.402333333333334E+009;1.570562422275543E-001;7.250604033470154E-002;-6.501141004264355E-003;2.144606551155448E-003;
2.402500000000000E+009;1.582070887088776E-001;6.972217559814453E-002;-6.464414764195681E-003;2.176589332520962E-003;
2.402666666666667E+009;1.590320616960526E-001;6.693306565284729E-002;-6.598225794732571E-003;2.978526987135410E-003;
2.402833333333334E+009;1.604331880807877E-001;6.435439735651016E-002;-6.184777244925499E-003;3.225261345505714E-003;
2.403000000000000E+009;1.616581380367279E-001;6.164437159895897E-002;-5.866220220923424E-003;3.538439748808742E-003;
2.403166666666667E+009;1.633389443159103E-001;5.929857492446899E-002;-6.594879087060690E-003;4.130082670599222E-003;
2.403333333333334E+009;1.649040132761002E-001;5.703961104154587E-002;-6.676928140223026E-003;3.660747548565269E-003;
2.403500000000000E+009;1.667299270629883E-001;5.438484624028206E-002;-6.191920489072800E-003;4.663951229304075E-003;
2.403666666666667E+009;1.685012429952622E-001;5.224835872650147E-002;-5.697465501725674E-003;5.060857161879540E-003;
2.403833333333334E+009;1.700282245874405E-001;5.010117217898369E-002;-5.657035857439041E-003;4.930711816996336E-003;
2.404000000000000E+009;1.717708259820938E-001;4.827743768692017E-002;-5.496183875948191E-003;5.277799442410469E-003;
2.404166666666667E+009;1.737820357084274E-001;4.644427821040154E-002;-5.310907959938049E-003;5.436884239315987E-003;
2.404333333333334E+009;1.754355877637863E-001;4.483139514923096E-002;-4.941749852150679E-003;5.817365366965532E-003;
2.404500000000000E+009;1.771349459886551E-001;4.319621250033379E-002;-4.763978067785502E-003;6.071493029594421E-003;
2.404666666666667E+009;1.791111379861832E-001;4.173315688967705E-002;-4.323502536863089E-003;6.280255503952503E-003;
2.404833333333334E+009;1.809596419334412E-001;4.058254882693291E-002;-3.950909711420536E-003;6.551933474838734E-003;
2.405000000000000E+009;1.825376302003861E-001;3.973438963294029E-002;-3.655216656625271E-003;6.744088605046272E-003;
2.405166666666667E+009;1.842934191226959E-001;3.886564075946808E-002;-3.155941842123866E-003;6.921826396137476E-003;
2.405333333333334E+009;1.858041137456894E-001;3.824918717145920E-002;-2.872683340683579E-003;6.845995318144560E-003;
2.405500000000000E+009;1.875517219305039E-001;3.778498992323875E-002;-2.475624438375235E-003;6.958639714866877E-003;
2.405666666666667E+009;1.889968365430832E-001;3.732689097523689E-002;-1.898676506243646E-003;6.956713274121285E-003;
2.405833333333334E+009;1.904247850179672E-001;3.710193559527397E-002;-1.661974238231778E-003;6.811433006078005E-003;
2.406000000000000E+009;1.916826814413071E-001;3.699267283082008E-002;-1.440701540559530E-003;6.867472082376480E-003;
2.406166666666667E+009;1.929101496934891E-001;3.696691617369652E-002;-1.011996064335108E-003;6.698234006762505E-003;
2.406333333333334E+009;1.941113770008087E-001;3.705466166138649E-002;-7.055349415168166E-004;6.600040942430496E-003;
2.406500000000000E+009;1.950584053993225E-001;3.712537884712219E-002;-3.696239728014916E-004;6.554599851369858E-003;
2.406666666666667E+009;1.959675103425980E-001;3.735016658902168E-002;-2.034856006503105E-004;6.456345785409212E-003;
2.406833333333334E+009;1.967357993125916E-001;3.756518289446831E-002;7.891839777585119E-005;6.331145297735930E-003;
2.407000000000000E+009;1.972693651914597E-001;3.795165568590164E-002;1.515167678007856E-004;6.107924971729517E-003;
2.407166666666667E+009;1.978018134832382E-001;3.812573477625847E-002;2.160405565518886E-004;6.237686611711979E-003;
2.407333333333334E+009;1.980710476636887E-001;3.854088112711906E-002;4.636116791516542E-004;6.096989847719669E-003;
2.407500000000000E+009;1.981581449508667E-001;3.889741376042366E-002;7.110761944204569E-004;5.996482446789742E-003;
2.407666666666667E+009;1.982926130294800E-001;3.903831541538239E-002;8.309016120620072E-004;5.951672326773405E-003;
2.407833333333334E+009;1.980669200420380E-001;3.916837647557259E-002;1.087713986635208E-003;5.769488401710987E-003;
2.408000000000000E+009;1.980480700731278E-001;3.944345563650131E-002;1.152945216745138E-003;5.647569894790649E-003;
2.408166666666667E+009;1.974787712097168E-001;3.931544721126556E-002;1.386933028697968E-003;5.531840026378632E-003;
2.408333333333334E+009;1.970799118280411E-001;3.927134349942207E-002;1.550632994621992E-003;5.255269818007946E-003;
2.408500000000000E+009;1.963634938001633E-001;3.923274949193001E-002;1.678768196143210E-003;5.121706519275904E-003;
2.408666666666667E+009;1.958277225494385E-001;3.896709531545639E-002;1.695266808383167E-003;4.837410058826208E-003;
2.408833333333334E+009;1.949818134307861E-001;3.860019519925118E-002;1.926195924170315E-003;4.793138243257999E-003;
2.409000000000000E+009;1.941202580928803E-001;3.819528967142105E-002;1.945520984008908E-003;4.648441448807716E-003;
2.409166666666667E+009;1.930949240922928E-001;3.738122805953026E-002;1.864188117906451E-003;4.334528464823961E-003;
2.409333333333334E+009;1.920799165964127E-001;3.674365207552910E-002;1.957799540832639E-003;4.372961819171906E-003;
2.409500000000000E+009;1.906936764717102E-001;3.577405214309692E-002;1.928940648213029E-003;4.232294857501984E-003;
2.409666666666667E+009;1.896730661392212E-001;3.474175557494164E-002;1.888718223199248E-003;4.007128532975912E-003;
2.409833333333334E+009;1.884347051382065E-001;3.344976156949997E-002;1.719998195767403E-003;3.993315622210503E-003;
2.410000000000000E+009;1.873380094766617E-001;3.192660212516785E-002;1.659999717958272E-003;3.949233330786228E-003;
2.410166666666667E+009;1.860536485910416E-001;3.033941239118576E-002;1.676985295489430E-003;3.931311890482903E-003;
2.410333333333334E+009;1.850018054246903E-001;2.880165353417397E-002;1.743576140142977E-003;3.908253274857998E-003;
2.410500000000000E+009;1.835978776216507E-001;2.702351659536362E-002;1.888481783680618E-003;3.891031024977565E-003;
2.410666666666667E+009;1.824522912502289E-001;2.482354082167149E-002;1.894559827633202E-003;3.923548851162195E-003;
2.410833333333334E+009;1.816851198673248E-001;2.279857546091080E-002;1.866003498435020E-003;3.882550867274404E-003;
2.411000000000000E+009;1.805463433265686E-001;2.065526135265827E-002;1.900860806927085E-003;4.011864773929119E-003;
2.411166666666667E+009;1.796939969062805E-001;1.852990128099918E-002;2.002255758270621E-003;3.930722363293171E-003;
2.411333333333334E+009;1.789276748895645E-001;1.597213372588158E-002;2.003110013902187E-003;3.896913258358836E-003;
2.411500000000000E+009;1.781651377677918E-001;1.349167805165052E-002;1.898304559290409E-003;4.000153392553330E-003;
2.411666666666667E+009;1.778993606567383E-001;1.112413592636585E-002;2.098736586049199E-003;4.067910835146904E-003;
2.411833333333334E+009;1.772881299257278E-001;8.639743551611900E-003;2.161422977223992E-003;4.207997117191553E-003;
2.412000000000000E+009;1.772002726793289E-001;5.965846590697765E-003;2.490066923201084E-003;4.180561285465956E-003;
2.412166666666667E+009;1.771673709154129E-001;3.572209738194943E-003;2.435557078570128E-003;4.239457193762064E-003;
2.412333333333334E+009;1.773476749658585E-001;7.900140481069684E-004;2.657654928043485E-003;4.285821691155434E-003;
2.412500000000000E+009;1.774689555168152E-001;-1.747434842400253E-003;2.677046693861485E-003;4.207063466310501E-003;
2.412666666666667E+009;1.778295636177063E-001;-4.421334713697434E-003;2.951573813334107E-003;4.171689040958881E-003;
2.412833333333334E+009;1.785156875848770E-001;-6.916572805494070E-003;3.160145366564393E-003;4.083771724253893E-003;
2.413000000000000E+009;1.790551543235779E-001;-9.432084858417511E-003;3.216875484213233E-003;4.309140611439943E-003;
2.413166666666667E+009;1.798322796821594E-001;-1.189623400568962E-002;3.428052179515362E-003;4.242121241986752E-003;
2.413333333333334E+009;1.808214783668518E-001;-1.454776059836149E-002;3.888149978592992E-003;4.037479870021343E-003;
2.413500000000000E+009;1.815241426229477E-001;-1.709878630936146E-002;3.925063181668520E-003;4.042037762701511E-003;
2.413666666666667E+009;1.827211827039719E-001;-1.956770569086075E-002;4.282649606466293E-003;3.866586601361632E-003;
2.413833333333334E+009;1.840510368347168E-001;-2.180059254169464E-002;4.448724910616875E-003;3.907144535332918E-003;
2.414000000000000E+009;1.850590407848358E-001;-2.401212230324745E-002;4.777036141604185E-003;3.741661086678505E-003;
2.414166666666667E+009;1.865413337945938E-001;-2.608021721243858E-002;4.782338161021471E-003;3.511806251481175E-003;
2.414333333333334E+009;1.876331716775894E-001;-2.833070233464241E-002;5.087932571768761E-003;3.254411276429892E-003;
2.414500000000000E+009;1.890531927347183E-001;-2.983636781573296E-002;5.128970369696617E-003;3.184209577739239E-003;
2.414666666666667E+009;1.903378069400787E-001;-3.169628232717514E-002;5.412573926150799E-003;2.996050985530019E-003;
2.414833333333334E+009;1.917896866798401E-001;-3.331533819437027E-002;5.451315082609654E-003;2.899211365729570E-003;
2.415000000000000E+009;1.930716186761856E-001;-3.466669470071793E-002;5.776281002908945E-003;2.559556392952800E-003;
2.415166666666667E+009;1.946050375699997E-001;-3.605332598090172E-002;5.796206649392843E-003;2.351307077333331E-003;
2.415333333333334E+009;1.960648000240326E-001;-3.706460073590279E-002;5.904080811887980E-003;2.153306500986219E-003;
2.415500000000000E+009;1.973693668842316E-001;-3.785455226898193E-002;6.108966656029224E-003;1.731488038785756E-003;
2.415666666666667E+009;1.986210048198700E-001;-3.896719962358475E-002;6.198865361511707E-003;1.584876910783351E-003;
2.415833333333334E+009;1.997227966785431E-001;-3.976886346936226E-002;6.319068837910891E-003;1.191079500131309E-003;
2.416000000000000E+009;2.008629888296127E-001;-4.041162878274918E-002;6.487986538559198E-003;9.994076099246740E-004;
2.416166666666667E+009;2.018365114927292E-001;-4.085815325379372E-002;6.372495554387569E-003;7.062857039272785E-004;
2.416333333333334E+009;2.027685642242432E-001;-4.122199490666390E-002;6.428986787796021E-003;3.841054276563227E-004;
2.416500000000000E+009;2.035609781742096E-001;-4.152950644493103E-002;6.353771779686213E-003;2.347297595406417E-005;
2.416666666666667E+009;2.040331065654755E-001;-4.183178395032883E-002;6.535224150866270E-003;-2.310799027327448E-004;
2.416833333333334E+009;2.045233547687531E-001;-4.182349890470505E-002;6.325920578092337E-003;-4.318327410146594E-004;
2.417000000000000E+009;2.049638330936432E-001;-4.192361608147621E-002;6.224663462489843E-003;-7.810256211087108E-004;
2.417166666666667E+009;2.049929052591324E-001;-4.167058318853378E-002;6.105307955294848E-003;-1.033036853186786E-003;
2.417333333333334E+009;2.050815075635910E-001;-4.132342711091042E-002;5.983941256999970E-003;-1.241681631654501E-003;
2.417500000000000E+009;2.050907313823700E-001;-4.129927605390549E-002;5.949489772319794E-003;-1.484487089328468E-003;
2.417666666666667E+009;2.046796828508377E-001;-4.098910093307495E-002;5.728934891521931E-003;-1.652134465985000E-003;
2.417833333333334E+009;2.045344710350037E-001;-4.055780917406082E-002;5.596913862973452E-003;-1.931091886945069E-003;
2.418000000000000E+009;2.041053473949432E-001;-4.020656645298004E-002;5.500424653291702E-003;-2.091583563014865E-003;
2.418166666666667E+009;2.034203559160233E-001;-3.983405977487564E-002;5.358982831239700E-003;-2.223078394308686E-003;
2.418333333333334E+009;2.026660740375519E-001;-3.946549445390701E-002;5.263203289359808E-003;-2.391705522313714E-003;
2.418500000000000E+009;2.018365263938904E-001;-3.931076452136040E-002;5.203798878937960E-003;-2.680036239326000E-003;
2.418666666666667E+009;2.009410560131073E-001;-3.904060646891594E-002;4.907730035483837E-003;-2.702112076804042E-003;
2.418833333333334E+009;1.998481303453445E-001;-3.888140991330147E-002;4.992859903723002E-003;-2.868096577003598E-003;
2.419000000000000E+009;1.985019147396088E-001;-3.895733878016472E-002;4.717028234153986E-003;-3.088187659159303E-003;
2.419166666666667E+009;1.973350346088409E-001;-3.888970986008644E-002;4.593881778419018E-003;-3.269180422648788E-003;
2.419333333333334E+009;1.958672404289246E-001;-3.921420127153397E-002;4.427907988429070E-003;-3.329513128846884E-003;
2.419500000000000E+009;1.943080574274063E-001;-3.942631557583809E-002;4.150053020566702E-003;-3.345742588862777E-003;
2.419666666666667E+009;1.927852481603622E-001;-3.990959748625755E-002;4.018422681838274E-003;-3.560593584552407E-003;
2.419833333333334E+009;1.910811364650726E-001;-4.041841998696327E-002;4.013724625110626E-003;-3.604121273383498E-003;
2.420000000000000E+009;1.894263029098511E-001;-4.097237437963486E-002;3.724197391420603E-003;-3.829241497442126E-003;
2.420166666666667E+009;1.877041757106781E-001;-4.187468439340591E-002;3.408490680158138E-003;-3.813051618635654E-003;
2.420333333333334E+009;1.857506930828095E-001;-4.300359636545181E-002;3.293274436146021E-003;-3.795845201238990E-003;
2.420500000000000E+009;1.839982122182846E-001;-4.410376399755478E-002;3.174962708726525E-003;-3.874613903462887E-003;
2.420666666666667E+009;1.824539601802826E-001;-4.503426328301430E-002;2.873483346775174E-003;-3.781719598919153E-003;
2.420833333333334E+009;1.805031597614288E-001;-4.647735506296158E-002;2.885061781853437E-003;-3.814008552581072E-003;
2.421000000000000E+009;1.789115220308304E-001;-4.806191846728325E-002;2.698979573324323E-003;-3.887864062562585E-003;
2.421166666666667E+009;1.771229952573776E-001;-4.964223504066467E-002;2.532938495278359E-003;-3.885949961841106E-003;
2.421333333333334E+009;1.754595935344696E-001;-5.112520605325699E-002;2.464796649292111E-003;-3.793209558352828E-003;
2.421500000000000E+009;1.738486588001251E-001;-5.290185660123825E-002;2.386876614764333E-003;-3.910347353667021E-003;
2.421666666666667E+009;1.723249107599258E-001;-5.492427945137024E-002;2.294838661327958E-003;-3.785026492550969E-003;
2.421833333333334E+009;1.710059642791748E-001;-5.683712288737297E-002;2.152004046365619E-003;-3.670642152428627E-003;
2.422000000000000E+009;1.696819961071014E-001;-5.883102118968964E-002;2.118799835443497E-003;-3.793783951550722E-003;
2.422166666666667E+009;1.687355786561966E-001;-6.107664853334427E-002;1.984303351491690E-003;-3.889746963977814E-003;
2.422333333333334E+009;1.674230098724365E-001;-6.323730945587158E-002;1.859042327851057E-003;-3.836770774796605E-003;
2.422500000000000E+009;1.665142476558685E-001;-6.536034494638443E-002;1.875819871202111E-003;-3.727691713720560E-003;
2.422666666666667E+009;1.656269580125809E-001;-6.753505766391754E-002;1.823821919970214E-003;-3.920195158571005E-003;
2.422833333333334E+009;1.650864779949188E-001;-6.982725113630295E-002;1.706909853965044E-003;-3.975578118115664E-003;
2.423000000000000E+009;1.644014567136765E-001;-7.203653454780579E-002;1.752907875925303E-003;-3.955590538680553E-003;
2.423166666666667E+009;1.640474051237106E-001;-7.416725903749466E-002;1.678973203524947E-003;-3.944343421608210E-003;
2.423333333333334E+009;1.636978983879089E-001;-7.644497603178024E-002;1.479441649280489E-003;-3.936721011996269E-003;
2.423500000000000E+009;1.636133193969727E-001;-7.836965471506119E-002;1.434598467312753E-003;-4.288294818252325E-003;
2.423666666666667E+009;1.635663509368897E-001;-8.064824342727661E-002;1.258375239558518E-003;-4.276988096535206E-003;
2.423833333333334E+009;1.635732203722000E-001;-8.251998573541641E-002;1.153135206550360E-003;-4.405433777719736E-003;
2.424000000000000E+009;1.637318432331085E-001;-8.481481671333313E-002;1.120809465646744E-003;-4.351201001554728E-003;
2.424166666666667E+009;1.638014465570450E-001;-8.671686053276062E-002;8.618850843049586E-004;-4.418797325342894E-003;
2.424333333333334E+009;1.640962809324265E-001;-8.839593827724457E-002;6.132210837677121E-004;-4.413230810314417E-003;
2.424500000000000E+009;1.645960062742233E-001;-9.038665145635605E-002;4.614629433490336E-004;-4.404497332870960E-003;
2.424666666666667E+009;1.649357974529266E-001;-9.214860945940018E-002;4.532627353910357E-004;-4.325630143284798E-003;
2.424833333333334E+009;1.657231599092484E-001;-9.362328797578812E-002;1.444497320335358E-004;-4.166815895587206E-003;
2.425000000000000E+009;1.660495996475220E-001;-9.507780522108078E-002;1.465436653234065E-004;-4.232457373291254E-003;
2.425166666666667E+009;1.666371226310730E-001;-9.638240188360214E-002;7.380628085229546E-005;-4.139185883104801E-003;
2.425333333333334E+009;1.670529246330261E-001;-9.759359806776047E-002;-8.466289727948606E-005;-4.081940744072199E-003;
2.425500000000000E+009;1.677699387073517E-001;-9.881620854139328E-002;-1.945660769706592E-004;-4.078307189047337E-003;
2.425666666666667E+009;1.683447808027268E-001;-9.964380413293839E-002;-2.760077186394483E-004;-4.100033082067967E-003;
2.425833333333334E+009;1.687861233949661E-001;-1.006282344460487E-001;-4.348221118561924E-004;-3.964491188526154E-003;
2.426000000000000E+009;1.694740504026413E-001;-1.011701375246048E-001;-4.455184971448034E-004;-4.037688951939344E-003;
2.426166666666667E+009;1.701660603284836E-001;-1.019477844238281E-001;-5.231781979091466E-004;-3.964663948863745E-003;
2.426333333333334E+009;1.704415827989578E-001;-1.024086922407150E-001;-4.963655374012888E-004;-3.924773074686527E-003;
2.426500000000000E+009;1.711359918117523E-001;-1.028150767087936E-001;-5.353270098567009E-004;-3.897188929840922E-003;
2.426666666666667E+009;1.716030389070511E-001;-1.032126173377037E-001;-7.522829109802842E-004;-3.852966241538525E-003;
2.426833333333334E+009;1.722078919410706E-001;-1.034483313560486E-001;-8.181944722309709E-004;-3.765723668038845E-003;
2.427000000000000E+009;1.724108904600143E-001;-1.036144271492958E-001;-8.100946433842182E-004;-3.884089644998312E-003;
2.427166666666667E+009;1.726937890052795E-001;-1.037980392575264E-001;-9.453583625145257E-004;-3.709846641868353E-003;
2.427333333333334E+009;1.728740930557251E-001;-1.039890572428703E-001;-1.202584360726178E-003;-3.970184829086065E-003;
2.427500000000000E+009;1.729225218296051E-001;-1.040943339467049E-001;-1.320445211604238E-003;-3.736856160685420E-003;
2.427666666666667E+009;1.728037148714066E-001;-1.041193976998329E-001;-1.354658277705312E-003;-3.708049654960632E-003;
2.427833333333334E+009;1.727021187543869E-001;-1.041207686066628E-001;-1.400192850269377E-003;-3.648442216217518E-003;
