# Version 1.00
#
freq[Hz];re:Trc1_S11;im:Trc1_S11;re:Trc2_S21;im:Trc2_S21;
2.400000000000000E+009;1.561602503061295E-001;1.113540530204773E-001;-6.351723335683346E-003;-5.234554409980774E-004;
2.400166666666667E+009;1.557145267724991E-001;1.090505421161652E-001;-6.364450789988041E-003;-2.663696941453964E-004;
2.400333333333334E+009;1.554486453533173E-001;1.069569885730743E-001;-6.329713854938746E-003;-1.762456668075174E-004;
2.400500000000000E+009;1.552748084068298E-001;1.042866855859757E-001;-6.292379461228848E-003;1.772183604771271E-004;
2.400666666666667E+009;1.549036800861359E-001;1.016886904835701E-001;-6.303485482931137E-003;1.901992509374395E-004;
2.400833333333334E+009;1.547400355339050E-001;9.883585572242737E-002;-6.441756617277861E-003;4.387405351735652E-004;
2.401000000000000E+009;1.544398218393326E-001;9.598038345575333E-002;-6.224956829100847E-003;4.307284252718091E-004;
2.401166666666667E+009;1.543504595756531E-001;9.293827414512634E-002;-6.109961308538914E-003;6.609777337871492E-004;
2.401333333333334E+009;1.546170711517334E-001;9.022467583417893E-002;-6.268809083849192E-003;6.587322568520904E-004;
2.401500000000000E+009;1.548140496015549E-001;8.715100586414337E-002;-6.329028401523829E-003;1.064004609361291E-003;
2.401666666666667E+009;1.547928750514984E-001;8.408877253532410E-002;-6.327714305371046E-003;1.108816126361489E-003;
2.401833333333334E+009;1.551247090101242E-001;8.114412426948547E-002;-6.445350591093302E-003;1.363829360343516E-003;
2.402000000000000E+009;1.556326001882553E-001;7.809394598007202E-002;-6.482666824012995E-003;1.458794227801263E-003;
2.402166666666667E+009;1.561720669269562E-001;7.542741298675537E-002;-6.364499218761921E-003;1.861692522652447E-003;
2.402333333333334E+009;1.572205424308777E-001;7.236278057098389E-002;-6.425715982913971E-003;2.118901815265417E-003;
2.402500000000000E+009;1.581680774688721E-001;6.959427148103714E-002;-6.453143432736397E-003;2.303824760019779E-003;
2.402666666666667E+009;1.591766476631165E-001;6.709843128919601E-002;-6.428351625800133E-003;2.789574675261974E-003;
2.402833333333334E+009;1.602970510721207E-001;6.438668072223663E-002;-6.546812597662211E-003;2.840028377249837E-003;
2.403000000000000E+009;1.617074608802795E-001;6.175300851464272E-002;-6.390844471752644E-003;3.226955188438296E-003;
2.403166666666667E+009;1.634246855974197E-001;5.925447866320610E-002;-6.146263796836138E-003;3.553511807695031E-003;
2.403333333333334E+009;1.647495180368424E-001;5.687848106026650E-002;-6.135500501841307E-003;3.821565536782146E-003;
2.403500000000000E+009;1.666440814733505E-001;5.430573597550392E-002;-5.970046389847994E-003;4.350212402641773E-003;
2.403666666666667E+009;1.683904677629471E-001;5.222060158848763E-002;-5.928758066147566E-003;4.472517408430576E-003;
2.403833333333334E+009;1.701202988624573E-001;5.008713901042938E-002;-5.605593323707581E-003;4.764861427247524E-003;
2.404000000000000E+009;1.718296110630035E-001;4.789802059531212E-002;-5.463847424834967E-003;5.018365569412708E-003;
2.404166666666667E+009;1.737325638532639E-001;4.643620923161507E-002;-5.203485488891602E-003;5.314989481121302E-003;
2.404333333333334E+009;1.755395233631134E-001;4.458319023251534E-002;-4.917991347610951E-003;5.681272596120834E-003;
2.404500000000000E+009;1.772068291902542E-001;4.305745661258698E-002;-4.713268484920263E-003;5.998010747134686E-003;
2.404666666666667E+009;1.791287958621979E-001;4.173707962036133E-002;-4.445635247975588E-003;6.341727916151285E-003;
2.404833333333334E+009;1.810033619403839E-001;4.054488986730576E-002;-4.024755675345659E-003;6.495442707091570E-003;
2.405000000000000E+009;1.825389415025711E-001;3.954905271530151E-002;-3.576780902221799E-003;6.681912578642368E-003;
2.405166666666667E+009;1.843026727437973E-001;3.888478875160217E-002;-3.230912610888481E-003;6.791314110159874E-003;
2.405333333333334E+009;1.858418136835098E-001;3.818775340914726E-002;-2.881939290091395E-003;6.792723666876555E-003;
2.405500000000000E+009;1.875122785568237E-001;3.762893378734589E-002;-2.408074913546443E-003;6.959588732570410E-003;
2.405666666666667E+009;1.889312118291855E-001;3.714111447334290E-002;-1.935932668857276E-003;6.927730515599251E-003;
2.405833333333334E+009;1.903557181358337E-001;3.708620369434357E-002;-1.475433935411274E-003;6.937825120985508E-003;
2.406000000000000E+009;1.916640251874924E-001;3.685282543301582E-002;-1.311148749664426E-003;6.869401317089796E-003;
2.406166666666667E+009;1.929283142089844E-001;3.692565485835075E-002;-1.011537970043719E-003;6.756438408046961E-003;
2.406333333333334E+009;1.941100507974625E-001;3.686620667576790E-002;-6.309024174697697E-004;6.599480751901865E-003;
2.406500000000000E+009;1.951110064983368E-001;3.701356425881386E-002;-5.412432947196066E-004;6.514036096632481E-003;
2.406666666666667E+009;1.958616524934769E-001;3.725835308432579E-002;-1.934282627189532E-004;6.336646620184183E-003;
2.406833333333334E+009;1.966054588556290E-001;3.741499409079552E-002;6.701544771203771E-005;6.286924704909325E-003;
2.407000000000000E+009;1.970364451408386E-001;3.782609477639198E-002;2.891475742217153E-004;6.158597301691771E-003;
2.407166666666667E+009;1.977146118879318E-001;3.794410452246666E-002;5.083152791485190E-004;6.050432566553354E-003;
2.407333333333334E+009;1.978534460067749E-001;3.837139904499054E-002;6.742416298948228E-004;6.027525290846825E-003;
2.407500000000000E+009;1.980463117361069E-001;3.875113278627396E-002;6.408965564332902E-004;5.886382423341274E-003;
2.407666666666667E+009;1.980920583009720E-001;3.889010474085808E-002;8.537431131117046E-004;5.862483289092779E-003;
2.407833333333334E+009;1.979166865348816E-001;3.919061273336411E-002;1.211112597957254E-003;5.728926975280047E-003;
2.408000000000000E+009;1.977687776088715E-001;3.933343663811684E-002;1.247819163836539E-003;5.489940755069256E-003;
2.408166666666667E+009;1.972698867321014E-001;3.937540203332901E-002;1.476844423450530E-003;5.240916274487972E-003;
2.408333333333334E+009;1.969141215085983E-001;3.921003639698029E-002;1.695431885309517E-003;5.142162553966045E-003;
2.408500000000000E+009;1.962299048900604E-001;3.931195288896561E-002;1.627907855436206E-003;5.049004219472408E-003;
2.408666666666667E+009;1.956239938735962E-001;3.912515938282013E-002;1.690577017143369E-003;4.784004762768745E-003;
2.408833333333334E+009;1.948499828577042E-001;3.857648000121117E-002;1.894424087367952E-003;4.486420657485724E-003;
2.409000000000000E+009;1.937927007675171E-001;3.810382634401321E-002;1.979440450668335E-003;4.411440808326006E-003;
2.409166666666667E+009;1.928598880767822E-001;3.762928768992424E-002;1.830211607739329E-003;4.322416614741087E-003;
2.409333333333334E+009;1.917537897825241E-001;3.678734973073006E-002;1.801368547603488E-003;4.077619872987270E-003;
2.409500000000000E+009;1.903968006372452E-001;3.582447022199631E-002;1.864149002358317E-003;3.945862408727408E-003;
2.409666666666667E+009;1.893437802791596E-001;3.469261899590492E-002;1.796715077944100E-003;3.957898356020451E-003;
2.409833333333334E+009;1.881971061229706E-001;3.355667740106583E-002;1.715814112685621E-003;3.794112009927630E-003;
2.410000000000000E+009;1.870482414960861E-001;3.215722739696503E-002;1.669507357291877E-003;3.793637733906508E-003;
2.410166666666667E+009;1.857181638479233E-001;3.049731999635696E-002;1.650379621423781E-003;3.933865111321211E-003;
2.410333333333334E+009;1.847302913665772E-001;2.883373759686947E-002;1.702313194982708E-003;3.610900603234768E-003;
2.410500000000000E+009;1.834359019994736E-001;2.711458690464497E-002;1.711741439066827E-003;3.757022786885500E-003;
2.410666666666667E+009;1.822739988565445E-001;2.501690573990345E-002;1.562696532346308E-003;3.865069709718227E-003;
2.410833333333334E+009;1.812989711761475E-001;2.300485223531723E-002;1.790619688108563E-003;3.817468183115125E-003;
2.411000000000000E+009;1.804198622703552E-001;2.081128582358360E-002;1.801812788471580E-003;3.832136280834675E-003;
2.411166666666667E+009;1.796360164880753E-001;1.881274208426476E-002;1.788997789844871E-003;3.781186183914542E-003;
2.411333333333334E+009;1.788479834794998E-001;1.628986373543739E-002;1.723625697195530E-003;3.966588526964188E-003;
2.411500000000000E+009;1.779960840940476E-001;1.384527049958706E-002;1.841168268583715E-003;3.905362915247679E-003;
2.411666666666667E+009;1.778210997581482E-001;1.137622352689505E-002;1.915229950100184E-003;3.995283041149378E-003;
2.411833333333334E+009;1.772935092449188E-001;9.004648774862289E-003;2.049458911642432E-003;4.056003410369158E-003;
2.412000000000000E+009;1.771996915340424E-001;6.217329297214747E-003;2.176016801968217E-003;4.097487311810255E-003;
2.412166666666667E+009;1.770694255828857E-001;4.034443758428097E-003;2.130708191543818E-003;4.053282551467419E-003;
2.412333333333334E+009;1.771592497825623E-001;1.184404129162431E-003;2.432195236906409E-003;4.162142984569073E-003;
2.412500000000000E+009;1.773748993873596E-001;-1.426310045644641E-003;2.564537338912487E-003;4.331788979470730E-003;
2.412666666666667E+009;1.778348535299301E-001;-4.110890906304121E-003;2.656555734574795E-003;4.239155445247889E-003;
2.412833333333334E+009;1.783521026372910E-001;-6.818330381065607E-003;2.911404473707080E-003;4.275232087820768E-003;
2.413000000000000E+009;1.790936738252640E-001;-9.369060397148132E-003;3.219678066670895E-003;4.297614563256502E-003;
2.413166666666667E+009;1.797836720943451E-001;-1.162316743284464E-002;3.325466997921467E-003;4.271725192666054E-003;
2.413333333333334E+009;1.808542907238007E-001;-1.437821611762047E-002;3.548113396391273E-003;4.153352230787277E-003;
2.413500000000000E+009;1.817267537117004E-001;-1.681402511894703E-002;3.776650177314878E-003;4.078306723386049E-003;
2.413666666666667E+009;1.829490810632706E-001;-1.921631395816803E-002;3.902463708072901E-003;4.016947001218796E-003;
2.413833333333334E+009;1.840456873178482E-001;-2.154149301350117E-002;4.134524613618851E-003;3.906193189322949E-003;
2.414000000000000E+009;1.852674484252930E-001;-2.364377863705158E-002;4.496871028095484E-003;3.727964824065566E-003;
2.414166666666667E+009;1.866462975740433E-001;-2.578373625874519E-002;4.543736577033997E-003;3.606930375099182E-003;
2.414333333333334E+009;1.877617090940476E-001;-2.794236503541470E-002;4.711383953690529E-003;3.500774502754211E-003;
2.414500000000000E+009;1.892914324998856E-001;-2.965678647160530E-002;4.867461975663900E-003;3.231655573472381E-003;
2.414666666666667E+009;1.906193643808365E-001;-3.118115849792957E-002;5.142337642610073E-003;3.201220184564591E-003;
2.414833333333334E+009;1.919651925563812E-001;-3.296608477830887E-002;5.319556687027216E-003;2.989434171468020E-003;
2.415000000000000E+009;1.934219002723694E-001;-3.449928760528565E-002;5.626474972814322E-003;2.797113964334130E-003;
2.415166666666667E+009;1.948911100625992E-001;-3.563302010297775E-002;5.646429955959320E-003;2.473320579156280E-003;
2.415333333333334E+009;1.962860077619553E-001;-3.670075908303261E-002;5.802941042929888E-003;2.342266030609608E-003;
2.415500000000000E+009;1.975195854902268E-001;-3.771430253982544E-002;5.983197595924139E-003;2.152206143364310E-003;
2.415666666666667E+009;1.989862024784088E-001;-3.863641619682312E-002;6.112685427069664E-003;1.793294795788825E-003;
2.415833333333334E+009;2.000902295112610E-001;-3.934105485677719E-002;6.143482401967049E-003;1.458014594390988E-003;
2.416000000000000E+009;2.011398077011108E-001;-4.002302512526512E-002;6.221724208444357E-003;1.222075079567730E-003;
2.416166666666667E+009;2.021840065717697E-001;-4.068522900342941E-002;6.400911603122950E-003;9.387258905917406E-004;
2.416333333333334E+009;2.032092958688736E-001;-4.102948307991028E-002;6.524223368614912E-003;5.279915058054030E-004;
2.416500000000000E+009;2.037973701953888E-001;-4.135090857744217E-002;6.468588020652533E-003;2.617127902340144E-004;
2.416666666666667E+009;2.044795304536820E-001;-4.164147377014160E-002;6.389210466295481E-003;-1.354899868601933E-004;
2.416833333333334E+009;2.049578577280045E-001;-4.172598943114281E-002;6.369281094521284E-003;-3.138179017696530E-004;
2.417000000000000E+009;2.053942531347275E-001;-4.183682054281235E-002;6.222688592970371E-003;-6.621780339628458E-004;
2.417166666666667E+009;2.053617238998413E-001;-4.166752472519875E-002;6.121465470641851E-003;-9.012283990159631E-004;
2.417333333333334E+009;2.054417431354523E-001;-4.135227948427200E-002;6.008430849760771E-003;-1.170753501355648E-003;
2.417500000000000E+009;2.053627222776413E-001;-4.122086241841316E-002;6.062022875994444E-003;-1.281195553019643E-003;
2.417666666666667E+009;2.050814032554627E-001;-4.091712087392807E-002;5.841851700097323E-003;-1.302175922319293E-003;
2.417833333333334E+009;2.049293816089630E-001;-4.052481055259705E-002;5.714214872568846E-003;-1.781847211532295E-003;
2.418000000000000E+009;2.044617086648941E-001;-4.013056680560112E-002;5.542863626033068E-003;-1.880902331322432E-003;
2.418166666666667E+009;2.037260383367539E-001;-3.989023715257645E-002;5.450861994177103E-003;-2.107711974531412E-003;
2.418333333333334E+009;2.030587345361710E-001;-3.953068703413010E-002;5.427335388958454E-003;-2.313829027116299E-003;
2.418500000000000E+009;2.021514177322388E-001;-3.923723101615906E-002;5.201124120503664E-003;-2.490771235898137E-003;
2.418666666666667E+009;2.012606561183929E-001;-3.911205753684044E-002;5.113632418215275E-003;-2.582769375294447E-003;
2.418833333333334E+009;2.001035064458847E-001;-3.895188122987747E-002;4.960360471159220E-003;-2.843838185071945E-003;
2.419000000000000E+009;1.989683210849762E-001;-3.905725479125977E-002;4.930028691887856E-003;-3.000587457790971E-003;
2.419166666666667E+009;1.975863426923752E-001;-3.904395177960396E-002;4.717364907264710E-003;-3.051565028727055E-003;
2.419333333333334E+009;1.962480694055557E-001;-3.921118751168251E-002;4.334578290581703E-003;-3.219339996576309E-003;
2.419500000000000E+009;1.946462839841843E-001;-3.961380943655968E-002;4.364197142422199E-003;-3.291362198069692E-003;
2.419666666666667E+009;1.930028051137924E-001;-4.007270559668541E-002;3.912394400686026E-003;-3.373293438926339E-003;
2.419833333333334E+009;1.913424730300903E-001;-4.061564803123474E-002;3.874297486618161E-003;-3.541673300787807E-003;
2.420000000000000E+009;1.897510886192322E-001;-4.123241454362869E-002;3.665823256596923E-003;-3.639985807240009E-003;
2.420166666666667E+009;1.879080682992935E-001;-4.207171872258186E-002;3.423924557864666E-003;-3.701174398884177E-003;
2.420333333333334E+009;1.862945556640625E-001;-4.308602958917618E-002;3.388800192624331E-003;-3.626202465966344E-003;
2.420500000000000E+009;1.844052225351334E-001;-4.409426450729370E-002;3.195375204086304E-003;-3.637334564700723E-003;
2.420666666666667E+009;1.826127469539642E-001;-4.518375173211098E-002;3.053212538361549E-003;-3.752605291083455E-003;
2.420833333333334E+009;1.806832998991013E-001;-4.672994464635849E-002;2.824021037667990E-003;-3.777870908379555E-003;
2.421000000000000E+009;1.791591197252274E-001;-4.819317907094955E-002;2.829402452334762E-003;-3.747086506336927E-003;
2.421166666666667E+009;1.776084750890732E-001;-4.992011561989784E-002;2.660964615643024E-003;-3.690789220854640E-003;
2.421333333333334E+009;1.756164729595184E-001;-5.137981474399567E-002;2.546031726524234E-003;-3.746115602552891E-003;
2.421500000000000E+009;1.741720139980316E-001;-5.336416512727737E-002;2.581305569037795E-003;-3.581034252420068E-003;
2.421666666666667E+009;1.727184653282166E-001;-5.518388748168945E-002;2.453042892739177E-003;-3.669876605272293E-003;
2.421833333333334E+009;1.713819950819016E-001;-5.706118047237396E-002;2.362385159358382E-003;-3.634753171354532E-003;
2.422000000000000E+009;1.699398308992386E-001;-5.927995219826698E-002;2.374645788222551E-003;-3.760165302082896E-003;
2.422166666666667E+009;1.689021140336990E-001;-6.135818734765053E-002;2.092975890263915E-003;-3.683675313368440E-003;
2.422333333333334E+009;1.677459329366684E-001;-6.349895894527435E-002;2.194948494434357E-003;-3.677872940897942E-003;
2.422500000000000E+009;1.667440086603165E-001;-6.564885377883911E-002;2.130558015778661E-003;-3.694666083902121E-003;
2.422666666666667E+009;1.658604741096497E-001;-6.783831864595413E-002;1.876070629805327E-003;-3.863778430968523E-003;
2.422833333333334E+009;1.652277410030365E-001;-7.013791054487228E-002;1.862980891019106E-003;-3.735290141776204E-003;
2.423000000000000E+009;1.646373122930527E-001;-7.230070978403091E-002;1.914054621011019E-003;-3.896619891747832E-003;
2.423166666666667E+009;1.642383933067322E-001;-7.462637871503830E-002;1.759393024258316E-003;-3.941779490560293E-003;
2.423333333333334E+009;1.639207303524017E-001;-7.677100598812103E-002;1.699796295724809E-003;-4.078231751918793E-003;
2.423500000000000E+009;1.637145876884460E-001;-7.888728380203247E-002;1.630630576983094E-003;-3.934637643396854E-003;
2.423666666666667E+009;1.637143939733505E-001;-8.096843212842941E-002;1.614201581105590E-003;-4.059486091136932E-003;
2.423833333333334E+009;1.636212766170502E-001;-8.301156014204025E-002;1.305934507399797E-003;-4.243053030222654E-003;
2.424000000000000E+009;1.637986004352570E-001;-8.511254191398621E-002;1.258524716831744E-003;-4.211256746202707E-003;
2.424166666666667E+009;1.637351959943771E-001;-8.693344146013260E-002;1.065096119418740E-003;-4.275633953511715E-003;
2.424333333333334E+009;1.642120778560638E-001;-8.880283683538437E-002;8.542470168322325E-004;-4.326357971876860E-003;
2.424500000000000E+009;1.645073592662811E-001;-9.079423546791077E-002;7.620431715622544E-004;-4.400007426738739E-003;
2.424666666666667E+009;1.648664325475693E-001;-9.239583462476730E-002;7.045614183880389E-004;-4.458207637071610E-003;
2.424833333333334E+009;1.654616892337799E-001;-9.393779188394547E-002;4.940072540193796E-004;-4.179143346846104E-003;
2.425000000000000E+009;1.659688204526901E-001;-9.544375538825989E-002;4.506577679421753E-004;-4.354558419436216E-003;
2.425166666666667E+009;1.664661616086960E-001;-9.684029221534729E-002;3.306198923382908E-004;-4.278328269720078E-003;
2.425333333333334E+009;1.669317185878754E-001;-9.790564328432083E-002;1.180027393274941E-004;-4.207665100693703E-003;
2.425500000000000E+009;1.675941646099091E-001;-9.907229244709015E-002;1.853538378782105E-005;-4.090176429599524E-003;
2.425666666666667E+009;1.681819260120392E-001;-9.991590678691864E-002;-4.875584272667766E-005;-3.993880003690720E-003;
2.425833333333334E+009;1.687353700399399E-001;-1.009395942091942E-001;-1.312729291385040E-004;-3.938407171517611E-003;
2.426000000000000E+009;1.692862063646317E-001;-1.013726666569710E-001;-2.299173793289810E-004;-4.048314876854420E-003;
2.426166666666667E+009;1.700339019298554E-001;-1.021594554185867E-001;-2.834879560396075E-004;-4.053281154483557E-003;
2.426333333333334E+009;1.704140603542328E-001;-1.027615964412689E-001;-2.094321389449760E-004;-3.992157988250256E-003;
2.426500000000000E+009;1.710078567266464E-001;-1.030905991792679E-001;-4.561528039630503E-004;-4.115559160709381E-003;
2.426666666666667E+009;1.714997589588165E-001;-1.032989919185638E-001;-5.806351546198130E-004;-3.971019294112921E-003;
2.426833333333334E+009;1.720319539308548E-001;-1.037228554487228E-001;-6.740424432791770E-004;-4.048191010951996E-003;
2.427000000000000E+009;1.722653210163117E-001;-1.038734689354897E-001;-6.765869329683483E-004;-3.893821965903044E-003;
2.427166666666667E+009;1.725582778453827E-001;-1.039423719048500E-001;-8.298877510242164E-004;-4.131179302930832E-003;
2.427333333333334E+009;1.726863235235214E-001;-1.041704267263413E-001;-9.559590835124254E-004;-3.950997721403837E-003;
2.427500000000000E+009;1.725972741842270E-001;-1.042964309453964E-001;-9.513371041975915E-004;-3.755282843485475E-003;
2.427666666666667E+009;1.725659370422363E-001;-1.042969375848770E-001;-1.158924074843526E-003;-3.819006728008390E-003;
2.427833333333334E+009;1.724241822957993E-001;-1.042444109916687E-001;-1.282999175600708E-003;-3.739330219104886E-003;
