# Version 1.00
#
freq[Hz];re:Trc1_S11;im:Trc1_S11;re:Trc2_S21;im:Trc2_S21;
2.400000000000000E+009;1.565561294555664E-001;6.050471588969231E-002;4.098146688193083E-003;-5.433049052953720E-003;
2.400166666666667E+009;1.566616743803024E-001;5.880690366029739E-002;4.061993211507797E-003;-5.680420435965061E-003;
2.400333333333334E+009;1.566338092088699E-001;5.678073689341545E-002;3.730559721589088E-003;-5.817845463752747E-003;
2.400500000000000E+009;1.568894535303116E-001;5.480952560901642E-002;3.520828671753407E-003;-5.833094939589500E-003;
2.400666666666667E+009;1.570812165737152E-001;5.255633592605591E-002;3.244846360757947E-003;-5.956804845482111E-003;
2.400833333333334E+009;1.574758142232895E-001;5.074931681156158E-002;3.177131759002805E-003;-6.298627238720655E-003;
2.401000000000000E+009;1.577843874692917E-001;4.838483780622482E-002;2.952886978164315E-003;-6.335371173918247E-003;
2.401166666666667E+009;1.582928448915482E-001;4.644182696938515E-002;2.826269483193755E-003;-6.541104521602392E-003;
2.401333333333334E+009;1.586929261684418E-001;4.428760707378388E-002;2.403541002422571E-003;-6.681757979094982E-003;
2.401500000000000E+009;1.592994928359985E-001;4.223638027906418E-002;2.104088431224227E-003;-6.627610884606838E-003;
2.401666666666667E+009;1.599191874265671E-001;4.039800167083740E-002;1.985570183023810E-003;-6.843065377324820E-003;
2.401833333333334E+009;1.603654026985169E-001;3.838315606117249E-002;1.656901440583170E-003;-6.846241652965546E-003;
2.402000000000000E+009;1.608915179967880E-001;3.636492043733597E-002;1.434153527952731E-003;-6.941151805222035E-003;
2.402166666666667E+009;1.617399156093597E-001;3.455011174082756E-002;1.053649932146072E-003;-7.027263753116131E-003;
2.402333333333334E+009;1.623052507638931E-001;3.285200521349907E-002;8.304429356940091E-004;-7.081562187522650E-003;
2.402500000000000E+009;1.633453816175461E-001;3.111781924962997E-002;4.194954235572368E-004;-7.205395027995110E-003;
2.402666666666667E+009;1.641650050878525E-001;2.969405613839626E-002;1.059218848240562E-004;-7.157356012612581E-003;
2.402833333333334E+009;1.650051325559616E-001;2.807774953544140E-002;-3.002246958203614E-004;-7.024615071713924E-003;
2.403000000000000E+009;1.660061180591583E-001;2.671412192285061E-002;-4.655298544093967E-004;-6.997569464147091E-003;
2.403166666666667E+009;1.668461263179779E-001;2.529882080852985E-002;-8.672865806147456E-004;-6.803154014050961E-003;
2.403333333333334E+009;1.679261028766632E-001;2.413178980350494E-002;-1.143465749919415E-003;-6.824786774814129E-003;
2.403500000000000E+009;1.689002066850662E-001;2.293800190091133E-002;-1.374544459395111E-003;-6.696277763694525E-003;
2.403666666666667E+009;1.697573065757752E-001;2.166149765253067E-002;-1.778064412064850E-003;-6.616838276386261E-003;
2.403833333333334E+009;1.709146201610565E-001;2.063288539648056E-002;-1.958135282620788E-003;-6.442421581596136E-003;
2.404000000000000E+009;1.718760728836060E-001;1.964708045125008E-002;-2.224393887445331E-003;-6.372432690113783E-003;
2.404166666666667E+009;1.725721359252930E-001;1.883010752499104E-002;-2.617079764604569E-003;-6.141160149127245E-003;
2.404333333333334E+009;1.734654009342194E-001;1.806041598320007E-002;-2.738740760833025E-003;-5.964028649032116E-003;
2.404500000000000E+009;1.742331981658936E-001;1.707175374031067E-002;-2.890111645683646E-003;-5.832700990140438E-003;
2.404666666666667E+009;1.750287115573883E-001;1.660951226949692E-002;-3.163399407640100E-003;-5.747462157160044E-003;
2.404833333333334E+009;1.758685857057571E-001;1.602448709309101E-002;-3.498783335089684E-003;-5.390123464167118E-003;
2.405000000000000E+009;1.765289455652237E-001;1.553214062005281E-002;-3.441342152655125E-003;-5.293979309499264E-003;
2.405166666666667E+009;1.772158443927765E-001;1.496970094740391E-002;-3.720728913322091E-003;-5.040009040385485E-003;
2.405333333333334E+009;1.778953820466995E-001;1.446004118770361E-002;-3.870832733809948E-003;-4.754463210701942E-003;
2.405500000000000E+009;1.782575696706772E-001;1.419043354690075E-002;-4.179137758910656E-003;-4.674784373492003E-003;
2.405666666666667E+009;1.787396073341370E-001;1.377721037715673E-002;-3.994184546172619E-003;-4.402332473546267E-003;
2.405833333333334E+009;1.789675056934357E-001;1.359410583972931E-002;-4.156053531914949E-003;-4.257067572325468E-003;
2.406000000000000E+009;1.794145703315735E-001;1.319065969437361E-002;-4.270205739885569E-003;-3.876221133396030E-003;
2.406166666666667E+009;1.794901192188263E-001;1.312002819031477E-002;-4.352904856204987E-003;-3.665856784209609E-003;
2.406333333333334E+009;1.798463910818100E-001;1.263105031102896E-002;-4.361122380942106E-003;-3.443392692133784E-003;
2.406500000000000E+009;1.798791736364365E-001;1.234598364681006E-002;-4.604595247656107E-003;-3.173385746777058E-003;
2.406666666666667E+009;1.795770525932312E-001;1.224762480705977E-002;-4.431604407727718E-003;-3.107118187472224E-003;
2.406833333333334E+009;1.796663403511047E-001;1.174662262201309E-002;-4.526997450739145E-003;-2.846363699063659E-003;
2.407000000000000E+009;1.796238273382187E-001;1.139081921428442E-002;-4.552281927317381E-003;-2.585555426776409E-003;
2.407166666666667E+009;1.793399602174759E-001;1.103061437606812E-002;-4.539757966995239E-003;-2.288616960868239E-003;
2.407333333333334E+009;1.790063977241516E-001;1.038442831486464E-002;-4.559467546641827E-003;-2.199916867539287E-003;
2.407500000000000E+009;1.786747425794601E-001;1.002940349280834E-002;-4.593410529196262E-003;-1.986565301194787E-003;
2.407666666666667E+009;1.782028675079346E-001;9.439299814403057E-003;-4.575250204652548E-003;-2.028491580858827E-003;
2.407833333333334E+009;1.776120662689209E-001;8.595525287091732E-003;-4.409070592373610E-003;-1.664817216806114E-003;
2.408000000000000E+009;1.770484000444412E-001;7.746628951281309E-003;-4.405433777719736E-003;-1.512126531451941E-003;
2.408166666666667E+009;1.763609349727631E-001;7.123345974832773E-003;-4.409414716064930E-003;-1.375881023705006E-003;
2.408333333333334E+009;1.760832965373993E-001;6.189625244587660E-003;-4.339246079325676E-003;-1.261956291273236E-003;
2.408500000000000E+009;1.752932965755463E-001;5.225905682891607E-003;-4.393579438328743E-003;-1.136631006374955E-003;
2.408666666666667E+009;1.745735257863998E-001;4.071181640028954E-003;-4.236939828842878E-003;-1.035728608258069E-003;
2.408833333333334E+009;1.738384664058685E-001;2.960942452773452E-003;-4.314480815082789E-003;-8.969698101282120E-004;
2.409000000000000E+009;1.730876266956329E-001;1.622387790121138E-003;-4.078684374690056E-003;-7.217660313472152E-004;
2.409166666666667E+009;1.725029200315476E-001;2.884139539673924E-004;-4.134444519877434E-003;-7.556144846603274E-004;
2.409333333333334E+009;1.718173474073410E-001;-1.107787480577827E-003;-4.115720279514790E-003;-6.930453237146139E-004;
2.409500000000000E+009;1.712688058614731E-001;-2.798113739117980E-003;-4.037201404571533E-003;-5.345772369764745E-004;
2.409666666666667E+009;1.705655455589294E-001;-4.187276586890221E-003;-4.122517537325621E-003;-4.547572752926499E-004;
2.409833333333334E+009;1.698985397815704E-001;-5.726693663746119E-003;-4.005820956081152E-003;-2.928315952885896E-004;
2.410000000000000E+009;1.695087701082230E-001;-7.446164730936289E-003;-3.968507517129183E-003;-2.815109619405121E-004;
2.410166666666667E+009;1.690325736999512E-001;-9.283309802412987E-003;-3.872166387736797E-003;-1.359054440399632E-004;
2.410333333333334E+009;1.684274524450302E-001;-1.120343990623951E-002;-4.007338080555201E-003;6.726009451085702E-005;
2.410500000000000E+009;1.681431382894516E-001;-1.304533798247576E-002;-3.884759964421392E-003;-6.808105536038056E-005;
2.410666666666667E+009;1.678824871778488E-001;-1.512630004435778E-002;-3.838535631075501E-003;1.487670087954029E-004;
2.410833333333334E+009;1.675691306591034E-001;-1.668028160929680E-002;-3.947100602090359E-003;2.635617565829307E-004;
2.411000000000000E+009;1.674492806196213E-001;-1.861809939146042E-002;-3.920476417988539E-003;2.487970632500947E-004;
2.411166666666667E+009;1.672450155019760E-001;-2.075027488172054E-002;-3.932031802833080E-003;4.684924497269094E-004;
2.411333333333334E+009;1.672708839178085E-001;-2.248036116361618E-002;-3.818832803517580E-003;5.555527168326080E-004;
2.411500000000000E+009;1.672245413064957E-001;-2.468336932361126E-002;-3.866539103910327E-003;6.397026008926332E-004;
2.411666666666667E+009;1.675583422183991E-001;-2.651390992105007E-002;-3.840043442323804E-003;8.892305195331574E-004;
2.411833333333334E+009;1.675914525985718E-001;-2.841433323919773E-002;-3.652891376987100E-003;9.084821213036776E-004;
2.412000000000000E+009;1.678750216960907E-001;-3.033575415611267E-002;-3.670668462291360E-003;1.004711841233075E-003;
2.412166666666667E+009;1.682305335998535E-001;-3.219277784228325E-002;-3.609291277825832E-003;1.141494954936206E-003;
2.412333333333334E+009;1.687708199024200E-001;-3.392831236124039E-002;-3.598826238885522E-003;1.269645290449262E-003;
2.412500000000000E+009;1.690082848072052E-001;-3.580526262521744E-002;-3.340743947774172E-003;1.284211757592857E-003;
2.412666666666667E+009;1.696957349777222E-001;-3.752105310559273E-002;-3.384876996278763E-003;1.639980240724981E-003;
2.412833333333334E+009;1.703000515699387E-001;-3.925174847245216E-002;-3.244914114475250E-003;1.725826994515955E-003;
2.413000000000000E+009;1.706740260124207E-001;-4.085898771882057E-002;-3.244665917009115E-003;1.701163477264345E-003;
2.413166666666667E+009;1.713940501213074E-001;-4.246092215180397E-002;-3.165137488394976E-003;1.901778043247759E-003;
2.413333333333334E+009;1.717887073755264E-001;-4.393958300352097E-002;-2.977628028020263E-003;2.019450534135103E-003;
2.413500000000000E+009;1.724854260683060E-001;-4.540162533521652E-002;-2.937336219474673E-003;2.067223656922579E-003;
2.413666666666667E+009;1.733342111110687E-001;-4.674009978771210E-002;-2.612502081319690E-003;2.282747998833656E-003;
2.413833333333334E+009;1.737545728683472E-001;-4.798429831862450E-002;-2.456903923302889E-003;2.181216143071652E-003;
2.414000000000000E+009;1.743200123310089E-001;-4.929914325475693E-002;-2.403684193268418E-003;2.194167347624898E-003;
2.414166666666667E+009;1.750683933496475E-001;-5.027855932712555E-002;-2.357128076255322E-003;2.276870422065258E-003;
2.414333333333334E+009;1.756719797849655E-001;-5.131613090634346E-002;-2.111410023644567E-003;2.234802581369877E-003;
2.414500000000000E+009;1.763225644826889E-001;-5.238611996173859E-002;-2.114588161930442E-003;2.391895046457648E-003;
2.414666666666667E+009;1.767578423023224E-001;-5.307674780488014E-002;-1.871253480203450E-003;2.404486527666450E-003;
2.414833333333334E+009;1.772286891937256E-001;-5.402521416544914E-002;-1.871200976893306E-003;2.489976119250059E-003;
2.415000000000000E+009;1.775964796543121E-001;-5.460519343614578E-002;-1.553222304210067E-003;2.477451926097274E-003;
2.415166666666667E+009;1.779161095619202E-001;-5.512242764234543E-002;-1.516106538474560E-003;2.415857743471861E-003;
2.415333333333334E+009;1.783217489719391E-001;-5.573875457048416E-002;-1.376277650706470E-003;2.398492535576224E-003;
2.415500000000000E+009;1.785321086645126E-001;-5.610049143433571E-002;-1.173182041384280E-003;2.320804400369525E-003;
2.415666666666667E+009;1.786955446004868E-001;-5.649047717452049E-002;-1.232046284712851E-003;2.321512904018164E-003;
2.415833333333334E+009;1.786650270223618E-001;-5.688943713903427E-002;-9.045472834259272E-004;2.302638022229075E-003;
2.416000000000000E+009;1.785954982042313E-001;-5.713189765810967E-002;-1.045890268869698E-003;2.141992794349790E-003;
2.416166666666667E+009;1.785857379436493E-001;-5.743221566081047E-002;-1.051833154633641E-003;2.247954020276666E-003;
2.416333333333334E+009;1.784501224756241E-001;-5.766393989324570E-002;-8.740908233448863E-004;2.102112630382180E-003;
2.416500000000000E+009;1.781260669231415E-001;-5.795643478631973E-002;-8.411279995925725E-004;2.166724298149347E-003;
2.416666666666667E+009;1.776907145977020E-001;-5.806506425142288E-002;-7.366626523435116E-004;2.188153099268675E-003;
2.416833333333334E+009;1.773570477962494E-001;-5.838799104094505E-002;-7.450784905813634E-004;2.041308674961329E-003;
2.417000000000000E+009;1.766484081745148E-001;-5.864911153912544E-002;-5.844311090186238E-004;1.997957238927484E-003;
2.417166666666667E+009;1.759435683488846E-001;-5.882502719759941E-002;-5.978801054880023E-004;2.031303709372878E-003;
2.417333333333334E+009;1.753136813640595E-001;-5.888826772570610E-002;-6.146811647340655E-004;2.066111192107201E-003;
2.417500000000000E+009;1.744852066040039E-001;-5.946526676416397E-002;-3.951944818254560E-004;1.924681593663991E-003;
2.417666666666667E+009;1.736658215522766E-001;-5.953832343220711E-002;-4.943934618495405E-004;1.955028856173158E-003;
2.417833333333334E+009;1.726977974176407E-001;-5.998534709215164E-002;-3.650085127446801E-004;1.927164848893881E-003;
2.418000000000000E+009;1.715438216924667E-001;-6.052820011973381E-002;-2.867720613721758E-004;1.900199917145073E-003;
2.418166666666667E+009;1.705859005451202E-001;-6.078004464507103E-002;-1.283508463529870E-004;1.802701852284372E-003;
2.418333333333334E+009;1.696242541074753E-001;-6.148347258567810E-002;-3.023612371180207E-004;1.851820386946201E-003;
2.418500000000000E+009;1.684009134769440E-001;-6.194944307208061E-002;-2.315908204764128E-005;1.741175423376262E-003;
2.418666666666667E+009;1.673140227794647E-001;-6.269701570272446E-002;-1.226733438670635E-004;1.716159516945481E-003;
2.418833333333334E+009;1.658525764942169E-001;-6.331729888916016E-002;-9.948632941814140E-005;1.545064616948366E-003;
2.419000000000000E+009;1.644882112741470E-001;-6.415435671806335E-002;1.208433150168276E-005;1.510852249339223E-003;
2.419166666666667E+009;1.633894741535187E-001;-6.500587612390518E-002;8.342026558239013E-005;1.426432281732559E-003;
2.419333333333334E+009;1.620201915502548E-001;-6.572227180004120E-002;2.877383485611063E-005;1.383906230330467E-003;
2.419500000000000E+009;1.608494669198990E-001;-6.713373959064484E-002;6.076049248804338E-005;1.190794981084764E-003;
2.419666666666667E+009;1.596869528293610E-001;-6.820753216743469E-002;1.196500961668789E-004;1.257944619283080E-003;
2.419833333333334E+009;1.583828479051590E-001;-6.920138746500015E-002;5.155090184416622E-005;1.098684384487569E-003;
2.420000000000000E+009;1.575668156147003E-001;-7.049220800399780E-002;9.941319876816124E-005;1.092914841137826E-003;
2.420166666666667E+009;1.563912034034729E-001;-7.170844823122025E-002;3.302920958958566E-005;1.105345203541219E-003;
2.420333333333334E+009;1.554680466651917E-001;-7.323500514030457E-002;3.081474642385729E-005;1.079902984201908E-003;
2.420500000000000E+009;1.547097414731979E-001;-7.451942563056946E-002;1.525926636531949E-004;9.992583654820919E-004;
2.420666666666667E+009;1.536023020744324E-001;-7.583186775445938E-002;-9.520147432340309E-005;8.988900226540864E-004;
2.420833333333334E+009;1.530003398656845E-001;-7.768189162015915E-002;-1.715980324661359E-004;1.166663947515190E-003;
2.421000000000000E+009;1.520732939243317E-001;-7.922263443470001E-002;3.785547596635297E-005;9.284495608881116E-004;
2.421166666666667E+009;1.515346467494965E-001;-8.079715818166733E-002;-4.082067607669160E-005;1.005866564810276E-003;
2.421333333333334E+009;1.510064154863358E-001;-8.247749507427216E-002;-7.437040039803833E-005;8.128269691951573E-004;
2.421500000000000E+009;1.505393236875534E-001;-8.408653736114502E-002;-1.387519150739536E-004;9.190546697936952E-004;
2.421666666666667E+009;1.501165926456451E-001;-8.590810745954514E-002;-1.630807819310576E-004;8.930585463531315E-004;
2.421833333333334E+009;1.499590128660202E-001;-8.750197291374207E-002;-2.093032671837136E-004;7.881454657763243E-004;
2.422000000000000E+009;1.495490670204163E-001;-8.915589749813080E-002;-1.922682567965239E-004;8.951032068580389E-004;
2.422166666666667E+009;1.495132893323898E-001;-9.106926620006561E-002;-3.806825261563063E-004;8.108362089842558E-004;
2.422333333333334E+009;1.497106254100800E-001;-9.269803017377853E-002;-3.359273832757026E-004;8.713672286830843E-004;
2.422500000000000E+009;1.496370434761047E-001;-9.413907676935196E-002;-3.187452384736389E-004;8.563190349377692E-004;
2.422666666666667E+009;1.495709717273712E-001;-9.589438140392304E-002;-4.724384634755552E-004;8.453887421637774E-004;
2.422833333333334E+009;1.499534547328949E-001;-9.748737514019013E-002;-4.130774177610874E-004;1.052988460287452E-003;
2.423000000000000E+009;1.502423733472824E-001;-9.906726330518723E-002;-4.980981466360390E-004;8.775692549534142E-004;
2.423166666666667E+009;1.505099982023239E-001;-1.006425023078919E-001;-3.439643478486687E-004;9.664036333560944E-004;
2.423333333333334E+009;1.510504037141800E-001;-1.018700152635574E-001;-3.243539540562779E-004;9.509574156254530E-004;
2.423500000000000E+009;1.514844894409180E-001;-1.035405620932579E-001;-4.023536457680166E-004;9.759596432559192E-004;
2.423666666666667E+009;1.517077535390854E-001;-1.048471331596375E-001;-3.646912518888712E-004;1.026842626743019E-003;
2.423833333333334E+009;1.523774266242981E-001;-1.062492057681084E-001;-5.293784197419882E-004;1.059460453689098E-003;
2.424000000000000E+009;1.526849865913391E-001;-1.072026044130325E-001;-4.413271381054074E-004;1.068667857907713E-003;
2.424166666666667E+009;1.533668041229248E-001;-1.083734109997749E-001;-4.839012981392443E-004;1.126336283050478E-003;
2.424333333333334E+009;1.538166105747223E-001;-1.095047220587730E-001;-4.466769169084728E-004;1.289118430577219E-003;
2.424500000000000E+009;1.543694883584976E-001;-1.104941740632057E-001;-3.468442009761930E-004;1.175628509372473E-003;
2.424666666666667E+009;1.550198495388031E-001;-1.112607419490814E-001;-3.395072708372027E-004;1.211312483064830E-003;
2.424833333333334E+009;1.553924828767777E-001;-1.120257452130318E-001;-3.835776587948203E-004;1.287405728362501E-003;
2.425000000000000E+009;1.556944102048874E-001;-1.129594519734383E-001;-2.387666318099946E-004;1.444611581973732E-003;
2.425166666666667E+009;1.559475064277649E-001;-1.136958673596382E-001;-3.696277562994510E-004;1.363651826977730E-003;
2.425333333333334E+009;1.563637107610703E-001;-1.141251996159554E-001;-2.436199138173834E-004;1.431571203283966E-003;
2.425500000000000E+009;1.567862331867218E-001;-1.148335188627243E-001;-4.455497837625444E-004;1.323442673310638E-003;
2.425666666666667E+009;1.568901836872101E-001;-1.151131391525269E-001;-3.309687017463148E-004;1.245093531906605E-003;
2.425833333333334E+009;1.570343971252441E-001;-1.155283674597740E-001;-1.379515015287325E-004;1.448421622626483E-003;
2.426000000000000E+009;1.570674777030945E-001;-1.160008758306503E-001;-3.148983814753592E-004;1.377162989228964E-003;
2.426166666666667E+009;1.572886854410172E-001;-1.161848306655884E-001;-1.885859819594771E-004;1.516367658041418E-003;
2.426333333333334E+009;1.569913029670715E-001;-1.164086759090424E-001;-5.579495336860418E-005;1.284852158278227E-003;
2.426500000000000E+009;1.568082720041275E-001;-1.164875999093056E-001;-1.757298450684175E-004;1.380329136736691E-003;
2.426666666666667E+009;1.567435562610626E-001;-1.166096776723862E-001;-2.485721779521555E-004;1.603453187271953E-003;
2.426833333333334E+009;1.563055366277695E-001;-1.168224439024925E-001;-3.185340392519720E-005;1.597322174347937E-003;
2.427000000000000E+009;1.558083146810532E-001;-1.170045286417007E-001;6.486981874331832E-005;1.598336966708303E-003;
2.427166666666667E+009;1.552618592977524E-001;-1.169974803924561E-001;-3.760353365578339E-006;1.661044545471668E-003;
2.427333333333334E+009;1.546337902545929E-001;-1.170913055539131E-001;-1.339797654509312E-005;1.601424999535084E-003;
2.427500000000000E+009;1.539679169654846E-001;-1.171602755784988E-001;1.459456689190120E-005;1.848128275014460E-003;
2.427666666666667E+009;1.531497985124588E-001;-1.173818334937096E-001;7.337170245591551E-005;1.720279804430902E-003;
