# Version 1.00
#
freq[Hz];re:Trc1_S11;im:Trc1_S11;re:Trc2_S21;im:Trc2_S21;
2.400000000000000E+009;1.563578993082047E-001;6.073550507426262E-002;4.208692815154791E-003;-5.408371333032847E-003;
2.400166666666667E+009;1.564980745315552E-001;5.886782705783844E-002;3.945080097764731E-003;-5.605703219771385E-003;
2.400333333333334E+009;1.566756069660187E-001;5.673928186297417E-002;3.931192215532064E-003;-5.910364445298910E-003;
2.400500000000000E+009;1.569494307041168E-001;5.481703951954842E-002;3.686119336634874E-003;-5.936344619840384E-003;
2.400666666666667E+009;1.570303291082382E-001;5.269394069910049E-002;3.395199077203870E-003;-5.971345119178295E-003;
2.400833333333334E+009;1.573372632265091E-001;5.081356689333916E-002;3.240514080971479E-003;-6.319132167845964E-003;
2.401000000000000E+009;1.578993797302246E-001;4.863701388239861E-002;3.051769221201539E-003;-6.331070326268673E-003;
2.401166666666667E+009;1.581860184669495E-001;4.645413905382156E-002;2.624609740450978E-003;-6.413273978978396E-003;
2.401333333333334E+009;1.586382389068604E-001;4.441739246249199E-002;2.503446303308010E-003;-6.599571090191603E-003;
2.401500000000000E+009;1.592251807451248E-001;4.232291132211685E-002;2.109392778947949E-003;-6.610791198909283E-003;
2.401666666666667E+009;1.597106009721756E-001;4.061740636825562E-002;1.963898539543152E-003;-6.905842106789351E-003;
2.401833333333334E+009;1.603046357631683E-001;3.862351551651955E-002;1.679382403381169E-003;-6.900881882756949E-003;
2.402000000000000E+009;1.608762741088867E-001;3.664268553256989E-002;1.462937914766371E-003;-7.026960607618094E-003;
2.402166666666667E+009;1.617921888828278E-001;3.459447994828224E-002;1.127433613874018E-003;-6.921949796378613E-003;
2.402333333333334E+009;1.624667942523956E-001;3.275316953659058E-002;7.103228126652539E-004;-7.070851512253285E-003;
2.402500000000000E+009;1.634766161441803E-001;3.125385195016861E-002;6.335508660413325E-004;-6.988104898482561E-003;
2.402666666666667E+009;1.642403006553650E-001;2.969664335250855E-002;3.566529194358736E-004;-7.159896194934845E-003;
2.402833333333334E+009;1.650133132934570E-001;2.817674912512302E-002;-1.446839305572212E-004;-7.161876652389765E-003;
2.403000000000000E+009;1.658264696598053E-001;2.655840851366520E-002;-3.573353460524231E-004;-7.010913919657469E-003;
2.403166666666667E+009;1.670050323009491E-001;2.538876421749592E-002;-8.298819302581251E-004;-7.009632419794798E-003;
2.403333333333334E+009;1.679655909538269E-001;2.402817644178867E-002;-9.957799920812249E-004;-6.976292934268713E-003;
2.403500000000000E+009;1.688207685947418E-001;2.277121134102345E-002;-1.326129538938403E-003;-6.939098238945007E-003;
2.403666666666667E+009;1.697869449853897E-001;2.169244550168514E-002;-1.585074583999813E-003;-6.707845255732536E-003;
2.403833333333334E+009;1.708524823188782E-001;2.055573835968971E-002;-1.915349857881665E-003;-6.708771456032991E-003;
2.404000000000000E+009;1.716997027397156E-001;1.968478225171566E-002;-2.128526801243424E-003;-6.535782944411039E-003;
2.404166666666667E+009;1.726490557193756E-001;1.871110871434212E-002;-2.422692719846964E-003;-6.404771003872156E-003;
2.404333333333334E+009;1.734502464532852E-001;1.795380748808384E-002;-2.763082506135106E-003;-6.175481714308262E-003;
2.404500000000000E+009;1.742702871561050E-001;1.719011738896370E-002;-2.709894906729460E-003;-5.990350618958473E-003;
2.404666666666667E+009;1.751529723405838E-001;1.638323627412319E-002;-3.059683833271265E-003;-5.835114978253841E-003;
2.404833333333334E+009;1.758218109607697E-001;1.595208793878555E-002;-3.393263090401888E-003;-5.587127991020680E-003;
2.405000000000000E+009;1.767492294311523E-001;1.539454888552427E-002;-3.494314616546035E-003;-5.378596950322390E-003;
2.405166666666667E+009;1.772420853376389E-001;1.497960183769465E-002;-3.764474997296929E-003;-5.102344788610935E-003;
2.405333333333334E+009;1.778907328844070E-001;1.442112773656845E-002;-3.902324009686709E-003;-5.036666523665190E-003;
2.405500000000000E+009;1.784020513296127E-001;1.411840785294771E-002;-3.934824839234352E-003;-4.638970363885164E-003;
2.405666666666667E+009;1.788320392370224E-001;1.376648806035519E-002;-4.319382365792990E-003;-4.610206931829453E-003;
2.405833333333334E+009;1.790643036365509E-001;1.360933575779200E-002;-4.231596365571022E-003;-4.213590640574694E-003;
2.406000000000000E+009;1.794157475233078E-001;1.315308734774590E-002;-4.214629065245390E-003;-3.983099479228258E-003;
2.406166666666667E+009;1.795708090066910E-001;1.299993135035038E-002;-4.565672948956490E-003;-3.813331248238683E-003;
2.406333333333334E+009;1.797588467597961E-001;1.276624668389559E-002;-4.432624205946922E-003;-3.514982061460614E-003;
2.406500000000000E+009;1.798294186592102E-001;1.230361871421337E-002;-4.484335891902447E-003;-3.337662434205413E-003;
2.406666666666667E+009;1.796894967556000E-001;1.217652950435877E-002;-4.703251179307699E-003;-2.899192506447434E-003;
2.406833333333334E+009;1.797514408826828E-001;1.187287457287312E-002;-4.492029547691345E-003;-2.767622703686357E-003;
2.407000000000000E+009;1.796106696128845E-001;1.135548856109381E-002;-4.427120555192232E-003;-2.661389531567693E-003;
2.407166666666667E+009;1.792889833450317E-001;1.101071108132601E-002;-4.531878978013992E-003;-2.472001360729337E-003;
2.407333333333334E+009;1.789982765913010E-001;1.046267896890640E-002;-4.523985553532839E-003;-2.274300204589963E-003;
2.407500000000000E+009;1.786037534475327E-001;9.934248402714729E-003;-4.571781028062105E-003;-2.108212793245912E-003;
2.407666666666667E+009;1.781927496194840E-001;9.447538293898106E-003;-4.357832018285990E-003;-1.937940251082182E-003;
2.407833333333334E+009;1.775666773319244E-001;8.592238649725914E-003;-4.413892515003681E-003;-2.012748969718814E-003;
2.408000000000000E+009;1.770912855863571E-001;7.780142594128847E-003;-4.354369360953569E-003;-1.797621953301132E-003;
2.408166666666667E+009;1.764636188745499E-001;7.042993325740099E-003;-4.458070266991854E-003;-1.443174667656422E-003;
2.408333333333334E+009;1.761025190353394E-001;6.117430515587330E-003;-4.335868638008833E-003;-1.327101374045014E-003;
2.408500000000000E+009;1.752903312444687E-001;5.155324470251799E-003;-4.291446879506111E-003;-1.166561967693269E-003;
2.408666666666667E+009;1.746648401021957E-001;3.933559637516737E-003;-4.262885544449091E-003;-1.182414125651121E-003;
2.408833333333334E+009;1.738422960042954E-001;2.899125684052706E-003;-4.162508994340897E-003;-1.029750215820968E-003;
2.409000000000000E+009;1.731802076101303E-001;1.629356527701020E-003;-4.169241525232792E-003;-8.033476187847555E-004;
2.409166666666667E+009;1.725457757711411E-001;1.694820239208639E-004;-4.135735798627138E-003;-6.989735993556678E-004;
2.409333333333334E+009;1.719682067632675E-001;-1.332099665887654E-003;-4.250758793205023E-003;-7.731759687885642E-004;
2.409500000000000E+009;1.712649464607239E-001;-2.749567152932286E-003;-3.958178218454123E-003;-5.008362932130694E-004;
2.409666666666667E+009;1.706530004739761E-001;-4.211776424199343E-003;-4.061344079673290E-003;-5.834433832205832E-004;
2.409833333333334E+009;1.700446605682373E-001;-5.794276949018240E-003;-4.026940558105707E-003;-4.454556037671864E-004;
2.410000000000000E+009;1.695660948753357E-001;-7.625293452292681E-003;-4.038176964968443E-003;-3.870196524076164E-004;
2.410166666666667E+009;1.689176708459854E-001;-9.275208227336407E-003;-4.043658729642630E-003;-2.667008084245026E-004;
2.410333333333334E+009;1.685766428709030E-001;-1.103653199970722E-002;-3.915687557309866E-003;-1.911293074954301E-004;
2.410500000000000E+009;1.680368036031723E-001;-1.288115233182907E-002;-3.922374453395605E-003;-1.280186552321538E-004;
2.410666666666667E+009;1.678583920001984E-001;-1.483156997710466E-002;-3.944100812077522E-003;4.913694647257216E-005;
2.410833333333334E+009;1.677264422178268E-001;-1.677142083644867E-002;-3.944368567317724E-003;4.278878259356134E-005;
2.411000000000000E+009;1.674171835184097E-001;-1.868965290486813E-002;-4.012124612927437E-003;2.958290860988200E-004;
2.411166666666667E+009;1.671784073114395E-001;-2.060184255242348E-002;-3.845260245725513E-003;2.856489154510200E-004;
2.411333333333334E+009;1.673533469438553E-001;-2.255347184836865E-002;-3.783776657655835E-003;4.847309028264135E-004;
2.411500000000000E+009;1.672825515270233E-001;-2.462331578135490E-002;-4.015506245195866E-003;7.363885524682701E-004;
2.411666666666667E+009;1.675392538309097E-001;-2.654755488038063E-002;-3.901918418705463E-003;7.851793197914958E-004;
2.411833333333334E+009;1.675188988447189E-001;-2.825931459665299E-002;-3.779267426580191E-003;7.806291687302291E-004;
2.412000000000000E+009;1.680134087800980E-001;-3.033666871488094E-002;-3.728881245478988E-003;1.089917845092714E-003;
2.412166666666667E+009;1.682148873806000E-001;-3.219335898756981E-002;-3.489149967208505E-003;1.108691212721169E-003;
2.412333333333334E+009;1.687491983175278E-001;-3.408008813858032E-002;-3.699057968333364E-003;1.252867514267564E-003;
2.412500000000000E+009;1.692642867565155E-001;-3.570576012134552E-002;-3.381512593477964E-003;1.519906683824956E-003;
2.412666666666667E+009;1.696424782276154E-001;-3.787739202380180E-002;-3.464782144874334E-003;1.397782121784985E-003;
2.412833333333334E+009;1.700935959815979E-001;-3.930353000760078E-002;-3.249773988500238E-003;1.624966622330248E-003;
2.413000000000000E+009;1.708949357271195E-001;-4.084644466638565E-002;-3.278543008491397E-003;1.781319384463131E-003;
2.413166666666667E+009;1.713149100542069E-001;-4.251250997185707E-002;-3.172841854393482E-003;1.895286142826080E-003;
2.413333333333334E+009;1.717789322137833E-001;-4.392757266759872E-002;-2.997036557644606E-003;2.051053801551461E-003;
2.413500000000000E+009;1.724745035171509E-001;-4.554124176502228E-002;-2.844265429303050E-003;2.052157185971737E-003;
2.413666666666667E+009;1.732943058013916E-001;-4.691307991743088E-002;-2.738514449447393E-003;2.165841171517968E-003;
2.413833333333334E+009;1.737995296716690E-001;-4.807763546705246E-002;-2.676661591976881E-003;2.280537737533450E-003;
2.414000000000000E+009;1.742106378078461E-001;-4.941451922059059E-002;-2.540374407544732E-003;2.288158051669598E-003;
2.414166666666667E+009;1.751420199871063E-001;-5.036353692412376E-002;-2.204935997724533E-003;2.209711819887161E-003;
2.414333333333334E+009;1.755995154380798E-001;-5.154016241431236E-002;-2.250869059935212E-003;2.372753806412220E-003;
2.414500000000000E+009;1.763929575681686E-001;-5.218093842267990E-002;-1.869685365818441E-003;2.431276720017195E-003;
2.414666666666667E+009;1.768229156732559E-001;-5.322670564055443E-002;-2.053290139883757E-003;2.384048188105226E-003;
2.414833333333334E+009;1.771697252988815E-001;-5.407757684588432E-002;-1.799933263100684E-003;2.371163805946708E-003;
2.415000000000000E+009;1.775027364492416E-001;-5.448913574218750E-002;-1.654980471357703E-003;2.496135421097279E-003;
2.415166666666667E+009;1.778526008129120E-001;-5.510342493653297E-002;-1.549579552374780E-003;2.438338240608573E-003;
2.415333333333334E+009;1.782694905996323E-001;-5.572394654154778E-002;-1.634876243770123E-003;2.316982951015234E-003;
2.415500000000000E+009;1.785179078578949E-001;-5.605080723762512E-002;-1.314565539360046E-003;2.302472246810794E-003;
2.415666666666667E+009;1.786330789327622E-001;-5.642987042665482E-002;-1.306037884205580E-003;2.485950943082571E-003;
2.415833333333334E+009;1.786917746067047E-001;-5.691187828779221E-002;-1.195854390971363E-003;2.169205108657479E-003;
2.416000000000000E+009;1.786081343889237E-001;-5.719035118818283E-002;-1.221661805175245E-003;2.389542758464813E-003;
2.416166666666667E+009;1.787088513374329E-001;-5.746693909168243E-002;-8.798462804406881E-004;2.220790833234787E-003;
2.416333333333334E+009;1.784937977790833E-001;-5.759073793888092E-002;-9.579033358022571E-004;2.235763240605593E-003;
2.416500000000000E+009;1.780041456222534E-001;-5.781294777989388E-002;-8.372116717509925E-004;2.329493872821331E-003;
2.416666666666667E+009;1.777252703905106E-001;-5.808466672897339E-002;-8.417288772761822E-004;2.170912222936750E-003;
2.416833333333334E+009;1.774403303861618E-001;-5.844870954751968E-002;-6.780874682590365E-004;2.104349434375763E-003;
2.417000000000000E+009;1.766286641359329E-001;-5.861020460724831E-002;-4.158427473157644E-004;2.100592013448477E-003;
2.417166666666667E+009;1.759925484657288E-001;-5.877744778990746E-002;-4.175717476755381E-004;2.051861723884940E-003;
2.417333333333334E+009;1.753477156162262E-001;-5.904419720172882E-002;-5.001273239031434E-004;2.029249211773276E-003;
2.417500000000000E+009;1.744268238544464E-001;-5.946756899356842E-002;-3.394523519091308E-004;1.918108086101711E-003;
2.417666666666667E+009;1.736716926097870E-001;-5.958798527717590E-002;-2.199740993091837E-004;1.993033802136779E-003;
2.417833333333334E+009;1.727510392665863E-001;-5.999809876084328E-002;-2.949952031485736E-004;1.829668297432363E-003;
2.418000000000000E+009;1.715759485960007E-001;-6.055309623479843E-002;-3.426820912864059E-004;1.619737246073782E-003;
2.418166666666667E+009;1.706288456916809E-001;-6.083144992589951E-002;-2.320264029549435E-004;1.806233311071992E-003;
2.418333333333334E+009;1.696092337369919E-001;-6.143746897578239E-002;-1.304509496549144E-004;1.874145469628274E-003;
2.418500000000000E+009;1.684361398220062E-001;-6.195525452494621E-002;-2.212170365964994E-004;1.646715798415244E-003;
2.418666666666667E+009;1.672896295785904E-001;-6.263313442468643E-002;-3.611809006542899E-005;1.584731973707676E-003;
2.418833333333334E+009;1.657577753067017E-001;-6.344453245401382E-002;-1.447690010536462E-004;1.624719821847975E-003;
2.419000000000000E+009;1.645493507385254E-001;-6.421244144439697E-002;-1.365519128739834E-004;1.559261349029839E-003;
2.419166666666667E+009;1.633910387754440E-001;-6.506996601819992E-002;-1.566440732858609E-005;1.476230099797249E-003;
2.419333333333334E+009;1.620018333196640E-001;-6.573431193828583E-002;-6.104112981120125E-005;1.565914019010961E-003;
2.419500000000000E+009;1.608011722564697E-001;-6.705829501152039E-002;-1.602642259967979E-005;1.348033430986106E-003;
2.419666666666667E+009;1.597513556480408E-001;-6.815215945243835E-002;-6.648530415986897E-006;1.426862785592675E-003;
2.419833333333334E+009;1.584074050188065E-001;-6.921771913766861E-002;6.721761019434780E-005;1.176598481833935E-003;
2.420000000000000E+009;1.575097292661667E-001;-7.053933292627335E-002;-1.269505719392328E-005;1.320211682468653E-003;
2.420166666666667E+009;1.563863903284073E-001;-7.180240750312805E-002;-1.899842209240887E-005;1.260738587006927E-003;
2.420333333333334E+009;1.553790718317032E-001;-7.320456951856613E-002;1.568925290484913E-005;1.129229203797877E-003;
2.420500000000000E+009;1.545165777206421E-001;-7.443404197692871E-002;-1.622642157599330E-004;1.048113801516593E-003;
2.420666666666667E+009;1.535608470439911E-001;-7.604008913040161E-002;5.728079941036413E-006;1.114701619371772E-003;
2.420833333333334E+009;1.527203619480133E-001;-7.759427279233933E-002;6.455301627283916E-005;1.001763041131198E-003;
2.421000000000000E+009;1.519866734743118E-001;-7.926321029663086E-002;-5.438528751255944E-005;1.138757448643446E-003;
2.421166666666667E+009;1.514209061861038E-001;-8.085036277770996E-002;3.738568921107799E-005;8.796357433311641E-004;
2.421333333333334E+009;1.510932892560959E-001;-8.246014267206192E-002;-1.561479148222134E-004;9.209074196405709E-004;
2.421500000000000E+009;1.504532545804977E-001;-8.405729383230209E-002;-8.304076618514955E-005;1.017802860587835E-003;
2.421666666666667E+009;1.501179039478302E-001;-8.582632243633270E-002;-2.036759542534128E-004;8.479102398268879E-004;
2.421833333333334E+009;1.497059762477875E-001;-8.752412348985672E-002;-2.006304566748440E-004;8.643639739602804E-004;
2.422000000000000E+009;1.495434492826462E-001;-8.914060145616531E-002;-2.419829252175987E-004;9.230194264091551E-004;
2.422166666666667E+009;1.495559662580490E-001;-9.111631661653519E-002;-2.411896275589243E-004;8.948837057687342E-004;
2.422333333333334E+009;1.494421362876892E-001;-9.251401573419571E-002;-3.381519927643240E-004;9.286076528951526E-004;
2.422500000000000E+009;1.494920849800110E-001;-9.412714838981628E-002;-4.598829546011984E-004;8.884106064215303E-004;
2.422666666666667E+009;1.496022641658783E-001;-9.593129158020020E-002;-4.245880700182170E-004;9.082760661840439E-004;
2.422833333333334E+009;1.498349606990814E-001;-9.754802286624908E-002;-4.082139930687845E-004;1.003568875603378E-003;
2.423000000000000E+009;1.500611454248428E-001;-9.904227405786514E-002;-3.807102912105620E-004;9.360904805362225E-004;
2.423166666666667E+009;1.505182832479477E-001;-1.006489843130112E-001;-4.285662143956870E-004;9.972809348255396E-004;
2.423333333333334E+009;1.509159952402115E-001;-1.019444614648819E-001;-3.864461323246360E-004;1.120057539083064E-003;
2.423500000000000E+009;1.513164043426514E-001;-1.035242229700089E-001;-3.705967392306775E-004;1.186478999443352E-003;
2.423666666666667E+009;1.516748815774918E-001;-1.049534082412720E-001;-4.834797582589090E-004;1.140391686931253E-003;
2.423833333333334E+009;1.524406224489212E-001;-1.061532422900200E-001;-4.601151158567518E-004;1.148320385254920E-003;
2.424000000000000E+009;1.526748389005661E-001;-1.072679758071899E-001;-3.993783320765942E-004;1.186687499284744E-003;
2.424166666666667E+009;1.532713770866394E-001;-1.084108874201775E-001;-5.749799893237650E-004;1.173759112134576E-003;
2.424333333333334E+009;1.537360250949860E-001;-1.095036864280701E-001;-3.147188108414412E-004;1.223712577484548E-003;
2.424500000000000E+009;1.543508321046829E-001;-1.105671748518944E-001;-4.329331568442285E-004;1.411071047186852E-003;
2.424666666666667E+009;1.549546122550964E-001;-1.112175211310387E-001;-4.957611090503633E-004;1.259603537619114E-003;
2.424833333333334E+009;1.552236229181290E-001;-1.121441051363945E-001;-2.987524785567075E-004;1.202682382427156E-003;
2.425000000000000E+009;1.557232737541199E-001;-1.129216328263283E-001;-2.024087880272418E-004;1.363118295557797E-003;
2.425166666666667E+009;1.560221910476685E-001;-1.135511547327042E-001;-3.323695855215192E-004;1.371881342492998E-003;
2.425333333333334E+009;1.562977731227875E-001;-1.140774339437485E-001;-2.424793201498687E-004;1.303828204981983E-003;
2.425500000000000E+009;1.566925793886185E-001;-1.146795153617859E-001;-2.115016104653478E-004;1.381796551868320E-003;
2.425666666666667E+009;1.566452383995056E-001;-1.151417419314385E-001;-1.728977513266727E-004;1.512383227236569E-003;
2.425833333333334E+009;1.568688005208969E-001;-1.155756339430809E-001;-2.197673893533647E-004;1.290045212954283E-003;
2.426000000000000E+009;1.569749861955643E-001;-1.159097254276276E-001;-2.250808611279354E-004;1.527697779238224E-003;
2.426166666666667E+009;1.572913527488709E-001;-1.162255480885506E-001;-2.271571429446340E-004;1.500019570812583E-003;
2.426333333333334E+009;1.569848656654358E-001;-1.163253858685494E-001;-2.580538966867607E-005;1.450082403607667E-003;
2.426500000000000E+009;1.568329632282257E-001;-1.165385022759438E-001;-1.037109759636223E-004;1.482673455029726E-003;
2.426666666666667E+009;1.567348837852478E-001;-1.165585443377495E-001;-6.799111361033283E-006;1.614911947399378E-003;
2.426833333333334E+009;1.563792079687119E-001;-1.167823448777199E-001;-6.082720210542902E-005;1.617651898413897E-003;
2.427000000000000E+009;1.559091061353684E-001;-1.170017346739769E-001;4.129516582906945E-006;1.411918899975717E-003;
2.427166666666667E+009;1.552838683128357E-001;-1.169469952583313E-001;-5.706313822884113E-005;1.580424141138792E-003;
2.427333333333334E+009;1.545908749103546E-001;-1.170371621847153E-001;1.410143013345078E-004;1.681192195974290E-003;
2.427500000000000E+009;1.540096402168274E-001;-1.172457337379456E-001;1.596963847987354E-004;1.734317513182759E-003;
2.427666666666667E+009;1.531721353530884E-001;-1.174127832055092E-001;2.065308945020661E-004;1.705842325463891E-003;
