# Version 1.00
#
freq[Hz];re:Trc1_S11;im:Trc1_S11;re:Trc2_S21;im:Trc2_S21;
2.400000000000000E+009;1.564685851335526E-001;6.068863347172737E-002;4.276191350072622E-003;-5.566609557718039E-003;
2.400166666666667E+009;1.567571461200714E-001;5.878441035747528E-002;3.998803906142712E-003;-5.768437404185534E-003;
2.400333333333334E+009;1.567567437887192E-001;5.683752894401550E-002;3.833729075267911E-003;-5.867472849786282E-003;
2.400500000000000E+009;1.568860709667206E-001;5.484027788043022E-002;3.660326823592186E-003;-5.970320664346218E-003;
2.400666666666667E+009;1.571720093488693E-001;5.246175080537796E-002;3.463499248027802E-003;-5.994087085127831E-003;
2.400833333333334E+009;1.575306206941605E-001;5.074442550539970E-002;3.072576597332954E-003;-6.122645922005177E-003;
2.401000000000000E+009;1.577620506286621E-001;4.855845123529434E-002;2.834836486726999E-003;-6.457258015871048E-003;
2.401166666666667E+009;1.582079827785492E-001;4.653145745396614E-002;2.722135512158275E-003;-6.487764883786440E-003;
2.401333333333334E+009;1.586797386407852E-001;4.440356418490410E-002;2.424549777060747E-003;-6.547514349222183E-003;
2.401500000000000E+009;1.592916399240494E-001;4.227046668529511E-002;2.138534793630242E-003;-6.892724428325892E-003;
2.401666666666667E+009;1.598460376262665E-001;4.039641469717026E-002;1.915520522743464E-003;-6.821239367127419E-003;
2.401833333333334E+009;1.604069769382477E-001;3.823855891823769E-002;1.692479941993952E-003;-6.895284634083509E-003;
2.402000000000000E+009;1.609632074832916E-001;3.647680208086968E-002;1.415579579770565E-003;-7.088164333254099E-003;
2.402166666666667E+009;1.618398129940033E-001;3.454186394810677E-002;1.090308418497443E-003;-7.128864526748657E-003;
2.402333333333334E+009;1.624555587768555E-001;3.279434889554977E-002;7.328939391300082E-004;-7.075926288962364E-003;
2.402500000000000E+009;1.634073108434677E-001;3.124490380287170E-002;4.750126681756228E-004;-7.080193143337965E-003;
2.402666666666667E+009;1.640906333923340E-001;2.954631298780441E-002;7.680334238102660E-005;-7.026114035397768E-003;
2.402833333333334E+009;1.651815623044968E-001;2.799576148390770E-002;-1.426669768989086E-004;-6.971197668462992E-003;
2.403000000000000E+009;1.659018844366074E-001;2.664733119308949E-002;-4.424156213644892E-004;-7.176346611231566E-003;
2.403166666666667E+009;1.668188720941544E-001;2.525718882679939E-002;-7.877707830630243E-004;-6.888450123369694E-003;
2.403333333333334E+009;1.679294407367706E-001;2.410216256976128E-002;-8.850927697494626E-004;-7.001691032201052E-003;
2.403500000000000E+009;1.687816232442856E-001;2.278847806155682E-002;-1.389479846693575E-003;-6.830703932791948E-003;
2.403666666666667E+009;1.696196347475052E-001;2.160878293216229E-002;-1.802387530915439E-003;-6.619631778448820E-003;
2.403833333333334E+009;1.706456989049912E-001;2.059156633913517E-002;-1.892768894322217E-003;-6.582181435078383E-003;
2.404000000000000E+009;1.717928200960159E-001;1.971789076924324E-002;-2.159022260457277E-003;-6.473898421972990E-003;
2.404166666666667E+009;1.725636720657349E-001;1.862965524196625E-002;-2.541944850236177E-003;-6.280113011598587E-003;
2.404333333333334E+009;1.734592169523239E-001;1.811839267611504E-002;-2.655611839145422E-003;-6.231013685464859E-003;
2.404500000000000E+009;1.742491275072098E-001;1.708404347300530E-002;-2.910919487476349E-003;-5.901305470615625E-003;
2.404666666666667E+009;1.750899702310562E-001;1.659701578319073E-002;-3.221533028408885E-003;-5.798595026135445E-003;
2.404833333333334E+009;1.759649366140366E-001;1.585850119590759E-002;-3.317250171676278E-003;-5.506799556314945E-003;
2.405000000000000E+009;1.765137165784836E-001;1.534789241850376E-002;-3.413198282942176E-003;-5.283481907099485E-003;
2.405166666666667E+009;1.771056354045868E-001;1.493269577622414E-002;-3.687039716169238E-003;-5.027639679610729E-003;
2.405333333333334E+009;1.779153943061829E-001;1.434831973165274E-002;-3.870750078931451E-003;-4.857497755438089E-003;
2.405500000000000E+009;1.783781051635742E-001;1.429187878966332E-002;-3.895759582519531E-003;-4.734211135655642E-003;
2.405666666666667E+009;1.788754165172577E-001;1.386797055602074E-002;-4.097628872841597E-003;-4.297003615647554E-003;
2.405833333333334E+009;1.789962351322174E-001;1.369535457342863E-002;-4.262410569936037E-003;-4.077364224940538E-003;
2.406000000000000E+009;1.792897284030914E-001;1.310602109879255E-002;-4.345015157014132E-003;-3.829056862741709E-003;
2.406166666666667E+009;1.794506609439850E-001;1.308261416852474E-002;-4.399321973323822E-003;-3.807305125519633E-003;
2.406333333333334E+009;1.798101961612701E-001;1.275184750556946E-002;-4.465167410671711E-003;-3.324668155983090E-003;
2.406500000000000E+009;1.798757761716843E-001;1.239820942282677E-002;-4.548842087388039E-003;-3.239400219172239E-003;
2.406666666666667E+009;1.796311885118485E-001;1.208611950278282E-002;-4.553628619760275E-003;-3.070406615734100E-003;
2.406833333333334E+009;1.796942204236984E-001;1.165854930877686E-002;-4.608379211276770E-003;-2.817007014527917E-003;
2.407000000000000E+009;1.794128715991974E-001;1.137341931462288E-002;-4.633003380149603E-003;-2.489067148417234E-003;
2.407166666666667E+009;1.794519275426865E-001;1.101119257509708E-002;-4.662666004151106E-003;-2.408190630376339E-003;
2.407333333333334E+009;1.789672076702118E-001;1.043895911425352E-002;-4.586999770253897E-003;-2.179525326937437E-003;
2.407500000000000E+009;1.785589754581451E-001;1.000728085637093E-002;-4.449990577995777E-003;-2.069042064249516E-003;
2.407666666666667E+009;1.781859099864960E-001;9.418323636054993E-003;-4.536963999271393E-003;-1.981601817533374E-003;
2.407833333333334E+009;1.775886118412018E-001;8.732303977012634E-003;-4.526340402662754E-003;-1.647472963668406E-003;
2.408000000000000E+009;1.770309060811997E-001;7.862540893256664E-003;-4.354288801550865E-003;-1.627666177228093E-003;
2.408166666666667E+009;1.765117347240448E-001;7.095359265804291E-003;-4.358255304396153E-003;-1.384749892167747E-003;
2.408333333333334E+009;1.761393696069717E-001;6.291280966252089E-003;-4.274723585695028E-003;-1.254865783266723E-003;
2.408500000000000E+009;1.753490269184113E-001;5.083079915493727E-003;-4.298093728721142E-003;-1.254957052879036E-003;
2.408666666666667E+009;1.747423857450485E-001;4.077616613358259E-003;-4.338026978075504E-003;-9.995374130085111E-004;
2.408833333333334E+009;1.739685684442520E-001;2.854457125067711E-003;-4.276602994650602E-003;-8.357659680768848E-004;
2.409000000000000E+009;1.733379215002060E-001;1.627028104849160E-003;-4.329644143581390E-003;-7.509462302550674E-004;
2.409166666666667E+009;1.725890934467316E-001;2.831119636539370E-004;-4.031314048916102E-003;-6.523048505187035E-004;
2.409333333333334E+009;1.719945818185806E-001;-1.248684129677713E-003;-4.227970261126757E-003;-6.103759515099227E-004;
2.409500000000000E+009;1.714003831148148E-001;-2.846712712198496E-003;-4.057310521602631E-003;-5.923921125940979E-004;
2.409666666666667E+009;1.706329733133316E-001;-4.237757995724678E-003;-4.047477152198553E-003;-4.355020937509835E-004;
2.409833333333334E+009;1.700485348701477E-001;-5.806576460599899E-003;-3.864597994834185E-003;-2.526409516576678E-004;
2.410000000000000E+009;1.694448441267014E-001;-7.509198971092701E-003;-3.806357271969318E-003;-1.281173754250631E-004;
2.410166666666667E+009;1.690748780965805E-001;-9.416393935680389E-003;-4.045949783176184E-003;-8.361037180293351E-005;
2.410333333333334E+009;1.686100810766220E-001;-1.109275873750448E-002;-3.938256762921810E-003;-3.488783841021359E-005;
2.410500000000000E+009;1.681757569313049E-001;-1.297231949865818E-002;-3.956408239901066E-003;-2.158412826247513E-005;
2.410666666666667E+009;1.677119135856628E-001;-1.487383618950844E-002;-3.814733121544123E-003;1.169691095128655E-004;
2.410833333333334E+009;1.675906330347061E-001;-1.670138537883759E-002;-3.938877489417791E-003;2.062875137198716E-004;
2.411000000000000E+009;1.673832237720490E-001;-1.866539567708969E-002;-3.853407455608249E-003;2.048087917501107E-004;
2.411166666666667E+009;1.673030406236649E-001;-2.068245597183704E-002;-3.799237078055739E-003;4.181135736871511E-004;
2.411333333333334E+009;1.672152876853943E-001;-2.257320843636990E-002;-3.779574995860457E-003;4.857433959841728E-004;
2.411500000000000E+009;1.671037226915360E-001;-2.464149519801140E-002;-3.832099493592978E-003;7.361308089457452E-004;
2.411666666666667E+009;1.674565672874451E-001;-2.658931165933609E-002;-3.813352202996612E-003;8.840170339681208E-004;
2.411833333333334E+009;1.676490455865860E-001;-2.852482534945011E-002;-3.744619665667415E-003;8.982856525108218E-004;
2.412000000000000E+009;1.679344177246094E-001;-3.050880506634712E-002;-3.589586820453405E-003;1.093487138859928E-003;
2.412166666666667E+009;1.681935489177704E-001;-3.223836049437523E-002;-3.565948689356446E-003;1.117178821004927E-003;
2.412333333333334E+009;1.688940078020096E-001;-3.399880230426788E-002;-3.594825044274330E-003;1.291773631237447E-003;
2.412500000000000E+009;1.689696907997131E-001;-3.581741452217102E-002;-3.471967764198780E-003;1.378646004013717E-003;
2.412666666666667E+009;1.695225387811661E-001;-3.772227093577385E-002;-3.414384322240949E-003;1.513037364929915E-003;
2.412833333333334E+009;1.700107902288437E-001;-3.944918140769005E-002;-3.292872570455074E-003;1.678509986959398E-003;
2.413000000000000E+009;1.706535369157791E-001;-4.078203067183495E-002;-3.154329024255276E-003;1.832640147767961E-003;
2.413166666666667E+009;1.711585521697998E-001;-4.247006028890610E-002;-3.102671355009079E-003;1.869025756604970E-003;
2.413333333333334E+009;1.717054992914200E-001;-4.391204193234444E-002;-3.051977138966322E-003;1.891494961455464E-003;
2.413500000000000E+009;1.724670529365540E-001;-4.548427462577820E-002;-2.903971122577786E-003;2.067131921648979E-003;
2.413666666666667E+009;1.731060296297073E-001;-4.682644084095955E-002;-2.869739197194576E-003;2.092109061777592E-003;
2.413833333333334E+009;1.738079339265823E-001;-4.802780598402023E-002;-2.685077488422394E-003;2.348321489989758E-003;
2.414000000000000E+009;1.744093596935272E-001;-4.924316704273224E-002;-2.470933832228184E-003;2.312198979780078E-003;
2.414166666666667E+009;1.748645901679993E-001;-5.041906610131264E-002;-2.322891028597951E-003;2.346048830077052E-003;
2.414333333333334E+009;1.754439473152161E-001;-5.134288594126701E-002;-2.103335922583938E-003;2.399364253506064E-003;
2.414500000000000E+009;1.764175891876221E-001;-5.228343978524208E-002;-2.033533994108439E-003;2.426013117656112E-003;
2.414666666666667E+009;1.766666918992996E-001;-5.314844846725464E-002;-1.863538869656622E-003;2.355204429477453E-003;
2.414833333333334E+009;1.771108657121658E-001;-5.388572812080383E-002;-1.840784330852330E-003;2.317324746400118E-003;
2.415000000000000E+009;1.774947345256805E-001;-5.441263318061829E-002;-1.693916623480618E-003;2.449672203511000E-003;
2.415166666666667E+009;1.778649240732193E-001;-5.527656897902489E-002;-1.444765599444509E-003;2.461423864588141E-003;
2.415333333333334E+009;1.783000677824020E-001;-5.572388321161270E-002;-1.467109075747430E-003;2.405926119536161E-003;
2.415500000000000E+009;1.785095632076263E-001;-5.616410449147224E-002;-1.309184124693275E-003;2.420141128823161E-003;
2.415666666666667E+009;1.785451322793961E-001;-5.649108812212944E-002;-1.260973629541695E-003;2.302018692716956E-003;
2.415833333333334E+009;1.787981092929840E-001;-5.682643130421639E-002;-1.128964242525399E-003;2.425248501822352E-003;
2.416000000000000E+009;1.785162836313248E-001;-5.714594200253487E-002;-9.280568920075893E-004;2.244793809950352E-003;
2.416166666666667E+009;1.786225736141205E-001;-5.749559402465820E-002;-8.713951683603227E-004;2.264277078211308E-003;
2.416333333333334E+009;1.783457100391388E-001;-5.768213793635368E-002;-9.050621301867068E-004;2.293987898156047E-003;
2.416500000000000E+009;1.781966984272003E-001;-5.804059654474258E-002;-8.291619014926255E-004;2.067469991743565E-003;
2.416666666666667E+009;1.776436567306519E-001;-5.807957053184509E-002;-6.749622989445925E-004;2.075167838484049E-003;
2.416833333333334E+009;1.774013042449951E-001;-5.841859057545662E-002;-6.715306662954390E-004;2.078334335237742E-003;
2.417000000000000E+009;1.765987426042557E-001;-5.871497839689255E-002;-5.576327675953507E-004;2.049317816272378E-003;
2.417166666666667E+009;1.759719401597977E-001;-5.878476426005364E-002;-5.811538430862129E-004;1.982383197173476E-003;
2.417333333333334E+009;1.753080636262894E-001;-5.909026414155960E-002;-5.183330504223704E-004;2.086212160065770E-003;
2.417500000000000E+009;1.744450926780701E-001;-5.946168676018715E-002;-3.305069694761187E-004;1.903999596834183E-003;
2.417666666666667E+009;1.736243367195129E-001;-5.969668924808502E-002;-3.646654367912561E-004;1.687593292444944E-003;
2.417833333333334E+009;1.725825518369675E-001;-6.002717092633247E-002;-2.139452117262408E-004;1.975892577320337E-003;
2.418000000000000E+009;1.715555787086487E-001;-6.063913181424141E-002;-3.636748588178307E-004;1.726147136650980E-003;
2.418166666666667E+009;1.705158501863480E-001;-6.084955111145973E-002;-3.142811183352023E-004;1.867289771325886E-003;
2.418333333333334E+009;1.695975214242935E-001;-6.149263307452202E-002;-1.702063309494406E-004;1.604514196515083E-003;
2.418500000000000E+009;1.682364940643311E-001;-6.210367381572723E-002;-2.111841749865562E-004;1.644459087401629E-003;
2.418666666666667E+009;1.671632379293442E-001;-6.268287450075150E-002;-2.107830659952015E-004;1.677544787526131E-003;
2.418833333333334E+009;1.657071113586426E-001;-6.353650242090225E-002;-1.802384067559615E-004;1.540000550448895E-003;
2.419000000000000E+009;1.645253449678421E-001;-6.426697224378586E-002;-1.081182654161239E-005;1.543513848446310E-003;
2.419166666666667E+009;1.632765680551529E-001;-6.511447578668594E-002;-5.069899998488836E-006;1.375823281705380E-003;
2.419333333333334E+009;1.620006710290909E-001;-6.590036302804947E-002;-7.509478018619120E-005;1.449695439077914E-003;
2.419500000000000E+009;1.607325226068497E-001;-6.715734302997589E-002;-4.888039620709606E-005;1.467240625061095E-003;
2.419666666666667E+009;1.596611440181732E-001;-6.822658330202103E-002;3.041310083062854E-005;1.248496468178928E-003;
2.419833333333334E+009;1.584588736295700E-001;-6.920485198497772E-002;-4.077208359376527E-005;1.227093511261046E-003;
2.420000000000000E+009;1.574221104383469E-001;-7.049607485532761E-002;9.369532926939428E-005;1.188841182738543E-003;
2.420166666666667E+009;1.562764942646027E-001;-7.184116542339325E-002;-8.884964336175472E-005;1.209583599120379E-003;
2.420333333333334E+009;1.554029285907745E-001;-7.318479567766190E-002;1.877676913863979E-005;1.100734574720264E-003;
2.420500000000000E+009;1.544170975685120E-001;-7.449743151664734E-002;-1.132510951720178E-004;1.146304421126843E-003;
2.420666666666667E+009;1.535771638154984E-001;-7.613394409418106E-002;-6.355983714456670E-006;1.034019398503006E-003;
2.420833333333334E+009;1.527601331472397E-001;-7.757373154163361E-002;-1.537883654236794E-004;1.102219801396132E-003;
2.421000000000000E+009;1.518452614545822E-001;-7.916405797004700E-002;-1.104288676287979E-004;1.138209714554250E-003;
2.421166666666667E+009;1.514264494180679E-001;-8.076315373182297E-002;-1.006676466204226E-004;1.001996803097427E-003;
2.421333333333334E+009;1.509661078453064E-001;-8.267630636692047E-002;-7.766260387143120E-005;8.453895570710301E-004;
2.421500000000000E+009;1.503395736217499E-001;-8.417055755853653E-002;-9.236502228304744E-005;8.226248319260776E-004;
2.421666666666667E+009;1.499969810247421E-001;-8.582171797752380E-002;-3.516509896144271E-004;7.233790238387883E-004;
2.421833333333334E+009;1.497188359498978E-001;-8.768387138843536E-002;-2.142481680493802E-004;9.765329887159169E-004;
2.422000000000000E+009;1.495575457811356E-001;-8.929222822189331E-002;-2.621987077873200E-004;8.697164012119174E-004;
2.422166666666667E+009;1.494380533695221E-001;-9.106552600860596E-002;-2.527059987187386E-004;8.649828378111124E-004;
2.422333333333334E+009;1.496642976999283E-001;-9.265322238206863E-002;-2.676396397873759E-004;8.300683693960309E-004;
2.422500000000000E+009;1.493894606828690E-001;-9.413913637399674E-002;-3.012146917171776E-004;9.028502390719950E-004;
2.422666666666667E+009;1.494403630495071E-001;-9.594159573316574E-002;-3.148243995383382E-004;8.951763156801462E-004;
2.422833333333334E+009;1.498978585004807E-001;-9.750389307737351E-002;-3.948999801650643E-004;8.807535632513464E-004;
2.423000000000000E+009;1.500690281391144E-001;-9.916781634092331E-002;-6.095013231970370E-004;8.931689080782235E-004;
2.423166666666667E+009;1.505008339881897E-001;-1.006455048918724E-001;-5.038194358348846E-004;1.056617707945406E-003;
2.423333333333334E+009;1.510599851608276E-001;-1.019620820879936E-001;-5.085575976409018E-004;9.403653675690293E-004;
2.423500000000000E+009;1.513279229402542E-001;-1.034240871667862E-001;-5.406039417721331E-004;9.961829055100679E-004;
2.423666666666667E+009;1.516753286123276E-001;-1.048989966511726E-001;-4.209236067254096E-004;1.019070390611887E-003;
2.423833333333334E+009;1.523213237524033E-001;-1.061963513493538E-001;-4.322928143665195E-004;1.122063491493464E-003;
2.424000000000000E+009;1.526412516832352E-001;-1.072540953755379E-001;-3.058759612031281E-004;1.121487235650420E-003;
2.424166666666667E+009;1.532389372587204E-001;-1.084715053439140E-001;-3.516875149216503E-004;1.172766089439392E-003;
2.424333333333334E+009;1.537983864545822E-001;-1.093252450227737E-001;-5.398904322646558E-004;1.348030287772417E-003;
2.424500000000000E+009;1.543988436460495E-001;-1.104252189397812E-001;-2.931317139882594E-004;1.186595414765179E-003;
2.424666666666667E+009;1.549150943756104E-001;-1.113098859786987E-001;-4.776911227963865E-004;1.236397889442742E-003;
2.424833333333334E+009;1.552401036024094E-001;-1.121429577469826E-001;-4.037810722365975E-004;1.281408709473908E-003;
2.425000000000000E+009;1.557040065526962E-001;-1.129311248660088E-001;-5.572863155975938E-004;1.341409632004798E-003;
2.425166666666667E+009;1.558804959058762E-001;-1.135558634996414E-001;-4.360224702395499E-004;1.336531364358962E-003;
2.425333333333334E+009;1.563661098480225E-001;-1.140503659844399E-001;-1.698995329206809E-004;1.360234920866787E-003;
2.425500000000000E+009;1.566671282052994E-001;-1.147525161504746E-001;-9.137531742453575E-005;1.420562388375402E-003;
2.425666666666667E+009;1.567470580339432E-001;-1.151574179530144E-001;-3.279559896327555E-004;1.441465923562646E-003;
2.425833333333334E+009;1.569918990135193E-001;-1.156098246574402E-001;-2.120267599821091E-004;1.399399945512414E-003;
2.426000000000000E+009;1.570236980915070E-001;-1.159686073660851E-001;-9.318706725025550E-005;1.416101818904281E-003;
2.426166666666667E+009;1.572414487600327E-001;-1.161936670541763E-001;-6.519749149447307E-005;1.420535030774772E-003;
2.426333333333334E+009;1.570191681385040E-001;-1.164390072226524E-001;-1.934922474902123E-004;1.701112836599350E-003;
2.426500000000000E+009;1.568896025419235E-001;-1.166134029626846E-001;-5.422108370112255E-005;1.580339972861111E-003;
2.426666666666667E+009;1.567704379558563E-001;-1.166932284832001E-001;-1.921305811265484E-004;1.622693496756256E-003;
2.426833333333334E+009;1.563375294208527E-001;-1.168942898511887E-001;-9.267436325899325E-006;1.658820314332843E-003;
2.427000000000000E+009;1.559121459722519E-001;-1.170671135187149E-001;-3.188655000485596E-006;1.684261020272970E-003;
2.427166666666667E+009;1.552868485450745E-001;-1.170572564005852E-001;3.477532663964666E-005;1.501852180808783E-003;
2.427333333333334E+009;1.544433981180191E-001;-1.171736121177673E-001;1.528011198388413E-004;1.607056474313140E-003;
2.427500000000000E+009;1.539405733346939E-001;-1.173131018877029E-001;1.266296167159453E-004;1.720002386718988E-003;
2.427666666666667E+009;1.530699431896210E-001;-1.175534352660179E-001;1.495018077548593E-004;1.828336273320019E-003;
