# Version 1.00
#
freq[Hz];re:Trc1_S11;im:Trc1_S11;re:Trc2_S21;im:Trc2_S21;
2.400000000000000E+009;1.564652025699616E-001;6.061885133385658E-002;3.811433911323547E-003;-5.433874204754829E-003;
2.400166666666667E+009;1.566662192344666E-001;5.875139310956001E-002;4.029453732073307E-003;-5.692102480679750E-003;
2.400333333333334E+009;1.567897200584412E-001;5.676622316241264E-002;3.710204968228936E-003;-5.900811403989792E-003;
2.400500000000000E+009;1.569774001836777E-001;5.463981628417969E-002;3.651089966297150E-003;-6.062611006200314E-003;
2.400666666666667E+009;1.570851951837540E-001;5.265716463327408E-002;3.503485815599561E-003;-6.124450825154781E-003;
2.400833333333334E+009;1.575206965208054E-001;5.067287757992744E-002;2.923221560195088E-003;-6.200771313160658E-003;
2.401000000000000E+009;1.577983945608139E-001;4.859627410769463E-002;2.912673167884350E-003;-6.292685866355896E-003;
2.401166666666667E+009;1.582619398832321E-001;4.651414975523949E-002;2.725995145738125E-003;-6.537876557558775E-003;
2.401333333333334E+009;1.588266342878342E-001;4.427371919155121E-002;2.485162345692515E-003;-6.626576650887728E-003;
2.401500000000000E+009;1.592502892017365E-001;4.225810244679451E-002;2.299150684848428E-003;-6.665755528956652E-003;
2.401666666666667E+009;1.597416549921036E-001;4.026867821812630E-002;1.893043285235763E-003;-6.879259366542101E-003;
2.401833333333334E+009;1.603827327489853E-001;3.841808438301086E-002;1.489887828938663E-003;-6.951108109205961E-003;
2.402000000000000E+009;1.608206182718277E-001;3.673736378550530E-002;1.238179276697338E-003;-6.866826210170984E-003;
2.402166666666667E+009;1.616096198558807E-001;3.453928604722023E-002;9.421787108294666E-004;-7.025396917015314E-003;
2.402333333333334E+009;1.624306142330170E-001;3.295639902353287E-002;7.919470663182437E-004;-7.007607724517584E-003;
2.402500000000000E+009;1.634199470281601E-001;3.108049929141998E-002;3.810175985563546E-004;-7.041368167847395E-003;
2.402666666666667E+009;1.641660183668137E-001;2.971551008522511E-002;1.375703286612406E-004;-7.041175849735737E-003;
2.402833333333334E+009;1.650529652833939E-001;2.799408882856369E-002;-1.515588228357956E-004;-7.039395626634359E-003;
2.403000000000000E+009;1.658633351325989E-001;2.669570967555046E-002;-5.339488270692527E-004;-7.004356011748314E-003;
2.403166666666667E+009;1.670161038637161E-001;2.538030035793781E-002;-8.071337942965329E-004;-6.901164073497057E-003;
2.403333333333334E+009;1.679715365171433E-001;2.397280558943749E-002;-1.030751038342714E-003;-6.825344171375036E-003;
2.403500000000000E+009;1.686666011810303E-001;2.292055264115334E-002;-1.479118014685810E-003;-6.739439442753792E-003;
2.403666666666667E+009;1.696873009204865E-001;2.159615047276020E-002;-1.664618379436433E-003;-6.645447574555874E-003;
2.403833333333334E+009;1.707630008459091E-001;2.071583643555641E-002;-1.937625114805996E-003;-6.419188342988491E-003;
2.404000000000000E+009;1.716946661472321E-001;1.979262568056583E-002;-2.188833197578788E-003;-6.424000952392817E-003;
2.404166666666667E+009;1.726588159799576E-001;1.880645193159580E-002;-2.437496092170477E-003;-6.168686784803867E-003;
2.404333333333334E+009;1.736353486776352E-001;1.811402291059494E-002;-2.679414348676801E-003;-5.984747316688299E-003;
2.404500000000000E+009;1.743924766778946E-001;1.715892367064953E-002;-2.849728800356388E-003;-5.755006335675716E-003;
2.404666666666667E+009;1.751306802034378E-001;1.654641143977642E-002;-3.058024914935231E-003;-5.601952783763409E-003;
2.404833333333334E+009;1.759604960680008E-001;1.605931296944618E-002;-3.415970830246806E-003;-5.568220745772123E-003;
2.405000000000000E+009;1.767310947179794E-001;1.537868753075600E-002;-3.659412031993270E-003;-5.083398427814245E-003;
2.405166666666667E+009;1.772893965244293E-001;1.502961851656437E-002;-3.705931594595313E-003;-5.069985054433346E-003;
2.405333333333334E+009;1.779014170169830E-001;1.447802968323231E-002;-3.730009077116847E-003;-4.717385862022638E-003;
2.405500000000000E+009;1.783936619758606E-001;1.416341215372086E-002;-3.961234353482723E-003;-4.613773431628943E-003;
2.405666666666667E+009;1.787425428628922E-001;1.387262716889381E-002;-4.165191203355789E-003;-4.367634188383818E-003;
2.405833333333334E+009;1.791554689407349E-001;1.360963936895132E-002;-4.312336444854736E-003;-4.179572220891714E-003;
2.406000000000000E+009;1.794524341821671E-001;1.315670739859343E-002;-4.239525645971298E-003;-3.874618560075760E-003;
2.406166666666667E+009;1.794819384813309E-001;1.311596017330885E-002;-4.556491039693356E-003;-3.553638467565179E-003;
2.406333333333334E+009;1.798853427171707E-001;1.272587757557631E-002;-4.418606404215097E-003;-3.447535214945674E-003;
2.406500000000000E+009;1.798211485147476E-001;1.237397454679012E-002;-4.513247404247522E-003;-3.192273434251547E-003;
2.406666666666667E+009;1.796718686819077E-001;1.213562674820423E-002;-4.534328822046518E-003;-3.077556844800711E-003;
2.406833333333334E+009;1.796805411577225E-001;1.169757917523384E-002;-4.587910603731871E-003;-2.807310549542308E-003;
2.407000000000000E+009;1.795376390218735E-001;1.142932940274477E-002;-4.642909858375788E-003;-2.594820922240615E-003;
2.407166666666667E+009;1.795257776975632E-001;1.101882010698319E-002;-4.624258726835251E-003;-2.427311381325126E-003;
2.407333333333334E+009;1.789635419845581E-001;1.039250101894140E-002;-4.567061085253954E-003;-2.113539725542069E-003;
2.407500000000000E+009;1.786698400974274E-001;9.925137273967266E-003;-4.506833851337433E-003;-2.043690998107195E-003;
2.407666666666667E+009;1.782511174678803E-001;9.475165046751499E-003;-4.543703515082598E-003;-1.792305149137974E-003;
2.407833333333334E+009;1.775500923395157E-001;8.649515919387341E-003;-4.428515676409006E-003;-1.670383499003947E-003;
2.408000000000000E+009;1.771388500928879E-001;7.805367000401020E-003;-4.471686668694019E-003;-1.623208518140018E-003;
2.408166666666667E+009;1.765771210193634E-001;7.177063263952732E-003;-4.344369284808636E-003;-1.403304166160524E-003;
2.408333333333334E+009;1.760765165090561E-001;6.218069233000279E-003;-4.261055495589972E-003;-1.118099084123969E-003;
2.408500000000000E+009;1.753386259078980E-001;5.123699549585581E-003;-4.231892060488462E-003;-1.171319046989083E-003;
2.408666666666667E+009;1.746726185083389E-001;3.984414506703615E-003;-4.415438510477543E-003;-1.112465746700764E-003;
2.408833333333334E+009;1.738318204879761E-001;2.966366242617369E-003;-4.266613163053989E-003;-9.713858598843217E-004;
2.409000000000000E+009;1.731331199407578E-001;1.643129158765078E-003;-4.141141660511494E-003;-7.455447921529412E-004;
2.409166666666667E+009;1.725976616144180E-001;2.844446280505508E-004;-4.161995835602284E-003;-6.490788073278964E-004;
2.409333333333334E+009;1.719897836446762E-001;-1.185950706712902E-003;-4.168697167187929E-003;-5.098785622976720E-004;
2.409500000000000E+009;1.712812483310700E-001;-2.835845574736595E-003;-4.075012169778347E-003;-6.100528407841921E-004;
2.409666666666667E+009;1.706477850675583E-001;-4.210479091852903E-003;-4.013692960143089E-003;-3.262383979745209E-004;
2.409833333333334E+009;1.699898988008499E-001;-5.804966669529676E-003;-3.955016843974590E-003;-2.912206109613180E-004;
2.410000000000000E+009;1.695947051048279E-001;-7.455309387296438E-003;-3.883745754137635E-003;-3.104391216766089E-004;
2.410166666666667E+009;1.691337376832962E-001;-9.348487481474876E-003;-3.958056215196848E-003;-1.717105624265969E-004;
2.410333333333334E+009;1.685225069522858E-001;-1.094784680753946E-002;-3.939712420105934E-003;-1.701951623545028E-005;
2.410500000000000E+009;1.680950373411179E-001;-1.292663440108299E-002;-3.893192159011960E-003;1.317560527240858E-004;
2.410666666666667E+009;1.677398085594177E-001;-1.500049792230129E-002;-3.833456896245480E-003;1.550324523122981E-004;
2.410833333333334E+009;1.675835996866226E-001;-1.681589893996716E-002;-3.910486586391926E-003;2.945326268672943E-004;
2.411000000000000E+009;1.672996580600739E-001;-1.864566095173359E-002;-3.813802264630795E-003;3.828315821010619E-004;
2.411166666666667E+009;1.672307103872299E-001;-2.056171931326389E-002;-3.807291854172945E-003;5.109254852868617E-004;
2.411333333333334E+009;1.672183871269226E-001;-2.255099080502987E-002;-3.743028501048684E-003;5.599137512035668E-004;
2.411500000000000E+009;1.672223657369614E-001;-2.459041215479374E-002;-3.776476019993424E-003;6.202707882039249E-004;
2.411666666666667E+009;1.673672348260880E-001;-2.660390175879002E-002;-3.834582865238190E-003;8.508550236001611E-004;
2.411833333333334E+009;1.676302254199982E-001;-2.832260727882385E-002;-3.780161030590534E-003;1.069099525921047E-003;
2.412000000000000E+009;1.680731624364853E-001;-3.027938865125179E-002;-3.659632988274097E-003;1.059724832884967E-003;
2.412166666666667E+009;1.680066287517548E-001;-3.239611536264420E-002;-3.640795126557350E-003;1.280492986552417E-003;
2.412333333333334E+009;1.688160449266434E-001;-3.405772522091866E-002;-3.663047449663281E-003;1.220776350237429E-003;
2.412500000000000E+009;1.689078956842423E-001;-3.575742617249489E-002;-3.422746900469065E-003;1.420396263711155E-003;
2.412666666666667E+009;1.695442944765091E-001;-3.749537840485573E-002;-3.351727267727256E-003;1.510298228822649E-003;
2.412833333333334E+009;1.701157242059708E-001;-3.930154442787170E-002;-3.137996187433600E-003;1.778626115992665E-003;
2.413000000000000E+009;1.707187294960022E-001;-4.075928032398224E-002;-3.260312601923943E-003;1.860721851699054E-003;
2.413166666666667E+009;1.713771224021912E-001;-4.251109808683395E-002;-2.963032340630889E-003;1.909373211674392E-003;
2.413333333333334E+009;1.719029992818832E-001;-4.401569068431854E-002;-3.051402512937784E-003;2.040577819570899E-003;
2.413500000000000E+009;1.724996566772461E-001;-4.543127492070198E-002;-2.695834264159203E-003;1.924628159031272E-003;
2.413666666666667E+009;1.732249557971954E-001;-4.676653817296028E-002;-2.720672171562910E-003;2.211343264207244E-003;
2.413833333333334E+009;1.738064289093018E-001;-4.798066616058350E-002;-2.479082439094782E-003;2.201617229729891E-003;
2.414000000000000E+009;1.743625104427338E-001;-4.934502393007278E-002;-2.379382029175758E-003;2.279779640957713E-003;
2.414166666666667E+009;1.751023530960083E-001;-5.026071891188622E-002;-2.218074630945921E-003;2.354901051148772E-003;
2.414333333333334E+009;1.755131185054779E-001;-5.130360275506973E-002;-2.231037709861994E-003;2.330977935343981E-003;
2.414500000000000E+009;1.764248758554459E-001;-5.224000662565231E-002;-2.056244062259793E-003;2.387922024354339E-003;
2.414666666666667E+009;1.767850518226624E-001;-5.308222770690918E-002;-1.862532342784107E-003;2.403114223852754E-003;
2.414833333333334E+009;1.771640479564667E-001;-5.400884523987770E-002;-1.575968111865223E-003;2.442580647766590E-003;
2.415000000000000E+009;1.775444895029068E-001;-5.444189906120300E-002;-1.606376725248992E-003;2.332872012630105E-003;
2.415166666666667E+009;1.780035942792893E-001;-5.515897274017334E-002;-1.474270247854292E-003;2.366296248510480E-003;
2.415333333333334E+009;1.783246248960495E-001;-5.578885972499847E-002;-1.487354165874422E-003;2.353765070438385E-003;
2.415500000000000E+009;1.783634573221207E-001;-5.617944896221161E-002;-1.268472056835890E-003;2.272886456921697E-003;
2.415666666666667E+009;1.787188649177551E-001;-5.646994709968567E-002;-1.146186608821154E-003;2.237067790701985E-003;
2.415833333333334E+009;1.788728982210159E-001;-5.693421885371208E-002;-1.070014666765928E-003;2.233139006420970E-003;
2.416000000000000E+009;1.786941885948181E-001;-5.719344690442085E-002;-1.071800827048719E-003;2.285747556015849E-003;
2.416166666666667E+009;1.786391139030457E-001;-5.755967646837235E-002;-9.383331052958965E-004;2.258988330140710E-003;
2.416333333333334E+009;1.783420145511627E-001;-5.762966349720955E-002;-7.260649581439793E-004;2.155561232939363E-003;
2.416500000000000E+009;1.780349165201187E-001;-5.793872103095055E-002;-8.161432924680412E-004;2.216750290244818E-003;
2.416666666666667E+009;1.776608079671860E-001;-5.803774669766426E-002;-6.786464946344495E-004;2.121964935213327E-003;
2.416833333333334E+009;1.774131059646606E-001;-5.842203646898270E-002;-6.273997714743018E-004;2.022533444687724E-003;
2.417000000000000E+009;1.765777468681335E-001;-5.865973606705666E-002;-5.213273107074201E-004;2.041240222752094E-003;
2.417166666666667E+009;1.760101914405823E-001;-5.880491435527802E-002;-6.074957782402635E-004;2.017569495365024E-003;
2.417333333333334E+009;1.753382831811905E-001;-5.902685225009918E-002;-5.544232553802431E-004;1.931087346747518E-003;
2.417500000000000E+009;1.745061129331589E-001;-5.945516005158424E-002;-3.466481866780669E-004;1.849418506026268E-003;
2.417666666666667E+009;1.737283170223236E-001;-5.959407985210419E-002;-4.061408399138600E-004;1.905210665427148E-003;
2.417833333333334E+009;1.728055179119110E-001;-5.996628105640411E-002;-3.196482139173895E-004;1.873296336270869E-003;
2.418000000000000E+009;1.716547608375549E-001;-6.052077189087868E-002;-1.915574830491096E-004;1.763310167007148E-003;
2.418166666666667E+009;1.705255806446075E-001;-6.078066676855087E-002;-4.373689444037154E-005;1.788204535841942E-003;
2.418333333333334E+009;1.695154160261154E-001;-6.152865663170815E-002;-1.946835400303826E-004;1.587871462106705E-003;
2.418500000000000E+009;1.682710200548172E-001;-6.186095625162125E-002;-1.260506542166695E-004;1.738157588988543E-003;
2.418666666666667E+009;1.672071665525436E-001;-6.274510920047760E-002;-6.520665192510933E-005;1.699078595265746E-003;
2.418833333333334E+009;1.658525466918945E-001;-6.345225125551224E-002;-1.705323811620474E-004;1.591954729519785E-003;
2.419000000000000E+009;1.645794808864594E-001;-6.407372653484345E-002;-6.106871296651661E-005;1.519372570328414E-003;
2.419166666666667E+009;1.634420007467270E-001;-6.501389294862747E-002;-9.547526860842481E-005;1.456781523302198E-003;
2.419333333333334E+009;1.620229929685593E-001;-6.589399278163910E-002;1.844659273047000E-004;1.429404481314123E-003;
2.419500000000000E+009;1.609379053115845E-001;-6.687118858098984E-002;6.003148882882670E-005;1.298101735301316E-003;
2.419666666666667E+009;1.597003936767578E-001;-6.817680597305298E-002;-3.977616506745108E-005;1.240893965587020E-003;
2.419833333333334E+009;1.585386395454407E-001;-6.921675801277161E-002;-2.105332214341615E-006;1.311262720264494E-003;
2.420000000000000E+009;1.574748903512955E-001;-7.055227458477020E-002;5.557446274906397E-005;1.185520319268107E-003;
2.420166666666667E+009;1.563813537359238E-001;-7.171709090471268E-002;5.755831080023199E-005;1.150634721852839E-003;
2.420333333333334E+009;1.554135531187058E-001;-7.319851219654083E-002;5.553268420044333E-005;9.651043801568449E-004;
2.420500000000000E+009;1.546127349138260E-001;-7.455220818519592E-002;4.626468580681831E-005;1.133177662268281E-003;
2.420666666666667E+009;1.535540968179703E-001;-7.605019956827164E-002;3.415881656110287E-005;8.941522100940347E-004;
2.420833333333334E+009;1.528891474008560E-001;-7.757636904716492E-002;3.410366480238736E-005;9.978325106203556E-004;
2.421000000000000E+009;1.521846055984497E-001;-7.913079857826233E-002;-1.396025800204370E-005;8.540234412066639E-004;
2.421166666666667E+009;1.515710055828095E-001;-8.082716912031174E-002;-3.084133641095832E-005;7.869475521147251E-004;
2.421333333333334E+009;1.511139422655106E-001;-8.242095261812210E-002;1.275371687370352E-005;7.952784071676433E-004;
2.421500000000000E+009;1.503840684890747E-001;-8.403136581182480E-002;-1.215474621858448E-004;9.111887775361538E-004;
2.421666666666667E+009;1.500328928232193E-001;-8.571411669254303E-002;-1.410490222042427E-004;7.426342926919460E-004;
2.421833333333334E+009;1.500010937452316E-001;-8.756249397993088E-002;-2.143198798876256E-004;8.603035239502788E-004;
2.422000000000000E+009;1.497423201799393E-001;-8.924370259046555E-002;-2.951385104097426E-004;8.416903438046575E-004;
2.422166666666667E+009;1.495820283889771E-001;-9.104552119970322E-002;-2.276296290801838E-004;8.306750096380711E-004;
2.422333333333334E+009;1.495220959186554E-001;-9.266927838325501E-002;-4.113542090635747E-004;8.760638302192092E-004;
2.422500000000000E+009;1.496355980634689E-001;-9.421845525503159E-002;-2.884565037675202E-004;8.481336990371347E-004;
2.422666666666667E+009;1.497445553541184E-001;-9.586907923221588E-002;-3.569583350326866E-004;8.523463038727641E-004;
2.422833333333334E+009;1.499481201171875E-001;-9.761144965887070E-002;-3.759512619581074E-004;8.024473208934069E-004;
2.423000000000000E+009;1.503009349107742E-001;-9.916074573993683E-002;-3.750350442714989E-004;9.246664703823626E-004;
2.423166666666667E+009;1.506185978651047E-001;-1.006841212511063E-001;-5.824353429488838E-004;8.722845232114196E-004;
2.423333333333334E+009;1.510343551635742E-001;-1.020358800888062E-001;-3.613991430029273E-004;1.025671605020762E-003;
2.423500000000000E+009;1.513427495956421E-001;-1.034892722964287E-001;-4.411114787217230E-004;9.750353056006134E-004;
2.423666666666667E+009;1.516764461994171E-001;-1.048078164458275E-001;-3.394816303625703E-004;1.178984297439456E-003;
2.423833333333334E+009;1.523294597864151E-001;-1.062884330749512E-001;-3.089233068749309E-004;9.737338987179101E-004;
2.424000000000000E+009;1.527691036462784E-001;-1.072416752576828E-001;-4.816408618353307E-004;1.136702485382557E-003;
2.424166666666667E+009;1.532775610685349E-001;-1.084896251559258E-001;-3.900372830685228E-004;1.076339860446751E-003;
2.424333333333334E+009;1.538317054510117E-001;-1.094748973846436E-001;-3.220965154469013E-004;1.089847180992365E-003;
2.424500000000000E+009;1.543214470148087E-001;-1.105222254991531E-001;-3.643454692792147E-004;1.261608791537583E-003;
2.424666666666667E+009;1.550018489360809E-001;-1.111778542399406E-001;-3.161957429256290E-004;1.214633579365909E-003;
2.424833333333334E+009;1.552196741104126E-001;-1.121097207069397E-001;-3.539675672072917E-004;1.220143865793943E-003;
2.425000000000000E+009;1.557891666889191E-001;-1.128569096326828E-001;-4.217103414703161E-004;1.275771181099117E-003;
2.425166666666667E+009;1.559280902147293E-001;-1.136387363076210E-001;-3.143544017802924E-004;1.220536069013178E-003;
2.425333333333334E+009;1.564413756132126E-001;-1.141434088349342E-001;-1.899137423606589E-004;1.310085295699537E-003;
2.425500000000000E+009;1.567557454109192E-001;-1.146574914455414E-001;-1.969770964933559E-004;1.309972372837365E-003;
2.425666666666667E+009;1.567899584770203E-001;-1.151283532381058E-001;-3.641047514975071E-004;1.306473510339856E-003;
2.425833333333334E+009;1.570198088884354E-001;-1.155773401260376E-001;-2.101444115396589E-004;1.366061158478260E-003;
2.426000000000000E+009;1.570079773664475E-001;-1.159250959753990E-001;-2.428725128993392E-004;1.360585796646774E-003;
2.426166666666667E+009;1.572446972131729E-001;-1.162149682641029E-001;-1.637634122744203E-004;1.439102692529559E-003;
2.426333333333334E+009;1.569571346044540E-001;-1.164322793483734E-001;-2.094822120852768E-004;1.341370283626020E-003;
2.426500000000000E+009;1.568805128335953E-001;-1.166521757841110E-001;-1.711267686914653E-004;1.480969483964145E-003;
2.426666666666667E+009;1.567973792552948E-001;-1.166286766529083E-001;-1.931490405695513E-004;1.484680222347379E-003;
2.426833333333334E+009;1.563290059566498E-001;-1.168144717812538E-001;-1.474409600632498E-005;1.487899804487824E-003;
2.427000000000000E+009;1.558305770158768E-001;-1.170504614710808E-001;-3.412775913602673E-005;1.646782155148685E-003;
2.427166666666667E+009;1.552555710077286E-001;-1.169537752866745E-001;1.808096021704841E-005;1.566816936247051E-003;
2.427333333333334E+009;1.546307504177094E-001;-1.170862466096878E-001;-6.797844253014773E-005;1.550168264657259E-003;
2.427500000000000E+009;1.540225297212601E-001;-1.172867044806480E-001;-3.407617214179481E-006;1.552961766719818E-003;
2.427666666666667E+009;1.530886739492416E-001;-1.174382939934731E-001;6.480672891484574E-005;1.651773927733302E-003;
