# Version 1.00
#
freq[Hz];re:Trc1_S11;im:Trc1_S11;re:Trc2_S21;im:Trc2_S21;
2.400000000000000E+009;1.579869240522385E-001;1.117285564541817E-001;9.084996767342091E-003;5.449928576126695E-004;
2.400166666666667E+009;1.571957319974899E-001;1.095408573746681E-001;9.188883006572723E-003;2.016286598518491E-004;
2.400333333333334E+009;1.569723784923554E-001;1.073963493108749E-001;9.253632277250290E-003;-1.352190447505564E-004;
2.400500000000000E+009;1.565074622631073E-001;1.048482581973076E-001;9.580589830875397E-003;-5.590848741121590E-004;
2.400666666666667E+009;1.562348157167435E-001;1.023452356457710E-001;9.721610695123673E-003;-8.731207344681025E-004;
2.400833333333334E+009;1.559202671051025E-001;9.977992624044418E-002;9.860801510512829E-003;-1.417743391357362E-003;
2.401000000000000E+009;1.557683497667313E-001;9.673875570297241E-002;9.587894193828106E-003;-1.880307798273861E-003;
2.401166666666667E+009;1.553353965282440E-001;9.396380186080933E-002;9.548678062856197E-003;-2.351839561015368E-003;
2.401333333333334E+009;1.554733514785767E-001;9.108997136354446E-002;9.439819492399693E-003;-3.039539325982332E-003;
2.401500000000000E+009;1.555039435625076E-001;8.810284733772278E-002;9.298396296799183E-003;-3.454442601650953E-003;
2.401666666666667E+009;1.553186327219009E-001;8.507816493511200E-002;8.881424553692341E-003;-4.003752954304218E-003;
2.401833333333334E+009;1.556174755096436E-001;8.215147256851196E-002;8.797038346529007E-003;-4.441826138645411E-003;
2.402000000000000E+009;1.561468243598938E-001;7.899501174688339E-002;8.494457229971886E-003;-4.784196615219116E-003;
2.402166666666667E+009;1.567614525556564E-001;7.612664252519608E-002;8.112392388284206E-003;-5.074931308627129E-003;
2.402333333333334E+009;1.574241966009140E-001;7.335661351680756E-002;7.703299634158611E-003;-5.365903489291668E-003;
2.402500000000000E+009;1.583362519741058E-001;7.030539959669113E-002;7.221273146569729E-003;-5.639262963086367E-003;
2.402666666666667E+009;1.593795865774155E-001;6.762266159057617E-002;6.970321293920279E-003;-5.941553507000208E-003;
2.402833333333334E+009;1.604115366935730E-001;6.475527584552765E-002;6.550012622028589E-003;-5.934782326221466E-003;
2.403000000000000E+009;1.617009043693543E-001;6.205150485038757E-002;6.045607849955559E-003;-5.999511573463678E-003;
2.403166666666667E+009;1.632012724876404E-001;5.953881517052651E-002;5.822274368256331E-003;-6.108356639742851E-003;
2.403333333333334E+009;1.645719110965729E-001;5.677967146039009E-002;5.521432496607304E-003;-6.312622223049402E-003;
2.403500000000000E+009;1.661121547222138E-001;5.434391647577286E-002;5.147826857864857E-003;-6.243211682885885E-003;
2.403666666666667E+009;1.679128110408783E-001;5.213700607419014E-002;4.790829960256815E-003;-6.404411513358355E-003;
2.403833333333334E+009;1.696579754352570E-001;4.992718994617462E-002;4.598093684762716E-003;-6.343340501189232E-003;
2.404000000000000E+009;1.712302565574646E-001;4.763683676719666E-002;4.379389807581902E-003;-6.248113699257374E-003;
2.404166666666667E+009;1.729815900325775E-001;4.600419104099274E-002;4.387781955301762E-003;-6.319435313344002E-003;
2.404333333333334E+009;1.748096495866776E-001;4.404702410101891E-002;4.073190502822399E-003;-6.345008965581656E-003;
2.404500000000000E+009;1.766666769981384E-001;4.226436093449593E-002;3.935699351131916E-003;-6.274496670812368E-003;
2.404666666666667E+009;1.783547848463059E-001;4.094049707055092E-002;3.859020071104169E-003;-6.423015147447586E-003;
2.404833333333334E+009;1.802349239587784E-001;3.953260183334351E-002;3.611702704802156E-003;-6.403529550880194E-003;
2.405000000000000E+009;1.818537861108780E-001;3.855058550834656E-002;3.367113182321191E-003;-6.636964622884989E-003;
2.405166666666667E+009;1.836576610803604E-001;3.768259286880493E-002;3.330097766593099E-003;-6.674653384834528E-003;
2.405333333333334E+009;1.853115707635880E-001;3.704065084457398E-002;3.068629652261734E-003;-6.876894738525152E-003;
2.405500000000000E+009;1.869808435440064E-001;3.623919188976288E-002;2.939290832728148E-003;-6.665262859314680E-003;
2.405666666666667E+009;1.886183023452759E-001;3.589753061532974E-002;2.630508970469236E-003;-6.800361908972263E-003;
2.405833333333334E+009;1.901490539312363E-001;3.555815666913986E-002;2.399191027507186E-003;-6.835634354501963E-003;
2.406000000000000E+009;1.916686147451401E-001;3.538333624601364E-002;2.176527632400394E-003;-6.947492714971304E-003;
2.406166666666667E+009;1.929890662431717E-001;3.497850894927979E-002;1.967962831258774E-003;-6.902952212840319E-003;
2.406333333333334E+009;1.942616552114487E-001;3.502892330288887E-002;1.614028820767999E-003;-7.060354109853506E-003;
2.406500000000000E+009;1.952928006649017E-001;3.511957079172134E-002;1.271355780772865E-003;-7.023864891380072E-003;
2.406666666666667E+009;1.964019685983658E-001;3.527304157614708E-002;1.182009233161807E-003;-6.859860382974148E-003;
2.406833333333334E+009;1.971944868564606E-001;3.550890460610390E-002;1.047545229084790E-003;-6.705192383378744E-003;
2.407000000000000E+009;1.978834569454193E-001;3.581225126981735E-002;7.173648336902261E-004;-6.621972192078829E-003;
2.407166666666667E+009;1.985474228858948E-001;3.581902757287026E-002;8.001587120816112E-004;-6.531218066811562E-003;
2.407333333333334E+009;1.987934410572052E-001;3.625657781958580E-002;5.414318875409663E-004;-6.736217532306910E-003;
2.407500000000000E+009;1.989862769842148E-001;3.666467219591141E-002;3.976301522925496E-004;-6.581942550837994E-003;
2.407666666666667E+009;1.992988586425781E-001;3.684907406568527E-002;1.911803556140512E-004;-6.351790390908718E-003;
2.407833333333334E+009;1.991047561168671E-001;3.701931983232498E-002;2.347775298403576E-004;-6.204974837601185E-003;
2.408000000000000E+009;1.993066668510437E-001;3.722240775823593E-002;2.073595824185759E-004;-6.185080856084824E-003;
2.408166666666667E+009;1.989289820194244E-001;3.734517842531204E-002;7.861676567699760E-005;-6.195232737809420E-003;
2.408333333333334E+009;1.985514014959335E-001;3.724091872572899E-002;1.114084006985650E-004;-6.184362340718508E-003;
2.408500000000000E+009;1.979611665010452E-001;3.750020265579224E-002;5.260244506644085E-005;-6.130261812359095E-003;
2.408666666666667E+009;1.974857002496719E-001;3.732088208198547E-002;-4.606226139003411E-005;-6.139075849205256E-003;
2.408833333333334E+009;1.967250853776932E-001;3.690932318568230E-002;-6.307178409770131E-005;-6.098170764744282E-003;
2.409000000000000E+009;1.956726163625717E-001;3.594017773866653E-002;-7.510598516091704E-005;-6.081305444240570E-003;
2.409166666666667E+009;1.949619054794312E-001;3.581641241908073E-002;-1.594942441442981E-004;-6.271560676395893E-003;
2.409333333333334E+009;1.940095722675324E-001;3.520193323493004E-002;-6.419518467737362E-005;-6.331402808427811E-003;
2.409500000000000E+009;1.927538365125656E-001;3.444075584411621E-002;-2.338128251722083E-004;-6.374340970069170E-003;
2.409666666666667E+009;1.915313154459000E-001;3.326799720525742E-002;-2.479932154528797E-004;-6.396530661731958E-003;
2.409833333333334E+009;1.904397606849670E-001;3.212400153279305E-002;-4.842819471377879E-004;-6.512282881885767E-003;
2.410000000000000E+009;1.891873329877853E-001;3.100137412548065E-002;-4.290990764275193E-004;-6.612542551010847E-003;
2.410166666666667E+009;1.879323273897171E-001;2.943030931055546E-002;-5.550954956561327E-004;-6.662960629910231E-003;
2.410333333333334E+009;1.864678412675858E-001;2.797251939773560E-002;-6.978198653087020E-004;-6.832899060100317E-003;
2.410500000000000E+009;1.853348165750504E-001;2.645291388034821E-002;-1.011136919260025E-003;-6.985093466937542E-003;
2.410666666666667E+009;1.842353343963623E-001;2.422560937702656E-002;-1.187588553875685E-003;-7.026294711977243E-003;
2.410833333333334E+009;1.833665072917938E-001;2.221425995230675E-002;-1.325181801803410E-003;-7.130148820579052E-003;
2.411000000000000E+009;1.821059584617615E-001;2.001380920410156E-002;-1.421692664735019E-003;-7.313360925763845E-003;
2.411166666666667E+009;1.812095642089844E-001;1.803258247673512E-002;-1.738421968184412E-003;-7.584049832075834E-003;
2.411333333333334E+009;1.803940087556839E-001;1.564509794116020E-002;-2.147494815289974E-003;-7.416073698550463E-003;
2.411500000000000E+009;1.794523596763611E-001;1.315759308636189E-002;-2.448412124067545E-003;-7.560161408036947E-003;
2.411666666666667E+009;1.789059191942215E-001;1.087521389126778E-002;-2.689962973818183E-003;-7.640526164323092E-003;
2.411833333333334E+009;1.783879697322846E-001;8.407722227275372E-003;-3.190358635038137E-003;-7.621610071510077E-003;
2.412000000000000E+009;1.781105548143387E-001;5.681273061782122E-003;-3.451245138421655E-003;-7.682806346565485E-003;
2.412166666666667E+009;1.778802722692490E-001;3.167938673868775E-003;-3.710687393322587E-003;-7.540566846728325E-003;
2.412333333333334E+009;1.777910888195038E-001;5.811869050376117E-004;-4.183163866400719E-003;-7.675136439502239E-003;
2.412500000000000E+009;1.778300106525421E-001;-2.092158654704690E-003;-4.746937192976475E-003;-7.549291942268610E-003;
2.412666666666667E+009;1.780517399311066E-001;-4.853075370192528E-003;-4.921202082186937E-003;-7.429169490933418E-003;
2.412833333333334E+009;1.786242872476578E-001;-7.405177224427462E-003;-5.339935887604952E-003;-6.999006494879723E-003;
2.413000000000000E+009;1.790390014648438E-001;-9.938181377947331E-003;-5.592934321612120E-003;-6.871657446026802E-003;
2.413166666666667E+009;1.797527372837067E-001;-1.245402451604605E-002;-6.149101071059704E-003;-6.637498736381531E-003;
2.413333333333334E+009;1.804859638214111E-001;-1.511448714882135E-002;-6.297194398939610E-003;-6.443779449909926E-003;
2.413500000000000E+009;1.813418269157410E-001;-1.777729764580727E-002;-6.637366954237223E-003;-6.156849674880505E-003;
2.413666666666667E+009;1.823060512542725E-001;-2.018751017749310E-002;-6.879139225929976E-003;-5.839454010128975E-003;
2.413833333333334E+009;1.833239197731018E-001;-2.257359586656094E-002;-7.109457161277533E-003;-5.515810567885637E-003;
2.414000000000000E+009;1.844526380300522E-001;-2.481053583323956E-002;-7.177468854933977E-003;-5.136251449584961E-003;
2.414166666666667E+009;1.858357936143875E-001;-2.692976035177708E-002;-7.616484072059393E-003;-4.821350798010826E-003;
2.414333333333334E+009;1.868709623813629E-001;-2.927418239414692E-002;-7.633620873093605E-003;-4.454613663256168E-003;
2.414500000000000E+009;1.881287544965744E-001;-3.110471926629543E-002;-7.548663299530745E-003;-4.145001526921988E-003;
2.414666666666667E+009;1.895115375518799E-001;-3.279070183634758E-002;-7.881288416683674E-003;-3.864191006869078E-003;
2.414833333333334E+009;1.908295899629593E-001;-3.452304750680924E-002;-8.035911247134209E-003;-3.525068983435631E-003;
2.415000000000000E+009;1.919606477022171E-001;-3.606739640235901E-002;-8.185755461454392E-003;-3.355387365445495E-003;
2.415166666666667E+009;1.935341656208038E-001;-3.748968988656998E-002;-8.141474798321724E-003;-2.994598820805550E-003;
2.415333333333334E+009;1.948436498641968E-001;-3.850989416241646E-002;-8.232410997152329E-003;-2.625552006065846E-003;
2.415500000000000E+009;1.961713731288910E-001;-3.947301581501961E-002;-8.521826937794685E-003;-2.365537686273456E-003;
2.415666666666667E+009;1.975128948688507E-001;-4.053912684321404E-002;-8.507573977112770E-003;-2.057553967460990E-003;
2.415833333333334E+009;1.986631602048874E-001;-4.120690375566483E-002;-8.566292934119701E-003;-1.898924820125103E-003;
2.416000000000000E+009;1.995924860239029E-001;-4.199873656034470E-002;-8.768258616328239E-003;-1.504073617979884E-003;
2.416166666666667E+009;2.009155303239822E-001;-4.270232468843460E-002;-8.698143064975739E-003;-9.514089324511588E-004;
2.416333333333334E+009;2.016885876655579E-001;-4.300541803240776E-002;-8.771599270403385E-003;-5.369283608160913E-004;
2.416500000000000E+009;2.026195228099823E-001;-4.323061928153038E-002;-8.739579468965530E-003;-1.700170978438109E-004;
2.416666666666667E+009;2.031657844781876E-001;-4.362754523754120E-002;-8.784453384578228E-003;1.903312513604760E-004;
2.416833333333334E+009;2.038132101297379E-001;-4.355055466294289E-002;-8.590573444962502E-003;6.772176129743457E-004;
2.417000000000000E+009;2.041962444782257E-001;-4.374843463301659E-002;-8.526928722858429E-003;1.103087095543742E-003;
2.417166666666667E+009;2.043703198432922E-001;-4.350097849965096E-002;-8.263319730758667E-003;1.531478133983910E-003;
2.417333333333334E+009;2.044579386711121E-001;-4.319822043180466E-002;-7.950156927108765E-003;1.614210894331336E-003;
2.417500000000000E+009;2.046592980623245E-001;-4.314298555254936E-002;-7.820487953722477E-003;2.095967996865511E-003;
2.417666666666667E+009;2.043149024248123E-001;-4.269066825509071E-002;-7.608898915350437E-003;2.287714742124081E-003;
2.417833333333334E+009;2.042291015386581E-001;-4.236919432878494E-002;-7.492385338991880E-003;2.462415257468820E-003;
2.418000000000000E+009;2.038552314043045E-001;-4.196121916174889E-002;-7.186035625636578E-003;2.644298831000924E-003;
2.418166666666667E+009;2.033674269914627E-001;-4.166407883167267E-002;-7.014486938714981E-003;2.848661271855235E-003;
2.418333333333334E+009;2.026761174201965E-001;-4.110971093177795E-002;-6.816411856561899E-003;2.961513586342335E-003;
2.418500000000000E+009;2.017949670553207E-001;-4.102749004960060E-002;-6.616928149014711E-003;3.081301692873240E-003;
2.418666666666667E+009;2.009992748498917E-001;-4.067633301019669E-002;-6.228380836546421E-003;3.096875967457891E-003;
2.418833333333334E+009;2.000497728586197E-001;-4.044206440448761E-002;-6.135265342891216E-003;3.472233889624476E-003;
2.419000000000000E+009;1.987810134887695E-001;-4.028632864356041E-002;-6.050690077245235E-003;3.210806520655751E-003;
2.419166666666667E+009;1.976122409105301E-001;-4.029092565178871E-002;-6.028410512953997E-003;3.451997647061944E-003;
2.419333333333334E+009;1.961861252784729E-001;-4.060095176100731E-002;-5.830882582813501E-003;3.436203813180327E-003;
2.419500000000000E+009;1.946906596422195E-001;-4.056445509195328E-002;-5.663455463945866E-003;3.538767108693719E-003;
2.419666666666667E+009;1.930011957883835E-001;-4.112208634614945E-002;-5.558537784963846E-003;3.576053306460381E-003;
2.419833333333334E+009;1.913270652294159E-001;-4.146825149655342E-002;-5.728080403059721E-003;3.693608101457357E-003;
2.420000000000000E+009;1.897530406713486E-001;-4.209948331117630E-002;-5.540920887142420E-003;3.644514596089721E-003;
2.420166666666667E+009;1.880826950073242E-001;-4.269404336810112E-002;-5.519375205039978E-003;3.880015574395657E-003;
2.420333333333334E+009;1.861752420663834E-001;-4.367766156792641E-002;-5.388344172388315E-003;3.941632807254791E-003;
2.420500000000000E+009;1.843557804822922E-001;-4.466538503766060E-002;-5.474323872476816E-003;4.238459747284651E-003;
2.420666666666667E+009;1.824838072061539E-001;-4.564750194549561E-002;-5.289086140692234E-003;4.435284063220024E-003;
2.420833333333334E+009;1.806141734123230E-001;-4.702374339103699E-002;-5.174221470952034E-003;4.496750421822071E-003;
2.421000000000000E+009;1.789470762014389E-001;-4.828040301799774E-002;-4.971828311681747E-003;4.761758726090193E-003;
2.421166666666667E+009;1.769713312387466E-001;-4.983313754200935E-002;-4.770845174789429E-003;4.943641833961010E-003;
2.421333333333334E+009;1.752238124608994E-001;-5.142987146973610E-002;-4.504357464611530E-003;5.161020439118147E-003;
2.421500000000000E+009;1.734643131494522E-001;-5.325393751263619E-002;-4.540236201137304E-003;5.177579820156097E-003;
2.421666666666667E+009;1.722058802843094E-001;-5.509996786713600E-002;-4.232116509228945E-003;5.318017676472664E-003;
2.421833333333334E+009;1.705957353115082E-001;-5.695268884301186E-002;-4.051927942782641E-003;5.320179741829634E-003;
2.422000000000000E+009;1.691970676183701E-001;-5.887356400489807E-002;-3.727724542841315E-003;5.356109701097012E-003;
2.422166666666667E+009;1.680610179901123E-001;-6.119722872972488E-002;-3.479233244433999E-003;5.362316500395536E-003;
2.422333333333334E+009;1.666167378425598E-001;-6.333024054765701E-002;-3.360736183822155E-003;5.285461898893118E-003;
2.422500000000000E+009;1.655679941177368E-001;-6.524744629859924E-002;-3.268623957410455E-003;5.344589240849018E-003;
2.422666666666667E+009;1.645552068948746E-001;-6.758072972297669E-002;-3.072816878557205E-003;5.368111655116081E-003;
2.422833333333334E+009;1.638756096363068E-001;-6.973042339086533E-002;-2.936947159469128E-003;5.144231487065554E-003;
2.423000000000000E+009;1.630824655294418E-001;-7.203936576843262E-002;-2.700243145227432E-003;5.350823048502207E-003;
2.423166666666667E+009;1.624085456132889E-001;-7.415518909692764E-002;-2.674505347386003E-003;5.337766837328672E-003;
2.423333333333334E+009;1.620292961597443E-001;-7.641185820102692E-002;-2.567093819379807E-003;5.241210572421551E-003;
2.423500000000000E+009;1.618360877037048E-001;-7.836152613162994E-002;-2.669185632839799E-003;5.336982198059559E-003;
2.423666666666667E+009;1.619257032871246E-001;-8.074567466974258E-002;-2.476371359080076E-003;5.267935339361429E-003;
2.423833333333334E+009;1.616708040237427E-001;-8.274221420288086E-002;-2.471094951033592E-003;5.347584374248982E-003;
2.424000000000000E+009;1.617482751607895E-001;-8.490160852670670E-002;-2.340028528124094E-003;5.386072676628828E-003;
2.424166666666667E+009;1.618668437004089E-001;-8.666336536407471E-002;-2.436905167996883E-003;5.551649257540703E-003;
2.424333333333334E+009;1.621615588665009E-001;-8.885792642831802E-002;-2.078918274492025E-003;5.559087730944157E-003;
2.424500000000000E+009;1.624637693166733E-001;-9.056597948074341E-002;-2.299335785210133E-003;5.517178680747747E-003;
2.424666666666667E+009;1.627018451690674E-001;-9.231702983379364E-002;-2.160240896046162E-003;5.719073116779327E-003;
2.424833333333334E+009;1.635334640741348E-001;-9.400279819965363E-002;-1.963091082870960E-003;5.841012578457594E-003;
2.425000000000000E+009;1.638644486665726E-001;-9.540250897407532E-002;-2.054308541119099E-003;6.039978470653296E-003;
2.425166666666667E+009;1.645332872867584E-001;-9.684346616268158E-002;-1.663384260609746E-003;6.121779326349497E-003;
2.425333333333334E+009;1.649973094463348E-001;-9.815424680709839E-002;-1.563669880852103E-003;6.065600551664829E-003;
2.425500000000000E+009;1.657615005970001E-001;-9.931153059005737E-002;-1.501557067967951E-003;6.349816918373108E-003;
2.425666666666667E+009;1.664163321256638E-001;-1.002076864242554E-001;-1.393622136674821E-003;6.431814748793840E-003;
2.425833333333334E+009;1.669802665710449E-001;-1.013628169894218E-001;-1.322236377745867E-003;6.564003415405750E-003;
2.426000000000000E+009;1.676577329635620E-001;-1.020057201385498E-001;-1.004073536023498E-003;6.660928949713707E-003;
2.426166666666667E+009;1.683081537485123E-001;-1.026699617505074E-001;-5.991930956952274E-004;6.648442242294550E-003;
2.426333333333334E+009;1.688074022531509E-001;-1.034371331334114E-001;-5.073738866485655E-004;6.824429612606764E-003;
2.426500000000000E+009;1.696193069219589E-001;-1.038217321038246E-001;-2.651236427482218E-004;6.936926860362291E-003;
2.426666666666667E+009;1.701079457998276E-001;-1.042427048087120E-001;9.221607615472749E-005;6.870423909276724E-003;
2.426833333333334E+009;1.708201766014099E-001;-1.045907214283943E-001;2.579123247414827E-004;6.971015594899654E-003;
2.427000000000000E+009;1.711087673902512E-001;-1.048391461372376E-001;5.007581203244627E-004;6.961318664252758E-003;
2.427166666666667E+009;1.715360730886459E-001;-1.049383953213692E-001;6.782186101190746E-004;6.972847040742636E-003;
2.427333333333334E+009;1.717813760042191E-001;-1.052421182394028E-001;1.033529057167471E-003;6.966026034206152E-003;
2.427500000000000E+009;1.718353480100632E-001;-1.053741574287415E-001;1.262776437215507E-003;6.894031073898077E-003;
2.427666666666667E+009;1.718906015157700E-001;-1.053300127387047E-001;1.360721886157990E-003;6.936798337846994E-003;
