# Version 1.00
#
freq[Hz];re:Trc1_S11;im:Trc1_S11;re:Trc2_S21;im:Trc2_S21;
2.400000000000000E+009;1.580871790647507E-001;6.189811974763870E-002;-3.942727926187217E-004;4.747001919895411E-003;
2.400166666666667E+009;1.580133438110352E-001;6.040172651410103E-002;-1.432488497812301E-004;4.603594541549683E-003;
2.400333333333334E+009;1.577653586864471E-001;5.844585970044136E-002;1.163673659902997E-004;4.509545397013426E-003;
2.400500000000000E+009;1.579358875751495E-001;5.653550848364830E-002;1.960435183718801E-004;4.598964005708695E-003;
2.400666666666667E+009;1.577153056859970E-001;5.459572747349739E-002;3.927052894141525E-004;4.611138720065355E-003;
2.400833333333334E+009;1.580148339271545E-001;5.284586548805237E-002;5.735013401135802E-004;4.464257042855024E-003;
2.401000000000000E+009;1.580358892679215E-001;5.084605887532234E-002;6.352057680487633E-004;4.440554417669773E-003;
2.401166666666667E+009;1.583264768123627E-001;4.864614456892014E-002;7.731383084319532E-004;4.577519837766886E-003;
2.401333333333334E+009;1.583941131830216E-001;4.662567004561424E-002;1.043690484948456E-003;4.461477044969797E-003;
2.401500000000000E+009;1.588216722011566E-001;4.474585130810738E-002;1.023333985358477E-003;4.400627687573433E-003;
2.401666666666667E+009;1.592581272125244E-001;4.273715242743492E-002;1.273469184525311E-003;4.314544145017862E-003;
2.401833333333334E+009;1.594868749380112E-001;4.064783081412315E-002;1.336190383881331E-003;4.286755342036486E-003;
2.402000000000000E+009;1.598479896783829E-001;3.876243531703949E-002;1.568463514558971E-003;4.190317355096340E-003;
2.402166666666667E+009;1.605408489704132E-001;3.649727627635002E-002;1.570287276990712E-003;4.295685794204474E-003;
2.402333333333334E+009;1.610784828662872E-001;3.498560935258865E-002;1.939146080985665E-003;4.058668389916420E-003;
2.402500000000000E+009;1.617727875709534E-001;3.316737711429596E-002;1.951902057044208E-003;3.964593634009361E-003;
2.402666666666667E+009;1.624336093664169E-001;3.126642107963562E-002;2.154078567400575E-003;3.864675760269165E-003;
2.402833333333334E+009;1.633575558662415E-001;2.963142096996307E-002;2.171383472159505E-003;3.884804435074329E-003;
2.403000000000000E+009;1.641975939273834E-001;2.818418107926846E-002;2.311133081093431E-003;3.848678432404995E-003;
2.403166666666667E+009;1.650135517120361E-001;2.666777558624744E-002;2.498203422874212E-003;3.814616240561009E-003;
2.403333333333334E+009;1.659635156393051E-001;2.522343955934048E-002;2.515543019399047E-003;3.739946288987994E-003;
2.403500000000000E+009;1.665817201137543E-001;2.380346320569515E-002;2.689873566851020E-003;3.625028533861041E-003;
2.403666666666667E+009;1.676311343908310E-001;2.224189974367619E-002;2.675387542694807E-003;3.573695663362742E-003;
2.403833333333334E+009;1.686232686042786E-001;2.110331691801548E-002;2.904196502640843E-003;3.481683088466525E-003;
2.404000000000000E+009;1.695886999368668E-001;1.977847144007683E-002;3.017487237229943E-003;3.236183198168874E-003;
2.404166666666667E+009;1.704468280076981E-001;1.871420629322529E-002;3.205470973625779E-003;3.101450856775045E-003;
2.404333333333334E+009;1.713489294052124E-001;1.774444989860058E-002;3.175946418195963E-003;3.038828494027257E-003;
2.404500000000000E+009;1.722281277179718E-001;1.671217940747738E-002;3.207689616829157E-003;2.829077886417508E-003;
2.404666666666667E+009;1.732988357543945E-001;1.586749590933323E-002;3.414178034290671E-003;2.859355648979545E-003;
2.404833333333334E+009;1.740159094333649E-001;1.515217497944832E-002;3.516336670145392E-003;2.726248931139708E-003;
2.405000000000000E+009;1.749480366706848E-001;1.435739733278751E-002;3.436886472627521E-003;2.644533524289727E-003;
2.405166666666667E+009;1.757640391588211E-001;1.366289798170328E-002;3.497710451483727E-003;2.555777318775654E-003;
2.405333333333334E+009;1.765410602092743E-001;1.300093624740839E-002;3.719015512615442E-003;2.339637605473399E-003;
2.405500000000000E+009;1.772371083498001E-001;1.273680105805397E-002;3.740694141015410E-003;2.349601360037923E-003;
2.405666666666667E+009;1.778668910264969E-001;1.206442341208458E-002;3.874691436067224E-003;2.199520822614431E-003;
2.405833333333334E+009;1.783001273870468E-001;1.177487336099148E-002;3.887421684339643E-003;2.135568065568805E-003;
2.406000000000000E+009;1.789540201425552E-001;1.122782751917839E-002;3.936964552849531E-003;2.012395067140460E-003;
2.406166666666667E+009;1.792962253093720E-001;1.096577942371368E-002;3.925829194486141E-003;2.004720503464341E-003;
2.406333333333334E+009;1.799297779798508E-001;1.060102134943008E-002;4.053782206028700E-003;1.657015644013882E-003;
2.406500000000000E+009;1.800452172756195E-001;1.033457182347775E-002;4.106170963495970E-003;1.614833134226501E-003;
2.406666666666667E+009;1.800334751605988E-001;9.876186959445477E-003;4.017807543277741E-003;1.427719369530678E-003;
2.406833333333334E+009;1.803672760725021E-001;9.428735822439194E-003;4.235533531755209E-003;1.403375877998769E-003;
2.407000000000000E+009;1.804184913635254E-001;9.175759740173817E-003;4.092595539987087E-003;1.254515256732702E-003;
2.407166666666667E+009;1.804578453302383E-001;8.804111741483212E-003;4.255735315382481E-003;9.586810483597219E-004;
2.407333333333334E+009;1.803067177534103E-001;8.305181749165058E-003;4.390647169202566E-003;1.050529885105789E-003;
2.407500000000000E+009;1.802217662334442E-001;7.856043986976147E-003;4.346111789345741E-003;8.662623004056513E-004;
2.407666666666667E+009;1.798581629991531E-001;7.398658432066441E-003;4.270814359188080E-003;7.303832680918276E-004;
2.407833333333334E+009;1.795870959758759E-001;6.784841883927584E-003;4.404868930578232E-003;6.079057347960770E-004;
2.408000000000000E+009;1.791578531265259E-001;6.014511920511723E-003;4.363768734037876E-003;4.760457086376846E-004;
2.408166666666667E+009;1.788227111101151E-001;5.556113086640835E-003;4.385171458125114E-003;2.818421344272792E-004;
2.408333333333334E+009;1.783569604158402E-001;4.777898546308279E-003;4.439666867256165E-003;3.014131798408926E-004;
2.408500000000000E+009;1.777916699647903E-001;3.884346224367619E-003;4.559480585157871E-003;3.902701428160071E-005;
2.408666666666667E+009;1.772036701440811E-001;2.987152663990855E-003;4.440292250365019E-003;-4.838874519919045E-005;
2.408833333333334E+009;1.765128374099731E-001;2.106028376147151E-003;4.440766293555498E-003;-2.490347251296043E-004;
2.409000000000000E+009;1.758902668952942E-001;9.577532182447612E-004;4.579344298690558E-003;-2.078820398310199E-004;
2.409166666666667E+009;1.753407716751099E-001;-2.592887612991035E-004;4.673963412642479E-003;-4.960274673067033E-004;
2.409333333333334E+009;1.747326403856278E-001;-1.540154218673706E-003;4.352632444351912E-003;-6.733767804689705E-004;
2.409500000000000E+009;1.740668714046478E-001;-2.772472333163023E-003;4.561442881822586E-003;-7.105609402060509E-004;
2.409666666666667E+009;1.730158925056458E-001;-4.133927635848522E-003;4.435393959283829E-003;-1.010712236166000E-003;
2.409833333333334E+009;1.725203245878220E-001;-5.412497092038393E-003;4.431400448083878E-003;-1.249148743227124E-003;
2.410000000000000E+009;1.720319688320160E-001;-6.954508833587170E-003;4.437941126525402E-003;-1.194141572341323E-003;
2.410166666666667E+009;1.713552922010422E-001;-8.665238507091999E-003;4.444998223334551E-003;-1.465586246922612E-003;
2.410333333333334E+009;1.707679480314255E-001;-1.023874711245298E-002;4.375668708235025E-003;-1.453951001167297E-003;
2.410500000000000E+009;1.704058498144150E-001;-1.198530942201614E-002;4.400473553687334E-003;-1.579777686856687E-003;
2.410666666666667E+009;1.698019653558731E-001;-1.367897633463144E-002;4.340418148785830E-003;-1.930098398588598E-003;
2.410833333333334E+009;1.695098131895065E-001;-1.541149988770485E-002;4.198503214865923E-003;-2.050097333267331E-003;
2.411000000000000E+009;1.690160781145096E-001;-1.728744246065617E-002;4.211438354104757E-003;-2.116181189194322E-003;
2.411166666666667E+009;1.687313914299011E-001;-1.928194239735603E-002;4.158021882176399E-003;-2.403783611953259E-003;
2.411333333333334E+009;1.685213446617127E-001;-2.103566937148571E-002;4.061669576913118E-003;-2.469828817993403E-003;
2.411500000000000E+009;1.682866662740707E-001;-2.320398204028606E-002;4.040640313178301E-003;-2.512252889573574E-003;
2.411666666666667E+009;1.682486683130264E-001;-2.490633912384510E-002;3.920255694538355E-003;-2.650354756042361E-003;
2.411833333333334E+009;1.683137267827988E-001;-2.680886909365654E-002;3.832280868664384E-003;-3.048002021387219E-003;
2.412000000000000E+009;1.681462079286575E-001;-2.874861098825932E-002;3.726922208443284E-003;-3.040727693587542E-003;
2.412166666666667E+009;1.682161241769791E-001;-3.083004616200924E-002;3.643664298579097E-003;-3.278062678873539E-003;
2.412333333333334E+009;1.687017530202866E-001;-3.247657045722008E-002;3.423999296501279E-003;-3.252932103350759E-003;
2.412500000000000E+009;1.686350703239441E-001;-3.432098776102066E-002;3.288599196821451E-003;-3.494139760732651E-003;
2.412666666666667E+009;1.690117418766022E-001;-3.632220998406410E-002;3.215775359421969E-003;-3.700564848259091E-003;
2.412833333333334E+009;1.693490743637085E-001;-3.808774054050446E-002;2.989243017509580E-003;-3.785888897255063E-003;
2.413000000000000E+009;1.697780638933182E-001;-3.988709673285484E-002;2.766498131677508E-003;-3.843887243419886E-003;
2.413166666666667E+009;1.702283620834351E-001;-4.163363948464394E-002;2.700819633901119E-003;-4.073918331414461E-003;
2.413333333333334E+009;1.704712361097336E-001;-4.326337948441505E-002;2.405006438493729E-003;-4.233535844832659E-003;
2.413500000000000E+009;1.710572540760040E-001;-4.480496421456337E-002;2.345436019822955E-003;-4.217465408146381E-003;
2.413666666666667E+009;1.716800034046173E-001;-4.634871706366539E-002;2.367211040109396E-003;-4.299280233681202E-003;
2.413833333333334E+009;1.722278296947479E-001;-4.790270701050758E-002;1.944860443472862E-003;-4.371263086795807E-003;
2.414000000000000E+009;1.724307239055634E-001;-4.918173328042030E-002;1.673600170761347E-003;-4.469258710741997E-003;
2.414166666666667E+009;1.732281148433685E-001;-5.040803551673889E-002;1.700344961136580E-003;-4.504888318479061E-003;
2.414333333333334E+009;1.735924929380417E-001;-5.172908678650856E-002;1.401806250214577E-003;-4.510498605668545E-003;
2.414500000000000E+009;1.742811053991318E-001;-5.264506861567497E-002;1.331405015662313E-003;-4.581314511597157E-003;
2.414666666666667E+009;1.747612506151199E-001;-5.382059887051582E-002;9.793582139536738E-004;-4.565371200442314E-003;
2.414833333333334E+009;1.751474291086197E-001;-5.469980463385582E-002;7.664758013561368E-004;-4.491695668548346E-003;
2.415000000000000E+009;1.755728423595429E-001;-5.566458031535149E-002;5.784424138255417E-004;-4.402713384479284E-003;
2.415166666666667E+009;1.760234981775284E-001;-5.624575912952423E-002;4.718541167676449E-004;-4.452684428542852E-003;
2.415333333333334E+009;1.765025556087494E-001;-5.714992433786392E-002;2.656377619132400E-004;-4.543314687907696E-003;
2.415500000000000E+009;1.767536848783493E-001;-5.765397101640701E-002;3.115903818979859E-004;-4.376745782792568E-003;
2.415666666666667E+009;1.768915206193924E-001;-5.815793946385384E-002;-3.716224455274642E-005;-4.337494261562824E-003;
2.415833333333334E+009;1.771889925003052E-001;-5.850274115800858E-002;-2.557280240580440E-004;-4.455225076526403E-003;
2.416000000000000E+009;1.772045642137528E-001;-5.903326347470284E-002;-3.945028001908213E-004;-4.349466878920794E-003;
2.416166666666667E+009;1.773669868707657E-001;-5.934774130582809E-002;-4.377697769086808E-004;-4.211563151329756E-003;
2.416333333333334E+009;1.773204207420349E-001;-5.967948958277702E-002;-6.538470042869449E-004;-4.165643360465765E-003;
2.416500000000000E+009;1.772296726703644E-001;-6.018741428852081E-002;-8.141601574607194E-004;-4.316167905926704E-003;
2.416666666666667E+009;1.769055426120758E-001;-6.036841124296188E-002;-1.028084894642234E-003;-4.128781147301197E-003;
2.416833333333334E+009;1.767904609441757E-001;-6.067202612757683E-002;-9.966390207409859E-004;-4.001469817012548E-003;
2.417000000000000E+009;1.762985438108444E-001;-6.101976335048676E-002;-1.288483850657940E-003;-3.909942694008350E-003;
2.417166666666667E+009;1.757947057485580E-001;-6.118675321340561E-002;-1.349590718746185E-003;-3.982064779847860E-003;
2.417333333333334E+009;1.753617823123932E-001;-6.134102493524551E-002;-1.428088522516191E-003;-3.838453674688935E-003;
2.417500000000000E+009;1.746613979339600E-001;-6.186540424823761E-002;-1.570728840306401E-003;-3.810871625319123E-003;
2.417666666666667E+009;1.739809662103653E-001;-6.193290278315544E-002;-1.817722921259701E-003;-3.519700840115547E-003;
2.417833333333334E+009;1.731823086738586E-001;-6.218513846397400E-002;-1.697991974651814E-003;-3.557301126420498E-003;
2.418000000000000E+009;1.722461730241776E-001;-6.274456530809403E-002;-1.807920169085264E-003;-3.421775065362454E-003;
2.418166666666667E+009;1.713627576828003E-001;-6.280654668807983E-002;-1.836759271100164E-003;-3.338338574394584E-003;
2.418333333333334E+009;1.705665141344070E-001;-6.335806101560593E-002;-2.146281534805894E-003;-3.291544737294316E-003;
2.418500000000000E+009;1.693879514932632E-001;-6.378150731325150E-002;-2.086018910631537E-003;-3.060352057218552E-003;
2.418666666666667E+009;1.684277504682541E-001;-6.447255611419678E-002;-2.258806256577373E-003;-2.967022592201829E-003;
2.418833333333334E+009;1.672726869583130E-001;-6.505902111530304E-002;-2.252065576612949E-003;-2.953538903966546E-003;
2.419000000000000E+009;1.659411787986755E-001;-6.562118232250214E-002;-2.291714074090123E-003;-2.851989585906267E-003;
2.419166666666667E+009;1.648074090480804E-001;-6.624257564544678E-002;-2.470294479280710E-003;-2.744926605373621E-003;
2.419333333333334E+009;1.636028885841370E-001;-6.689150631427765E-002;-2.488835249096155E-003;-2.711044624447823E-003;
2.419500000000000E+009;1.623817980289459E-001;-6.800938397645950E-002;-2.458783797919750E-003;-2.675477880984545E-003;
2.419666666666667E+009;1.614211946725845E-001;-6.870318204164505E-002;-2.549057826399803E-003;-2.548644552007318E-003;
2.419833333333334E+009;1.600991338491440E-001;-6.959626823663712E-002;-2.655926626175642E-003;-2.437855582684279E-003;
2.420000000000000E+009;1.591149717569351E-001;-7.083185017108917E-002;-2.673345385119319E-003;-2.294636564329267E-003;
2.420166666666667E+009;1.580209434032440E-001;-7.190191000699997E-002;-2.717429073527455E-003;-2.199240494519472E-003;
2.420333333333334E+009;1.569256335496903E-001;-7.321897149085999E-002;-2.738936571404338E-003;-2.135135699063540E-003;
2.420500000000000E+009;1.560642868280411E-001;-7.428473979234695E-002;-2.801699331030250E-003;-2.087326021865010E-003;
2.420666666666667E+009;1.550258845090866E-001;-7.561609148979187E-002;-2.855494152754545E-003;-1.972886966541410E-003;
2.420833333333334E+009;1.542292535305023E-001;-7.711360603570938E-002;-2.930754795670509E-003;-1.879749470390379E-003;
2.421000000000000E+009;1.532855778932571E-001;-7.860243320465088E-002;-3.026796272024512E-003;-1.629093196243048E-003;
2.421166666666667E+009;1.525120884180069E-001;-8.007176220417023E-002;-2.974152797833085E-003;-1.677472610026598E-003;
2.421333333333334E+009;1.519137322902679E-001;-8.159874379634857E-002;-3.259161254391074E-003;-1.658555585891008E-003;
2.421500000000000E+009;1.513398140668869E-001;-8.304307609796524E-002;-3.231617156416178E-003;-1.517129596322775E-003;
2.421666666666667E+009;1.509019881486893E-001;-8.466263115406036E-002;-3.036345588043332E-003;-1.336244982667267E-003;
2.421833333333334E+009;1.503596454858780E-001;-8.639602363109589E-002;-3.151593497022986E-003;-1.193012692965567E-003;
2.422000000000000E+009;1.499996930360794E-001;-8.796474337577820E-002;-3.240818623453379E-003;-1.138666644692421E-003;
2.422166666666667E+009;1.497667133808136E-001;-9.000280499458313E-002;-3.230410162359476E-003;-1.072928425855935E-003;
2.422333333333334E+009;1.496630162000656E-001;-9.159584343433380E-002;-3.332796040922403E-003;-8.458994561806321E-004;
2.422500000000000E+009;1.494145393371582E-001;-9.298469871282578E-002;-3.320246236398816E-003;-6.955979042686522E-004;
2.422666666666667E+009;1.493946164846420E-001;-9.474827349185944E-002;-3.246814478188753E-003;-5.331540596671403E-004;
2.422833333333334E+009;1.495382785797119E-001;-9.652855247259140E-002;-3.328771330416203E-003;-5.081956041976810E-004;
2.423000000000000E+009;1.496883481740952E-001;-9.805687516927719E-002;-3.344910684973002E-003;-4.257609834894538E-004;
2.423166666666667E+009;1.499199122190476E-001;-9.968362003564835E-002;-3.357324749231339E-003;-2.953132498078048E-004;
2.423333333333334E+009;1.501164883375168E-001;-1.011406481266022E-001;-3.393490565940738E-003;-1.441681524738669E-004;
2.423500000000000E+009;1.505128890275955E-001;-1.027161031961441E-001;-3.392723156139255E-003;8.055375656113029E-005;
2.423666666666667E+009;1.507174819707871E-001;-1.042840629816055E-001;-3.387892153114080E-003;7.244002517836634E-006;
2.423833333333334E+009;1.511774659156799E-001;-1.057621538639069E-001;-3.323290264233947E-003;2.877500664908439E-004;
2.424000000000000E+009;1.515557020902634E-001;-1.068158522248268E-001;-3.362013027071953E-003;3.834083909168840E-004;
2.424166666666667E+009;1.519103199243546E-001;-1.081764921545982E-001;-3.216713201254606E-003;6.591440760530531E-004;
2.424333333333334E+009;1.525286138057709E-001;-1.093324646353722E-001;-3.268388332799077E-003;6.984663195908070E-004;
2.424500000000000E+009;1.528670638799667E-001;-1.105523481965065E-001;-3.195964731276035E-003;9.038067073561251E-004;
2.424666666666667E+009;1.535609513521195E-001;-1.113776937127113E-001;-3.182970918715000E-003;8.896528743207455E-004;
2.424833333333334E+009;1.538960039615631E-001;-1.123843789100647E-001;-3.102126764133573E-003;9.607733809389174E-004;
2.425000000000000E+009;1.543449908494949E-001;-1.133467927575111E-001;-2.979490673169494E-003;9.877592092379928E-004;
2.425166666666667E+009;1.545229256153107E-001;-1.141618192195892E-001;-2.845168812200427E-003;1.210442511364818E-003;
2.425333333333334E+009;1.549675315618515E-001;-1.149544045329094E-001;-2.663053572177887E-003;1.426426460966468E-003;
2.425500000000000E+009;1.553887575864792E-001;-1.156069785356522E-001;-2.558468375355005E-003;1.459641847759485E-003;
2.425666666666667E+009;1.554861962795258E-001;-1.160887852311134E-001;-2.399418037384749E-003;1.475940458476543E-003;
2.425833333333334E+009;1.558139920234680E-001;-1.166867464780808E-001;-2.233669394627214E-003;1.582303899340332E-003;
2.426000000000000E+009;1.559146344661713E-001;-1.172144040465355E-001;-2.237515524029732E-003;1.616380177438259E-003;
2.426166666666667E+009;1.561702042818070E-001;-1.176376268267632E-001;-2.165817888453603E-003;1.696710707619786E-003;
2.426333333333334E+009;1.561965048313141E-001;-1.179716959595680E-001;-2.032887889072299E-003;1.909929444082081E-003;
2.426500000000000E+009;1.561071723699570E-001;-1.180935874581337E-001;-1.923777395859361E-003;1.765897381119430E-003;
2.426666666666667E+009;1.560871452093124E-001;-1.182721778750420E-001;-1.780850463546813E-003;1.941566937603056E-003;
2.426833333333334E+009;1.558588892221451E-001;-1.185676530003548E-001;-1.662226626649499E-003;1.848736661486328E-003;
2.427000000000000E+009;1.555421352386475E-001;-1.187606230378151E-001;-1.588227576576173E-003;1.903627649880946E-003;
2.427166666666667E+009;1.552026718854904E-001;-1.188366115093231E-001;-1.362774404697120E-003;1.891837571747601E-003;
2.427333333333334E+009;1.545834839344025E-001;-1.189830973744392E-001;-1.298255985602737E-003;1.819243887439370E-003;
2.427500000000000E+009;1.541873514652252E-001;-1.190590932965279E-001;-1.055956701748073E-003;1.861235359683633E-003;
2.427666666666667E+009;1.534108966588974E-001;-1.192782744765282E-001;-1.014340086840093E-003;1.868259045295417E-003;
