# Version 1.00
#
freq[Hz];re:Trc1_S11;im:Trc1_S11;re:Trc2_S21;im:Trc2_S21;
2.400000000000000E+009;1.580013334751129E-001;6.186023354530335E-002;-4.956491175107658E-004;4.725639242678881E-003;
2.400166666666667E+009;1.579905152320862E-001;6.040883809328079E-002;-3.229776921216399E-004;4.508198704570532E-003;
2.400333333333334E+009;1.579436510801315E-001;5.851793661713600E-002;-1.072498125722632E-004;4.671225324273109E-003;
2.400500000000000E+009;1.580354720354080E-001;5.657165125012398E-002;1.279172138310969E-004;4.555314779281616E-003;
2.400666666666667E+009;1.580104082822800E-001;5.458461120724678E-002;2.587766502983868E-004;4.442592151463032E-003;
2.400833333333334E+009;1.580187678337097E-001;5.254268273711205E-002;3.835583047475666E-004;4.502870142459869E-003;
2.401000000000000E+009;1.582568883895874E-001;5.070362240076065E-002;7.114900508895516E-004;4.527049604803324E-003;
2.401166666666667E+009;1.584006249904633E-001;4.862098395824432E-002;8.251047111116350E-004;4.448917228728533E-003;
2.401333333333334E+009;1.586277186870575E-001;4.652033373713493E-002;9.603031794540584E-004;4.599408246576786E-003;
2.401500000000000E+009;1.588398665189743E-001;4.444142058491707E-002;9.555289871059358E-004;4.448484629392624E-003;
2.401666666666667E+009;1.591947227716446E-001;4.257741197943687E-002;1.228942070156336E-003;4.572973586618900E-003;
2.401833333333334E+009;1.595968902111054E-001;4.044401273131371E-002;1.354960957542062E-003;4.357310477644205E-003;
2.402000000000000E+009;1.598645746707916E-001;3.863541409373283E-002;1.586211030371487E-003;4.352131392806768E-003;
2.402166666666667E+009;1.605689674615860E-001;3.657649084925652E-002;1.678310567513108E-003;4.262506496161223E-003;
2.402333333333334E+009;1.611487269401550E-001;3.473357111215591E-002;1.838281867094338E-003;4.053143318742514E-003;
2.402500000000000E+009;1.620403677225113E-001;3.316608071327210E-002;2.001864137127996E-003;4.097712691873312E-003;
2.402666666666667E+009;1.622993648052216E-001;3.125772252678871E-002;2.043961780145764E-003;3.931584767997265E-003;
2.402833333333334E+009;1.632221639156342E-001;2.959350682795048E-002;2.105471212416887E-003;3.828941844403744E-003;
2.403000000000000E+009;1.641548871994019E-001;2.810609340667725E-002;2.218259731307626E-003;3.824527375400066E-003;
2.403166666666667E+009;1.650706827640533E-001;2.649923041462898E-002;2.514621708542109E-003;3.740705549716950E-003;
2.403333333333334E+009;1.657726019620895E-001;2.514741942286491E-002;2.601616084575653E-003;3.619194496423006E-003;
2.403500000000000E+009;1.666883081197739E-001;2.381595224142075E-002;2.821326255798340E-003;3.500369610264897E-003;
2.403666666666667E+009;1.677021533250809E-001;2.227121591567993E-002;2.668294124305248E-003;3.458391409367323E-003;
2.403833333333334E+009;1.687000393867493E-001;2.112335525453091E-002;2.856565406545997E-003;3.468177514150739E-003;
2.404000000000000E+009;1.695982366800308E-001;1.974446326494217E-002;2.861358923837543E-003;3.280790988355875E-003;
2.404166666666667E+009;1.705883741378784E-001;1.873939856886864E-002;3.186826594173908E-003;3.129383083432913E-003;
2.404333333333334E+009;1.715408563613892E-001;1.774151623249054E-002;3.021887736395001E-003;2.961619291454554E-003;
2.404500000000000E+009;1.722779721021652E-001;1.666459441184998E-002;3.246390260756016E-003;3.049313556402922E-003;
2.404666666666667E+009;1.732091158628464E-001;1.595119386911392E-002;3.381490707397461E-003;2.880399348214269E-003;
2.404833333333334E+009;1.742349416017532E-001;1.515762787312269E-002;3.436296014115214E-003;2.730331849306822E-003;
2.405000000000000E+009;1.750754117965698E-001;1.435362733900547E-002;3.503812244161964E-003;2.572527620941401E-003;
2.405166666666667E+009;1.757905036211014E-001;1.367389410734177E-002;3.609881969168782E-003;2.427586819976568E-003;
2.405333333333334E+009;1.765805631875992E-001;1.298268511891365E-002;3.800181671977043E-003;2.374402014538646E-003;
2.405500000000000E+009;1.773366779088974E-001;1.260268129408360E-002;3.803417319431901E-003;2.201935043558478E-003;
2.405666666666667E+009;1.780171841382980E-001;1.210723537951708E-002;3.783603198826313E-003;2.247753553092480E-003;
2.405833333333334E+009;1.783838272094727E-001;1.175305712968111E-002;3.835777984932065E-003;2.127665327861905E-003;
2.406000000000000E+009;1.790098398923874E-001;1.124018058180809E-002;3.884894540533423E-003;2.021862193942070E-003;
2.406166666666667E+009;1.793100535869598E-001;1.097108423709869E-002;3.835565876215696E-003;1.919887727126479E-003;
2.406333333333334E+009;1.798529475927353E-001;1.074814889580011E-002;4.135540686547756E-003;1.838293508626521E-003;
2.406500000000000E+009;1.800247132778168E-001;1.013988535851240E-002;4.109628498554230E-003;1.606243429705501E-003;
2.406666666666667E+009;1.800951361656189E-001;9.889598004519939E-003;4.219146445393562E-003;1.479944097809494E-003;
2.406833333333334E+009;1.803640127182007E-001;9.583855047821999E-003;4.176802933216095E-003;1.511240843683481E-003;
2.407000000000000E+009;1.803930252790451E-001;9.160482324659824E-003;4.230320919305086E-003;1.221662387251854E-003;
2.407166666666667E+009;1.805026680231094E-001;8.816919289529324E-003;4.234204068779945E-003;1.110545592382550E-003;
2.407333333333334E+009;1.803161054849625E-001;8.287036791443825E-003;4.237711895257235E-003;1.069356338120997E-003;
2.407500000000000E+009;1.801899820566177E-001;7.930139079689980E-003;4.514946602284908E-003;8.115164819173515E-004;
2.407666666666667E+009;1.800048500299454E-001;7.422902621328831E-003;4.430445842444897E-003;6.733728223480284E-004;
2.407833333333334E+009;1.794326007366180E-001;6.737310439348221E-003;4.391573835164309E-003;4.531507729552686E-004;
2.408000000000000E+009;1.791553497314453E-001;6.102648098021746E-003;4.410946276038885E-003;3.628831764217466E-004;
2.408166666666667E+009;1.787518560886383E-001;5.560092162340879E-003;4.517696797847748E-003;2.627087233122438E-004;
2.408333333333334E+009;1.785162687301636E-001;4.758588969707489E-003;4.387021996080875E-003;1.579866220708937E-004;
2.408500000000000E+009;1.777356415987015E-001;3.952846862375736E-003;4.333388991653919E-003;-1.004896985250525E-004;
2.408666666666667E+009;1.772616803646088E-001;2.866945229470730E-003;4.514230415225029E-003;-7.042016659397632E-005;
2.408833333333334E+009;1.765351146459580E-001;1.953029190190136E-003;4.362824838608503E-003;-2.480808470863849E-004;
2.409000000000000E+009;1.759263128042221E-001;1.137734274379909E-003;4.427705891430378E-003;-4.126212152186781E-004;
2.409166666666667E+009;1.752110123634338E-001;-2.537574036978185E-004;4.518831148743630E-003;-4.869799886364490E-004;
2.409333333333334E+009;1.747208684682846E-001;-1.478471443988383E-003;4.579965025186539E-003;-7.740345899946988E-004;
2.409500000000000E+009;1.739540547132492E-001;-2.843913156539202E-003;4.573016427457333E-003;-7.710868376307190E-004;
2.409666666666667E+009;1.732758134603500E-001;-4.219368100166321E-003;4.558458458632231E-003;-9.279703372158110E-004;
2.409833333333334E+009;1.726157665252686E-001;-5.532488226890564E-003;4.544806666672230E-003;-9.659773786552250E-004;
2.410000000000000E+009;1.719571352005005E-001;-6.983709055930376E-003;4.455431830137968E-003;-1.094679581001401E-003;
2.410166666666667E+009;1.714667975902557E-001;-8.741443045437336E-003;4.390320274978876E-003;-1.391547848470509E-003;
2.410333333333334E+009;1.708455830812454E-001;-1.021264027804136E-002;4.437386058270931E-003;-1.466877991333604E-003;
2.410500000000000E+009;1.703811883926392E-001;-1.197551283985376E-002;4.378170240670443E-003;-1.680099638178945E-003;
2.410666666666667E+009;1.698230206966400E-001;-1.370573230087757E-002;4.248715471476317E-003;-1.805028994567692E-003;
2.410833333333334E+009;1.693797558546066E-001;-1.562864147126675E-002;4.227048717439175E-003;-2.105046296492219E-003;
2.411000000000000E+009;1.690626144409180E-001;-1.742450706660748E-002;4.115642048418522E-003;-2.238521585240960E-003;
2.411166666666667E+009;1.686376631259918E-001;-1.926357299089432E-002;4.207259975373745E-003;-2.272267825901508E-003;
2.411333333333334E+009;1.684657037258148E-001;-2.118391916155815E-002;4.065585788339376E-003;-2.436856040731072E-003;
2.411500000000000E+009;1.682459264993668E-001;-2.337819151580334E-002;3.954475745558739E-003;-2.585453912615776E-003;
2.411666666666667E+009;1.682927459478378E-001;-2.496462874114513E-002;3.856858704239130E-003;-2.866813912987709E-003;
2.411833333333334E+009;1.683070957660675E-001;-2.703567035496235E-002;3.806350287050009E-003;-3.029564162716270E-003;
2.412000000000000E+009;1.682544648647308E-001;-2.894638292491436E-002;3.779791295528412E-003;-3.245879430323839E-003;
2.412166666666667E+009;1.683696508407593E-001;-3.061396442353725E-002;3.682077396661043E-003;-3.295343602076173E-003;
2.412333333333334E+009;1.687143445014954E-001;-3.264146298170090E-002;3.393439576029778E-003;-3.416504943743348E-003;
2.412500000000000E+009;1.688326895236969E-001;-3.454858437180519E-002;3.210137132555246E-003;-3.600567812100053E-003;
2.412666666666667E+009;1.689652800559998E-001;-3.649616241455078E-002;3.264687955379486E-003;-3.488273825496435E-003;
2.412833333333334E+009;1.695179939270020E-001;-3.819100186228752E-002;3.007474122568965E-003;-3.916975110769272E-003;
2.413000000000000E+009;1.698148995637894E-001;-3.988282009959221E-002;2.817188622429967E-003;-3.883391618728638E-003;
2.413166666666667E+009;1.703064888715744E-001;-4.172092303633690E-002;2.662624465301633E-003;-3.960855770856142E-003;
2.413333333333334E+009;1.706477999687195E-001;-4.318080842494965E-002;2.494307002052665E-003;-4.056831356137991E-003;
2.413500000000000E+009;1.712061017751694E-001;-4.486808180809021E-002;2.430927706882358E-003;-4.237682092934847E-003;
2.413666666666667E+009;1.718816012144089E-001;-4.634963348507881E-002;2.079126890748739E-003;-4.286047536879778E-003;
2.413833333333334E+009;1.720704138278961E-001;-4.773781076073647E-002;1.973418053239584E-003;-4.342534113675356E-003;
2.414000000000000E+009;1.726471483707428E-001;-4.912044480443001E-002;1.853534602560103E-003;-4.346784204244614E-003;
2.414166666666667E+009;1.732396930456162E-001;-5.032889544963837E-002;1.443657791242003E-003;-4.599914886057377E-003;
2.414333333333334E+009;1.734807938337326E-001;-5.175095051527023E-002;1.376010011881590E-003;-4.569592885673046E-003;
2.414500000000000E+009;1.743961572647095E-001;-5.263982340693474E-002;1.387941418215632E-003;-4.476253408938646E-003;
2.414666666666667E+009;1.747769117355347E-001;-5.369581654667854E-002;1.019594143144786E-003;-4.615115001797676E-003;
2.414833333333334E+009;1.752160191535950E-001;-5.477265268564224E-002;8.138573030009866E-004;-4.572514910250902E-003;
2.415000000000000E+009;1.755772829055786E-001;-5.562241002917290E-002;4.387390217743814E-004;-4.589902702718973E-003;
2.415166666666667E+009;1.759252101182938E-001;-5.623755976557732E-002;5.002366378903389E-004;-4.585684742778540E-003;
2.415333333333334E+009;1.766059696674347E-001;-5.710001289844513E-002;2.262852358398959E-004;-4.450346343219280E-003;
2.415500000000000E+009;1.766911745071411E-001;-5.755883455276489E-002;1.026681857183576E-004;-4.542645998299122E-003;
2.415666666666667E+009;1.768270432949066E-001;-5.821868777275085E-002;-9.722974937176332E-005;-4.550584591925144E-003;
2.415833333333334E+009;1.771956682205200E-001;-5.857961624860764E-002;-2.852021134458482E-004;-4.461296834051609E-003;
2.416000000000000E+009;1.770466715097427E-001;-5.911987647414208E-002;-4.554881306830794E-004;-4.392105620354414E-003;
2.416166666666667E+009;1.773880869150162E-001;-5.952234938740730E-002;-5.257765296846628E-004;-4.392839968204498E-003;
2.416333333333334E+009;1.773809790611267E-001;-5.977255105972290E-002;-5.443989066407085E-004;-4.215929191559553E-003;
2.416500000000000E+009;1.772336363792419E-001;-6.027890741825104E-002;-7.923507364466786E-004;-4.161008168011904E-003;
2.416666666666667E+009;1.768725663423538E-001;-6.042521074414253E-002;-1.003425568342209E-003;-4.126700107008219E-003;
2.416833333333334E+009;1.767602860927582E-001;-6.073027104139328E-002;-1.107884221710265E-003;-4.070344846695662E-003;
2.417000000000000E+009;1.762135177850723E-001;-6.117580085992813E-002;-1.273168949410319E-003;-4.027511924505234E-003;
2.417166666666667E+009;1.757833957672119E-001;-6.117554381489754E-002;-1.442796783521771E-003;-4.014587961137295E-003;
2.417333333333334E+009;1.752651333808899E-001;-6.141084432601929E-002;-1.451699179597199E-003;-3.653289750218391E-003;
2.417500000000000E+009;1.745687425136566E-001;-6.194505840539932E-002;-1.549561857245863E-003;-3.673905506730080E-003;
2.417666666666667E+009;1.740289181470871E-001;-6.199279054999352E-002;-1.724061323329806E-003;-3.548729000613093E-003;
2.417833333333334E+009;1.731765270233154E-001;-6.218742206692696E-002;-1.796809257939458E-003;-3.481048624962568E-003;
2.418000000000000E+009;1.722716987133026E-001;-6.274832040071487E-002;-1.865277765318751E-003;-3.380028763785958E-003;
2.418166666666667E+009;1.713083833456039E-001;-6.283566355705261E-002;-1.913433894515038E-003;-3.184085479006171E-003;
2.418333333333334E+009;1.706013083457947E-001;-6.353640556335449E-002;-2.056697383522987E-003;-3.272560657933354E-003;
2.418500000000000E+009;1.695064604282379E-001;-6.377592682838440E-002;-2.168221399188042E-003;-3.219030098989606E-003;
2.418666666666667E+009;1.685284823179245E-001;-6.439906358718872E-002;-2.158521441742778E-003;-2.979909535497427E-003;
2.418833333333334E+009;1.672016680240631E-001;-6.494414806365967E-002;-2.292554592713714E-003;-2.928395988419652E-003;
2.419000000000000E+009;1.659783571958542E-001;-6.555116921663284E-002;-2.276455983519554E-003;-3.004835685715079E-003;
2.419166666666667E+009;1.648593991994858E-001;-6.633700430393219E-002;-2.288616495206952E-003;-2.808175748214126E-003;
2.419333333333334E+009;1.635580360889435E-001;-6.675354391336441E-002;-2.495908178389072E-003;-2.822490409016609E-003;
2.419500000000000E+009;1.625037342309952E-001;-6.792835891246796E-002;-2.545971656218171E-003;-2.540041925385594E-003;
2.419666666666667E+009;1.613781601190567E-001;-6.887859851121903E-002;-2.498859073966742E-003;-2.696445444598794E-003;
2.419833333333334E+009;1.601384580135346E-001;-6.962430477142334E-002;-2.655837452039123E-003;-2.404819941148162E-003;
2.420000000000000E+009;1.590967029333115E-001;-7.086161524057388E-002;-2.585838548839092E-003;-2.242099726572633E-003;
2.420166666666667E+009;1.579714417457581E-001;-7.197061181068420E-002;-2.664775587618351E-003;-2.361329272389412E-003;
2.420333333333334E+009;1.570141315460205E-001;-7.316562533378601E-002;-2.820402849465609E-003;-2.199454233050346E-003;
2.420500000000000E+009;1.560566276311874E-001;-7.429774105548859E-002;-2.945373067632318E-003;-2.098157303407788E-003;
2.420666666666667E+009;1.550401300191879E-001;-7.554634660482407E-002;-2.878572093322873E-003;-1.943736453540623E-003;
2.420833333333334E+009;1.541793346405029E-001;-7.698480039834976E-002;-2.880562795326114E-003;-1.832601497881115E-003;
2.421000000000000E+009;1.532697379589081E-001;-7.849849760532379E-002;-3.016038797795773E-003;-1.776670455001295E-003;
2.421166666666667E+009;1.528200060129166E-001;-8.004646748304367E-002;-3.087638411670923E-003;-1.532310387119651E-003;
2.421333333333334E+009;1.520767211914063E-001;-8.147788792848587E-002;-3.056718967854977E-003;-1.505546970292926E-003;
2.421500000000000E+009;1.513489335775375E-001;-8.301675319671631E-002;-3.232213901355863E-003;-1.474837888963521E-003;
2.421666666666667E+009;1.508736610412598E-001;-8.478792011737824E-002;-3.179833758622408E-003;-1.285103731788695E-003;
2.421833333333334E+009;1.503857821226120E-001;-8.641906827688217E-002;-3.137959865853190E-003;-1.174301607534289E-003;
2.422000000000000E+009;1.499745696783066E-001;-8.790297806262970E-002;-3.365686163306236E-003;-1.035504508763552E-003;
2.422166666666667E+009;1.497362554073334E-001;-8.972871303558350E-002;-3.230805043131113E-003;-1.056922017596662E-003;
2.422333333333334E+009;1.499076038599014E-001;-9.136691689491272E-002;-3.358489135280252E-003;-9.461784502491355E-004;
2.422500000000000E+009;1.495229601860046E-001;-9.296883642673492E-002;-3.298855852335692E-003;-7.223300635814667E-004;
2.422666666666667E+009;1.493863314390183E-001;-9.470683336257935E-002;-3.306609112769365E-003;-5.342747899703682E-004;
2.422833333333334E+009;1.495871692895889E-001;-9.645513445138931E-002;-3.382848808541894E-003;-6.190582062117755E-004;
2.423000000000000E+009;1.497174352407455E-001;-9.794013947248459E-002;-3.357782028615475E-003;-3.589213301893324E-004;
2.423166666666667E+009;1.500762403011322E-001;-9.967193007469177E-002;-3.247466869652271E-003;-3.674321924336255E-004;
2.423333333333334E+009;1.502363085746765E-001;-1.010909825563431E-001;-3.442442975938320E-003;-1.007150785881095E-005;
2.423500000000000E+009;1.505502015352249E-001;-1.026061773300171E-001;-3.262367099523544E-003;3.390835263417102E-005;
2.423666666666667E+009;1.506969183683395E-001;-1.043534725904465E-001;-3.283506259322166E-003;8.330129639944062E-005;
2.423833333333334E+009;1.512546837329865E-001;-1.057097986340523E-001;-3.262805519625545E-003;3.373993677087128E-004;
2.424000000000000E+009;1.515571027994156E-001;-1.069298163056374E-001;-3.314181230962277E-003;4.709605127573013E-004;
2.424166666666667E+009;1.520640105009079E-001;-1.081641018390656E-001;-3.279641969129443E-003;5.392147577367723E-004;
2.424333333333334E+009;1.525040566921234E-001;-1.092288121581078E-001;-3.165001515299082E-003;7.831549737602472E-004;
2.424500000000000E+009;1.529529392719269E-001;-1.105197370052338E-001;-3.127918345853686E-003;6.968988454900682E-004;
2.424666666666667E+009;1.534548252820969E-001;-1.113965064287186E-001;-3.040344221517444E-003;9.256293997168541E-004;
2.424833333333334E+009;1.537523418664932E-001;-1.125345751643181E-001;-3.010797314345837E-003;1.086681382730603E-003;
2.425000000000000E+009;1.543350070714951E-001;-1.134007498621941E-001;-2.847371855750680E-003;1.264804974198341E-003;
2.425166666666667E+009;1.546296179294586E-001;-1.140929311513901E-001;-2.821578411385417E-003;1.181917614303529E-003;
2.425333333333334E+009;1.549946516752243E-001;-1.149613931775093E-001;-2.608398674055934E-003;1.381826121360064E-003;
2.425500000000000E+009;1.554346531629562E-001;-1.156952381134033E-001;-2.666884800419211E-003;1.462000072933734E-003;
2.425666666666667E+009;1.555118709802628E-001;-1.161900386214256E-001;-2.454380039125681E-003;1.444606692530215E-003;
2.425833333333334E+009;1.557920128107071E-001;-1.166249513626099E-001;-2.197257243096829E-003;1.584148034453392E-003;
2.426000000000000E+009;1.559852361679077E-001;-1.171821355819702E-001;-2.209922764450312E-003;1.679449691437185E-003;
2.426166666666667E+009;1.562245190143585E-001;-1.176263093948364E-001;-2.031341195106506E-003;1.673489576205611E-003;
2.426333333333334E+009;1.562004536390305E-001;-1.179542690515518E-001;-2.036811551079154E-003;1.721886801533401E-003;
2.426500000000000E+009;1.561990827322006E-001;-1.182509511709213E-001;-1.737891114316881E-003;1.875676796771586E-003;
2.426666666666667E+009;1.561727076768875E-001;-1.181976348161697E-001;-1.814518705941737E-003;1.867291750386357E-003;
2.426833333333334E+009;1.559098064899445E-001;-1.186151057481766E-001;-1.488452078774571E-003;1.857258263044059E-003;
2.427000000000000E+009;1.555533856153488E-001;-1.188327297568321E-001;-1.526649924926460E-003;1.896495930850506E-003;
2.427166666666667E+009;1.552064865827560E-001;-1.187860444188118E-001;-1.411569654010236E-003;1.778923557139933E-003;
2.427333333333334E+009;1.545795500278473E-001;-1.189732924103737E-001;-1.285421196371317E-003;2.024909947067499E-003;
2.427500000000000E+009;1.542563289403915E-001;-1.190841868519783E-001;-1.236549927853048E-003;1.862710574641824E-003;
2.427666666666667E+009;1.534448564052582E-001;-1.191658079624176E-001;-1.088258693926036E-003;1.843957928940654E-003;
