# Version 1.00
#
freq[Hz];re:Trc1_S11;im:Trc1_S11;re:Trc2_S21;im:Trc2_S21;
2.400000000000000E+009;1.578537523746491E-001;6.195568293333054E-002;-3.470224328339100E-004;4.587465897202492E-003;
2.400166666666667E+009;1.578150540590286E-001;6.023997068405151E-002;-2.333139418624342E-004;4.572273232042790E-003;
2.400333333333334E+009;1.577744781970978E-001;5.824371054768562E-002;3.761399784707464E-005;4.764785990118980E-003;
2.400500000000000E+009;1.578464061021805E-001;5.671539902687073E-002;1.292358501814306E-004;4.453683737665415E-003;
2.400666666666667E+009;1.578662097454071E-001;5.476108938455582E-002;3.208606503903866E-004;4.502726718783379E-003;
2.400833333333334E+009;1.579251736402512E-001;5.281743407249451E-002;3.682270180433989E-004;4.482575692236424E-003;
2.401000000000000E+009;1.579847782850266E-001;5.079802870750427E-002;5.742798093706369E-004;4.509883001446724E-003;
2.401166666666667E+009;1.582438349723816E-001;4.859779030084610E-002;8.404348627664149E-004;4.397859331220388E-003;
2.401333333333334E+009;1.582668572664261E-001;4.662100970745087E-002;1.000889693386853E-003;4.331340081989765E-003;
2.401500000000000E+009;1.587902456521988E-001;4.458216577768326E-002;1.222704420797527E-003;4.235950764268637E-003;
2.401666666666667E+009;1.591068804264069E-001;4.269665479660034E-002;1.244182465597987E-003;4.354087635874748E-003;
2.401833333333334E+009;1.594741344451904E-001;4.066132381558418E-002;1.349464291706681E-003;4.225974436849356E-003;
2.402000000000000E+009;1.596369892358780E-001;3.861704096198082E-002;1.292783650569618E-003;4.230210557579994E-003;
2.402166666666667E+009;1.605691462755203E-001;3.672824054956436E-002;1.496935845352709E-003;4.203155171126127E-003;
2.402333333333334E+009;1.610045284032822E-001;3.474966064095497E-002;1.783365849405527E-003;4.083998035639525E-003;
2.402500000000000E+009;1.617562472820282E-001;3.312396630644798E-002;1.756678451783955E-003;3.987330012023449E-003;
2.402666666666667E+009;1.625312566757202E-001;3.136416152119637E-002;2.112460788339376E-003;4.100969992578030E-003;
2.402833333333334E+009;1.632249057292938E-001;2.960802800953388E-002;2.111468464136124E-003;3.831744426861405E-003;
2.403000000000000E+009;1.640342175960541E-001;2.818498387932777E-002;2.281795954331756E-003;3.790238639339805E-003;
2.403166666666667E+009;1.648008227348328E-001;2.652578800916672E-002;2.268313663080335E-003;3.720822278410196E-003;
2.403333333333334E+009;1.657480001449585E-001;2.520745247602463E-002;2.504409989342094E-003;3.617044305428863E-003;
2.403500000000000E+009;1.665794849395752E-001;2.371117845177651E-002;2.641848521307111E-003;3.593990113586187E-003;
2.403666666666667E+009;1.676919609308243E-001;2.232957445085049E-002;2.666835207492113E-003;3.581267315894365E-003;
2.403833333333334E+009;1.685640364885330E-001;2.111527509987354E-002;2.950379159301519E-003;3.366780467331410E-003;
2.404000000000000E+009;1.695943921804428E-001;1.995950751006603E-002;2.949650166556239E-003;3.442935645580292E-003;
2.404166666666667E+009;1.704012602567673E-001;1.863072812557221E-002;3.124411683529615E-003;3.240893362089992E-003;
2.404333333333334E+009;1.713038831949234E-001;1.764354296028614E-002;3.264001337811351E-003;2.979196375235915E-003;
2.404500000000000E+009;1.722981780767441E-001;1.659049093723297E-002;3.170226234942675E-003;3.025902668014169E-003;
2.404666666666667E+009;1.732957512140274E-001;1.599895209074020E-002;3.240990452468395E-003;3.011950058862567E-003;
2.404833333333334E+009;1.740768551826477E-001;1.520348899066448E-002;3.328005317598581E-003;2.854888327419758E-003;
2.405000000000000E+009;1.750497370958328E-001;1.436041854321957E-002;3.410319332033396E-003;2.616683952510357E-003;
2.405166666666667E+009;1.756657063961029E-001;1.363479625433683E-002;3.607564372941852E-003;2.630413742735982E-003;
2.405333333333334E+009;1.766145825386047E-001;1.311486493796110E-002;3.633002052083612E-003;2.512660576030612E-003;
2.405500000000000E+009;1.772143393754959E-001;1.269678212702274E-002;3.604516852647066E-003;2.315465593710542E-003;
2.405666666666667E+009;1.778429448604584E-001;1.222701929509640E-002;3.778921207413077E-003;2.203653566539288E-003;
2.405833333333334E+009;1.783154606819153E-001;1.173191424459219E-002;3.823220962658525E-003;2.241187030449510E-003;
2.406000000000000E+009;1.789681762456894E-001;1.125472132116556E-002;3.937019035220146E-003;1.977452775463462E-003;
2.406166666666667E+009;1.791821569204330E-001;1.104656141251326E-002;3.995099570602179E-003;1.940528745763004E-003;
2.406333333333334E+009;1.799059808254242E-001;1.063839998096228E-002;4.097503144294024E-003;1.895967056043446E-003;
2.406500000000000E+009;1.800457984209061E-001;1.024352386593819E-002;4.032651893794537E-003;1.741339568980038E-003;
2.406666666666667E+009;1.800210028886795E-001;1.006015948951244E-002;4.206169862300158E-003;1.643233816139400E-003;
2.406833333333334E+009;1.803615987300873E-001;9.567754343152046E-003;4.160687793046236E-003;1.351674320176244E-003;
2.407000000000000E+009;1.804021745920181E-001;9.115055203437805E-003;4.165816586464644E-003;1.412104698829353E-003;
2.407166666666667E+009;1.805134266614914E-001;8.784736506640911E-003;4.427756648510695E-003;1.129643293097615E-003;
2.407333333333334E+009;1.802151203155518E-001;8.272867649793625E-003;4.328933544456959E-003;1.009143423289061E-003;
2.407500000000000E+009;1.799842864274979E-001;7.980648428201675E-003;4.236300475895405E-003;8.720396435819566E-004;
2.407666666666667E+009;1.798270344734192E-001;7.506609894335270E-003;4.310678690671921E-003;8.173546520993114E-004;
2.407833333333334E+009;1.794854253530502E-001;6.827325094491243E-003;4.354037344455719E-003;6.508856895379722E-004;
2.408000000000000E+009;1.790645420551300E-001;6.229309830814600E-003;4.442693199962378E-003;5.600544391199946E-004;
2.408166666666667E+009;1.786597222089768E-001;5.611115135252476E-003;4.467581398785114E-003;3.851210349239409E-004;
2.408333333333334E+009;1.784091442823410E-001;4.889905918389559E-003;4.537246655672789E-003;1.382837799610570E-004;
2.408500000000000E+009;1.777482479810715E-001;3.975835628807545E-003;4.468193743377924E-003;1.397484011249617E-004;
2.408666666666667E+009;1.772775501012802E-001;2.953715855255723E-003;4.473562818020582E-003;-1.888867700472474E-004;
2.408833333333334E+009;1.763513833284378E-001;1.989386975765228E-003;4.535613115876913E-003;-5.089248224976473E-005;
2.409000000000000E+009;1.759321242570877E-001;9.012313676066697E-004;4.400245379656553E-003;-1.787061337381601E-004;
2.409166666666667E+009;1.752996593713760E-001;-1.715260441415012E-004;4.554045386612415E-003;-5.066062440164387E-004;
2.409333333333334E+009;1.746213287115097E-001;-1.463090768083930E-003;4.438301082700491E-003;-5.086397868581116E-004;
2.409500000000000E+009;1.740458607673645E-001;-2.851346740499139E-003;4.534808918833733E-003;-6.172977155074477E-004;
2.409666666666667E+009;1.731934845447540E-001;-4.174648318439722E-003;4.520897287875414E-003;-9.081192547455430E-004;
2.409833333333334E+009;1.725956946611404E-001;-5.523434840142727E-003;4.500179551541805E-003;-9.932315442711115E-004;
2.410000000000000E+009;1.719014048576355E-001;-6.880274973809719E-003;4.412226844578981E-003;-1.192290917970240E-003;
2.410166666666667E+009;1.714289635419846E-001;-8.651310577988625E-003;4.544720984995365E-003;-1.241258811205626E-003;
2.410333333333334E+009;1.706828027963638E-001;-1.036814507097006E-002;4.381000064313412E-003;-1.427001785486937E-003;
2.410500000000000E+009;1.702093034982681E-001;-1.189993601292372E-002;4.348181188106537E-003;-1.549491658806801E-003;
2.410666666666667E+009;1.697832345962524E-001;-1.389522198587656E-002;4.458612296730280E-003;-1.868897932581604E-003;
2.410833333333334E+009;1.693679243326187E-001;-1.558564510196447E-002;4.129439592361450E-003;-1.935290987603366E-003;
2.411000000000000E+009;1.689519733190537E-001;-1.736173965036869E-002;4.217022098600864E-003;-2.035134239122272E-003;
2.411166666666667E+009;1.686238348484039E-001;-1.910305768251419E-002;4.106789827346802E-003;-2.321902662515640E-003;
2.411333333333334E+009;1.685031503438950E-001;-2.112929709255695E-002;4.069672431796789E-003;-2.261240035295487E-003;
2.411500000000000E+009;1.680370271205902E-001;-2.297922037541866E-002;3.958565182983875E-003;-2.442505210638046E-003;
2.411666666666667E+009;1.682442575693131E-001;-2.498824708163738E-002;3.963778261095285E-003;-2.895235782489181E-003;
2.411833333333334E+009;1.681198924779892E-001;-2.695935405790806E-002;3.766815876588225E-003;-2.925521926954389E-003;
2.412000000000000E+009;1.682792007923126E-001;-2.882532216608524E-002;3.600015072152019E-003;-3.028373699635267E-003;
2.412166666666667E+009;1.681172996759415E-001;-3.081841021776199E-002;3.588931867852807E-003;-3.190142568200827E-003;
2.412333333333334E+009;1.686399132013321E-001;-3.252812474966049E-002;3.460836363956332E-003;-3.364620497450233E-003;
2.412500000000000E+009;1.685582101345062E-001;-3.429984301328659E-002;3.275726456195116E-003;-3.352859523147345E-003;
2.412666666666667E+009;1.690680682659149E-001;-3.629091009497643E-002;3.197405952960253E-003;-3.581705503165722E-003;
2.412833333333334E+009;1.693355590105057E-001;-3.807697817683220E-002;3.016568254679442E-003;-3.784309141337872E-003;
2.413000000000000E+009;1.698883473873138E-001;-3.973538056015968E-002;3.013364505022764E-003;-3.809650428593159E-003;
2.413166666666667E+009;1.700693815946579E-001;-4.146390780806541E-002;2.794122789055109E-003;-3.957457374781370E-003;
2.413333333333334E+009;1.705591529607773E-001;-4.317932203412056E-002;2.679048106074333E-003;-3.970129881054163E-003;
2.413500000000000E+009;1.711144447326660E-001;-4.485588893294334E-002;2.301722299307585E-003;-4.166670143604279E-003;
2.413666666666667E+009;1.716697812080383E-001;-4.641436785459518E-002;2.140577882528305E-003;-4.196732304990292E-003;
2.413833333333334E+009;1.720991283655167E-001;-4.780675470829010E-002;1.976167317479849E-003;-4.224700853228569E-003;
2.414000000000000E+009;1.724757254123688E-001;-4.919004440307617E-002;1.842898200266063E-003;-4.332251846790314E-003;
2.414166666666667E+009;1.731800734996796E-001;-5.031413584947586E-002;1.681250869296491E-003;-4.448858555406332E-003;
2.414333333333334E+009;1.735056042671204E-001;-5.161800235509872E-002;1.459634280763567E-003;-4.489480052143335E-003;
2.414500000000000E+009;1.742452979087830E-001;-5.256806313991547E-002;1.315562170930207E-003;-4.499341361224651E-003;
2.414666666666667E+009;1.747893989086151E-001;-5.367529392242432E-002;1.070671714842320E-003;-4.452575463801622E-003;
2.414833333333334E+009;1.751258820295334E-001;-5.468921363353729E-002;9.984700009226799E-004;-4.512779880315065E-003;
2.415000000000000E+009;1.756229400634766E-001;-5.539238452911377E-002;5.777229671366513E-004;-4.546414129436016E-003;
2.415166666666667E+009;1.759673506021500E-001;-5.630574002861977E-002;6.148934480734170E-004;-4.567945376038551E-003;
2.415333333333334E+009;1.764395833015442E-001;-5.713082477450371E-002;2.705886436160654E-004;-4.496533889323473E-003;
2.415500000000000E+009;1.767389029264450E-001;-5.752636119723320E-002;1.899131457321346E-004;-4.423295147716999E-003;
2.415666666666667E+009;1.768936067819595E-001;-5.799750611186028E-002;5.471007898449898E-005;-4.347479902207851E-003;
2.415833333333334E+009;1.771948635578156E-001;-5.859599262475967E-002;-2.775691682472825E-004;-4.416356794536114E-003;
2.416000000000000E+009;1.772529482841492E-001;-5.897999927401543E-002;-2.532631042413414E-004;-4.323924891650677E-003;
2.416166666666667E+009;1.774426102638245E-001;-5.941583961248398E-002;-4.512154555413872E-004;-4.315103404223919E-003;
2.416333333333334E+009;1.772407442331314E-001;-5.969729647040367E-002;-6.961415638215840E-004;-4.221180919557810E-003;
2.416500000000000E+009;1.771733164787293E-001;-6.007608398795128E-002;-8.359519415535033E-004;-4.202584736049175E-003;
2.416666666666667E+009;1.769455671310425E-001;-6.035285443067551E-002;-8.660933817736805E-004;-4.115839954465628E-003;
2.416833333333334E+009;1.768190413713455E-001;-6.074019894003868E-002;-9.145336225628853E-004;-4.108411259949207E-003;
2.417000000000000E+009;1.762502789497376E-001;-6.101676449179649E-002;-1.184370717965066E-003;-3.936558496206999E-003;
2.417166666666667E+009;1.757646054029465E-001;-6.099551171064377E-002;-1.343266223557293E-003;-3.931414335966110E-003;
2.417333333333334E+009;1.753435134887695E-001;-6.134733930230141E-002;-1.338869449682534E-003;-3.682589856907725E-003;
2.417500000000000E+009;1.746194511651993E-001;-6.174486130475998E-002;-1.372950500808656E-003;-3.707817289978266E-003;
2.417666666666667E+009;1.739882081747055E-001;-6.185079365968704E-002;-1.528810709714890E-003;-3.646435914561153E-003;
2.417833333333334E+009;1.731585264205933E-001;-6.221596151590347E-002;-1.704677590169013E-003;-3.552098525688052E-003;
2.418000000000000E+009;1.723026037216187E-001;-6.272942572832108E-002;-1.727324677631259E-003;-3.354628104716539E-003;
2.418166666666667E+009;1.714254468679428E-001;-6.286763399839401E-002;-1.866064500063658E-003;-3.441101172938943E-003;
2.418333333333334E+009;1.706623733043671E-001;-6.334213912487030E-002;-1.853574649430811E-003;-3.208083333447576E-003;
2.418500000000000E+009;1.694676876068115E-001;-6.380932778120041E-002;-1.980009721592069E-003;-3.232822986319661E-003;
2.418666666666667E+009;1.686143875122070E-001;-6.437277048826218E-002;-2.160104224458337E-003;-3.049362683668733E-003;
2.418833333333334E+009;1.673126518726349E-001;-6.492379307746887E-002;-2.238785382360220E-003;-2.909698057919741E-003;
2.419000000000000E+009;1.660234034061432E-001;-6.553668528795242E-002;-2.103570383042097E-003;-2.890007803216577E-003;
2.419166666666667E+009;1.648306101560593E-001;-6.624966114759445E-002;-2.310362178832293E-003;-2.900394378229976E-003;
2.419333333333334E+009;1.635744124650955E-001;-6.687416136264801E-002;-2.353285672143102E-003;-2.594557125121355E-003;
2.419500000000000E+009;1.625088453292847E-001;-6.787080317735672E-002;-2.559348708018661E-003;-2.723300363868475E-003;
2.419666666666667E+009;1.614210307598114E-001;-6.883256882429123E-002;-2.428008709102869E-003;-2.544608432799578E-003;
2.419833333333334E+009;1.600463390350342E-001;-6.966482847929001E-002;-2.540225628763437E-003;-2.344460226595402E-003;
2.420000000000000E+009;1.591177433729172E-001;-7.069423049688339E-002;-2.715284470468760E-003;-2.431584289297462E-003;
2.420166666666667E+009;1.579971462488174E-001;-7.196571677923203E-002;-2.601011190563440E-003;-2.220034366473556E-003;
2.420333333333334E+009;1.569975763559341E-001;-7.316742837429047E-002;-2.707594772800803E-003;-2.136335941031575E-003;
2.420500000000000E+009;1.559299826622009E-001;-7.412634789943695E-002;-2.920394297689199E-003;-2.222706330940127E-003;
2.420666666666667E+009;1.550797373056412E-001;-7.549983263015747E-002;-2.794233150780201E-003;-2.002990804612637E-003;
2.420833333333334E+009;1.540354043245316E-001;-7.692854851484299E-002;-2.902752486988902E-003;-1.871834741905332E-003;
2.421000000000000E+009;1.533101201057434E-001;-7.844810187816620E-002;-2.936877077445388E-003;-1.777820987626910E-003;
2.421166666666667E+009;1.525327712297440E-001;-8.006224036216736E-002;-3.061105730012059E-003;-1.711445860564709E-003;
2.421333333333334E+009;1.520863026380539E-001;-8.145926147699356E-002;-3.005074802786112E-003;-1.617983914911747E-003;
2.421500000000000E+009;1.513902842998505E-001;-8.303836733102799E-002;-3.242623526602984E-003;-1.569864805787802E-003;
2.421666666666667E+009;1.509136408567429E-001;-8.469763398170471E-002;-3.125998191535473E-003;-1.402220805175602E-003;
2.421833333333334E+009;1.502940952777863E-001;-8.637484163045883E-002;-3.182311309501529E-003;-1.311092404648662E-003;
2.422000000000000E+009;1.499979496002197E-001;-8.801292628049851E-002;-3.219301579520106E-003;-1.173558761365712E-003;
2.422166666666667E+009;1.499045491218567E-001;-8.987925201654434E-002;-3.317913040518761E-003;-1.099909888580442E-003;
2.422333333333334E+009;1.497787982225418E-001;-9.124485403299332E-002;-3.163136774674058E-003;-8.985413587652147E-004;
2.422500000000000E+009;1.494563817977905E-001;-9.283141046762466E-002;-3.345472505316138E-003;-7.551907328888774E-004;
2.422666666666667E+009;1.493742316961289E-001;-9.466028213500977E-002;-3.322489792481065E-003;-7.234847289510071E-004;
2.422833333333334E+009;1.493926197290421E-001;-9.645953774452210E-002;-3.264755941927433E-003;-4.724524624180049E-004;
2.423000000000000E+009;1.497869640588760E-001;-9.816102683544159E-002;-3.155667101964355E-003;-4.580957756843418E-004;
2.423166666666667E+009;1.499725729227066E-001;-9.976617991924286E-002;-3.243098966777325E-003;-3.203896631021053E-004;
2.423333333333334E+009;1.503861844539642E-001;-1.010798960924149E-001;-3.375697648152709E-003;-1.328825746895745E-004;
2.423500000000000E+009;1.505371034145355E-001;-1.025559008121491E-001;-3.379114205017686E-003;-5.654318738379516E-005;
2.423666666666667E+009;1.507201790809631E-001;-1.042254045605660E-001;-3.218931611627340E-003;-1.198565314552980E-005;
2.423833333333334E+009;1.512972861528397E-001;-1.056242510676384E-001;-3.299421165138483E-003;2.590894000604749E-004;
2.424000000000000E+009;1.516070514917374E-001;-1.069555729627609E-001;-3.312997054308653E-003;4.011617857031524E-004;
2.424166666666667E+009;1.518669128417969E-001;-1.081942021846771E-001;-3.306079423055053E-003;5.709672113880515E-004;
2.424333333333334E+009;1.524743437767029E-001;-1.091873496770859E-001;-3.020422300323844E-003;5.226979847066104E-004;
2.424500000000000E+009;1.529860198497772E-001;-1.105662807822228E-001;-3.083780640736222E-003;7.120212540030479E-004;
2.424666666666667E+009;1.535447686910629E-001;-1.113041788339615E-001;-3.062892938032746E-003;8.930715848691762E-004;
2.424833333333334E+009;1.538977771997452E-001;-1.124966889619827E-001;-2.948894398286939E-003;9.558194433338940E-004;
2.425000000000000E+009;1.545082777738571E-001;-1.134340912103653E-001;-2.904750406742096E-003;1.099031302146614E-003;
2.425166666666667E+009;1.544956862926483E-001;-1.141256093978882E-001;-2.815148793160915E-003;1.182022620923817E-003;
2.425333333333334E+009;1.549781262874603E-001;-1.148657053709030E-001;-2.738336101174355E-003;1.468863338232040E-003;
2.425500000000000E+009;1.553199738264084E-001;-1.155928969383240E-001;-2.708259737119079E-003;1.433445257134736E-003;
2.425666666666667E+009;1.555895954370499E-001;-1.161144524812698E-001;-2.513556508347392E-003;1.600438961759210E-003;
2.425833333333334E+009;1.557811349630356E-001;-1.166721060872078E-001;-2.243864815682173E-003;1.552734407596290E-003;
2.426000000000000E+009;1.559899300336838E-001;-1.171980053186417E-001;-2.145103644579649E-003;1.638264395296574E-003;
2.426166666666667E+009;1.561482250690460E-001;-1.175388470292091E-001;-2.208762103691697E-003;1.667275908403099E-003;
2.426333333333334E+009;1.561486423015595E-001;-1.179124191403389E-001;-2.103533595800400E-003;1.713625853881240E-003;
2.426500000000000E+009;1.561257094144821E-001;-1.181423664093018E-001;-1.856119139119983E-003;1.819032593630254E-003;
2.426666666666667E+009;1.562759429216385E-001;-1.183496266603470E-001;-1.766517059877515E-003;1.823667553253472E-003;
2.426833333333334E+009;1.559654325246811E-001;-1.185883879661560E-001;-1.583875971846283E-003;1.788842142559588E-003;
2.427000000000000E+009;1.554745733737946E-001;-1.187681034207344E-001;-1.394783495925367E-003;1.804262166842818E-003;
2.427166666666667E+009;1.551745831966400E-001;-1.188464760780335E-001;-1.548771862871945E-003;1.880818046629429E-003;
2.427333333333334E+009;1.547280848026276E-001;-1.189685612916946E-001;-1.249928493052721E-003;1.831989851780236E-003;
2.427500000000000E+009;1.542268097400665E-001;-1.190263628959656E-001;-1.154671655967832E-003;1.982479589059949E-003;
2.427666666666667E+009;1.535199582576752E-001;-1.192445084452629E-001;-1.106590731069446E-003;1.772023970261216E-003;
