# Version 1.00
#
freq[Hz];re:Trc1_S11;im:Trc1_S11;re:Trc2_S21;im:Trc2_S21;
2.400000000000000E+009;1.582079678773880E-001;6.280965358018875E-002;-4.205120261758566E-003;7.439595647156239E-004;
2.400166666666667E+009;1.580795198678970E-001;6.142834573984146E-002;-4.014761652797461E-003;9.286440326832235E-004;
2.400333333333334E+009;1.579049974679947E-001;5.933280289173126E-002;-3.863964462652803E-003;7.767796632833779E-004;
2.400500000000000E+009;1.577734351158142E-001;5.761756747961044E-002;-3.957364242523909E-003;1.143805100582540E-003;
2.400666666666667E+009;1.576275080442429E-001;5.554363504052162E-002;-3.770679235458374E-003;1.078233472071588E-003;
2.400833333333334E+009;1.579674333333969E-001;5.373331531882286E-002;-3.837015479803085E-003;1.353310421109200E-003;
2.401000000000000E+009;1.578298062086105E-001;5.162733420729637E-002;-3.716212697327137E-003;1.344708376564086E-003;
2.401166666666667E+009;1.579335629940033E-001;4.950741678476334E-002;-3.806292777881026E-003;1.487886183895171E-003;
2.401333333333334E+009;1.580196917057037E-001;4.751528054475784E-002;-3.563995240256190E-003;1.678117667324841E-003;
2.401500000000000E+009;1.583610922098160E-001;4.537088423967362E-002;-3.511219285428524E-003;1.506169326603413E-003;
2.401666666666667E+009;1.586712151765823E-001;4.350876063108444E-002;-3.353612031787634E-003;1.787060755304992E-003;
2.401833333333334E+009;1.588783860206604E-001;4.133911430835724E-002;-3.523885738104582E-003;1.723144203424454E-003;
2.402000000000000E+009;1.591389626264572E-001;3.935116901993752E-002;-3.475704928860068E-003;1.835645525716245E-003;
2.402166666666667E+009;1.596787124872208E-001;3.727209195494652E-002;-3.304051002487540E-003;1.810188521631062E-003;
2.402333333333334E+009;1.601679474115372E-001;3.547942638397217E-002;-3.188187023624778E-003;1.855704933404923E-003;
2.402500000000000E+009;1.610207408666611E-001;3.358843922615051E-002;-3.096982138231397E-003;2.081633545458317E-003;
2.402666666666667E+009;1.616151183843613E-001;3.175519034266472E-002;-3.306219354271889E-003;2.055544871836901E-003;
2.402833333333334E+009;1.622196435928345E-001;3.012921847403050E-002;-3.024295670911670E-003;2.180436393246055E-003;
2.403000000000000E+009;1.632192283868790E-001;2.842068672180176E-002;-3.082926152274013E-003;2.251498401165009E-003;
2.403166666666667E+009;1.639664322137833E-001;2.678524330258369E-002;-3.006923245266080E-003;2.234597923234105E-003;
2.403333333333334E+009;1.647828370332718E-001;2.535141445696354E-002;-2.964563900604844E-003;2.389105968177319E-003;
2.403500000000000E+009;1.657659858465195E-001;2.390137314796448E-002;-2.710200846195221E-003;2.363611711189151E-003;
2.403666666666667E+009;1.666763424873352E-001;2.233131974935532E-002;-2.763690194115043E-003;2.457873662933707E-003;
2.403833333333334E+009;1.678522378206253E-001;2.107366546988487E-002;-2.888826420530677E-003;2.532484242692590E-003;
2.404000000000000E+009;1.687303185462952E-001;1.998688466846943E-002;-2.628550631925464E-003;2.463720506057143E-003;
2.404166666666667E+009;1.696880310773850E-001;1.877401396632195E-002;-2.417262410745025E-003;2.561104716733098E-003;
2.404333333333334E+009;1.705746501684189E-001;1.769306324422360E-002;-2.524638082832098E-003;2.795346081256867E-003;
2.404500000000000E+009;1.715535670518875E-001;1.674242317676544E-002;-2.524937735870481E-003;2.821252681314945E-003;
2.404666666666667E+009;1.725391894578934E-001;1.572148315608501E-002;-2.318304497748613E-003;2.837474690750241E-003;
2.404833333333334E+009;1.736080050468445E-001;1.504472084343433E-002;-2.241221722215414E-003;3.068639663979411E-003;
2.405000000000000E+009;1.745569854974747E-001;1.428441517055035E-002;-2.217055065557361E-003;3.051341278478503E-003;
2.405166666666667E+009;1.752778589725494E-001;1.352188270539045E-002;-2.058201236650348E-003;3.129785647615790E-003;
2.405333333333334E+009;1.763137876987457E-001;1.286205090582371E-002;-2.036261372268200E-003;3.284418955445290E-003;
2.405500000000000E+009;1.770224571228027E-001;1.241273060441017E-002;-1.909105107188225E-003;3.398222615942359E-003;
2.405666666666667E+009;1.778046637773514E-001;1.185450330376625E-002;-1.735710771754384E-003;3.275246592238545E-003;
2.405833333333334E+009;1.782783865928650E-001;1.148889865726233E-002;-1.633464940823615E-003;3.351777559146285E-003;
2.406000000000000E+009;1.789200901985169E-001;1.100027840584517E-002;-1.597734750248492E-003;3.460393287241459E-003;
2.406166666666667E+009;1.795258224010468E-001;1.068932097405195E-002;-1.337436959147453E-003;3.401192137971520E-003;
2.406333333333334E+009;1.800021678209305E-001;1.038231234997511E-002;-1.259599812328816E-003;3.559677861630917E-003;
2.406500000000000E+009;1.804282814264298E-001;1.003816723823547E-002;-8.654382545500994E-004;3.353379899635911E-003;
2.406666666666667E+009;1.805923432111740E-001;9.826100431382656E-003;-9.968098020181060E-004;3.488457063212991E-003;
2.406833333333334E+009;1.808896511793137E-001;9.387465193867683E-003;-8.077804232016206E-004;3.524537896737456E-003;
2.407000000000000E+009;1.810318082571030E-001;9.172881022095680E-003;-6.060497253201902E-004;3.536893520504236E-003;
2.407166666666667E+009;1.811029762029648E-001;8.855359628796578E-003;-5.923413555137813E-004;3.391063772141933E-003;
2.407333333333334E+009;1.810446530580521E-001;8.239815942943096E-003;-5.091722705401480E-004;3.531608730554581E-003;
2.407500000000000E+009;1.809317022562027E-001;8.032431825995445E-003;-1.773438707459718E-004;3.300106385722756E-003;
2.407666666666667E+009;1.808013468980789E-001;7.487232796847820E-003;-2.626129135023803E-004;3.386138007044792E-003;
2.407833333333334E+009;1.804221719503403E-001;6.930536124855280E-003;-1.674246741458774E-004;3.308626124635339E-003;
2.408000000000000E+009;1.800072789192200E-001;6.265317089855671E-003;-5.590340151684359E-005;3.266620682552457E-003;
2.408166666666667E+009;1.796607822179794E-001;5.878225434571505E-003;1.324494223808870E-004;3.140535671263933E-003;
2.408333333333334E+009;1.794281899929047E-001;5.080319009721279E-003;6.775683868909255E-005;3.152774646878243E-003;
2.408500000000000E+009;1.787700206041336E-001;4.339076578617096E-003;8.042876288527623E-005;3.077429952099919E-003;
2.408666666666667E+009;1.782538443803787E-001;3.409816185012460E-003;2.077458775602281E-004;3.058317117393017E-003;
2.408833333333334E+009;1.775339990854263E-001;2.555907471105456E-003;3.035940462723374E-004;2.914491808041930E-003;
2.409000000000000E+009;1.769111901521683E-001;1.546547980979085E-003;4.173732886556536E-004;2.789766527712345E-003;
2.409166666666667E+009;1.763303428888321E-001;4.214584769215435E-004;5.362204974517226E-004;2.876695245504379E-003;
2.409333333333334E+009;1.757039874792099E-001;-7.310038199648261E-004;4.156360519118607E-004;2.843039110302925E-003;
2.409500000000000E+009;1.748086512088776E-001;-2.100285841152072E-003;3.960835165344179E-004;2.682710997760296E-003;
2.409666666666667E+009;1.741114705801010E-001;-3.499202197417617E-003;4.622842534445226E-004;2.718614647164941E-003;
2.409833333333334E+009;1.734247654676437E-001;-4.665887914597988E-003;3.749293682631105E-004;2.737326547503471E-003;
2.410000000000000E+009;1.728460937738419E-001;-6.157454103231430E-003;4.698770644608885E-004;2.561687957495451E-003;
2.410166666666667E+009;1.721552759408951E-001;-7.779944222420454E-003;4.666243039537221E-004;2.594001358374953E-003;
2.410333333333334E+009;1.715323776006699E-001;-9.293821640312672E-003;4.537597415037453E-004;2.582106972113252E-003;
2.410500000000000E+009;1.708786934614182E-001;-1.115556340664625E-002;5.555152310989797E-004;2.585205947980285E-003;
2.410666666666667E+009;1.704312413930893E-001;-1.304380409419537E-002;5.280764307826757E-004;2.597795100882649E-003;
2.410833333333334E+009;1.697209924459457E-001;-1.450689043849707E-002;4.901718930341303E-004;2.662685234099627E-003;
2.411000000000000E+009;1.694405078887940E-001;-1.634377986192703E-002;6.890338845551014E-004;2.581155393272638E-003;
2.411166666666667E+009;1.690370589494705E-001;-1.827167160809040E-002;6.706055137328804E-004;2.680141944438219E-003;
2.411333333333334E+009;1.687201410531998E-001;-2.016521617770195E-002;7.825575303286314E-004;2.460322575643659E-003;
2.411500000000000E+009;1.683591604232788E-001;-2.217041701078415E-002;6.113058188930154E-004;2.515231259167194E-003;
2.411666666666667E+009;1.683517247438431E-001;-2.418494597077370E-002;8.072913624346256E-004;2.460695104673505E-003;
2.411833333333334E+009;1.681316643953323E-001;-2.600274235010147E-002;8.302039932459593E-004;2.622807165607810E-003;
2.412000000000000E+009;1.684432774782181E-001;-2.799508906900883E-002;8.505551377311349E-004;2.649127738550305E-003;
2.412166666666667E+009;1.681813597679138E-001;-2.995261363685131E-002;9.090135572478175E-004;2.585710491985083E-003;
2.412333333333334E+009;1.684069782495499E-001;-3.181417286396027E-002;1.015725545585156E-003;2.738764509558678E-003;
2.412500000000000E+009;1.684536784887314E-001;-3.383613377809525E-002;1.091349055059254E-003;2.631493378430605E-003;
2.412666666666667E+009;1.688460409641266E-001;-3.581889346241951E-002;1.085952389985323E-003;2.623398555442691E-003;
2.412833333333334E+009;1.692752242088318E-001;-3.776564076542854E-002;1.158496015705168E-003;2.468650229275227E-003;
2.413000000000000E+009;1.695164442062378E-001;-3.943078592419624E-002;1.349553000181913E-003;2.575850579887629E-003;
2.413166666666667E+009;1.697671264410019E-001;-4.130925983190537E-002;1.325135352090001E-003;2.499486552551389E-003;
2.413333333333334E+009;1.701962798833847E-001;-4.302270337939262E-002;1.290508196689189E-003;2.565829548984766E-003;
2.413500000000000E+009;1.707410216331482E-001;-4.471048712730408E-002;1.486144959926605E-003;2.543239621445537E-003;
2.413666666666667E+009;1.712350398302078E-001;-4.626776278018951E-002;1.666375086642802E-003;2.463771728798747E-003;
2.413833333333334E+009;1.715037673711777E-001;-4.771544039249420E-002;1.523958635516465E-003;2.361768390983343E-003;
2.414000000000000E+009;1.721005439758301E-001;-4.920856654644013E-002;1.546206185594201E-003;2.411109628155828E-003;
2.414166666666667E+009;1.727787107229233E-001;-5.046824738383293E-002;1.713290461339057E-003;2.383718267083168E-003;
2.414333333333334E+009;1.731668114662170E-001;-5.174273997545242E-002;1.891952939331532E-003;2.355564152821899E-003;
2.414500000000000E+009;1.738894432783127E-001;-5.292968079447746E-002;1.782865147106350E-003;2.249628305435181E-003;
2.414666666666667E+009;1.744492650032044E-001;-5.393094196915627E-002;1.967683201655746E-003;2.198027912527323E-003;
2.414833333333334E+009;1.746920347213745E-001;-5.517468228936195E-002;1.758924336172640E-003;2.142430748790503E-003;
2.415000000000000E+009;1.752305030822754E-001;-5.579620972275734E-002;2.001228509470820E-003;2.277242485433817E-003;
2.415166666666667E+009;1.755635589361191E-001;-5.665154755115509E-002;2.007741946727037E-003;2.165083074942231E-003;
2.415333333333334E+009;1.761751472949982E-001;-5.744483694434166E-002;2.115631243214011E-003;2.018697559833527E-003;
2.415500000000000E+009;1.764901429414749E-001;-5.806301534175873E-002;2.035246463492513E-003;2.023812616243959E-003;
2.415666666666667E+009;1.768661290407181E-001;-5.863853543996811E-002;2.145117847248912E-003;1.964790746569634E-003;
2.415833333333334E+009;1.771327555179596E-001;-5.916518718004227E-002;2.331301802769303E-003;2.005588961765170E-003;
2.416000000000000E+009;1.771090775728226E-001;-5.972400680184364E-002;2.305722562596202E-003;1.899046357721090E-003;
2.416166666666667E+009;1.774264127016068E-001;-5.994182080030441E-002;2.358821220695972E-003;1.913305721245706E-003;
2.416333333333334E+009;1.774968057870865E-001;-6.037819758057594E-002;2.386110834777355E-003;1.771637937054038E-003;
2.416500000000000E+009;1.773455888032913E-001;-6.077034026384354E-002;2.370746340602636E-003;1.635595574043691E-003;
2.416666666666667E+009;1.770804971456528E-001;-6.082203611731529E-002;2.615637145936489E-003;1.679251086898148E-003;
2.416833333333334E+009;1.770483702421188E-001;-6.128367409110069E-002;2.541101537644863E-003;1.604304416105151E-003;
2.417000000000000E+009;1.765544414520264E-001;-6.144873425364494E-002;2.599223982542753E-003;1.546668121591210E-003;
2.417166666666667E+009;1.761475652456284E-001;-6.153471022844315E-002;2.626377623528242E-003;1.562037155963481E-003;
2.417333333333334E+009;1.756752878427506E-001;-6.171819567680359E-002;2.715746639296413E-003;1.448268303647637E-003;
2.417500000000000E+009;1.751527190208435E-001;-6.222059205174446E-002;2.766615012660623E-003;1.396563602611423E-003;
2.417666666666667E+009;1.746221035718918E-001;-6.223680451512337E-002;2.829353790730238E-003;1.244327868334949E-003;
2.417833333333334E+009;1.738270670175552E-001;-6.249868497252464E-002;2.875781618058682E-003;1.199034391902387E-003;
2.418000000000000E+009;1.728027760982513E-001;-6.291614472866058E-002;2.902172971516848E-003;1.190164592117071E-003;
2.418166666666667E+009;1.718609184026718E-001;-6.307225674390793E-002;2.960847225040197E-003;1.174505916424096E-003;
2.418333333333334E+009;1.711836159229279E-001;-6.341679394245148E-002;3.066213801503182E-003;1.034031389281154E-003;
2.418500000000000E+009;1.701434254646301E-001;-6.379063427448273E-002;3.033370245248079E-003;1.031938707455993E-003;
2.418666666666667E+009;1.692320853471756E-001;-6.437852233648300E-002;3.041310003027320E-003;8.476067450828850E-004;
2.418833333333334E+009;1.679401844739914E-001;-6.487893313169479E-002;3.022590186446905E-003;8.634784608148038E-004;
2.419000000000000E+009;1.665123254060745E-001;-6.543545424938202E-002;3.150105476379395E-003;8.279980975203216E-004;
2.419166666666667E+009;1.655363738536835E-001;-6.607099622488022E-002;3.014569869264960E-003;7.269621710292995E-004;
2.419333333333334E+009;1.642879843711853E-001;-6.652588397264481E-002;3.263466060161591E-003;6.889346987009049E-004;
2.419500000000000E+009;1.631853580474854E-001;-6.745693087577820E-002;3.242863109335303E-003;5.657162982970476E-004;
2.419666666666667E+009;1.619835644960403E-001;-6.830336898565292E-002;3.318127011880279E-003;5.027899169363082E-004;
2.419833333333334E+009;1.607155650854111E-001;-6.924249231815338E-002;3.367818193510175E-003;5.762430955655873E-004;
2.420000000000000E+009;1.596532911062241E-001;-7.015038281679153E-002;3.408206626772881E-003;5.290864501148462E-004;
2.420166666666667E+009;1.585767865180969E-001;-7.119531929492950E-002;3.393368562683463E-003;3.837469266727567E-004;
2.420333333333334E+009;1.574281901121140E-001;-7.244763523340225E-002;3.501238767057657E-003;2.963118313346058E-004;
2.420500000000000E+009;1.565468311309815E-001;-7.363377511501312E-002;3.519304562360048E-003;2.356423501623794E-004;
2.420666666666667E+009;1.554594188928604E-001;-7.477150112390518E-002;3.581419354304671E-003;3.037171518371906E-005;
2.420833333333334E+009;1.543356180191040E-001;-7.628851383924484E-002;3.681919071823359E-003;1.265386435989058E-005;
2.421000000000000E+009;1.535247415304184E-001;-7.762255519628525E-002;3.717916319146752E-003;2.560321991040837E-005;
2.421166666666667E+009;1.528648883104324E-001;-7.917243242263794E-002;3.640758106485009E-003;-8.145700121531263E-005;
2.421333333333334E+009;1.521363705396652E-001;-8.081264048814774E-002;3.722729161381722E-003;-3.790698829106987E-004;
2.421500000000000E+009;1.513269543647766E-001;-8.220762014389038E-002;3.858760232105851E-003;-4.075704200658947E-004;
2.421666666666667E+009;1.508218348026276E-001;-8.379812538623810E-002;3.760112682357431E-003;-8.138536359183490E-004;
2.421833333333334E+009;1.503449678421021E-001;-8.544996380805969E-002;3.855081275105476E-003;-7.689445628784597E-004;
2.422000000000000E+009;1.499904692173004E-001;-8.720515668392181E-002;3.843298880383372E-003;-1.075488165952265E-003;
2.422166666666667E+009;1.496130526065826E-001;-8.900216221809387E-002;3.784670028835535E-003;-1.040313276462257E-003;
2.422333333333334E+009;1.494885832071304E-001;-9.056635200977325E-002;3.947329241782427E-003;-1.290065818466246E-003;
2.422500000000000E+009;1.492850780487061E-001;-9.219247102737427E-002;3.697370644658804E-003;-1.306626014411449E-003;
2.422666666666667E+009;1.491080075502396E-001;-9.400203824043274E-002;3.681207075715065E-003;-1.552955131046474E-003;
2.422833333333334E+009;1.492626518011093E-001;-9.567294269800186E-002;3.705625189468265E-003;-1.780926249921322E-003;
2.423000000000000E+009;1.494420021772385E-001;-9.727265685796738E-002;3.635094035416842E-003;-1.886069308966398E-003;
2.423166666666667E+009;1.496198028326035E-001;-9.894105046987534E-002;3.553330199792981E-003;-2.096665324643254E-003;
2.423333333333334E+009;1.499702334403992E-001;-1.005065962672234E-001;3.585110418498516E-003;-2.151017310097814E-003;
2.423500000000000E+009;1.501245349645615E-001;-1.021105870604515E-001;3.492390736937523E-003;-2.250106539577246E-003;
2.423666666666667E+009;1.503972113132477E-001;-1.036587059497833E-001;3.329394850879908E-003;-2.550220815464854E-003;
2.423833333333334E+009;1.508864909410477E-001;-1.051103621721268E-001;3.319879528135061E-003;-2.686371095478535E-003;
2.424000000000000E+009;1.512937247753143E-001;-1.064523756504059E-001;3.176490310579538E-003;-2.650867449119687E-003;
2.424166666666667E+009;1.515795141458511E-001;-1.078841462731361E-001;3.002893412485719E-003;-2.895818557590246E-003;
2.424333333333334E+009;1.521550118923187E-001;-1.091458648443222E-001;2.873840508982539E-003;-2.959291683509946E-003;
2.424500000000000E+009;1.526736617088318E-001;-1.102071106433868E-001;2.532318467274308E-003;-3.086744807660580E-003;
2.424666666666667E+009;1.533206999301910E-001;-1.112769395112991E-001;2.540749032050371E-003;-3.262051846832037E-003;
2.424833333333334E+009;1.535567045211792E-001;-1.123924776911736E-001;2.477757399901748E-003;-3.211813978850842E-003;
2.425000000000000E+009;1.541656702756882E-001;-1.134175360202789E-001;2.445614431053400E-003;-3.476829035207629E-003;
2.425166666666667E+009;1.543007493019104E-001;-1.141715347766876E-001;2.194083761423826E-003;-3.436633851379156E-003;
2.425333333333334E+009;1.549036353826523E-001;-1.150052398443222E-001;1.946726115420461E-003;-3.390484955161810E-003;
2.425500000000000E+009;1.552591472864151E-001;-1.157592535018921E-001;1.818317337892950E-003;-3.447307506576181E-003;
2.425666666666667E+009;1.554834991693497E-001;-1.164086535573006E-001;1.756718964315951E-003;-3.380984999239445E-003;
2.425833333333334E+009;1.558768749237061E-001;-1.169364377856255E-001;1.674410537816584E-003;-3.295187139883637E-003;
2.426000000000000E+009;1.561220288276672E-001;-1.175519153475761E-001;1.500831102021039E-003;-3.529921872541308E-003;
2.426166666666667E+009;1.563627570867539E-001;-1.179430261254311E-001;1.421292079612613E-003;-3.600678406655788E-003;
2.426333333333334E+009;1.562424302101135E-001;-1.183434203267098E-001;1.270498032681644E-003;-3.473189426586032E-003;
2.426500000000000E+009;1.564481556415558E-001;-1.185349524021149E-001;1.034192973747850E-003;-3.576184390112758E-003;
2.426666666666667E+009;1.564945131540299E-001;-1.186651736497879E-001;1.006383565254509E-003;-3.438806626945734E-003;
2.426833333333334E+009;1.562658250331879E-001;-1.189061179757118E-001;9.236619225703180E-004;-3.418972482904792E-003;
2.427000000000000E+009;1.559516191482544E-001;-1.191480755805969E-001;7.680858834646642E-004;-3.603090066462755E-003;
2.427166666666667E+009;1.554863452911377E-001;-1.191875934600830E-001;6.025711772963405E-004;-3.541966201737523E-003;
2.427333333333334E+009;1.551344394683838E-001;-1.193041726946831E-001;5.834205076098442E-004;-3.452270058915019E-003;
2.427500000000000E+009;1.546622514724731E-001;-1.193525195121765E-001;4.686097381636500E-004;-3.304617013782263E-003;
2.427666666666667E+009;1.540221422910690E-001;-1.195892617106438E-001;5.578030250035226E-004;-3.355665598064661E-003;
2.427833333333334E+009;1.531744599342346E-001;-1.196172982454300E-001;3.983952046837658E-004;-3.369448939338327E-003;
