# Version 1.00
#
freq[Hz];re:Trc1_S11;im:Trc1_S11;re:Trc2_S21;im:Trc2_S21;
2.400000000000000E+009;1.583375632762909E-001;6.273683160543442E-002;-4.122450016438961E-003;7.035880116745830E-004;
2.400166666666667E+009;1.583996713161469E-001;6.109663471579552E-002;-3.877779236063361E-003;9.300481760874391E-004;
2.400333333333334E+009;1.580048948526382E-001;5.927119776606560E-002;-3.856496652588248E-003;9.129611426033080E-004;
2.400500000000000E+009;1.580799221992493E-001;5.738450959324837E-002;-3.822045866400003E-003;9.615705930627883E-004;
2.400666666666667E+009;1.578782945871353E-001;5.553188547492027E-002;-3.833769354969263E-003;1.141037908382714E-003;
2.400833333333334E+009;1.578274369239807E-001;5.363939329981804E-002;-3.889490151777864E-003;1.127438037656248E-003;
2.401000000000000E+009;1.579441130161285E-001;5.145362019538879E-002;-3.710031509399414E-003;1.425463589839637E-003;
2.401166666666667E+009;1.581151932477951E-001;4.931322857737541E-002;-3.672775113955140E-003;1.252951216883957E-003;
2.401333333333334E+009;1.579578220844269E-001;4.739454388618469E-002;-3.737176302820444E-003;1.467528287321329E-003;
2.401500000000000E+009;1.583935171365738E-001;4.537857323884964E-002;-3.635213011875749E-003;1.442154520191252E-003;
2.401666666666667E+009;1.585665494203568E-001;4.336487129330635E-002;-3.432246390730143E-003;1.513567287474871E-003;
2.401833333333334E+009;1.589765101671219E-001;4.134909063577652E-002;-3.488265443593264E-003;1.694273552857339E-003;
2.402000000000000E+009;1.592143774032593E-001;3.941445425152779E-002;-3.379201749339700E-003;1.649114536121488E-003;
2.402166666666667E+009;1.596954464912415E-001;3.727480396628380E-002;-3.394864965230227E-003;1.796076539903879E-003;
2.402333333333334E+009;1.603591442108154E-001;3.543674200773239E-002;-3.373888321220875E-003;1.780761987902224E-003;
2.402500000000000E+009;1.609552800655365E-001;3.354929387569428E-002;-3.256273921579123E-003;1.965653151273727E-003;
2.402666666666667E+009;1.614087522029877E-001;3.170209378004074E-002;-3.015526104718447E-003;1.966364216059446E-003;
2.402833333333334E+009;1.622791290283203E-001;3.007927909493446E-002;-3.000721335411072E-003;2.005992922931910E-003;
2.403000000000000E+009;1.629756838083267E-001;2.825786173343658E-002;-3.128318814560771E-003;2.226229058578610E-003;
2.403166666666667E+009;1.640653759241104E-001;2.668920159339905E-002;-2.921101637184620E-003;2.106555737555027E-003;
2.403333333333334E+009;1.647859811782837E-001;2.538532949984074E-002;-2.894597360864282E-003;2.242896705865860E-003;
2.403500000000000E+009;1.656778305768967E-001;2.367577701807022E-002;-2.914573065936565E-003;2.310481853783131E-003;
2.403666666666667E+009;1.666913330554962E-001;2.242706343531609E-002;-2.781860763207078E-003;2.344764536246657E-003;
2.403833333333334E+009;1.677676886320114E-001;2.108668722212315E-002;-2.817028900608420E-003;2.577780978754163E-003;
2.404000000000000E+009;1.687054932117462E-001;1.978073827922344E-002;-2.669109031558037E-003;2.438433701172471E-003;
2.404166666666667E+009;1.696130931377411E-001;1.872052438557148E-002;-2.626141766086221E-003;2.567539224401116E-003;
2.404333333333334E+009;1.705633103847504E-001;1.764596626162529E-002;-2.567589050158858E-003;2.637711120769382E-003;
2.404500000000000E+009;1.716046780347824E-001;1.661134511232376E-002;-2.462163101881743E-003;2.818535780534148E-003;
2.404666666666667E+009;1.725921928882599E-001;1.575646176934242E-002;-2.341322833672166E-003;3.045386401936412E-003;
2.404833333333334E+009;1.734205037355423E-001;1.481528952717781E-002;-2.260222798213363E-003;2.853717422112823E-003;
2.405000000000000E+009;1.744664162397385E-001;1.405575685203075E-002;-2.238069660961628E-003;2.932941773906350E-003;
2.405166666666667E+009;1.752696484327316E-001;1.349254418164492E-002;-2.101173158735037E-003;2.997094299644232E-003;
2.405333333333334E+009;1.761788725852966E-001;1.279473491013050E-002;-1.985938986763358E-003;3.158835461363196E-003;
2.405500000000000E+009;1.770894676446915E-001;1.227658614516258E-002;-1.851281034760177E-003;3.264282830059528E-003;
2.405666666666667E+009;1.777475625276566E-001;1.194802857935429E-002;-1.894626650027931E-003;3.357290988788009E-003;
2.405833333333334E+009;1.784384250640869E-001;1.147513650357723E-002;-1.890048268251121E-003;3.274981630966067E-003;
2.406000000000000E+009;1.790614724159241E-001;1.099055539816618E-002;-1.637933892197907E-003;3.356286790221930E-003;
2.406166666666667E+009;1.794004589319229E-001;1.067685801535845E-002;-1.441310741938651E-003;3.437876002863050E-003;
2.406333333333334E+009;1.802061796188355E-001;1.039210148155689E-002;-1.235675066709518E-003;3.388344543054700E-003;
2.406500000000000E+009;1.803787201642990E-001;1.004013605415821E-002;-1.146261231042445E-003;3.518627956509590E-003;
2.406666666666667E+009;1.804323643445969E-001;9.760378859937191E-003;-1.000213902443647E-003;3.459365339949727E-003;
2.406833333333334E+009;1.808832883834839E-001;9.362724609673023E-003;-8.411046001128852E-004;3.525253618136048E-003;
2.407000000000000E+009;1.810225397348404E-001;9.038806892931461E-003;-6.435925024561584E-004;3.511961083859205E-003;
2.407166666666667E+009;1.812417805194855E-001;8.850308135151863E-003;-4.846777592319995E-004;3.537305397912860E-003;
2.407333333333334E+009;1.810252666473389E-001;8.293028920888901E-003;-4.556318745017052E-004;3.426696173846722E-003;
2.407500000000000E+009;1.811597496271133E-001;7.947202771902084E-003;-4.649627371691167E-004;3.388841403648257E-003;
2.407666666666667E+009;1.808572560548782E-001;7.461970206350088E-003;-1.148309384007007E-004;3.365754848346114E-003;
2.407833333333334E+009;1.803353130817413E-001;6.943035870790482E-003;3.264526094426401E-005;3.321254625916481E-003;
2.408000000000000E+009;1.800993978977203E-001;6.266376003623009E-003;2.110784771502949E-005;3.184634959325194E-003;
2.408166666666667E+009;1.798473149538040E-001;5.765139590948820E-003;5.612321911030449E-005;3.178452607244253E-003;
2.408333333333334E+009;1.794788092374802E-001;5.147042684257031E-003;1.851557026384398E-004;3.001869190484285E-003;
2.408500000000000E+009;1.788653880357742E-001;4.272677935659885E-003;2.691984700504690E-004;3.079113084822893E-003;
2.408666666666667E+009;1.782648116350174E-001;3.412428777664900E-003;2.729060070123524E-004;2.862717257812619E-003;
2.408833333333334E+009;1.775374561548233E-001;2.416988601908088E-003;3.750558244064450E-004;2.846773946657777E-003;
2.409000000000000E+009;1.768857091665268E-001;1.574969850480557E-003;3.956657310482115E-004;2.997564617544413E-003;
2.409166666666667E+009;1.764010041952133E-001;3.626420511864126E-004;4.060862120240927E-004;2.658609766513109E-003;
2.409333333333334E+009;1.757244020700455E-001;-9.695164044387639E-004;4.804195195902139E-004;2.671412425115705E-003;
2.409500000000000E+009;1.749315559864044E-001;-2.148217055946589E-003;2.555328828748316E-004;2.666302956640720E-003;
2.409666666666667E+009;1.742096245288849E-001;-3.484958782792091E-003;6.128229433670640E-004;2.605227520689368E-003;
2.409833333333334E+009;1.732841879129410E-001;-4.876478109508753E-003;5.709039978682995E-004;2.516665961593390E-003;
2.410000000000000E+009;1.728402674198151E-001;-6.246410775929689E-003;5.091943894512951E-004;2.698785625398159E-003;
2.410166666666667E+009;1.721918135881424E-001;-7.785398978739977E-003;5.550155765376985E-004;2.488584024831653E-003;
2.410333333333334E+009;1.713575422763825E-001;-9.483130648732185E-003;5.515572265721858E-004;2.369052730500698E-003;
2.410500000000000E+009;1.706941574811935E-001;-1.101104822009802E-002;5.492547061294317E-004;2.526247641071677E-003;
2.410666666666667E+009;1.701547652482987E-001;-1.302318368107081E-002;4.870356642641127E-004;2.352037467062473E-003;
2.410833333333334E+009;1.698576211929321E-001;-1.451573986560106E-002;5.975692765787244E-004;2.370370784774423E-003;
2.411000000000000E+009;1.692967116832733E-001;-1.637488044798374E-002;4.796799039468169E-004;2.570277778431773E-003;
2.411166666666667E+009;1.690784394741058E-001;-1.844050921499729E-002;6.073309923522174E-004;2.504913834854960E-003;
2.411333333333334E+009;1.685881167650223E-001;-2.021280489861965E-002;6.338661187328398E-004;2.439036732539535E-003;
2.411500000000000E+009;1.684814095497131E-001;-2.222065255045891E-002;7.552807801403105E-004;2.541319932788611E-003;
2.411666666666667E+009;1.683108955621719E-001;-2.423222176730633E-002;7.345927297137678E-004;2.678624587133527E-003;
2.411833333333334E+009;1.681381016969681E-001;-2.617785893380642E-002;8.209279621951282E-004;2.419325988739729E-003;
2.412000000000000E+009;1.682228296995163E-001;-2.806725911796093E-002;8.055166108533740E-004;2.506100339815021E-003;
2.412166666666667E+009;1.680366396903992E-001;-2.990009263157845E-002;8.824322139844298E-004;2.566713141277432E-003;
2.412333333333334E+009;1.683790087699890E-001;-3.186750039458275E-002;9.226484689861536E-004;2.576281549409032E-003;
2.412500000000000E+009;1.685332953929901E-001;-3.387816995382309E-002;9.450842626392841E-004;2.584356581792235E-003;
2.412666666666667E+009;1.689254939556122E-001;-3.570282831788063E-002;1.185460947453976E-003;2.517342101782560E-003;
2.412833333333334E+009;1.691261827945709E-001;-3.779602050781250E-002;1.075121923349798E-003;2.647302579134703E-003;
2.413000000000000E+009;1.693639755249023E-001;-3.936556726694107E-002;1.216513453982770E-003;2.446871483698487E-003;
2.413166666666667E+009;1.697382032871246E-001;-4.124669358134270E-002;1.292846514843404E-003;2.659949474036694E-003;
2.413333333333334E+009;1.701316088438034E-001;-4.294802621006966E-002;1.412816462107003E-003;2.577339764684439E-003;
2.413500000000000E+009;1.708541810512543E-001;-4.458516463637352E-002;1.408576965332031E-003;2.318615792319179E-003;
2.413666666666667E+009;1.711643040180206E-001;-4.615821316838265E-002;1.638004323467612E-003;2.532803919166327E-003;
2.413833333333334E+009;1.716041713953018E-001;-4.776699468493462E-002;1.603792305104435E-003;2.430427120998502E-003;
2.414000000000000E+009;1.720992773771286E-001;-4.931622743606567E-002;1.616221503354609E-003;2.370165428146720E-003;
2.414166666666667E+009;1.728297621011734E-001;-5.065053701400757E-002;1.782808918505907E-003;2.383808139711618E-003;
2.414333333333334E+009;1.733150482177734E-001;-5.184705927968025E-002;1.941593131050468E-003;2.235762076452375E-003;
2.414500000000000E+009;1.739550977945328E-001;-5.304016545414925E-002;1.788969850167632E-003;2.371683018282056E-003;
2.414666666666667E+009;1.743346154689789E-001;-5.407173186540604E-002;1.821835176087916E-003;2.291475655511022E-003;
2.414833333333334E+009;1.749004423618317E-001;-5.513713136315346E-002;2.035766839981079E-003;2.129410859197378E-003;
2.415000000000000E+009;1.751782298088074E-001;-5.602360144257546E-002;2.157183131203055E-003;2.189255785197020E-003;
2.415166666666667E+009;1.757158488035202E-001;-5.690012127161026E-002;1.967839431017637E-003;2.140643540769815E-003;
2.415333333333334E+009;1.762164533138275E-001;-5.767565220594406E-002;2.088983077555895E-003;2.093060873448849E-003;
2.415500000000000E+009;1.765987575054169E-001;-5.821086838841438E-002;2.296295948326588E-003;1.902891905047000E-003;
2.415666666666667E+009;1.768313348293304E-001;-5.874678492546082E-002;2.352530136704445E-003;2.088197274133563E-003;
2.415833333333334E+009;1.771686673164368E-001;-5.929562821984291E-002;2.375656971707940E-003;1.868809806182981E-003;
2.416000000000000E+009;1.771031022071838E-001;-5.971357971429825E-002;2.447124570608139E-003;1.782472943887115E-003;
2.416166666666667E+009;1.773731112480164E-001;-6.018720939755440E-002;2.421161392703652E-003;1.951887272298336E-003;
2.416333333333334E+009;1.773410588502884E-001;-6.045091524720192E-002;2.330519026145339E-003;1.843989361077547E-003;
2.416500000000000E+009;1.773652285337448E-001;-6.075684353709221E-002;2.528106328099966E-003;1.597961410880089E-003;
2.416666666666667E+009;1.770960986614227E-001;-6.098425388336182E-002;2.544113900512457E-003;1.541075878776610E-003;
2.416833333333334E+009;1.769906878471375E-001;-6.141131743788719E-002;2.507735509425402E-003;1.587091130204499E-003;
2.417000000000000E+009;1.764514297246933E-001;-6.166973337531090E-002;2.678919350728393E-003;1.524098217487335E-003;
2.417166666666667E+009;1.760835647583008E-001;-6.177324801683426E-002;2.748755970969796E-003;1.386053161695600E-003;
2.417333333333334E+009;1.756188124418259E-001;-6.191227957606316E-002;2.608075970783830E-003;1.468086848035455E-003;
2.417500000000000E+009;1.749899238348007E-001;-6.228262558579445E-002;2.887417329475284E-003;1.442125649191439E-003;
2.417666666666667E+009;1.745174974203110E-001;-6.243030726909638E-002;2.764381933957338E-003;1.436632359400392E-003;
2.417833333333334E+009;1.736811250448227E-001;-6.263392418622971E-002;2.912910887971520E-003;1.153964432887733E-003;
2.418000000000000E+009;1.728081256151199E-001;-6.301906704902649E-002;3.008077619597316E-003;1.063828240148723E-003;
2.418166666666667E+009;1.719290167093277E-001;-6.316003948450089E-002;2.945537911728025E-003;1.046619843691587E-003;
2.418333333333334E+009;1.712482571601868E-001;-6.345444172620773E-002;3.122714580968022E-003;9.966089855879545E-004;
2.418500000000000E+009;1.701078861951828E-001;-6.390373408794403E-002;3.052937565371394E-003;1.008834806270897E-003;
2.418666666666667E+009;1.691325753927231E-001;-6.437850743532181E-002;3.032474778592587E-003;1.055623288266361E-003;
2.418833333333334E+009;1.678479164838791E-001;-6.495079398155212E-002;3.161173313856125E-003;7.795878918841481E-004;
2.419000000000000E+009;1.667041927576065E-001;-6.551859527826309E-002;3.235510550439358E-003;7.852885755710304E-004;
2.419166666666667E+009;1.655323803424835E-001;-6.618104130029678E-002;3.258140292018652E-003;7.656697998754680E-004;
2.419333333333334E+009;1.640393435955048E-001;-6.658749282360077E-002;3.351386636495590E-003;6.795375375077128E-004;
2.419500000000000E+009;1.630367934703827E-001;-6.756936758756638E-002;3.238552948459983E-003;7.238783291541040E-004;
2.419666666666667E+009;1.620512008666992E-001;-6.847979128360748E-002;3.347252961248159E-003;5.111626232974231E-004;
2.419833333333334E+009;1.607382148504257E-001;-6.911979615688324E-002;3.351827384904027E-003;3.486980276647955E-004;
2.420000000000000E+009;1.596247255802155E-001;-7.027016580104828E-002;3.330503124743700E-003;3.432539524510503E-004;
2.420166666666667E+009;1.584648489952087E-001;-7.126031070947647E-002;3.451220225542784E-003;3.958604938816279E-004;
2.420333333333334E+009;1.573581248521805E-001;-7.263852655887604E-002;3.444170113652945E-003;2.636737481225282E-004;
2.420500000000000E+009;1.563197970390320E-001;-7.362630963325501E-002;3.631063969805837E-003;2.127237385138869E-004;
2.420666666666667E+009;1.553746610879898E-001;-7.483790814876556E-002;3.556777257472277E-003;8.077876555034891E-005;
2.420833333333334E+009;1.544259190559387E-001;-7.626470923423767E-002;3.625690238550305E-003;7.560171070508659E-005;
2.421000000000000E+009;1.533463299274445E-001;-7.775170356035233E-002;3.585293190553784E-003;-3.196467296220362E-004;
2.421166666666667E+009;1.527153551578522E-001;-7.919679582118988E-002;3.563148668035865E-003;-2.684755017980933E-004;
2.421333333333334E+009;1.521708518266678E-001;-8.085241913795471E-002;3.765011206269264E-003;-4.740604199469090E-004;
2.421500000000000E+009;1.514202803373337E-001;-8.223906904459000E-002;3.735487582162023E-003;-4.450612177606672E-004;
2.421666666666667E+009;1.508326530456543E-001;-8.372037112712860E-002;3.810741705819964E-003;-6.256960332393646E-004;
2.421833333333334E+009;1.504824906587601E-001;-8.550214767456055E-002;3.699072403833270E-003;-7.535016047768295E-004;
2.422000000000000E+009;1.499059796333313E-001;-8.713239431381226E-002;3.763200482353568E-003;-8.968646288849413E-004;
2.422166666666667E+009;1.497432589530945E-001;-8.907562494277954E-002;3.720831824466586E-003;-1.068425481207669E-003;
2.422333333333334E+009;1.495037227869034E-001;-9.060387313365936E-002;3.853169502690435E-003;-1.187062938697636E-003;
2.422500000000000E+009;1.493771523237228E-001;-9.216987341642380E-002;3.849868895485997E-003;-1.457377918995917E-003;
2.422666666666667E+009;1.492345929145813E-001;-9.405834227800369E-002;3.793955082073808E-003;-1.736711477860808E-003;
2.422833333333334E+009;1.493322402238846E-001;-9.583913534879684E-002;3.678958630189300E-003;-1.681592315435410E-003;
2.423000000000000E+009;1.494087129831314E-001;-9.718603640794754E-002;3.665323602035642E-003;-1.819473691284657E-003;
2.423166666666667E+009;1.496419459581375E-001;-9.901788085699081E-002;3.506514942273498E-003;-2.039553597569466E-003;
2.423333333333334E+009;1.499796956777573E-001;-1.003944203257561E-001;3.468258772045374E-003;-2.247759141027927E-003;
2.423500000000000E+009;1.501927375793457E-001;-1.020834818482399E-001;3.486854955554009E-003;-2.271316479891539E-003;
2.423666666666667E+009;1.503127366304398E-001;-1.037483140826225E-001;3.373581450432539E-003;-2.538573462516069E-003;
2.423833333333334E+009;1.508854776620865E-001;-1.050630062818527E-001;3.378224791958928E-003;-2.674847608432174E-003;
2.424000000000000E+009;1.512508988380432E-001;-1.064891219139099E-001;3.033080371096730E-003;-2.812927355989814E-003;
2.424166666666667E+009;1.517085134983063E-001;-1.078450456261635E-001;2.998561598360539E-003;-2.926352899521589E-003;
2.424333333333334E+009;1.521381586790085E-001;-1.091604754328728E-001;2.847542986273766E-003;-2.849010983482003E-003;
2.424500000000000E+009;1.527004688978195E-001;-1.103960424661636E-001;2.602004911750555E-003;-3.065307391807437E-003;
2.424666666666667E+009;1.533175110816956E-001;-1.112877726554871E-001;2.486862940713763E-003;-3.128787036985159E-003;
2.424833333333334E+009;1.535703837871552E-001;-1.123314127326012E-001;2.461937256157398E-003;-3.216386307030916E-003;
2.425000000000000E+009;1.541472077369690E-001;-1.134287565946579E-001;2.313442295417190E-003;-3.175027668476105E-003;
2.425166666666667E+009;1.543475538492203E-001;-1.142525523900986E-001;2.181985182687640E-003;-3.472589422017336E-003;
2.425333333333334E+009;1.548752337694168E-001;-1.150759458541870E-001;2.030991017818451E-003;-3.311623353511095E-003;
2.425500000000000E+009;1.554006934165955E-001;-1.158672347664833E-001;1.864683465100825E-003;-3.463209141045809E-003;
2.425666666666667E+009;1.555211991071701E-001;-1.163711473345757E-001;1.922318362630904E-003;-3.549934597685933E-003;
2.425833333333334E+009;1.557922661304474E-001;-1.171484068036079E-001;1.629300182685256E-003;-3.396317129954696E-003;
2.426000000000000E+009;1.560405492782593E-001;-1.175630912184715E-001;1.416846876963973E-003;-3.599613439291716E-003;
2.426166666666667E+009;1.563797295093536E-001;-1.180934682488442E-001;1.211426570080221E-003;-3.560372861102223E-003;
2.426333333333334E+009;1.562801003456116E-001;-1.181904226541519E-001;1.230004127137363E-003;-3.466674126684666E-003;
2.426500000000000E+009;1.562640815973282E-001;-1.185814291238785E-001;1.071387319825590E-003;-3.541465615853667E-003;
2.426666666666667E+009;1.563046276569367E-001;-1.187710613012314E-001;1.113653066568077E-003;-3.588788444176316E-003;
2.426833333333334E+009;1.560986638069153E-001;-1.189333572983742E-001;8.021337562240660E-004;-3.403702052310109E-003;
2.427000000000000E+009;1.558711975812912E-001;-1.193030327558518E-001;7.449145196005702E-004;-3.592019435018301E-003;
2.427166666666667E+009;1.555264741182327E-001;-1.191339641809464E-001;6.830757483839989E-004;-3.565612714737654E-003;
2.427333333333334E+009;1.550761014223099E-001;-1.193798705935478E-001;6.086191860958934E-004;-3.623192431405187E-003;
2.427500000000000E+009;1.546455621719360E-001;-1.194872111082077E-001;6.063198088668287E-004;-3.526546293869615E-003;
2.427666666666667E+009;1.538698524236679E-001;-1.196336001157761E-001;5.928092286922038E-004;-3.430913435295224E-003;
2.427833333333334E+009;1.531912982463837E-001;-1.197147592902184E-001;3.100231697317213E-004;-3.388978308066726E-003;
