# Version 1.00
#
freq[Hz];re:Trc1_S11;im:Trc1_S11;re:Trc2_S21;im:Trc2_S21;
2.400000000000000E+009;1.555005311965942E-001;1.070709675550461E-001;2.988891443237662E-003;-2.449871739372611E-003;
2.400166666666667E+009;1.551606357097626E-001;1.045098528265953E-001;2.981025492772460E-003;-2.323624910786748E-003;
2.400333333333334E+009;1.553469896316528E-001;1.022111773490906E-001;2.675042720511556E-003;-2.242299960926175E-003;
2.400500000000000E+009;1.553449928760529E-001;9.952349960803986E-002;2.623441629111767E-003;-1.969619421288371E-003;
2.400666666666667E+009;1.552332639694214E-001;9.698670357465744E-002;2.761238720268011E-003;-1.588290324434638E-003;
2.400833333333334E+009;1.551386117935181E-001;9.414141625165939E-002;2.718051895499229E-003;-1.462847227230668E-003;
2.401000000000000E+009;1.554427295923233E-001;9.122359007596970E-002;2.930405084043741E-003;-1.212017610669136E-003;
2.401166666666667E+009;1.552979201078415E-001;8.853095024824143E-002;3.137814113870263E-003;-1.218949444591999E-003;
2.401333333333334E+009;1.558546572923660E-001;8.571477234363556E-002;3.279650118201971E-003;-1.158933504484594E-003;
2.401500000000000E+009;1.562206745147705E-001;8.273977786302567E-002;3.444711212068796E-003;-1.132205827161670E-003;
2.401666666666667E+009;1.566137969493866E-001;7.977283000946045E-002;3.693337086588144E-003;-1.219325466081500E-003;
2.401833333333334E+009;1.571659445762634E-001;7.712031900882721E-002;3.835429437458515E-003;-1.204546657390893E-003;
2.402000000000000E+009;1.579470634460449E-001;7.436937093734741E-002;4.158385097980499E-003;-1.365767442621291E-003;
2.402166666666667E+009;1.586953252553940E-001;7.181854546070099E-002;4.144686274230480E-003;-1.609016093425453E-003;
2.402333333333334E+009;1.596480309963226E-001;6.917273253202438E-002;4.274063277989626E-003;-1.878476352430880E-003;
2.402500000000000E+009;1.608229130506516E-001;6.664749979972839E-002;4.454595968127251E-003;-2.201248193159699E-003;
2.402666666666667E+009;1.620030254125595E-001;6.403239816427231E-002;4.381746519356966E-003;-2.458337694406509E-003;
2.402833333333334E+009;1.634102016687393E-001;6.173742935061455E-002;4.286284558475018E-003;-2.626683562994003E-003;
2.403000000000000E+009;1.648474484682083E-001;5.922316759824753E-002;4.252778366208077E-003;-2.927504479885101E-003;
2.403166666666667E+009;1.665729880332947E-001;5.712227150797844E-002;4.329635296016932E-003;-3.221046645194292E-003;
2.403333333333334E+009;1.681252419948578E-001;5.490750819444656E-002;4.069007933139801E-003;-3.396241925656796E-003;
2.403500000000000E+009;1.698339730501175E-001;5.286526679992676E-002;4.087525885552168E-003;-3.458468243479729E-003;
2.403666666666667E+009;1.715366244316101E-001;5.079364404082298E-002;3.932266030460596E-003;-3.464419627562165E-003;
2.403833333333334E+009;1.731677502393723E-001;4.903106018900871E-002;3.839255776256323E-003;-3.763322252780199E-003;
2.404000000000000E+009;1.745412945747376E-001;4.738932847976685E-002;3.882125951349735E-003;-3.848119638860226E-003;
2.404166666666667E+009;1.764922738075256E-001;4.565440118312836E-002;3.660827176645398E-003;-3.911260049790144E-003;
2.404333333333334E+009;1.780530512332916E-001;4.419193416833878E-002;3.733084304258227E-003;-4.205475561320782E-003;
2.404500000000000E+009;1.797764897346497E-001;4.272836074233055E-002;3.569910535588861E-003;-4.227055236697197E-003;
2.404666666666667E+009;1.815461516380310E-001;4.174870252609253E-002;3.411193378269672E-003;-4.353950265794992E-003;
2.404833333333334E+009;1.832291334867477E-001;4.059105738997459E-002;3.516771132126451E-003;-4.592038225382567E-003;
2.405000000000000E+009;1.846240162849426E-001;3.997726365923882E-002;3.213190706446767E-003;-4.758920054882765E-003;
2.405166666666667E+009;1.860540062189102E-001;3.913326561450958E-002;3.366380929946899E-003;-4.897045437246561E-003;
2.405333333333334E+009;1.874720454216003E-001;3.866925090551376E-002;3.078174777328968E-003;-4.946821834892035E-003;
2.405500000000000E+009;1.888080388307571E-001;3.808720782399178E-002;2.911000046879053E-003;-5.453617312014103E-003;
2.405666666666667E+009;1.901358366012573E-001;3.800540417432785E-002;2.673611044883728E-003;-5.530140828341246E-003;
2.405833333333334E+009;1.913390755653381E-001;3.765131160616875E-002;2.559668384492397E-003;-5.670483224093914E-003;
2.406000000000000E+009;1.923583596944809E-001;3.757483139634132E-002;2.217550761997700E-003;-5.686744116246700E-003;
2.406166666666667E+009;1.934359818696976E-001;3.732874989509583E-002;2.064732834696770E-003;-5.666784476488829E-003;
2.406333333333334E+009;1.942743211984634E-001;3.737827762961388E-002;1.851163920946419E-003;-5.863233003765345E-003;
2.406500000000000E+009;1.950294226408005E-001;3.740164637565613E-002;1.591719221323729E-003;-6.013697478920221E-003;
2.406666666666667E+009;1.956778019666672E-001;3.748264908790588E-002;1.408597338013351E-003;-6.097652018070221E-003;
2.406833333333334E+009;1.962607800960541E-001;3.747523948550224E-002;1.224518637172878E-003;-6.119182333350182E-003;
2.407000000000000E+009;1.965623497962952E-001;3.775664791464806E-002;1.118851359933615E-003;-6.168683525174856E-003;
2.407166666666667E+009;1.968611329793930E-001;3.743769600987434E-002;7.641203119419515E-004;-6.146020721644163E-003;
2.407333333333334E+009;1.968310177326202E-001;3.770152106881142E-002;7.210238254629076E-004;-6.166462786495686E-003;
2.407500000000000E+009;1.967470198869705E-001;3.772936016321182E-002;4.719534481409937E-004;-6.065277382731438E-003;
2.407666666666667E+009;1.968376636505127E-001;3.765332698822022E-002;3.531612164806575E-004;-6.115808617323637E-003;
2.407833333333334E+009;1.963947266340256E-001;3.751142323017120E-002;2.302382199559361E-004;-6.038737948983908E-003;
2.408000000000000E+009;1.962356716394424E-001;3.731972724199295E-002;-7.019961776677519E-005;-6.145542021840811E-003;
2.408166666666667E+009;1.956627219915390E-001;3.703623637557030E-002;-3.153371217194945E-004;-6.420442368835211E-003;
2.408333333333334E+009;1.952037811279297E-001;3.649600967764854E-002;-3.402084694243968E-004;-6.313189398497343E-003;
2.408500000000000E+009;1.943843364715576E-001;3.614415228366852E-002;-5.237479927018285E-004;-6.447470746934414E-003;
2.408666666666667E+009;1.936436593532562E-001;3.564025089144707E-002;-6.681470549665391E-004;-6.389064248651266E-003;
2.408833333333334E+009;1.928654462099075E-001;3.485571965575218E-002;-9.542370680719614E-004;-6.515300832688808E-003;
2.409000000000000E+009;1.918911486864090E-001;3.386287391185761E-002;-1.229160698130727E-003;-6.378159392625094E-003;
2.409166666666667E+009;1.910204887390137E-001;3.301202133297920E-002;-1.394797582179308E-003;-6.410702597349882E-003;
2.409333333333334E+009;1.900778859853745E-001;3.190083056688309E-002;-1.718553830869496E-003;-6.375601980835199E-003;
2.409500000000000E+009;1.888746917247772E-001;3.066628426313400E-002;-1.952021731995046E-003;-6.334376987069845E-003;
2.409666666666667E+009;1.877757757902145E-001;2.926018089056015E-002;-2.207728335633874E-003;-6.373380776494741E-003;
2.409833333333334E+009;1.866485923528671E-001;2.774670533835888E-002;-2.400896977633238E-003;-6.354099139571190E-003;
2.410000000000000E+009;1.857157945632935E-001;2.620308846235275E-002;-2.782476134598255E-003;-6.176984868943691E-003;
2.410166666666667E+009;1.844342797994614E-001;2.445466071367264E-002;-2.956087468191981E-003;-6.053768098354340E-003;
2.410333333333334E+009;1.834576874971390E-001;2.260264381766319E-002;-3.102878807112575E-003;-5.886416416615248E-003;
2.410500000000000E+009;1.824835538864136E-001;2.061438746750355E-002;-3.338610986247659E-003;-5.826844368129969E-003;
2.410666666666667E+009;1.814416944980621E-001;1.839354820549488E-002;-3.522568615153432E-003;-5.661959294229746E-003;
2.410833333333334E+009;1.809044033288956E-001;1.615997217595577E-002;-3.647809382528067E-003;-5.570168606936932E-003;
2.411000000000000E+009;1.801166236400604E-001;1.395820360630751E-002;-3.846084699034691E-003;-5.309229250997305E-003;
2.411166666666667E+009;1.795017719268799E-001;1.176853105425835E-002;-4.013270605355501E-003;-5.309856962412596E-003;
2.411333333333334E+009;1.788374781608582E-001;9.241717867553234E-003;-4.083111882209778E-003;-5.075796507298946E-003;
2.411500000000000E+009;1.783604770898819E-001;6.935777142643929E-003;-4.235535860061646E-003;-4.888382740318775E-003;
2.411666666666667E+009;1.782414615154266E-001;4.554016981273890E-003;-4.347488284111023E-003;-4.816823638975620E-003;
2.411833333333334E+009;1.778057068586350E-001;2.214363077655435E-003;-4.420422483235598E-003;-4.570236895233393E-003;
2.412000000000000E+009;1.779909878969193E-001;-3.185200039297342E-004;-4.692962393164635E-003;-4.607469309121370E-003;
2.412166666666667E+009;1.779671013355255E-001;-2.595814876258373E-003;-4.863864276558161E-003;-4.525924101471901E-003;
2.412333333333334E+009;1.781923770904541E-001;-5.316034890711308E-003;-5.066959653049707E-003;-4.417642951011658E-003;
2.412500000000000E+009;1.786681264638901E-001;-7.717855740338564E-003;-5.369833670556545E-003;-4.210850689560175E-003;
2.412666666666667E+009;1.791501790285111E-001;-1.004815660417080E-002;-5.409438628703356E-003;-4.093037918210030E-003;
2.412833333333334E+009;1.797605305910111E-001;-1.242088899016380E-002;-5.645282566547394E-003;-3.890793072059751E-003;
2.413000000000000E+009;1.803392022848129E-001;-1.489768922328949E-002;-5.865735933184624E-003;-3.625701414421201E-003;
2.413166666666667E+009;1.812553852796555E-001;-1.698451489210129E-002;-6.030803546309471E-003;-3.451215568929911E-003;
2.413333333333334E+009;1.823270767927170E-001;-1.929657533764839E-002;-6.188028957694769E-003;-3.159649902954698E-003;
2.413500000000000E+009;1.832103878259659E-001;-2.156784571707249E-002;-6.480573676526547E-003;-2.915224060416222E-003;
2.413666666666667E+009;1.843254119157791E-001;-2.369850501418114E-002;-6.682614330202341E-003;-2.495003864169121E-003;
2.413833333333334E+009;1.853979229927063E-001;-2.578046917915344E-002;-6.722580641508102E-003;-2.212726278230548E-003;
2.414000000000000E+009;1.865982711315155E-001;-2.767240442335606E-002;-6.848930846899748E-003;-1.752784126438201E-003;
2.414166666666667E+009;1.879776120185852E-001;-2.937647141516209E-002;-6.760682910680771E-003;-1.501856022514403E-003;
2.414333333333334E+009;1.888721436262131E-001;-3.140650317072868E-002;-6.805343087762594E-003;-9.756901999935508E-004;
2.414500000000000E+009;1.902852058410645E-001;-3.268440440297127E-002;-6.768732797354460E-003;-6.246064440347254E-004;
2.414666666666667E+009;1.914566010236740E-001;-3.432728350162506E-002;-6.690109148621559E-003;-1.579565432621166E-004;
2.414833333333334E+009;1.927049309015274E-001;-3.558481857180595E-002;-6.526692770421505E-003;1.268139603780583E-004;
2.415000000000000E+009;1.938159018754959E-001;-3.676007688045502E-002;-6.399455945938826E-003;4.226067685522139E-004;
2.415166666666667E+009;1.951296925544739E-001;-3.806804865598679E-002;-6.153537426143885E-003;7.371322717517614E-004;
2.415333333333334E+009;1.962034404277802E-001;-3.886047378182411E-002;-6.089208647608757E-003;9.722877875901759E-004;
2.415500000000000E+009;1.973780840635300E-001;-3.959201276302338E-002;-5.716436542570591E-003;1.027773832902312E-003;
2.415666666666667E+009;1.983648091554642E-001;-4.041703417897224E-002;-5.629431921988726E-003;1.279131742194295E-003;
2.415833333333334E+009;1.992856413125992E-001;-4.099704325199127E-002;-5.433413665741682E-003;1.615753048099577E-003;
2.416000000000000E+009;2.002125829458237E-001;-4.147243499755859E-002;-5.231357179582119E-003;1.653138780966401E-003;
2.416166666666667E+009;2.009185403585434E-001;-4.204358905553818E-002;-5.014655180275440E-003;1.728494418784976E-003;
2.416333333333334E+009;2.014691680669785E-001;-4.232320562005043E-002;-4.678193479776382E-003;1.893830485641956E-003;
2.416500000000000E+009;2.019444257020950E-001;-4.249153286218643E-002;-4.484706558287144E-003;1.869565341621637E-003;
2.416666666666667E+009;2.023127228021622E-001;-4.284958168864250E-002;-4.375903401523829E-003;2.109605353325605E-003;
2.416833333333334E+009;2.024813592433929E-001;-4.288688302040100E-002;-4.174267873167992E-003;2.126715844497085E-003;
2.417000000000000E+009;2.026576399803162E-001;-4.297012463212013E-002;-3.995760809630156E-003;2.091412898153067E-003;
2.417166666666667E+009;2.022969722747803E-001;-4.287948459386826E-002;-3.775188000872731E-003;2.080609323456883E-003;
2.417333333333334E+009;2.021975666284561E-001;-4.268068820238113E-002;-3.676077583804727E-003;2.033162396401167E-003;
2.417500000000000E+009;2.019063383340836E-001;-4.283225536346436E-002;-3.409998025745153E-003;2.009630668908358E-003;
2.417666666666667E+009;2.013458758592606E-001;-4.248933866620064E-002;-3.461933927610517E-003;2.099045319482684E-003;
2.417833333333334E+009;2.008579671382904E-001;-4.232220724225044E-002;-3.205707529559732E-003;1.968410098925233E-003;
2.418000000000000E+009;2.002155780792236E-001;-4.197388887405396E-002;-3.122276626527309E-003;2.111300360411406E-003;
2.418166666666667E+009;1.995151937007904E-001;-4.184271767735481E-002;-3.097315551713109E-003;1.865771017037332E-003;
2.418333333333334E+009;1.985217034816742E-001;-4.174291342496872E-002;-2.845352515578270E-003;1.808163244277239E-003;
2.418500000000000E+009;1.975795179605484E-001;-4.175787046551704E-002;-2.738411771133542E-003;1.757518621161580E-003;
2.418666666666667E+009;1.965652257204056E-001;-4.164178296923637E-002;-2.710175700485706E-003;1.592496410012245E-003;
2.418833333333334E+009;1.952522248029709E-001;-4.187032952904701E-002;-2.734842011705041E-003;1.504995627328754E-003;
2.419000000000000E+009;1.939837187528610E-001;-4.204330593347549E-002;-2.522877650335431E-003;1.499939244240522E-003;
2.419166666666667E+009;1.927406042814255E-001;-4.223667457699776E-002;-2.599494066089392E-003;1.423827139660716E-003;
2.419333333333334E+009;1.912842541933060E-001;-4.276832938194275E-002;-2.603318076580763E-003;1.202821615152061E-003;
2.419500000000000E+009;1.896948069334030E-001;-4.309486597776413E-002;-2.616422250866890E-003;1.169294351711869E-003;
2.419666666666667E+009;1.881271451711655E-001;-4.387930035591126E-002;-2.656040480360389E-003;8.666484500281513E-004;
2.419833333333334E+009;1.865754723548889E-001;-4.460431262850761E-002;-2.882208675146103E-003;8.230563253164291E-004;
2.420000000000000E+009;1.849814951419830E-001;-4.552052542567253E-002;-2.895951038226485E-003;8.553047082386911E-004;
2.420166666666667E+009;1.833260953426361E-001;-4.650117829442024E-002;-3.046823199838400E-003;6.640481879003346E-004;
2.420333333333334E+009;1.817554980516434E-001;-4.756757244467735E-002;-3.125687362626195E-003;6.213154410943389E-004;
2.420500000000000E+009;1.800725311040878E-001;-4.889811947941780E-002;-3.474667668342590E-003;6.789540057070553E-004;
2.420666666666667E+009;1.782964468002319E-001;-5.007894337177277E-002;-3.558519529178739E-003;6.418243865482509E-004;
2.420833333333334E+009;1.767608523368835E-001;-5.153433233499527E-002;-3.840911900624633E-003;6.656063487753272E-004;
2.421000000000000E+009;1.752653717994690E-001;-5.311995372176170E-002;-4.110282287001610E-003;8.038620580919087E-004;
2.421166666666667E+009;1.738692075014114E-001;-5.478820577263832E-002;-4.230170045047998E-003;1.054299063980579E-003;
2.421333333333334E+009;1.722878813743591E-001;-5.642682686448097E-002;-4.502949304878712E-003;1.045622862875462E-003;
2.421500000000000E+009;1.710181087255478E-001;-5.830184370279312E-002;-4.546377342194319E-003;1.303200959227979E-003;
2.421666666666667E+009;1.698271632194519E-001;-6.008271500468254E-002;-4.920721519738436E-003;1.506974105723202E-003;
2.421833333333334E+009;1.686843335628510E-001;-6.196505203843117E-002;-4.900021012872458E-003;1.881532138213515E-003;
2.422000000000000E+009;1.673515141010284E-001;-6.396345049142838E-002;-4.994927439838648E-003;2.209823811426759E-003;
2.422166666666667E+009;1.665720790624619E-001;-6.605451554059982E-002;-5.184200592339039E-003;2.412830246612430E-003;
2.422333333333334E+009;1.656798869371414E-001;-6.802099943161011E-002;-5.049244966357946E-003;2.766258781775832E-003;
2.422500000000000E+009;1.649166196584702E-001;-6.990647315979004E-002;-4.991002846509218E-003;2.988643012940884E-003;
2.422666666666667E+009;1.642470061779022E-001;-7.204180210828781E-002;-5.003429949283600E-003;3.335422836244106E-003;
2.422833333333334E+009;1.639589965343475E-001;-7.409237325191498E-002;-4.886555951088667E-003;3.710426157340407E-003;
2.423000000000000E+009;1.632822006940842E-001;-7.628454267978668E-002;-4.811905790120363E-003;3.807885339483619E-003;
2.423166666666667E+009;1.628522127866745E-001;-7.826171815395355E-002;-4.619752522557974E-003;4.238269291818142E-003;
2.423333333333334E+009;1.626697480678558E-001;-8.027145266532898E-002;-4.669234622269869E-003;4.421901423484087E-003;
2.423500000000000E+009;1.626995652914047E-001;-8.204133063554764E-002;-4.434876143932343E-003;4.598473664373159E-003;
2.423666666666667E+009;1.627804934978485E-001;-8.393274992704392E-002;-4.295092541724443E-003;4.833165090531111E-003;
2.423833333333334E+009;1.625785380601883E-001;-8.577820658683777E-002;-4.193834029138088E-003;5.173445213586092E-003;
2.424000000000000E+009;1.626898944377899E-001;-8.747958391904831E-002;-4.042531829327345E-003;5.467838142067194E-003;
2.424166666666667E+009;1.628476083278656E-001;-8.898494392633438E-002;-3.733847755938768E-003;5.565637722611427E-003;
2.424333333333334E+009;1.630916148424149E-001;-9.063853323459625E-002;-3.718166844919324E-003;5.966001190245152E-003;
2.424500000000000E+009;1.635341942310333E-001;-9.247071295976639E-002;-3.414633218199015E-003;6.135303061455488E-003;
2.424666666666667E+009;1.637166291475296E-001;-9.374133497476578E-002;-3.143701702356339E-003;6.324616260826588E-003;
2.424833333333334E+009;1.643242835998535E-001;-9.493428468704224E-002;-2.705763559788466E-003;6.709844339638948E-003;
2.425000000000000E+009;1.646414250135422E-001;-9.627234935760498E-002;-2.457794267684221E-003;6.807735655456781E-003;
2.425166666666667E+009;1.649821698665619E-001;-9.731395542621613E-002;-2.097660442814231E-003;7.033177651464939E-003;
2.425333333333334E+009;1.653476804494858E-001;-9.816230088472366E-002;-1.722281798720360E-003;7.277199998497963E-003;
2.425500000000000E+009;1.657688617706299E-001;-9.929109364748001E-002;-1.199746155180037E-003;7.226290181279182E-003;
2.425666666666667E+009;1.663532555103302E-001;-9.991964697837830E-002;-9.290860034525394E-004;7.090246770530939E-003;
2.425833333333334E+009;1.666503399610519E-001;-1.007122173905373E-001;-5.902807461097837E-004;7.358546834439039E-003;
2.426000000000000E+009;1.669904589653015E-001;-1.011469513177872E-001;-1.855344162322581E-004;7.246310357004404E-003;
2.426166666666667E+009;1.674280613660812E-001;-1.016438528895378E-001;3.493932308629155E-004;7.131185382604599E-003;
2.426333333333334E+009;1.676035821437836E-001;-1.022465303540230E-001;7.094481843523681E-004;6.993909832090139E-003;
2.426500000000000E+009;1.678965389728546E-001;-1.024639979004860E-001;9.301090613007546E-004;7.011299952864647E-003;
2.426666666666667E+009;1.682254076004028E-001;-1.028288155794144E-001;1.325672492384911E-003;6.723641883581877E-003;
2.426833333333334E+009;1.684205979108810E-001;-1.029686108231545E-001;1.664541545324028E-003;6.641300395131111E-003;
2.427000000000000E+009;1.683792322874069E-001;-1.030881628394127E-001;1.733341021463275E-003;6.404001731425524E-003;
2.427166666666667E+009;1.684359014034271E-001;-1.032517552375794E-001;2.015593927353621E-003;6.251835729926825E-003;
2.427333333333334E+009;1.682674288749695E-001;-1.035658940672875E-001;2.274194033816457E-003;6.098110694438219E-003;
2.427500000000000E+009;1.680273413658142E-001;-1.036264523863792E-001;2.517704386264086E-003;6.051112432032824E-003;
2.427666666666667E+009;1.676357984542847E-001;-1.036133691668510E-001;2.733695553615689E-003;5.750049371272326E-003;
