# Version 1.00
#
freq[Hz];re:Trc1_S11;im:Trc1_S11;re:Trc2_S21;im:Trc2_S21;
2.400000000000000E+009;1.550790518522263E-001;1.067613065242767E-001;3.036635927855969E-003;-2.604533452540636E-003;
2.400166666666667E+009;1.546168029308319E-001;1.043300181627274E-001;2.841823501512408E-003;-2.484440803527832E-003;
2.400333333333334E+009;1.548419147729874E-001;1.020785123109818E-001;2.780606970191002E-003;-2.266999334096909E-003;
2.400500000000000E+009;1.548147797584534E-001;9.925331920385361E-002;2.788231708109379E-003;-1.892293570563197E-003;
2.400666666666667E+009;1.549325734376907E-001;9.676736593246460E-002;2.846975810825825E-003;-1.877907197922468E-003;
2.400833333333334E+009;1.548402309417725E-001;9.383986890316010E-002;2.895918674767017E-003;-1.698137843050063E-003;
2.401000000000000E+009;1.550077348947525E-001;9.110005199909210E-002;2.993503352627158E-003;-1.486742869019508E-003;
2.401166666666667E+009;1.550249755382538E-001;8.823382854461670E-002;3.103838767856360E-003;-1.387979835271835E-003;
2.401333333333334E+009;1.555328518152237E-001;8.553018420934677E-002;3.434026148170233E-003;-1.391899655573070E-003;
2.401500000000000E+009;1.556731313467026E-001;8.262731134891510E-002;3.658625995740295E-003;-1.320548239164054E-003;
2.401666666666667E+009;1.561568379402161E-001;7.959821075201035E-002;3.824409563094378E-003;-1.299233408644795E-003;
2.401833333333334E+009;1.567631065845490E-001;7.697064429521561E-002;4.083841573446989E-003;-1.458898535929620E-003;
2.402000000000000E+009;1.576209813356400E-001;7.413632422685623E-002;4.109079949557781E-003;-1.640126458369196E-003;
2.402166666666667E+009;1.583792567253113E-001;7.162716984748840E-002;4.276971798390150E-003;-1.843142323195934E-003;
2.402333333333334E+009;1.592611819505692E-001;6.884878128767014E-002;4.481015726923943E-003;-1.893901498988271E-003;
2.402500000000000E+009;1.604954898357391E-001;6.627782434225082E-002;4.464060999453068E-003;-2.284916583448649E-003;
2.402666666666667E+009;1.618032008409500E-001;6.395342200994492E-002;4.499412141740322E-003;-2.605257788673043E-003;
2.402833333333334E+009;1.630361080169678E-001;6.154919788241386E-002;4.330486059188843E-003;-2.761690178886056E-003;
2.403000000000000E+009;1.644685268402100E-001;5.913784354925156E-002;4.365165252238512E-003;-3.027015831321478E-003;
2.403166666666667E+009;1.662458628416061E-001;5.706200003623962E-002;4.279607441276312E-003;-3.347759367898107E-003;
2.403333333333334E+009;1.677948683500290E-001;5.456602945923805E-002;4.196161869913340E-003;-3.437638282775879E-003;
2.403500000000000E+009;1.696630865335465E-001;5.293832719326019E-002;4.168850369751453E-003;-3.547167871147394E-003;
2.403666666666667E+009;1.720233410596848E-001;5.096576735377312E-002;3.996152896434069E-003;-3.850637935101986E-003;
2.403833333333334E+009;1.733173877000809E-001;4.894478619098663E-002;4.115190822631121E-003;-3.815247444435954E-003;
2.404000000000000E+009;1.743064373731613E-001;4.711385443806648E-002;3.753091208636761E-003;-4.023428075015545E-003;
2.404166666666667E+009;1.761481463909149E-001;4.563191905617714E-002;3.628589445725083E-003;-4.140431061387062E-003;
2.404333333333334E+009;1.780697256326675E-001;4.416988417506218E-002;3.479587845504284E-003;-4.282956942915916E-003;
2.404500000000000E+009;1.798866689205170E-001;4.273045063018799E-002;3.693820443004370E-003;-4.379634745419025E-003;
2.404666666666667E+009;1.812346279621124E-001;4.150822386145592E-002;3.409975906834006E-003;-4.569152835756540E-003;
2.404833333333334E+009;1.828590631484985E-001;4.063629359006882E-002;3.394548548385501E-003;-4.512926563620567E-003;
2.405000000000000E+009;1.842424422502518E-001;3.975010290741921E-002;3.315899753943086E-003;-4.864859860390425E-003;
2.405166666666667E+009;1.857398301362991E-001;3.916967287659645E-002;3.021813929080963E-003;-5.129995290189982E-003;
2.405333333333334E+009;1.870819181203842E-001;3.871840238571167E-002;3.062548115849495E-003;-5.261125043034554E-003;
2.405500000000000E+009;1.886690109968185E-001;3.810013085603714E-002;2.774464199319482E-003;-5.320416763424873E-003;
2.405666666666667E+009;1.897809803485870E-001;3.784219920635223E-002;2.619684673845768E-003;-5.616842303425074E-003;
2.405833333333334E+009;1.911536455154419E-001;3.754691034555435E-002;2.403891645371914E-003;-5.736137274652720E-003;
2.406000000000000E+009;1.920571923255920E-001;3.731595352292061E-002;2.135036978870630E-003;-6.090227048844099E-003;
2.406166666666667E+009;1.931789368391037E-001;3.734249621629715E-002;2.056922996416688E-003;-5.921653006225824E-003;
2.406333333333334E+009;1.941217929124832E-001;3.733541443943977E-002;1.794884097762406E-003;-6.021179724484682E-003;
2.406500000000000E+009;1.948272883892059E-001;3.738259896636009E-002;1.597948139533401E-003;-6.117075681686401E-003;
2.406666666666667E+009;1.954602599143982E-001;3.747659176588059E-002;1.328488579019904E-003;-6.247189827263355E-003;
2.406833333333334E+009;1.958586126565933E-001;3.740927949547768E-002;1.257325522601605E-003;-6.321799010038376E-003;
2.407000000000000E+009;1.962711066007614E-001;3.770555183291435E-002;9.895899565890431E-004;-6.196936592459679E-003;
2.407166666666667E+009;1.966979205608368E-001;3.738933056592941E-002;7.420369074679911E-004;-6.242513190954924E-003;
2.407333333333334E+009;1.966329514980316E-001;3.768072649836540E-002;4.277152474969626E-004;-6.410276051610708E-003;
2.407500000000000E+009;1.964952200651169E-001;3.769084438681603E-002;2.522497088648379E-004;-6.310917437076569E-003;
2.407666666666667E+009;1.966083198785782E-001;3.760522603988648E-002;4.301462104194798E-005;-6.206131540238857E-003;
2.407833333333334E+009;1.959552764892578E-001;3.744048997759819E-002;4.781616553373169E-006;-6.289220880717039E-003;
2.408000000000000E+009;1.959843486547470E-001;3.735176101326942E-002;-3.557355375960469E-004;-6.293388083577156E-003;
2.408166666666667E+009;1.952663064002991E-001;3.705655410885811E-002;-4.754153196699917E-004;-6.399955600500107E-003;
2.408333333333334E+009;1.947589665651321E-001;3.663287311792374E-002;-6.600934430025518E-004;-6.533952429890633E-003;
2.408500000000000E+009;1.939858943223953E-001;3.628457337617874E-002;-8.511375053785741E-004;-6.530665326863527E-003;
2.408666666666667E+009;1.932682096958160E-001;3.576993197202683E-002;-1.103707123547792E-003;-6.479345262050629E-003;
2.408833333333334E+009;1.925520002841950E-001;3.496209904551506E-002;-1.245929859578610E-003;-6.591002456843853E-003;
2.409000000000000E+009;1.917015016078949E-001;3.400916978716850E-002;-1.548374188132584E-003;-6.634437944740057E-003;
2.409166666666667E+009;1.906544715166092E-001;3.309577330946922E-002;-1.975040649995208E-003;-6.770237348973751E-003;
2.409333333333334E+009;1.897418797016144E-001;3.224190324544907E-002;-1.580383046530187E-003;-6.314775906503201E-003;
2.409500000000000E+009;1.885664761066437E-001;3.089088574051857E-002;-2.279847627505660E-003;-5.971547216176987E-003;
2.409666666666667E+009;1.875709891319275E-001;2.943988144397736E-002;-2.594481455162168E-003;-6.617343984544277E-003;
2.409833333333334E+009;1.865693181753159E-001;2.797245234251022E-002;-2.757637528702617E-003;-6.370989140123129E-003;
2.410000000000000E+009;1.853356212377548E-001;2.636242285370827E-002;-3.161480184644461E-003;-6.160073913633823E-003;
2.410166666666667E+009;1.843113005161285E-001;2.457386627793312E-002;-3.127557924017310E-003;-5.929544568061829E-003;
2.410333333333334E+009;1.832457035779953E-001;2.271509543061256E-002;-3.344832221046090E-003;-5.654356908053160E-003;
2.410500000000000E+009;1.821930855512619E-001;2.081092819571495E-002;-3.596807131543756E-003;-5.673627369105816E-003;
2.410666666666667E+009;1.812986582517624E-001;1.850449666380882E-002;-3.821105230599642E-003;-5.530087277293205E-003;
2.410833333333334E+009;1.806136965751648E-001;1.636140607297421E-002;-3.807371016591787E-003;-5.364807788282633E-003;
2.411000000000000E+009;1.798211932182312E-001;1.417382340878248E-002;-4.019059240818024E-003;-5.274713970720768E-003;
2.411166666666667E+009;1.790980696678162E-001;1.198501512408257E-002;-4.224001895636320E-003;-5.018450319766998E-003;
2.411333333333334E+009;1.785691231489182E-001;9.512229822576046E-003;-4.228329751640558E-003;-4.922455642372370E-003;
2.411500000000000E+009;1.781201958656311E-001;7.196787279099226E-003;-4.425017628818750E-003;-4.831873346120119E-003;
2.411666666666667E+009;1.779987215995789E-001;4.682299681007862E-003;-4.724691621959209E-003;-4.836595151573420E-003;
2.411833333333334E+009;1.775997579097748E-001;2.191206905990839E-003;-4.707640036940575E-003;-4.610230214893818E-003;
2.412000000000000E+009;1.776890009641647E-001;-2.042455598711968E-004;-4.846381489187479E-003;-4.593017045408487E-003;
2.412166666666667E+009;1.776920258998871E-001;-2.505789278075099E-003;-4.936973564326763E-003;-4.346534609794617E-003;
2.412333333333334E+009;1.779520064592362E-001;-5.307266488671303E-003;-5.174904596060515E-003;-4.260671325027943E-003;
2.412500000000000E+009;1.783305853605270E-001;-7.401245646178722E-003;-5.426869727671146E-003;-4.095952026546001E-003;
2.412666666666667E+009;1.788012683391571E-001;-1.001404039561749E-002;-5.547588225454092E-003;-3.969204146414995E-003;
2.412833333333334E+009;1.795770674943924E-001;-1.225950568914414E-002;-5.845948588103056E-003;-3.780144266784191E-003;
2.413000000000000E+009;1.802871525287628E-001;-1.471299771219492E-002;-6.076699588447809E-003;-3.482320578768849E-003;
2.413166666666667E+009;1.810480952262878E-001;-1.682866550981998E-002;-6.190027110278606E-003;-3.184390021488071E-003;
2.413333333333334E+009;1.820108592510223E-001;-1.920703239738941E-002;-6.395753007382155E-003;-2.976060612127185E-003;
2.413500000000000E+009;1.829836815595627E-001;-2.141782641410828E-002;-6.607739720493555E-003;-2.607252448797226E-003;
2.413666666666667E+009;1.841908395290375E-001;-2.343510463833809E-002;-6.860654801130295E-003;-2.520221984013915E-003;
2.413833333333334E+009;1.852163374423981E-001;-2.554244734346867E-002;-6.861486937850714E-003;-2.116745570674539E-003;
2.414000000000000E+009;1.864581555128098E-001;-2.732342667877674E-002;-6.905279587954283E-003;-1.587210106663406E-003;
2.414166666666667E+009;1.875977218151093E-001;-2.911987155675888E-002;-6.955239921808243E-003;-1.206434099003673E-003;
2.414333333333334E+009;1.888454258441925E-001;-3.113297186791897E-002;-6.970023736357689E-003;-7.228938047774136E-004;
2.414500000000000E+009;1.901677846908569E-001;-3.267955780029297E-002;-6.817115936428309E-003;-4.479837079998106E-004;
2.414666666666667E+009;1.913928091526032E-001;-3.401891514658928E-002;-6.775282323360443E-003;-4.031165735796094E-005;
2.414833333333334E+009;1.925125718116760E-001;-3.535211086273193E-002;-6.597109138965607E-003;-5.750623131461907E-006;
2.415000000000000E+009;1.936432719230652E-001;-3.671205416321755E-002;-6.500693969428539E-003;6.339761312119663E-004;
2.415166666666667E+009;1.950436383485794E-001;-3.763259202241898E-002;-6.362009793519974E-003;8.114184602163732E-004;
2.415333333333334E+009;1.961728781461716E-001;-3.865113109350205E-002;-6.099082529544830E-003;1.066372264176607E-003;
2.415500000000000E+009;1.972620785236359E-001;-3.924528509378433E-002;-5.859456490725279E-003;1.347790937870741E-003;
2.415666666666667E+009;1.982939541339874E-001;-4.019447788596153E-002;-5.557634402066469E-003;1.500364043749869E-003;
2.415833333333334E+009;1.993257552385330E-001;-4.071515798568726E-002;-5.397692322731018E-003;1.710513606667519E-003;
2.416000000000000E+009;2.000055760145187E-001;-4.129254817962647E-002;-5.256532691419125E-003;1.955861924216151E-003;
2.416166666666667E+009;2.007956802845001E-001;-4.184947162866592E-002;-5.025712307542563E-003;2.011879580095410E-003;
2.416333333333334E+009;2.015146613121033E-001;-4.205153137445450E-002;-4.807718098163605E-003;2.161725191399455E-003;
2.416500000000000E+009;2.019396275281906E-001;-4.235427454113960E-002;-4.571959841996431E-003;2.092056209221482E-003;
2.416666666666667E+009;2.023211270570755E-001;-4.262257739901543E-002;-4.352886229753494E-003;2.145866397768259E-003;
2.416833333333334E+009;2.024348080158234E-001;-4.261470213532448E-002;-4.227629397064447E-003;2.325113629922271E-003;
2.417000000000000E+009;2.026128917932510E-001;-4.270759969949722E-002;-4.013212397694588E-003;2.151154214516282E-003;
2.417166666666667E+009;2.023685425519943E-001;-4.255285486578941E-002;-3.780617378652096E-003;2.373294439166784E-003;
2.417333333333334E+009;2.020653337240219E-001;-4.239888489246368E-002;-3.618304617702961E-003;2.178751863539219E-003;
2.417500000000000E+009;2.018526196479797E-001;-4.247285425662994E-002;-3.453959943726659E-003;2.311391290277243E-003;
2.417666666666667E+009;2.014267742633820E-001;-4.221369698643684E-002;-3.369603073224425E-003;2.195663517341018E-003;
2.417833333333334E+009;2.009421288967133E-001;-4.193940758705139E-002;-3.205141983926296E-003;2.253329847007990E-003;
2.418000000000000E+009;2.002719044685364E-001;-4.164797067642212E-002;-3.058067057281733E-003;2.136062830686569E-003;
2.418166666666667E+009;1.994417756795883E-001;-4.165311157703400E-002;-2.788991434499621E-003;2.090927213430405E-003;
2.418333333333334E+009;1.986218839883804E-001;-4.144521802663803E-002;-2.715599257498980E-003;2.126848557963967E-003;
2.418500000000000E+009;1.975340545177460E-001;-4.154191166162491E-002;-2.707981038838625E-003;1.928919809870422E-003;
2.418666666666667E+009;1.965269744396210E-001;-4.138294607400894E-002;-2.513768151402473E-003;1.913709798827767E-003;
2.418833333333334E+009;1.951849609613419E-001;-4.145982861518860E-002;-2.553636906668544E-003;1.747102243825793E-003;
2.419000000000000E+009;1.938766986131668E-001;-4.174567386507988E-002;-2.544980030506849E-003;1.630752463825047E-003;
2.419166666666667E+009;1.926839053630829E-001;-4.198559746146202E-002;-2.411201363429427E-003;1.552344299852848E-003;
2.419333333333334E+009;1.913852393627167E-001;-4.250936955213547E-002;-2.333734184503555E-003;1.453223172575235E-003;
2.419500000000000E+009;1.899198442697525E-001;-4.282896220684052E-002;-2.514440333470702E-003;1.331784878857434E-003;
2.419666666666667E+009;1.882196515798569E-001;-4.364077746868134E-002;-2.553757512941957E-003;9.911657543852925E-004;
2.419833333333334E+009;1.866870820522308E-001;-4.431883618235588E-002;-2.790783299133182E-003;1.147632254287601E-003;
2.420000000000000E+009;1.851081550121307E-001;-4.520839825272560E-002;-2.674457384273410E-003;8.859065710566938E-004;
2.420166666666667E+009;1.834329813718796E-001;-4.629795625805855E-002;-2.747280523180962E-003;8.582466398365796E-004;
2.420333333333334E+009;1.816439479589462E-001;-4.737715050578117E-002;-3.123150672763586E-003;8.442766848020256E-004;
2.420500000000000E+009;1.801909655332565E-001;-4.868872836232185E-002;-3.242298960685730E-003;6.432886002585292E-004;
2.420666666666667E+009;1.784631609916687E-001;-4.995394870638847E-002;-3.496231976896524E-003;7.781074964441359E-004;
2.420833333333334E+009;1.769677698612213E-001;-5.143141001462936E-002;-3.642699681222439E-003;7.921290816739202E-004;
2.421000000000000E+009;1.753817200660706E-001;-5.293513461947441E-002;-3.809678368270397E-003;9.046089253388345E-004;
2.421166666666667E+009;1.740252226591110E-001;-5.480234697461128E-002;-4.070285242050886E-003;1.040195231325924E-003;
2.421333333333334E+009;1.723114550113678E-001;-5.599888414144516E-002;-4.225028213113546E-003;1.246420433744788E-003;
2.421500000000000E+009;1.710525602102280E-001;-5.819889158010483E-002;-4.490101244300604E-003;1.316209789365530E-003;
2.421666666666667E+009;1.699559390544891E-001;-5.998729541897774E-002;-4.609887022525072E-003;1.636075205169618E-003;
2.421833333333334E+009;1.688071489334106E-001;-6.168662756681442E-002;-4.705529659986496E-003;1.863300916738808E-003;
2.422000000000000E+009;1.676807254552841E-001;-6.373719125986099E-002;-4.844022449105978E-003;2.317058388143778E-003;
2.422166666666667E+009;1.668400168418884E-001;-6.578822433948517E-002;-4.822473507374525E-003;2.561344532296062E-003;
2.422333333333334E+009;1.658784896135330E-001;-6.794486194849014E-002;-4.847059957683086E-003;2.648168476298451E-003;
2.422500000000000E+009;1.650337725877762E-001;-6.980109959840775E-002;-4.771754145622253E-003;3.029141575098038E-003;
2.422666666666667E+009;1.644193530082703E-001;-7.189486920833588E-002;-4.791100509464741E-003;3.446577349677682E-003;
2.422833333333334E+009;1.639408767223358E-001;-7.403536885976791E-002;-4.735010210424662E-003;3.707101801410317E-003;
2.423000000000000E+009;1.633753776550293E-001;-7.615193724632263E-002;-4.588491749018431E-003;4.033041652292013E-003;
2.423166666666667E+009;1.631997674703598E-001;-7.813159376382828E-002;-4.531753249466419E-003;4.072322044521570E-003;
2.423333333333334E+009;1.627889573574066E-001;-7.993956655263901E-002;-4.257884342223406E-003;4.370170645415783E-003;
2.423500000000000E+009;1.628164499998093E-001;-8.188394457101822E-002;-4.175459034740925E-003;4.637307953089476E-003;
2.423666666666667E+009;1.627241224050522E-001;-8.381167799234390E-002;-4.144474398344755E-003;4.949784372001886E-003;
2.423833333333334E+009;1.627580374479294E-001;-8.571356534957886E-002;-3.891755826771259E-003;5.183646921068430E-003;
2.424000000000000E+009;1.628586798906326E-001;-8.742709457874298E-002;-3.719078842550516E-003;5.485909990966320E-003;
2.424166666666667E+009;1.631332337856293E-001;-8.890812098979950E-002;-3.589792177081108E-003;5.559301935136318E-003;
2.424333333333334E+009;1.632125973701477E-001;-9.058107435703278E-002;-3.532098373398185E-003;5.866498220711947E-003;
2.424500000000000E+009;1.638640910387039E-001;-9.214624762535095E-002;-3.284086240455508E-003;6.198121700435877E-003;
2.424666666666667E+009;1.640392988920212E-001;-9.365894645452499E-002;-2.926316577941179E-003;6.193148437887430E-003;
2.424833333333334E+009;1.645126789808273E-001;-9.491426497697830E-002;-2.666002372279763E-003;6.630437914282084E-003;
2.425000000000000E+009;1.648419052362442E-001;-9.617468714714050E-002;-2.204702235758305E-003;6.605830974876881E-003;
2.425166666666667E+009;1.652112156152725E-001;-9.721577912569046E-002;-1.993253594264388E-003;6.848260760307312E-003;
2.425333333333334E+009;1.655899584293366E-001;-9.821876138448715E-002;-1.576340524479747E-003;7.133938372135162E-003;
2.425500000000000E+009;1.660477072000504E-001;-9.918797016143799E-002;-1.043203170411289E-003;7.131783291697502E-003;
2.425666666666667E+009;1.663753092288971E-001;-9.976694732904434E-002;-7.675655651837587E-004;7.068633101880550E-003;
2.425833333333334E+009;1.667943596839905E-001;-1.005485579371452E-001;-2.165793557651341E-004;7.161400280892849E-003;
2.426000000000000E+009;1.671684235334396E-001;-1.010581925511360E-001;6.835389649495482E-005;7.108687423169613E-003;
2.426166666666667E+009;1.676009893417358E-001;-1.015711054205895E-001;4.115232732146978E-004;7.036314345896244E-003;
2.426333333333334E+009;1.676293164491653E-001;-1.021627560257912E-001;7.804753258824348E-004;7.002467755228281E-003;
2.426500000000000E+009;1.680766344070435E-001;-1.023375838994980E-001;1.143517787568271E-003;6.845360621809959E-003;
2.426666666666667E+009;1.682688742876053E-001;-1.026393398642540E-001;1.418667030520737E-003;6.750206928700209E-003;
2.426833333333334E+009;1.685101538896561E-001;-1.029675230383873E-001;1.631382503546774E-003;6.422998849302530E-003;
2.427000000000000E+009;1.684516817331314E-001;-1.032317578792572E-001;2.007056260481477E-003;6.330125033855438E-003;
2.427166666666667E+009;1.686179488897324E-001;-1.031313985586166E-001;2.114953007549048E-003;6.232598330825567E-003;
2.427333333333334E+009;1.684076935052872E-001;-1.034195870161057E-001;2.384168794378638E-003;5.959494039416313E-003;
2.427500000000000E+009;1.681933552026749E-001;-1.035741418600082E-001;2.578184939920902E-003;5.873781163245440E-003;
2.427666666666667E+009;1.678254306316376E-001;-1.036184057593346E-001;2.737601753324270E-003;5.606755148619413E-003;
