# Version 1.00
#
freq[Hz];re:Trc1_S11;im:Trc1_S11;re:Trc2_S21;im:Trc2_S21;
2.400000000000000E+009;1.554572433233261E-001;1.068104133009911E-001;3.158985171467066E-003;-2.519058529287577E-003;
2.400166666666667E+009;1.550660878419876E-001;1.043336987495422E-001;3.038991941139102E-003;-2.343316562473774E-003;
2.400333333333334E+009;1.551343798637390E-001;1.020669490098953E-001;2.801660448312759E-003;-2.225254429504275E-003;
2.400500000000000E+009;1.549644768238068E-001;9.926179051399231E-002;2.954499563202262E-003;-1.890844781883061E-003;
2.400666666666667E+009;1.548999994993210E-001;9.663585573434830E-002;2.827459713444114E-003;-1.793307368643582E-003;
2.400833333333334E+009;1.549164354801178E-001;9.376505017280579E-002;2.929444191977382E-003;-1.602321164682508E-003;
2.401000000000000E+009;1.552502512931824E-001;9.100602567195892E-002;3.089937614277005E-003;-1.507658744230866E-003;
2.401166666666667E+009;1.552707850933075E-001;8.824995160102844E-002;3.211919451132417E-003;-1.302657648921013E-003;
2.401333333333334E+009;1.556149274110794E-001;8.548732846975327E-002;3.469571471214294E-003;-1.326979720033705E-003;
2.401500000000000E+009;1.560877412557602E-001;8.250252157449722E-002;3.599138697609305E-003;-1.166671863757074E-003;
2.401666666666667E+009;1.563649177551270E-001;7.962276786565781E-002;3.750729374587536E-003;-1.279102871194482E-003;
2.401833333333334E+009;1.570281684398651E-001;7.703993469476700E-002;3.950647078454495E-003;-1.402612659148872E-003;
2.402000000000000E+009;1.576738953590393E-001;7.428452372550964E-002;4.276552237570286E-003;-1.618471578694880E-003;
2.402166666666667E+009;1.585134416818619E-001;7.174255698919296E-002;4.205618519335985E-003;-1.714697806164622E-003;
2.402333333333334E+009;1.597639173269272E-001;6.893683224916458E-002;4.313155543059111E-003;-1.941927941516042E-003;
2.402500000000000E+009;1.607816815376282E-001;6.650801002979279E-002;4.499763250350952E-003;-2.272790530696511E-003;
2.402666666666667E+009;1.618013232946396E-001;6.405910849571228E-002;4.516351036727428E-003;-2.543679205700755E-003;
2.402833333333334E+009;1.633840799331665E-001;6.168872117996216E-002;4.337584134191275E-003;-2.652380615472794E-003;
2.403000000000000E+009;1.647599190473557E-001;5.909299850463867E-002;4.450087901204824E-003;-2.954692114144564E-003;
2.403166666666667E+009;1.664940714836121E-001;5.686645209789276E-002;4.252845421433449E-003;-3.215116914361715E-003;
2.403333333333334E+009;1.678716391324997E-001;5.470514297485352E-002;4.274004139006138E-003;-3.391005797311664E-003;
2.403500000000000E+009;1.696392297744751E-001;5.262470617890358E-002;4.138880409300327E-003;-3.506929147988558E-003;
2.403666666666667E+009;1.713910698890686E-001;5.065978690981865E-002;3.957421053200960E-003;-3.683936316519976E-003;
2.403833333333334E+009;1.731639206409454E-001;4.880579560995102E-002;3.844519611448050E-003;-3.877347568050027E-003;
2.404000000000000E+009;1.745644509792328E-001;4.696223512291908E-002;3.684835974127054E-003;-3.911369945853949E-003;
2.404166666666667E+009;1.765290200710297E-001;4.549938067793846E-002;3.637446323409677E-003;-3.936588764190674E-003;
2.404333333333334E+009;1.781236976385117E-001;4.403408244252205E-002;3.657429479062557E-003;-4.244007170200348E-003;
2.404500000000000E+009;1.796100884675980E-001;4.259627312421799E-002;3.494402859359980E-003;-4.406612832099199E-003;
2.404666666666667E+009;1.812801212072372E-001;4.136663302779198E-002;3.452443750575185E-003;-4.366714507341385E-003;
2.404833333333334E+009;1.830735355615616E-001;4.057807102799416E-002;3.468606853857637E-003;-4.679495934396982E-003;
2.405000000000000E+009;1.843668073415756E-001;3.981133922934532E-002;3.209004644304514E-003;-4.973014350980520E-003;
2.405166666666667E+009;1.858989745378494E-001;3.911176696419716E-002;3.097268519923091E-003;-5.051220767199993E-003;
2.405333333333334E+009;1.871552616357803E-001;3.864327818155289E-002;2.947345608845353E-003;-5.244452506303787E-003;
2.405500000000000E+009;1.886450350284576E-001;3.810719400644302E-002;2.891758922487497E-003;-5.455492995679379E-003;
2.405666666666667E+009;1.899765580892563E-001;3.773131594061852E-002;2.584783127531409E-003;-5.469659809023142E-003;
2.405833333333334E+009;1.912396401166916E-001;3.755634650588036E-002;2.411631168797612E-003;-5.690854508429766E-003;
2.406000000000000E+009;1.922477334737778E-001;3.749091178178787E-002;2.384440274909139E-003;-5.847181193530560E-003;
2.406166666666667E+009;1.931288242340088E-001;3.719186782836914E-002;1.855890848673880E-003;-6.078166887164116E-003;
2.406333333333334E+009;1.941675543785095E-001;3.723740950226784E-002;1.801202422939241E-003;-6.046579685062170E-003;
2.406500000000000E+009;1.950178891420364E-001;3.728219866752625E-002;1.533131115138531E-003;-6.094294600188732E-003;
2.406666666666667E+009;1.953540295362473E-001;3.734534978866577E-002;1.394944498315454E-003;-6.150131579488516E-003;
2.406833333333334E+009;1.960383057594299E-001;3.733930736780167E-002;1.194870448671281E-003;-6.297079846262932E-003;
2.407000000000000E+009;1.962903589010239E-001;3.756394237279892E-002;8.718590252101421E-004;-6.240351591259241E-003;
2.407166666666667E+009;1.967602819204330E-001;3.739715740084648E-002;5.956195527687669E-004;-6.287989206612110E-003;
2.407333333333334E+009;1.965454965829849E-001;3.759290650486946E-002;4.227015888318420E-004;-6.203665863722563E-003;
2.407500000000000E+009;1.966748982667923E-001;3.764287009835243E-002;3.685255069285631E-004;-6.386281456798315E-003;
2.407666666666667E+009;1.965640336275101E-001;3.760472312569618E-002;1.695660175755620E-004;-6.301804445683956E-003;
2.407833333333334E+009;1.959372907876968E-001;3.749306872487068E-002;3.746429865714163E-005;-6.424174644052982E-003;
2.408000000000000E+009;1.959265917539597E-001;3.725226223468781E-002;-1.283312885789201E-004;-6.496027577668428E-003;
2.408166666666667E+009;1.953103095293045E-001;3.701430559158325E-002;-5.194719997234643E-004;-6.423671729862690E-003;
2.408333333333334E+009;1.949316412210465E-001;3.646156936883926E-002;-7.108491845428944E-004;-6.481394171714783E-003;
2.408500000000000E+009;1.941299140453339E-001;3.610124439001083E-002;-8.045357535593212E-004;-6.514425389468670E-003;
2.408666666666667E+009;1.935771554708481E-001;3.555211052298546E-002;-9.945406345650554E-004;-6.458246149122715E-003;
2.408833333333334E+009;1.927659362554550E-001;3.477676957845688E-002;-1.020828611217439E-003;-6.535455584526062E-003;
2.409000000000000E+009;1.917844712734222E-001;3.388631343841553E-002;-1.433246536180377E-003;-6.403910461813211E-003;
2.409166666666667E+009;1.907871663570404E-001;3.288239613175392E-002;-1.701769768260419E-003;-6.574704777449369E-003;
2.409333333333334E+009;1.896507889032364E-001;3.200006857514381E-002;-2.091659698635340E-003;-6.457912269979715E-003;
2.409500000000000E+009;1.886882185935974E-001;3.076056204736233E-002;-2.181841759011149E-003;-6.550787016749382E-003;
2.409666666666667E+009;1.875018477439880E-001;2.928342483937740E-002;-2.490533981472254E-003;-6.519875023514032E-003;
2.409833333333334E+009;1.864766031503677E-001;2.780661731958389E-002;-2.711418317630887E-003;-6.290188059210777E-003;
2.410000000000000E+009;1.855705380439758E-001;2.603372372686863E-002;-3.003255464136601E-003;-6.189470179378986E-003;
2.410166666666667E+009;1.845609843730927E-001;2.435986697673798E-002;-3.244814928621054E-003;-6.074716802686453E-003;
2.410333333333334E+009;1.833353936672211E-001;2.255276776850224E-002;-3.348891856148839E-003;-5.933914333581924E-003;
2.410500000000000E+009;1.822274029254913E-001;2.068595401942730E-002;-3.527843626216054E-003;-5.877460818737745E-003;
2.410666666666667E+009;1.812912523746491E-001;1.824522390961647E-002;-3.848389489576221E-003;-5.571048241108656E-003;
2.410833333333334E+009;1.806734204292297E-001;1.612055115401745E-002;-3.814909141510725E-003;-5.358714610338211E-003;
2.411000000000000E+009;1.798280179500580E-001;1.397822145372629E-002;-4.026186186820269E-003;-5.297187250107527E-003;
2.411166666666667E+009;1.791589409112930E-001;1.186832226812840E-002;-4.178909584879875E-003;-5.085180513560772E-003;
2.411333333333334E+009;1.786204874515533E-001;9.240149520337582E-003;-4.239334724843502E-003;-4.962403327226639E-003;
2.411500000000000E+009;1.781186014413834E-001;6.883041467517614E-003;-4.459530115127564E-003;-4.910422954708338E-003;
2.411666666666667E+009;1.779981106519699E-001;4.429742228239775E-003;-4.542350303381681E-003;-4.734085407108069E-003;
2.411833333333334E+009;1.775369644165039E-001;2.073511248454452E-003;-4.670382943004370E-003;-4.719988908618689E-003;
2.412000000000000E+009;1.777939945459366E-001;-4.822629271075130E-004;-4.946772009134293E-003;-4.581040702760220E-003;
2.412166666666667E+009;1.777484118938446E-001;-2.594591118395329E-003;-5.087428260594606E-003;-4.342528525739908E-003;
2.412333333333334E+009;1.777601689100266E-001;-5.175142548978329E-003;-5.227704998105764E-003;-4.273445811122656E-003;
2.412500000000000E+009;1.784462034702301E-001;-7.478778250515461E-003;-5.419472232460976E-003;-4.291165620088577E-003;
2.412666666666667E+009;1.788520812988281E-001;-1.016360428184271E-002;-5.671494640409946E-003;-4.031998105347157E-003;
2.412833333333334E+009;1.795807629823685E-001;-1.241023000329733E-002;-5.840559955686331E-003;-3.877239068970084E-003;
2.413000000000000E+009;1.802615076303482E-001;-1.474801916629076E-002;-5.934956483542919E-003;-3.613984910771251E-003;
2.413166666666667E+009;1.810532808303833E-001;-1.685888320207596E-002;-6.326509173959494E-003;-3.163763089105487E-003;
2.413333333333334E+009;1.821530908346176E-001;-1.932371407747269E-002;-6.455876398831606E-003;-3.048339160159230E-003;
2.413500000000000E+009;1.828682571649551E-001;-2.149307914078236E-002;-6.516206543892622E-003;-2.645472297444940E-003;
2.413666666666667E+009;1.841092556715012E-001;-2.361344359815121E-002;-6.709940265864134E-003;-2.469375263899565E-003;
2.413833333333334E+009;1.852280795574188E-001;-2.561839111149311E-002;-6.882335990667343E-003;-2.022798638790846E-003;
2.414000000000000E+009;1.863060593605042E-001;-2.737204730510712E-002;-6.935410667210817E-003;-1.732433796860278E-003;
2.414166666666667E+009;1.878234893083572E-001;-2.919922769069672E-002;-7.017679512500763E-003;-1.167968148365617E-003;
2.414333333333334E+009;1.887438744306564E-001;-3.114300034940243E-002;-6.921580061316490E-003;-8.206758066080511E-004;
2.414500000000000E+009;1.901183575391769E-001;-3.266080096364021E-002;-6.891728378832340E-003;-3.706045390572399E-004;
2.414666666666667E+009;1.913967281579971E-001;-3.408215567469597E-002;-6.799790076911449E-003;-5.316089755069697E-006;
2.414833333333334E+009;1.924319118261337E-001;-3.547279536724091E-002;-6.693366914987564E-003;4.120679805055261E-004;
2.415000000000000E+009;1.936814785003662E-001;-3.682387620210648E-002;-6.363485008478165E-003;5.945428274571896E-004;
2.415166666666667E+009;1.949552893638611E-001;-3.781883046030998E-002;-6.120259873569012E-003;8.107887697406113E-004;
2.415333333333334E+009;1.961161643266678E-001;-3.866321966052055E-002;-5.989761091768742E-003;9.845052845776081E-004;
2.415500000000000E+009;1.972121447324753E-001;-3.942370787262917E-002;-5.811471492052078E-003;1.400477020069957E-003;
2.415666666666667E+009;1.984400451183319E-001;-4.024794325232506E-002;-5.618837662041187E-003;1.424170681275427E-003;
2.415833333333334E+009;1.991246789693832E-001;-4.077340289950371E-002;-5.426152609288693E-003;1.628950121812522E-003;
2.416000000000000E+009;2.000051140785217E-001;-4.134215787053108E-002;-5.196363665163517E-003;1.954174367710948E-003;
2.416166666666667E+009;2.007349133491516E-001;-4.191223904490471E-002;-5.043017677962780E-003;1.891585765406489E-003;
2.416333333333334E+009;2.014304399490356E-001;-4.225904121994972E-002;-4.790961276739836E-003;2.079323399811983E-003;
2.416500000000000E+009;2.018796801567078E-001;-4.232921823859215E-002;-4.620964173227549E-003;2.162493765354157E-003;
2.416666666666667E+009;2.022239118814468E-001;-4.264345392584801E-002;-4.369807429611683E-003;2.363472245633602E-003;
2.416833333333334E+009;2.023452222347260E-001;-4.269873723387718E-002;-4.151082132011652E-003;2.333318814635277E-003;
2.417000000000000E+009;2.024865150451660E-001;-4.280861094594002E-002;-3.986275754868984E-003;2.219904679805040E-003;
2.417166666666667E+009;2.022615075111389E-001;-4.263147339224815E-002;-3.671588608995080E-003;2.268638461828232E-003;
2.417333333333334E+009;2.020938843488693E-001;-4.235975816845894E-002;-3.741569584235549E-003;2.408453263342381E-003;
2.417500000000000E+009;2.017993479967117E-001;-4.253247380256653E-002;-3.579427720978856E-003;2.121720928698778E-003;
2.417666666666667E+009;2.012178450822830E-001;-4.225681349635124E-002;-3.428835421800613E-003;2.167294733226299E-003;
2.417833333333334E+009;2.006860971450806E-001;-4.206118360161781E-002;-3.153442172333598E-003;2.187375677749515E-003;
2.418000000000000E+009;2.002011239528656E-001;-4.180858284235001E-002;-2.984525170177221E-003;2.012851648032665E-003;
2.418166666666667E+009;1.992748230695725E-001;-4.173033684492111E-002;-3.013854380697012E-003;2.064036205410957E-003;
2.418333333333334E+009;1.984475851058960E-001;-4.149280488491058E-002;-2.864118432626128E-003;2.179693197831512E-003;
2.418500000000000E+009;1.973064839839935E-001;-4.149409756064415E-002;-2.755310153588653E-003;1.836755895055831E-003;
2.418666666666667E+009;1.964669227600098E-001;-4.147623851895332E-002;-2.691397676244378E-003;1.980082830414176E-003;
2.418833333333334E+009;1.951736360788345E-001;-4.166233912110329E-002;-2.584995469078422E-003;1.843485864810646E-003;
2.419000000000000E+009;1.939262002706528E-001;-4.170046746730804E-002;-2.495747059583664E-003;1.562916091643274E-003;
2.419166666666667E+009;1.926531195640564E-001;-4.209010303020477E-002;-2.499337773770094E-003;1.521698781289160E-003;
2.419333333333334E+009;1.912562102079392E-001;-4.247591644525528E-002;-2.505926648154855E-003;1.463815802708268E-003;
2.419500000000000E+009;1.896360963582993E-001;-4.290188103914261E-002;-2.492780098691583E-003;1.365185482427478E-003;
2.419666666666667E+009;1.882034391164780E-001;-4.374318197369576E-002;-2.491155173629522E-003;1.124060479924083E-003;
2.419833333333334E+009;1.863823235034943E-001;-4.434319585561752E-002;-2.621418097987771E-003;1.123638241551817E-003;
2.420000000000000E+009;1.849533766508102E-001;-4.528717696666718E-002;-2.714732661843300E-003;8.448205189779401E-004;
2.420166666666667E+009;1.833425760269165E-001;-4.621397331357002E-002;-2.972563495859504E-003;8.773361914791167E-004;
2.420333333333334E+009;1.816145777702332E-001;-4.745143279433250E-002;-3.058498259633780E-003;7.596229552291334E-004;
2.420500000000000E+009;1.799332946538925E-001;-4.872307926416397E-002;-3.268546890467405E-003;7.479407940991223E-004;
2.420666666666667E+009;1.784761846065521E-001;-4.965759068727493E-002;-3.521395381540060E-003;8.349762647412717E-004;
2.420833333333334E+009;1.767016053199768E-001;-5.141283571720123E-002;-3.731057513505220E-003;9.571051341481507E-004;
2.421000000000000E+009;1.752859055995941E-001;-5.285888537764549E-002;-3.830785630270839E-003;9.599128388799727E-004;
2.421166666666667E+009;1.739876568317413E-001;-5.453881248831749E-002;-4.164007958024740E-003;1.134648569859564E-003;
2.421333333333334E+009;1.722471565008164E-001;-5.618945509195328E-002;-4.288762342184782E-003;1.129440031945705E-003;
2.421500000000000E+009;1.708756834268570E-001;-5.804168060421944E-002;-4.449468571692705E-003;1.515092328190804E-003;
2.421666666666667E+009;1.698140054941177E-001;-5.985011532902718E-002;-4.778532311320305E-003;1.723887166008353E-003;
2.421833333333334E+009;1.685929298400879E-001;-6.176879629492760E-002;-4.701141733676195E-003;1.815289841033518E-003;
2.422000000000000E+009;1.675974577665329E-001;-6.378705054521561E-002;-4.786445759236813E-003;2.150198211893439E-003;
2.422166666666667E+009;1.668054312467575E-001;-6.581582874059677E-002;-4.858118016272783E-003;2.614909783005714E-003;
2.422333333333334E+009;1.656121611595154E-001;-6.787551194429398E-002;-4.826623015105724E-003;2.872573211789131E-003;
2.422500000000000E+009;1.649618595838547E-001;-6.982976943254471E-002;-4.792948719114065E-003;3.142109373584390E-003;
2.422666666666667E+009;1.643784493207932E-001;-7.184164971113205E-002;-4.762413911521435E-003;3.343680175021291E-003;
2.422833333333334E+009;1.638648211956024E-001;-7.403846830129623E-002;-4.792257212102413E-003;3.679193090647459E-003;
2.423000000000000E+009;1.634150296449661E-001;-7.605489343404770E-002;-4.631303716450930E-003;3.995460458099842E-003;
2.423166666666667E+009;1.628103107213974E-001;-7.803283631801605E-002;-4.354055505245924E-003;4.163141362369061E-003;
2.423333333333334E+009;1.626875400543213E-001;-7.995230704545975E-002;-4.423004109412432E-003;4.373802337795496E-003;
2.423500000000000E+009;1.625993549823761E-001;-8.185845613479614E-002;-4.315928556025028E-003;4.597049206495285E-003;
2.423666666666667E+009;1.627273261547089E-001;-8.381819725036621E-002;-4.127908032387495E-003;4.984478466212750E-003;
2.423833333333334E+009;1.626982986927033E-001;-8.561412245035172E-002;-4.006021190434694E-003;5.005458835512400E-003;
2.424000000000000E+009;1.628779470920563E-001;-8.736305683851242E-002;-3.670977894216776E-003;5.377500317990780E-003;
2.424166666666667E+009;1.629908233880997E-001;-8.891155570745468E-002;-3.693883540108800E-003;5.671805236488581E-003;
2.424333333333334E+009;1.632609665393829E-001;-9.046925604343414E-002;-3.366025397554040E-003;5.866606719791889E-003;
2.424500000000000E+009;1.636013537645340E-001;-9.225413948297501E-002;-3.077669069170952E-003;6.078505888581276E-003;
2.424666666666667E+009;1.638822704553604E-001;-9.360516816377640E-002;-2.825664356350899E-003;6.373047828674316E-003;
2.424833333333334E+009;1.643712669610977E-001;-9.488639235496521E-002;-2.603460103273392E-003;6.475965026766062E-003;
2.425000000000000E+009;1.648198217153549E-001;-9.609573334455490E-002;-2.112779533490539E-003;6.701393052935600E-003;
2.425166666666667E+009;1.651094406843185E-001;-9.718646109104157E-002;-1.943372539244592E-003;6.816125009208918E-003;
2.425333333333334E+009;1.655509471893311E-001;-9.805016964673996E-002;-1.451682415790856E-003;6.989769171923399E-003;
2.425500000000000E+009;1.659286171197891E-001;-9.912840276956558E-002;-1.168014016002417E-003;7.163255475461483E-003;
2.425666666666667E+009;1.663625836372376E-001;-9.974223375320435E-002;-8.033127523958683E-004;7.148314733058214E-003;
2.425833333333334E+009;1.667042523622513E-001;-1.005882322788239E-001;-2.117661642841995E-004;7.034054491668940E-003;
2.426000000000000E+009;1.671067476272583E-001;-1.010371968150139E-001;5.332522050593980E-005;6.860103923827410E-003;
2.426166666666667E+009;1.675349771976471E-001;-1.015537306666374E-001;3.887052880600095E-004;7.074237801134586E-003;
2.426333333333334E+009;1.676893681287766E-001;-1.020416691899300E-001;7.796996505931020E-004;6.898243445903063E-003;
2.426500000000000E+009;1.679615825414658E-001;-1.023048013448715E-001;1.146692666225135E-003;7.014770992100239E-003;
2.426666666666667E+009;1.682349741458893E-001;-1.026131436228752E-001;1.295986119657755E-003;6.582207046449184E-003;
2.426833333333334E+009;1.685531139373779E-001;-1.027822121977806E-001;1.548600732348859E-003;6.521675270050764E-003;
2.427000000000000E+009;1.685261875391007E-001;-1.030407845973969E-001;1.797019154764712E-003;6.370798218995333E-003;
2.427166666666667E+009;1.684209406375885E-001;-1.031300574541092E-001;2.099430887028575E-003;6.233437918126583E-003;
2.427333333333334E+009;1.684703975915909E-001;-1.033328175544739E-001;2.237255685031414E-003;5.974525120109320E-003;
2.427500000000000E+009;1.682135611772537E-001;-1.034458205103874E-001;2.530268160626292E-003;5.794387776404619E-003;
2.427666666666667E+009;1.677490770816803E-001;-1.035915389657021E-001;2.735432237386704E-003;5.664735101163387E-003;
