# Version 1.00
#
freq[Hz];re:Trc1_S11;im:Trc1_S11;re:Trc2_S21;im:Trc2_S21;
2.400000000000000E+009;1.694165766239166E-001;4.603876918554306E-002;-2.098000608384609E-003;-2.827799879014492E-003;
2.400166666666667E+009;1.705072075128555E-001;4.505501687526703E-002;-2.169373445212841E-003;-2.655189018696547E-003;
2.400333333333334E+009;1.713592112064362E-001;4.395653679966927E-002;-2.081233542412520E-003;-2.366376807913184E-003;
2.400500000000000E+009;1.724517792463303E-001;4.284018278121948E-002;-2.024700166657567E-003;-2.117130672559142E-003;
2.400666666666667E+009;1.732058674097061E-001;4.205854609608650E-002;-1.989256590604782E-003;-2.113795373588800E-003;
2.400833333333334E+009;1.741756051778793E-001;4.129008203744888E-002;-1.907594618387520E-003;-1.952450955286622E-003;
2.401000000000000E+009;1.750234812498093E-001;4.029449075460434E-002;-1.829768181778491E-003;-1.839998294599354E-003;
2.401166666666667E+009;1.757777184247971E-001;3.973568603396416E-002;-1.851923763751984E-003;-1.678389380685985E-003;
2.401333333333334E+009;1.764315962791443E-001;3.903324529528618E-002;-1.781066064722836E-003;-1.559484866447747E-003;
2.401500000000000E+009;1.771006286144257E-001;3.844863176345825E-002;-1.692583318799734E-003;-1.371139194816351E-003;
2.401666666666667E+009;1.777423918247223E-001;3.794348612427712E-002;-1.433386933058500E-003;-1.628356520086527E-003;
2.401833333333334E+009;1.783720552921295E-001;3.716975450515747E-002;-1.256040181033313E-003;-1.559642027132213E-003;
2.402000000000000E+009;1.786425560712814E-001;3.673650696873665E-002;-1.403909642249346E-003;-1.489181537181139E-003;
2.402166666666667E+009;1.790157109498978E-001;3.618818894028664E-002;-1.197381527163088E-003;-1.482211053371429E-003;
2.402333333333334E+009;1.795056164264679E-001;3.570856526494026E-002;-1.016242895275354E-003;-1.495937118306756E-003;
2.402500000000000E+009;1.799224764108658E-001;3.522757813334465E-002;-8.541793795302510E-004;-1.591143198311329E-003;
2.402666666666667E+009;1.799371540546417E-001;3.448147699236870E-002;-7.975741755217314E-004;-1.742366235703230E-003;
2.402833333333334E+009;1.800026297569275E-001;3.390870243310928E-002;-9.033638052642345E-004;-1.655662897974253E-003;
2.403000000000000E+009;1.799998432397842E-001;3.317639604210854E-002;-7.306574843823910E-004;-1.881253789179027E-003;
2.403166666666667E+009;1.801157593727112E-001;3.235650807619095E-002;-6.168170948512852E-004;-1.948278746567667E-003;
2.403333333333334E+009;1.800325810909271E-001;3.154063597321510E-002;-8.695177966728807E-004;-2.228390658274293E-003;
2.403500000000000E+009;1.800362169742584E-001;3.084870614111424E-002;-8.305207593366504E-004;-2.155949827283621E-003;
2.403666666666667E+009;1.787563413381577E-001;3.025525808334351E-002;-4.734686517622322E-004;-2.855009865015745E-003;
2.403833333333334E+009;1.793078780174255E-001;2.843690477311611E-002;-8.249048260040581E-004;-2.588114468380809E-003;
2.404000000000000E+009;1.789821684360504E-001;2.753158286213875E-002;-1.025890931487083E-003;-2.727574203163385E-003;
2.404166666666667E+009;1.783563643693924E-001;2.624760195612907E-002;-1.213360461406410E-003;-2.991271205246449E-003;
2.404333333333334E+009;1.779600679874420E-001;2.519634179770947E-002;-1.335597247816622E-003;-3.013625275343657E-003;
2.404500000000000E+009;1.773242354393005E-001;2.362325787544251E-002;-1.396600389853120E-003;-3.157535102218390E-003;
2.404666666666667E+009;1.770288646221161E-001;2.233598195016384E-002;-1.918944297358394E-003;-3.105733543634415E-003;
2.404833333333334E+009;1.763066500425339E-001;2.078377082943916E-002;-1.841116929426789E-003;-3.299850504845381E-003;
2.405000000000000E+009;1.758857667446137E-001;1.930179260671139E-002;-2.114255912601948E-003;-3.477532882243395E-003;
2.405166666666667E+009;1.753627508878708E-001;1.775360852479935E-002;-2.437038347125053E-003;-3.540974110364914E-003;
2.405333333333334E+009;1.749171912670136E-001;1.599719375371933E-002;-2.583163790404797E-003;-3.471476957201958E-003;
2.405500000000000E+009;1.742745190858841E-001;1.440661121159792E-002;-2.879274776205421E-003;-3.316921880468726E-003;
2.405666666666667E+009;1.739789098501205E-001;1.262746751308441E-002;-3.187560010701418E-003;-3.199254628270865E-003;
2.405833333333334E+009;1.734412759542465E-001;1.094424165785313E-002;-3.540836507454515E-003;-3.253584727644920E-003;
2.406000000000000E+009;1.732019782066345E-001;8.823149837553501E-003;-3.617589594796300E-003;-3.037712303921580E-003;
2.406166666666667E+009;1.727286279201508E-001;6.857846397906542E-003;-3.924236167222261E-003;-2.832268597558141E-003;
2.406333333333334E+009;1.726941615343094E-001;4.817288834601641E-003;-4.157270304858685E-003;-2.718190662562847E-003;
2.406500000000000E+009;1.724208742380142E-001;2.898089587688446E-003;-4.388408269733191E-003;-2.560520777478814E-003;
2.406666666666667E+009;1.721792817115784E-001;9.253002936020494E-004;-4.637714475393295E-003;-2.387511311098933E-003;
2.406833333333334E+009;1.722928285598755E-001;-1.329120015725493E-003;-4.686503671109676E-003;-2.160258824005723E-003;
2.407000000000000E+009;1.723299622535706E-001;-3.333690809085965E-003;-4.895932506769896E-003;-1.988954143598676E-003;
2.407166666666667E+009;1.725552082061768E-001;-5.460994318127632E-003;-5.103495903313160E-003;-1.776730408892036E-003;
2.407333333333334E+009;1.724685281515122E-001;-7.678550202399492E-003;-5.376781336963177E-003;-1.417221967130899E-003;
2.407500000000000E+009;1.728372722864151E-001;-9.665509685873985E-003;-5.338626913726330E-003;-1.153371529653668E-003;
2.407666666666667E+009;1.731171309947968E-001;-1.181071437895298E-002;-5.547244101762772E-003;-9.195898892357945E-004;
2.407833333333334E+009;1.732804775238037E-001;-1.401408948004246E-002;-5.473452620208263E-003;-6.188921979628503E-004;
2.408000000000000E+009;1.737133115530014E-001;-1.613410003483295E-002;-5.678753834217787E-003;-2.517220564186573E-004;
2.408166666666667E+009;1.741058975458145E-001;-1.798851042985916E-002;-5.493396427482367E-003;1.977848005481064E-004;
2.408333333333334E+009;1.746205538511276E-001;-1.998570188879967E-002;-5.575670860707760E-003;4.795888089574873E-004;
2.408500000000000E+009;1.749645173549652E-001;-2.177028357982636E-002;-5.481417290866375E-003;6.544068455696106E-004;
2.408666666666667E+009;1.755875051021576E-001;-2.378248237073422E-002;-5.513170268386602E-003;1.128795556724072E-003;
2.408833333333334E+009;1.759531199932098E-001;-2.550117485225201E-002;-5.459431093186140E-003;1.488966750912368E-003;
2.409000000000000E+009;1.763393431901932E-001;-2.703729271888733E-002;-5.280333571135998E-003;1.703240559436381E-003;
2.409166666666667E+009;1.768036782741547E-001;-2.858378738164902E-002;-5.145696923136711E-003;1.971082063391805E-003;
2.409333333333334E+009;1.774952113628388E-001;-3.025589697062969E-002;-4.921847954392433E-003;2.303990535438061E-003;
2.409500000000000E+009;1.779267638921738E-001;-3.168208152055740E-002;-4.611171316355467E-003;2.531136618927121E-003;
2.409666666666667E+009;1.782696247100830E-001;-3.281146287918091E-002;-4.490012768656015E-003;2.586368937045336E-003;
2.409833333333334E+009;1.787578016519547E-001;-3.377842530608177E-002;-4.347621463239193E-003;2.907774876803160E-003;
2.410000000000000E+009;1.793683469295502E-001;-3.488704189658165E-002;-4.169782157987356E-003;2.802377333864570E-003;
2.410166666666667E+009;1.798776984214783E-001;-3.566980734467506E-002;-3.896386129781604E-003;3.040541894733906E-003;
2.410333333333334E+009;1.803401261568070E-001;-3.664785623550415E-002;-3.822226310148835E-003;3.265012754127383E-003;
2.410500000000000E+009;1.809530705213547E-001;-3.721448034048080E-002;-3.551119705662131E-003;3.249831963330507E-003;
2.410666666666667E+009;1.812689751386643E-001;-3.811427205801010E-002;-3.354381537064910E-003;3.331225831061602E-003;
2.410833333333334E+009;1.816077679395676E-001;-3.857025504112244E-002;-3.180145518854260E-003;3.492212621495128E-003;
2.411000000000000E+009;1.819392144680023E-001;-3.906548395752907E-002;-3.069238970056176E-003;3.594903508201242E-003;
2.411166666666667E+009;1.820553541183472E-001;-3.981257602572441E-002;-2.642130013555288E-003;3.622627118602395E-003;
2.411333333333334E+009;1.821572631597519E-001;-4.011589288711548E-002;-2.559532877057791E-003;3.628350328654051E-003;
2.411500000000000E+009;1.822569221258164E-001;-4.057524725794792E-002;-2.417743671685457E-003;3.714936086907983E-003;
2.411666666666667E+009;1.826197206974030E-001;-4.096059128642082E-002;-2.191068138927221E-003;3.862072713673115E-003;
2.411833333333334E+009;1.823259443044663E-001;-4.122098162770271E-002;-2.090450609102845E-003;3.723673056811094E-003;
2.412000000000000E+009;1.823164671659470E-001;-4.166692122817040E-002;-2.040086546912789E-003;3.916162066161633E-003;
2.412166666666667E+009;1.816865950822830E-001;-4.206081107258797E-002;-1.751139876432717E-003;3.719780128449202E-003;
2.412333333333334E+009;1.815611273050308E-001;-4.210142046213150E-002;-1.797468285076320E-003;3.709580982103944E-003;
2.412500000000000E+009;1.808756291866303E-001;-4.245145246386528E-002;-1.544306520372629E-003;3.667699638754129E-003;
2.412666666666667E+009;1.803859174251556E-001;-4.316823557019234E-002;-1.377764041535556E-003;3.790282644331455E-003;
2.412833333333334E+009;1.798888444900513E-001;-4.314521327614784E-002;-1.232392736710608E-003;3.694548970088363E-003;
2.413000000000000E+009;1.788270771503449E-001;-4.348041117191315E-002;-1.346331671811640E-003;3.589158412069082E-003;
2.413166666666667E+009;1.780841648578644E-001;-4.388147965073586E-002;-1.074526924639940E-003;3.697938984259963E-003;
2.413333333333334E+009;1.770585179328919E-001;-4.441826790571213E-002;-9.463271708227694E-004;3.496548393741250E-003;
2.413500000000000E+009;1.761284172534943E-001;-4.475760459899902E-002;-1.000133110210300E-003;3.567071864381433E-003;
2.413666666666667E+009;1.752106398344040E-001;-4.538359493017197E-002;-7.712731603533030E-004;3.623769385740161E-003;
2.413833333333334E+009;1.739752888679504E-001;-4.591262340545654E-002;-8.574786479584873E-004;3.547964617609978E-003;
2.414000000000000E+009;1.727082878351212E-001;-4.659576341509819E-002;-7.517174817621708E-004;3.698019078001380E-003;
2.414166666666667E+009;1.716464608907700E-001;-4.716875776648521E-002;-6.587701500393450E-004;3.476117504760623E-003;
2.414333333333334E+009;1.704154163599014E-001;-4.801580309867859E-002;-5.350618739612401E-004;3.600736614316702E-003;
2.414500000000000E+009;1.692739129066467E-001;-4.885430261492729E-002;-3.805360174737871E-004;3.575569484382868E-003;
2.414666666666667E+009;1.679822653532028E-001;-4.971092566847801E-002;-4.597235820256174E-004;3.442532382905483E-003;
2.414833333333334E+009;1.666992306709290E-001;-5.068377032876015E-002;-2.882265544030815E-004;3.453888697549701E-003;
2.415000000000000E+009;1.653393507003784E-001;-5.197046324610710E-002;-2.908017486333847E-004;3.456779057160020E-003;
2.415166666666667E+009;1.640850305557251E-001;-5.331268906593323E-002;-2.908370224758983E-004;3.556274576112628E-003;
2.415333333333334E+009;1.631726473569870E-001;-5.461715161800385E-002;-1.618024398339912E-004;3.515564836561680E-003;
2.415500000000000E+009;1.617267429828644E-001;-5.587414652109146E-002;-6.323876004898921E-005;3.483168082311750E-003;
2.415666666666667E+009;1.606526076793671E-001;-5.737992376089096E-002;4.197507223580033E-005;3.455002792179585E-003;
2.415833333333334E+009;1.596102565526962E-001;-5.900856480002403E-002;8.185806655092165E-005;3.433069679886103E-003;
2.416000000000000E+009;1.583534479141235E-001;-6.077049300074577E-002;2.433855988783762E-004;3.485324094071984E-003;
2.416166666666667E+009;1.576611697673798E-001;-6.247244030237198E-002;2.446486323606223E-004;3.374203108251095E-003;
2.416333333333334E+009;1.566382646560669E-001;-6.433438509702683E-002;3.237832279410213E-004;3.342201001942158E-003;
2.416500000000000E+009;1.556065827608109E-001;-6.612168997526169E-002;4.427757230587304E-004;3.331942483782768E-003;
2.416666666666667E+009;1.547555327415466E-001;-6.789610534906387E-002;4.746350750792772E-004;3.298966446891427E-003;
2.416833333333334E+009;1.540456414222717E-001;-6.997726112604141E-002;5.135646206326783E-004;3.277268493548036E-003;
2.417000000000000E+009;1.529774367809296E-001;-7.193951308727264E-002;5.146625917404890E-004;3.314909525215626E-003;
2.417166666666667E+009;1.524501740932465E-001;-7.386511564254761E-002;5.502298008650541E-004;3.241304075345397E-003;
2.417333333333334E+009;1.518908590078354E-001;-7.581952959299088E-002;5.813937168568373E-004;3.269152017310262E-003;
2.417500000000000E+009;1.512749642133713E-001;-7.792212814092636E-002;6.611989811062813E-004;3.190155373886228E-003;
2.417666666666667E+009;1.508857905864716E-001;-7.965473085641861E-002;9.189879056066275E-004;3.125347662717104E-003;
2.417833333333334E+009;1.505619883537293E-001;-8.159779757261276E-002;7.188423769548535E-004;3.258680459111929E-003;
2.418000000000000E+009;1.499558687210083E-001;-8.352190256118774E-002;8.482671692036092E-004;3.260948695242405E-003;
2.418166666666667E+009;1.497473418712616E-001;-8.520788699388504E-002;8.366871043108404E-004;3.311611013486981E-003;
2.418333333333334E+009;1.499320566654205E-001;-8.701796084642410E-002;8.872302132658660E-004;3.377934219315648E-003;
2.418500000000000E+009;1.497409790754318E-001;-8.856127411127091E-002;1.086320611648262E-003;3.359249792993069E-003;
2.418666666666667E+009;1.496808379888535E-001;-9.028015285730362E-002;9.681183728389442E-004;3.519276855513454E-003;
2.418833333333334E+009;1.494320333003998E-001;-9.164384007453919E-002;1.164064509794116E-003;3.591053187847138E-003;
2.419000000000000E+009;1.495047211647034E-001;-9.306693822145462E-002;1.295978087000549E-003;3.692889120429754E-003;
2.419166666666667E+009;1.496544331312180E-001;-9.425745159387589E-002;1.357744797132909E-003;3.690309822559357E-003;
2.419333333333334E+009;1.496982276439667E-001;-9.516554325819016E-002;1.658583525568247E-003;3.810041118413210E-003;
2.419500000000000E+009;1.499218642711639E-001;-9.647560864686966E-002;1.868758234195411E-003;3.829819150269032E-003;
2.419666666666667E+009;1.502820104360580E-001;-9.737116843461990E-002;1.924309297464788E-003;3.785757347941399E-003;
2.419833333333334E+009;1.503002345561981E-001;-9.804713726043701E-002;2.220640890300274E-003;3.796658245846629E-003;
2.420000000000000E+009;1.507954299449921E-001;-9.873647242784500E-002;2.319491235539317E-003;3.879653057083488E-003;
2.420166666666667E+009;1.511489003896713E-001;-9.935635328292847E-002;2.606225898489356E-003;3.733844030648470E-003;
2.420333333333334E+009;1.513029485940933E-001;-9.988690167665482E-002;2.867311239242554E-003;3.612719010561705E-003;
2.420500000000000E+009;1.516705304384232E-001;-1.000889018177986E-001;3.040979383513331E-003;3.656437154859304E-003;
2.420666666666667E+009;1.520268768072128E-001;-1.002456322312355E-001;3.203984349966049E-003;3.578889183700085E-003;
2.420833333333334E+009;1.522178500890732E-001;-1.004202142357826E-001;3.192415926605463E-003;3.205256536602974E-003;
2.421000000000000E+009;1.523818522691727E-001;-1.006327196955681E-001;3.554597031325102E-003;3.178929677233100E-003;
2.421166666666667E+009;1.529095917940140E-001;-1.005323529243469E-001;3.788156667724252E-003;3.083943389356136E-003;
2.421333333333334E+009;1.528516113758087E-001;-1.004271954298019E-001;3.845811821520329E-003;2.880130195990205E-003;
2.421500000000000E+009;1.528156697750092E-001;-1.002481058239937E-001;4.214012529700995E-003;2.756268484517932E-003;
2.421666666666667E+009;1.530580222606659E-001;-1.001453921198845E-001;4.191462416201830E-003;2.493616659194231E-003;
2.421833333333334E+009;1.529195904731751E-001;-9.977735579013825E-002;4.233534447848797E-003;2.520426176488400E-003;
2.422000000000000E+009;1.527100354433060E-001;-9.963419288396835E-002;4.462638869881630E-003;2.179381204769015E-003;
2.422166666666667E+009;1.524357646703720E-001;-9.943224489688873E-002;4.431512672454119E-003;1.963831484317780E-003;
2.422333333333334E+009;1.521057486534119E-001;-9.896581619977951E-002;4.410242661833763E-003;1.809395616874099E-003;
2.422500000000000E+009;1.516232490539551E-001;-9.834727644920349E-002;4.861715715378523E-003;1.717988518066704E-003;
2.422666666666667E+009;1.510568708181381E-001;-9.821695834398270E-002;4.772225860506296E-003;1.324950833804905E-003;
2.422833333333334E+009;1.505388021469116E-001;-9.789066016674042E-002;4.790386650711298E-003;1.166477100923657E-003;
2.423000000000000E+009;1.496645063161850E-001;-9.745153784751892E-002;4.603342153131962E-003;1.096918596886098E-003;
2.423166666666667E+009;1.486719101667404E-001;-9.712265431880951E-002;4.945045337080956E-003;9.448868222534657E-004;
2.423333333333334E+009;1.479602456092835E-001;-9.651456028223038E-002;4.923378583043814E-003;7.186782895587385E-004;
2.423500000000000E+009;1.468939930200577E-001;-9.635013341903687E-002;4.946143832057715E-003;4.738947318401188E-004;
2.423666666666667E+009;1.454792618751526E-001;-9.614087641239166E-002;5.099683534353972E-003;3.158304025419056E-004;
2.423833333333334E+009;1.442551612854004E-001;-9.598610550165176E-002;4.960833583027124E-003;8.614672697149217E-005;
2.424000000000000E+009;1.430187672376633E-001;-9.563021361827850E-002;5.005403421819210E-003;1.036516041494906E-004;
2.424166666666667E+009;1.415973454713821E-001;-9.563294053077698E-002;4.995898809283972E-003;-2.121371217072010E-004;
2.424333333333334E+009;1.403020918369293E-001;-9.532430768013001E-002;5.038150586187840E-003;-4.842340131290257E-004;
2.424500000000000E+009;1.386671215295792E-001;-9.554685652256012E-002;4.991217050701380E-003;-6.783103453926742E-004;
2.424666666666667E+009;1.372885406017304E-001;-9.540335834026337E-002;4.841567482799292E-003;-9.162352071143687E-004;
2.424833333333334E+009;1.357443630695343E-001;-9.563559293746948E-002;4.966905340552330E-003;-8.904137648642063E-004;
2.425000000000000E+009;1.344026178121567E-001;-9.597223252058029E-002;4.761178977787495E-003;-1.302504097111523E-003;
2.425166666666667E+009;1.324420869350433E-001;-9.648266434669495E-002;4.854698199778795E-003;-1.424146117642522E-003;
2.425333333333334E+009;1.311811804771423E-001;-9.690301120281220E-002;4.723456688225269E-003;-1.745888963341713E-003;
2.425500000000000E+009;1.296277344226837E-001;-9.772064536809921E-002;4.710685927420855E-003;-1.818878808990121E-003;
2.425666666666667E+009;1.280683726072311E-001;-9.839758276939392E-002;4.721852485090494E-003;-1.936305430717766E-003;
2.425833333333334E+009;1.266311556100845E-001;-9.922745823860169E-002;4.504200536757708E-003;-2.282975474372506E-003;
2.426000000000000E+009;1.252961754798889E-001;-1.003521531820297E-001;4.284259397536516E-003;-2.347606001421809E-003;
2.426166666666667E+009;1.240243241190910E-001;-1.015457510948181E-001;4.161457065492868E-003;-2.608770970255137E-003;
2.426333333333334E+009;1.226080879569054E-001;-1.026705205440521E-001;4.115017130970955E-003;-2.658225130289793E-003;
2.426500000000000E+009;1.213280260562897E-001;-1.040361747145653E-001;3.946528304368258E-003;-2.924722386524081E-003;
2.426666666666667E+009;1.202220544219017E-001;-1.053309142589569E-001;3.847127547487617E-003;-2.941279672086239E-003;
2.426833333333334E+009;1.190842166543007E-001;-1.068557351827622E-001;3.671256592497230E-003;-3.157383296638727E-003;
2.427000000000000E+009;1.178730279207230E-001;-1.086276918649674E-001;3.554786322638392E-003;-3.231148002669215E-003;
2.427166666666667E+009;1.170628294348717E-001;-1.100777834653854E-001;3.375611500814557E-003;-3.486577887088060E-003;
2.427333333333334E+009;1.160421594977379E-001;-1.118165999650955E-001;3.013433422893286E-003;-3.436907660216093E-003;
2.427500000000000E+009;1.152792498469353E-001;-1.135513335466385E-001;3.058016765862703E-003;-3.439323743805289E-003;
2.427666666666667E+009;1.145601272583008E-001;-1.153672635555267E-001;2.817637054249644E-003;-3.521338105201721E-003;
