# Version 1.00
#
freq[Hz];re:Trc1_S11;im:Trc1_S11;re:Trc2_S21;im:Trc2_S21;
2.400000000000000E+009;1.693123877048492E-001;4.588389769196510E-002;-2.204673830419779E-003;-2.904696622863412E-003;
2.400166666666667E+009;1.703231781721115E-001;4.492092132568359E-002;-2.076120115816593E-003;-2.708130050450563E-003;
2.400333333333334E+009;1.712843775749207E-001;4.400610551238060E-002;-2.178846858441830E-003;-2.335149794816971E-003;
2.400500000000000E+009;1.722659468650818E-001;4.295759275555611E-002;-2.033586613833904E-003;-2.273789141327143E-003;
2.400666666666667E+009;1.732554733753204E-001;4.193465784192085E-002;-2.001676009967923E-003;-2.109723165631294E-003;
2.400833333333334E+009;1.742002218961716E-001;4.118320718407631E-002;-2.070304239168763E-003;-1.950440346263349E-003;
2.401000000000000E+009;1.748465299606323E-001;4.040677845478058E-002;-1.905643963254988E-003;-1.871389686129987E-003;
2.401166666666667E+009;1.756609082221985E-001;3.961768373847008E-002;-1.804738189093769E-003;-1.820698147639632E-003;
2.401333333333334E+009;1.762741804122925E-001;3.900790587067604E-002;-1.637562178075314E-003;-1.579280942678452E-003;
2.401500000000000E+009;1.772115677595139E-001;3.836070746183395E-002;-1.479612430557609E-003;-1.485286629758775E-003;
2.401666666666667E+009;1.778805553913117E-001;3.792785108089447E-002;-1.523707993328571E-003;-1.532076508738101E-003;
2.401833333333334E+009;1.781809926033020E-001;3.735648468136787E-002;-1.380600384436548E-003;-1.608060090802610E-003;
2.402000000000000E+009;1.786581128835678E-001;3.685901314020157E-002;-1.131764380261302E-003;-1.496013719588518E-003;
2.402166666666667E+009;1.790271103382111E-001;3.622433915734291E-002;-1.090435311198235E-003;-1.559650758281350E-003;
2.402333333333334E+009;1.793259382247925E-001;3.569023311138153E-002;-1.005413476377726E-003;-1.481910003349185E-003;
2.402500000000000E+009;1.798453927040100E-001;3.505174815654755E-002;-1.020077615976334E-003;-1.555910683237016E-003;
2.402666666666667E+009;1.797465085983276E-001;3.465268760919571E-002;-8.966882014647126E-004;-1.755997189320624E-003;
2.402833333333334E+009;1.799879074096680E-001;3.399719670414925E-002;-7.405916694551706E-004;-1.551940105855465E-003;
2.403000000000000E+009;1.801202148199081E-001;3.327498957514763E-002;-8.056376827880740E-004;-1.852297922596335E-003;
2.403166666666667E+009;1.801912039518356E-001;3.239947184920311E-002;-8.106186287477613E-004;-2.023516921326518E-003;
2.403333333333334E+009;1.800500899553299E-001;3.163279965519905E-002;-7.644733414053917E-004;-2.005090937018395E-003;
2.403500000000000E+009;1.797766089439392E-001;3.064047545194626E-002;-7.791461539454758E-004;-2.401402220129967E-003;
2.403666666666667E+009;1.795289367437363E-001;2.965961955487728E-002;-7.477437029592693E-004;-2.308142837136984E-003;
2.403833333333334E+009;1.793260127305985E-001;2.883881703019142E-002;-6.321624969132245E-004;-2.519309986382723E-003;
2.404000000000000E+009;1.789973825216293E-001;2.754006534814835E-002;-9.340328979305923E-004;-2.777441171929240E-003;
2.404166666666667E+009;1.783740222454071E-001;2.638613060116768E-002;-1.110437209717929E-003;-3.019286552444100E-003;
2.404333333333334E+009;1.778881102800369E-001;2.504588849842548E-002;-1.175823854282498E-003;-3.075979417189956E-003;
2.404500000000000E+009;1.773870885372162E-001;2.363120205700398E-002;-1.383068505674601E-003;-3.335832152515650E-003;
2.404666666666667E+009;1.769579797983170E-001;2.256453968584538E-002;-1.562818652018905E-003;-3.179172985255718E-003;
2.404833333333334E+009;1.763715744018555E-001;2.109276875853539E-002;-1.955923158675432E-003;-3.324968973174691E-003;
2.405000000000000E+009;1.758015602827072E-001;1.958042755723000E-002;-2.101409714668989E-003;-3.426545532420278E-003;
2.405166666666667E+009;1.753159165382385E-001;1.781603693962097E-002;-2.466152189299464E-003;-3.472289303317666E-003;
2.405333333333334E+009;1.746931970119476E-001;1.601087860763073E-002;-2.701495541259646E-003;-3.568263957276940E-003;
2.405500000000000E+009;1.744856089353561E-001;1.443757396191359E-002;-2.807904500514269E-003;-3.474225988611579E-003;
2.405666666666667E+009;1.739763915538788E-001;1.258308906108141E-002;-3.274408634752035E-003;-3.364258212968707E-003;
2.405833333333334E+009;1.734335124492645E-001;1.092117838561535E-002;-3.523204708471894E-003;-3.349244594573975E-003;
2.406000000000000E+009;1.732722371816635E-001;8.917557075619698E-003;-3.708216128870845E-003;-3.063665004447103E-003;
2.406166666666667E+009;1.728651821613312E-001;6.868622731417418E-003;-3.999288659542799E-003;-3.097765613347292E-003;
2.406333333333334E+009;1.727391034364700E-001;4.985539242625237E-003;-4.186592064797878E-003;-2.892320975661278E-003;
2.406500000000000E+009;1.724776327610016E-001;2.988114953041077E-003;-4.373961128294468E-003;-2.573197241872549E-003;
2.406666666666667E+009;1.720700114965439E-001;9.927457431331277E-004;-4.679097328335047E-003;-2.551882993429899E-003;
2.406833333333334E+009;1.722433865070343E-001;-1.306140096858144E-003;-4.661147017031908E-003;-2.195874461904168E-003;
2.407000000000000E+009;1.722245514392853E-001;-3.369758604094386E-003;-4.931085277348757E-003;-2.167051425203681E-003;
2.407166666666667E+009;1.724619567394257E-001;-5.306196399033070E-003;-5.118566565215588E-003;-1.548652886413038E-003;
2.407333333333334E+009;1.725740432739258E-001;-7.531682495027781E-003;-5.432958249002695E-003;-1.439337618649006E-003;
2.407500000000000E+009;1.727016568183899E-001;-9.612004272639751E-003;-5.376933142542839E-003;-1.120826113037765E-003;
2.407666666666667E+009;1.730764359235764E-001;-1.186432875692844E-002;-5.434124264866114E-003;-9.751013712957501E-004;
2.407833333333334E+009;1.732309162616730E-001;-1.399941463023424E-002;-5.619727075099945E-003;-3.887906204909086E-004;
2.408000000000000E+009;1.736891567707062E-001;-1.613591052591801E-002;-5.626127123832703E-003;-2.048621827270836E-004;
2.408166666666667E+009;1.739905178546906E-001;-1.780336163938046E-002;-5.523314233869314E-003;1.266964973183349E-004;
2.408333333333334E+009;1.746059358119965E-001;-1.997677050530911E-002;-5.423107650130987E-003;5.609055515378714E-004;
2.408500000000000E+009;1.749507188796997E-001;-2.180293016135693E-002;-5.495671648532152E-003;8.487330633215606E-004;
2.408666666666667E+009;1.755667626857758E-001;-2.370971255004406E-002;-5.352365318685770E-003;1.168560120277107E-003;
2.408833333333334E+009;1.758854538202286E-001;-2.542309835553169E-002;-5.254329647868872E-003;1.547938096337020E-003;
2.409000000000000E+009;1.762982010841370E-001;-2.718782797455788E-002;-5.120040383189917E-003;1.713219447992742E-003;
2.409166666666667E+009;1.769000142812729E-001;-2.859829925000668E-002;-5.016262643039227E-003;2.019903622567654E-003;
2.409333333333334E+009;1.775244325399399E-001;-3.005824796855450E-002;-4.814819432795048E-003;2.111863810569048E-003;
2.409500000000000E+009;1.778324395418167E-001;-3.173558786511421E-002;-4.633163567632437E-003;2.357597230002284E-003;
2.409666666666667E+009;1.783798336982727E-001;-3.265588730573654E-002;-4.443279933184385E-003;2.578909974545240E-003;
2.409833333333334E+009;1.787929236888886E-001;-3.367515280842781E-002;-4.239393398165703E-003;2.729663625359535E-003;
2.410000000000000E+009;1.794204413890839E-001;-3.481996431946755E-002;-4.026744980365038E-003;3.000822849571705E-003;
2.410166666666667E+009;1.799693107604981E-001;-3.564155474305153E-002;-3.908792510628700E-003;3.054908476769924E-003;
2.410333333333334E+009;1.801792383193970E-001;-3.638248145580292E-002;-3.709246171638370E-003;3.120876150205731E-003;
2.410500000000000E+009;1.808536946773529E-001;-3.717472776770592E-002;-3.641349961981177E-003;3.175615333020687E-003;
2.410666666666667E+009;1.811198890209198E-001;-3.804883733391762E-002;-3.424773924052715E-003;3.313114168122411E-003;
2.410833333333334E+009;1.816847920417786E-001;-3.850601986050606E-002;-3.033179556950927E-003;3.475508419796825E-003;
2.411000000000000E+009;1.819315850734711E-001;-3.926350548863411E-002;-3.022531745955348E-003;3.579266602173448E-003;
2.411166666666667E+009;1.821495890617371E-001;-3.982532769441605E-002;-2.852275036275387E-003;3.583403769880533E-003;
2.411333333333334E+009;1.820894479751587E-001;-4.001562669873238E-002;-2.606751862913370E-003;3.729221178218722E-003;
2.411500000000000E+009;1.822639554738998E-001;-4.071518778800964E-002;-2.572029130533338E-003;3.628256497904658E-003;
2.411666666666667E+009;1.823576241731644E-001;-4.090996086597443E-002;-2.305651083588600E-003;3.601532429456711E-003;
2.411833333333334E+009;1.822781264781952E-001;-4.120712354779244E-002;-2.103298669680953E-003;3.693365724757314E-003;
2.412000000000000E+009;1.820808351039887E-001;-4.152978584170342E-002;-1.892664469778538E-003;3.701740410178900E-003;
2.412166666666667E+009;1.817146539688110E-001;-4.192734882235527E-002;-1.863190555013716E-003;3.713758429512382E-003;
2.412333333333334E+009;1.816097646951675E-001;-4.220540449023247E-002;-1.571766450069845E-003;3.671486396342516E-003;
2.412500000000000E+009;1.809831112623215E-001;-4.257910326123238E-002;-1.491382950916886E-003;3.600274678319693E-003;
2.412666666666667E+009;1.803644448518753E-001;-4.294355586171150E-002;-1.447826041840017E-003;3.563384991139174E-003;
2.412833333333334E+009;1.798305809497833E-001;-4.318851605057716E-002;-1.250280765816569E-003;3.565866500139237E-003;
2.413000000000000E+009;1.789116263389587E-001;-4.363194853067398E-002;-1.165142282843590E-003;3.627245081588626E-003;
2.413166666666667E+009;1.781186759471893E-001;-4.396779090166092E-002;-1.171384705230594E-003;3.722370136529207E-003;
2.413333333333334E+009;1.770881265401840E-001;-4.438931867480278E-002;-9.003918967209756E-004;3.520109690725803E-003;
2.413500000000000E+009;1.762999147176743E-001;-4.478580504655838E-002;-9.196546161547303E-004;3.580481978133321E-003;
2.413666666666667E+009;1.749846190214157E-001;-4.535504058003426E-002;-9.991872357204557E-004;3.563541686162353E-003;
2.413833333333334E+009;1.739322394132614E-001;-4.586882144212723E-002;-7.832334958948195E-004;3.481941763311625E-003;
2.414000000000000E+009;1.728281229734421E-001;-4.658574610948563E-002;-8.010456804186106E-004;3.496409859508276E-003;
2.414166666666667E+009;1.717819571495056E-001;-4.718531668186188E-002;-6.008540512993932E-004;3.532808274030685E-003;
2.414333333333334E+009;1.703840643167496E-001;-4.804338142275810E-002;-4.237030516378582E-004;3.593352856114507E-003;
2.414500000000000E+009;1.692319661378861E-001;-4.885854572057724E-002;-4.642370331566781E-004;3.615263616666198E-003;
2.414666666666667E+009;1.679168790578842E-001;-4.974218457937241E-002;-5.074139917269349E-004;3.504338441416621E-003;
2.414833333333334E+009;1.666322946548462E-001;-5.098725482821465E-002;-3.397971449885517E-004;3.451616736128926E-003;
2.415000000000000E+009;1.653665155172348E-001;-5.197600647807121E-002;-2.964448940474540E-004;3.437831997871399E-003;
2.415166666666667E+009;1.641717404127121E-001;-5.326041951775551E-002;-4.392380287754349E-005;3.528619417920709E-003;
2.415333333333334E+009;1.630156189203262E-001;-5.456651002168655E-002;4.553341932478361E-005;3.518411424010992E-003;
2.415500000000000E+009;1.618678271770477E-001;-5.576638132333756E-002;6.929662777110934E-005;3.432826604694128E-003;
2.415666666666667E+009;1.608041524887085E-001;-5.742506310343742E-002;1.559298252686858E-004;3.476844867691398E-003;
2.415833333333334E+009;1.597303748130798E-001;-5.900925025343895E-002;1.358895242447034E-004;3.520367434248328E-003;
2.416000000000000E+009;1.583511233329773E-001;-6.067499145865440E-002;2.810741425491869E-004;3.398064989596605E-003;
2.416166666666667E+009;1.575369983911514E-001;-6.254018098115921E-002;1.470114948460832E-004;3.323782468214631E-003;
2.416333333333334E+009;1.565372198820114E-001;-6.421034783124924E-002;2.280876506119967E-004;3.389736637473106E-003;
2.416500000000000E+009;1.556034982204437E-001;-6.612345576286316E-002;4.617422237060964E-004;3.350849030539393E-003;
2.416666666666667E+009;1.547261923551559E-001;-6.795449554920197E-002;5.138693377375603E-004;3.436960978433490E-003;
2.416833333333334E+009;1.540270000696182E-001;-6.998524069786072E-002;5.147902411408722E-004;3.228300949558616E-003;
2.417000000000000E+009;1.530961841344833E-001;-7.196284085512161E-002;5.812399904243648E-004;3.304776502773166E-003;
2.417166666666667E+009;1.524889022111893E-001;-7.390906661748886E-002;6.521266186609864E-004;3.262848127633333E-003;
2.417333333333334E+009;1.517198979854584E-001;-7.582838088274002E-002;6.077500875107944E-004;3.218842670321465E-003;
2.417500000000000E+009;1.512442976236343E-001;-7.791547477245331E-002;7.821538019925356E-004;3.143521258607507E-003;
2.417666666666667E+009;1.508736163377762E-001;-7.974867522716522E-002;8.643943001516163E-004;3.212122479453683E-003;
2.417833333333334E+009;1.504716873168945E-001;-8.166847378015518E-002;7.837414741516113E-004;3.152774414047599E-003;
2.418000000000000E+009;1.500633955001831E-001;-8.353027701377869E-002;8.369092247448862E-004;3.240779507905245E-003;
2.418166666666667E+009;1.499202996492386E-001;-8.513360470533371E-002;7.677680114284158E-004;3.272107103839517E-003;
2.418333333333334E+009;1.499348580837250E-001;-8.702098578214645E-002;9.710658341646195E-004;3.391190199181438E-003;
2.418500000000000E+009;1.496651321649551E-001;-8.860412985086441E-002;9.806932648643851E-004;3.366134362295270E-003;
2.418666666666667E+009;1.497173905372620E-001;-9.018120169639587E-002;9.522003238089383E-004;3.430565120652318E-003;
2.418833333333334E+009;1.495184302330017E-001;-9.175761044025421E-002;1.078194356523454E-003;3.591856220737100E-003;
2.419000000000000E+009;1.495300233364105E-001;-9.296707063913345E-002;1.209194189868867E-003;3.577672876417637E-003;
2.419166666666667E+009;1.496589928865433E-001;-9.441298246383667E-002;1.324195298366249E-003;3.740001935511828E-003;
2.419333333333334E+009;1.497041732072830E-001;-9.535750001668930E-002;1.627405872568488E-003;3.867865307256579E-003;
2.419500000000000E+009;1.499837934970856E-001;-9.652250260114670E-002;1.735511468723416E-003;3.874076530337334E-003;
2.419666666666667E+009;1.503215581178665E-001;-9.745127707719803E-002;1.903747906908393E-003;3.828121582046151E-003;
2.419833333333334E+009;1.504430919885635E-001;-9.810762107372284E-002;2.160590840503573E-003;3.943508490920067E-003;
2.420000000000000E+009;1.508486270904541E-001;-9.871003031730652E-002;2.440994372591376E-003;3.723285626620054E-003;
2.420166666666667E+009;1.509538888931274E-001;-9.944272041320801E-002;2.511087106540799E-003;3.766927169635892E-003;
2.420333333333334E+009;1.513498276472092E-001;-9.992272406816483E-002;2.869210438802838E-003;3.645136952400208E-003;
2.420500000000000E+009;1.515602320432663E-001;-9.997382760047913E-002;2.843383699655533E-003;3.723917296156287E-003;
2.420666666666667E+009;1.518973261117935E-001;-1.001970842480660E-001;3.198874415829778E-003;3.520391415804625E-003;
2.420833333333334E+009;1.522734463214874E-001;-1.005781441926956E-001;3.441335167735815E-003;3.218127414584160E-003;
2.421000000000000E+009;1.524436622858048E-001;-1.005748361349106E-001;3.348288591951132E-003;3.208998823538423E-003;
2.421166666666667E+009;1.527226120233536E-001;-1.005316153168678E-001;3.802764462307096E-003;3.322731237858534E-003;
2.421333333333334E+009;1.528001427650452E-001;-1.005415841937065E-001;3.920326940715313E-003;2.981780329719186E-003;
2.421500000000000E+009;1.529109776020050E-001;-1.001430228352547E-001;4.043227527290583E-003;2.729205647483468E-003;
2.421666666666667E+009;1.530192643404007E-001;-1.000770777463913E-001;4.195218440145254E-003;2.548898104578257E-003;
2.421833333333334E+009;1.529633700847626E-001;-9.990465641021729E-002;4.285723902285099E-003;2.394405659288168E-003;
2.422000000000000E+009;1.528572738170624E-001;-9.959545731544495E-002;4.604494199156761E-003;2.218792214989662E-003;
2.422166666666667E+009;1.526416242122650E-001;-9.943773597478867E-002;4.386006854474545E-003;2.037751721218228E-003;
2.422333333333334E+009;1.521861106157303E-001;-9.902781248092651E-002;4.685736261308193E-003;1.802589511498809E-003;
2.422500000000000E+009;1.517058312892914E-001;-9.853193908929825E-002;4.647231660783291E-003;1.588494749739766E-003;
2.422666666666667E+009;1.510866135358810E-001;-9.818290174007416E-002;4.726062063127756E-003;1.434730016626418E-003;
2.422833333333334E+009;1.504838466644287E-001;-9.807411581277847E-002;4.826874937862158E-003;1.330769853666425E-003;
2.423000000000000E+009;1.496565937995911E-001;-9.746690839529038E-002;4.914303775876761E-003;1.074215630069375E-003;
2.423166666666667E+009;1.488364189863205E-001;-9.715221077203751E-002;4.989636130630970E-003;9.204694069921970E-004;
2.423333333333334E+009;1.480177044868469E-001;-9.670650213956833E-002;5.106451455503702E-003;8.234787965193391E-004;
2.423500000000000E+009;1.468531340360642E-001;-9.639145433902741E-002;4.951352253556252E-003;4.511271545197815E-004;
2.423666666666667E+009;1.452918648719788E-001;-9.623221307992935E-002;4.996235482394695E-003;3.664817195385695E-004;
2.423833333333334E+009;1.443986296653748E-001;-9.586746990680695E-002;4.911082796752453E-003;1.437874889234081E-004;
2.424000000000000E+009;1.428873538970947E-001;-9.559784084558487E-002;4.870618227869272E-003;-8.729118417249993E-005;
2.424166666666667E+009;1.415059417486191E-001;-9.544423222541809E-002;4.873491823673248E-003;-1.016043825075030E-004;
2.424333333333334E+009;1.401646137237549E-001;-9.535061568021774E-002;5.045427940785885E-003;-4.551689780782908E-004;
2.424500000000000E+009;1.385987997055054E-001;-9.540854394435883E-002;5.060042254626751E-003;-7.100287475623190E-004;
2.424666666666667E+009;1.373062729835510E-001;-9.536884725093842E-002;4.868230316787958E-003;-9.555115248076618E-004;
2.424833333333334E+009;1.357709914445877E-001;-9.566221386194229E-002;4.907601047307253E-003;-9.330336470156908E-004;
2.425000000000000E+009;1.342586427927017E-001;-9.594015777111054E-002;4.821673966944218E-003;-1.196814817376435E-003;
2.425166666666667E+009;1.327195763587952E-001;-9.635172784328461E-002;4.756501875817776E-003;-1.299200579524040E-003;
2.425333333333334E+009;1.310844123363495E-001;-9.690723568201065E-002;4.732405766844750E-003;-1.662240829318762E-003;
2.425500000000000E+009;1.296886056661606E-001;-9.756364673376083E-002;4.833375103771687E-003;-1.766405301168561E-003;
2.425666666666667E+009;1.280614882707596E-001;-9.837327897548676E-002;4.662323277443647E-003;-1.857746392488480E-003;
2.425833333333334E+009;1.266979575157166E-001;-9.934689104557037E-002;4.643289837986231E-003;-2.308888826519251E-003;
2.426000000000000E+009;1.251318007707596E-001;-1.004249453544617E-001;4.366194363683462E-003;-2.358556492254138E-003;
2.426166666666667E+009;1.241115555167198E-001;-1.014735698699951E-001;4.218571819365025E-003;-2.563695888966322E-003;
2.426333333333334E+009;1.224713772535324E-001;-1.026910617947578E-001;4.172953311353922E-003;-2.600770909339190E-003;
2.426500000000000E+009;1.213691830635071E-001;-1.039807498455048E-001;3.936379682272673E-003;-2.755052410066128E-003;
2.426666666666667E+009;1.202607378363609E-001;-1.053688079118729E-001;3.754758741706610E-003;-3.120242385193706E-003;
2.426833333333334E+009;1.191231384873390E-001;-1.069439128041267E-001;3.734428435564041E-003;-3.140910528600216E-003;
2.427000000000000E+009;1.179151460528374E-001;-1.085820049047470E-001;3.487332258373499E-003;-3.169976407662034E-003;
2.427166666666667E+009;1.169091835618019E-001;-1.101177632808685E-001;3.155148820951581E-003;-3.370044752955437E-003;
2.427333333333334E+009;1.159527301788330E-001;-1.117953136563301E-001;3.196393139660358E-003;-3.463140456005931E-003;
2.427500000000000E+009;1.153521612286568E-001;-1.135685816407204E-001;2.871339675039053E-003;-3.524931613355875E-003;
2.427666666666667E+009;1.144320890307427E-001;-1.154043152928352E-001;2.684987615793943E-003;-3.513871226459742E-003;
