# Version 1.00
#
freq[Hz];re:Trc1_S11;im:Trc1_S11;re:Trc2_S21;im:Trc2_S21;
2.400000000000000E+009;1.693739444017410E-001;4.597619175910950E-002;-2.031895332038403E-003;-2.761412877589464E-003;
2.400166666666667E+009;1.702970862388611E-001;4.493974149227142E-002;-2.248593140393496E-003;-2.649346832185984E-003;
2.400333333333334E+009;1.713188737630844E-001;4.385383427143097E-002;-2.084943000227213E-003;-2.420195378363133E-003;
2.400500000000000E+009;1.723405122756958E-001;4.290787875652313E-002;-2.176481764763594E-003;-2.287226729094982E-003;
2.400666666666667E+009;1.732117235660553E-001;4.209840670228005E-002;-2.045475644990802E-003;-2.064344473183155E-003;
2.400833333333334E+009;1.741420179605484E-001;4.121433198451996E-002;-1.896777888759971E-003;-1.972756115719676E-003;
2.401000000000000E+009;1.750869005918503E-001;4.041088744997978E-002;-1.909979153424501E-003;-1.773432944901288E-003;
2.401166666666667E+009;1.757771968841553E-001;3.971185162663460E-002;-1.837218063883483E-003;-1.753504271619022E-003;
2.401333333333334E+009;1.763107776641846E-001;3.902833908796310E-002;-1.641225884668529E-003;-1.743017812259495E-003;
2.401500000000000E+009;1.774375736713409E-001;3.861525282263756E-002;-1.679302193224430E-003;-1.678451779298484E-003;
2.401666666666667E+009;1.777986139059067E-001;3.796144947409630E-002;-1.418024534359574E-003;-1.644757576286793E-003;
2.401833333333334E+009;1.785066574811935E-001;3.740670904517174E-002;-1.382304355502129E-003;-1.663166098296642E-003;
2.402000000000000E+009;1.788159757852554E-001;3.663323819637299E-002;-1.320497947745025E-003;-1.608797465451062E-003;
2.402166666666667E+009;1.792464554309845E-001;3.617388755083084E-002;-1.294263522140682E-003;-1.612898777239025E-003;
2.402333333333334E+009;1.796034425497055E-001;3.556405007839203E-002;-1.157105318270624E-003;-1.624404452741146E-003;
2.402500000000000E+009;1.799774318933487E-001;3.509371727705002E-002;-9.211155120283365E-004;-1.491885399445891E-003;
2.402666666666667E+009;1.800506561994553E-001;3.451278805732727E-002;-1.046312740072608E-003;-1.565806800499558E-003;
2.402833333333334E+009;1.800740510225296E-001;3.382203727960587E-002;-9.850268252193928E-004;-1.704220892861486E-003;
2.403000000000000E+009;1.801563650369644E-001;3.307426348328590E-002;-9.132254635915160E-004;-1.892143045552075E-003;
2.403166666666667E+009;1.803928762674332E-001;3.228551521897316E-002;-8.424394181929529E-004;-1.948768389411271E-003;
2.403333333333334E+009;1.800308376550674E-001;3.147612512111664E-002;-7.812943658791482E-004;-1.952213235199451E-003;
2.403500000000000E+009;1.798379272222519E-001;3.077589347958565E-002;-7.819849997758865E-004;-2.313913544639945E-003;
2.403666666666667E+009;1.794558018445969E-001;2.973239496350288E-002;-8.082399144768715E-004;-2.375357318669558E-003;
2.403833333333334E+009;1.793343275785446E-001;2.854758128523827E-002;-1.041846000589430E-003;-2.637694589793682E-003;
2.404000000000000E+009;1.789658367633820E-001;2.756434306502342E-002;-8.562933071516454E-004;-2.890499308705330E-003;
2.404166666666667E+009;1.782912164926529E-001;2.637011744081974E-002;-1.102999201975763E-003;-2.869788091629744E-003;
2.404333333333334E+009;1.779926717281342E-001;2.521563880145550E-002;-1.224470790475607E-003;-3.020013216882944E-003;
2.404500000000000E+009;1.772247254848480E-001;2.376627549529076E-002;-1.358245383016765E-003;-3.267575986683369E-003;
2.404666666666667E+009;1.769609600305557E-001;2.252177707850933E-002;-1.499495236203075E-003;-3.398190718144178E-003;
2.404833333333334E+009;1.763188838958740E-001;2.085602656006813E-002;-1.883315038867295E-003;-3.441683948040009E-003;
2.405000000000000E+009;1.758505254983902E-001;1.936555467545986E-002;-2.148757455870509E-003;-3.518377430737019E-003;
2.405166666666667E+009;1.753021627664566E-001;1.777328178286552E-002;-2.346822060644627E-003;-3.403834300115705E-003;
2.405333333333334E+009;1.747646331787109E-001;1.606144569814205E-002;-2.703352831304073E-003;-3.405074821785092E-003;
2.405500000000000E+009;1.744573414325714E-001;1.444568578153849E-002;-2.892426215112209E-003;-3.347684396430850E-003;
2.405666666666667E+009;1.739004105329514E-001;1.260143052786589E-002;-3.247159998863936E-003;-3.260860452428460E-003;
2.405833333333334E+009;1.734658181667328E-001;1.087485998868942E-002;-3.426955780014396E-003;-3.109887940809131E-003;
2.406000000000000E+009;1.732073128223419E-001;8.722581900656223E-003;-3.660330781713128E-003;-3.155060345306993E-003;
2.406166666666667E+009;1.727581024169922E-001;6.914339959621429E-003;-3.855137387290597E-003;-2.887867391109467E-003;
2.406333333333334E+009;1.727480739355087E-001;5.011700559407473E-003;-4.200394731014967E-003;-2.787517150864005E-003;
2.406500000000000E+009;1.725065559148789E-001;2.944845240563154E-003;-4.341054707765579E-003;-2.623947802931070E-003;
2.406666666666667E+009;1.721471101045609E-001;8.798975613899529E-004;-4.554843995720148E-003;-2.412895439192653E-003;
2.406833333333334E+009;1.722900718450546E-001;-1.250840490683913E-003;-4.841768182814121E-003;-2.354222116991878E-003;
2.407000000000000E+009;1.723787933588028E-001;-3.214591648429632E-003;-4.897373728454113E-003;-1.927425735630095E-003;
2.407166666666667E+009;1.724832504987717E-001;-5.456630140542984E-003;-5.166205577552319E-003;-1.762992120347917E-003;
2.407333333333334E+009;1.725799292325974E-001;-7.679890375584364E-003;-5.310129839926958E-003;-1.413048827089369E-003;
2.407500000000000E+009;1.728927493095398E-001;-9.707862511277199E-003;-5.328670144081116E-003;-1.136319362558425E-003;
2.407666666666667E+009;1.730910539627075E-001;-1.188061945140362E-002;-5.563548766076565E-003;-9.741353569552302E-004;
2.407833333333334E+009;1.733403652906418E-001;-1.394663657993078E-002;-5.611517000943422E-003;-5.711177363991737E-004;
2.408000000000000E+009;1.737388223409653E-001;-1.591343246400356E-002;-5.614449270069599E-003;-3.426926850806922E-004;
2.408166666666667E+009;1.740905195474625E-001;-1.793217658996582E-002;-5.676383152604103E-003;2.590248186606914E-004;
2.408333333333334E+009;1.747585833072662E-001;-1.996314339339733E-002;-5.644119344651699E-003;4.001235938630998E-004;
2.408500000000000E+009;1.750794351100922E-001;-2.190859615802765E-002;-5.566075909882784E-003;7.707843906246126E-004;
2.408666666666667E+009;1.754773855209351E-001;-2.378726378083229E-002;-5.532270297408104E-003;9.873399976640940E-004;
2.408833333333334E+009;1.759198606014252E-001;-2.552836760878563E-002;-5.359557922929525E-003;1.493988092988730E-003;
2.409000000000000E+009;1.764360666275024E-001;-2.714852243661881E-002;-5.255319643765688E-003;1.631488907150924E-003;
2.409166666666667E+009;1.768911033868790E-001;-2.865240350365639E-002;-5.057503003627062E-003;2.006382681429386E-003;
2.409333333333334E+009;1.775276660919190E-001;-3.028751537203789E-002;-4.931711591780186E-003;2.130989218130708E-003;
2.409500000000000E+009;1.779032647609711E-001;-3.152206540107727E-002;-4.774160217493773E-003;2.587691415101290E-003;
2.409666666666667E+009;1.783147007226944E-001;-3.268656134605408E-002;-4.560563247650862E-003;2.478973241522908E-003;
2.409833333333334E+009;1.788064092397690E-001;-3.371572121977806E-002;-4.306525457650423E-003;2.871132455766201E-003;
2.410000000000000E+009;1.794132143259049E-001;-3.474814444780350E-002;-4.319611005485058E-003;3.003910183906555E-003;
2.410166666666667E+009;1.798115968704224E-001;-3.564347699284554E-002;-3.936234861612320E-003;3.062982344999909E-003;
2.410333333333334E+009;1.802512258291245E-001;-3.644399344921112E-002;-3.745232941582799E-003;3.243922023102641E-003;
2.410500000000000E+009;1.808668524026871E-001;-3.715819492936134E-002;-3.536547999829054E-003;3.332352731376886E-003;
2.410666666666667E+009;1.812135279178619E-001;-3.807909414172173E-002;-3.287189407274127E-003;3.503829939290881E-003;
2.410833333333334E+009;1.815575659275055E-001;-3.849974647164345E-002;-3.225611755624414E-003;3.447075141593814E-003;
2.411000000000000E+009;1.818142235279083E-001;-3.917633369565010E-002;-3.144705202430487E-003;3.500986145809293E-003;
2.411166666666667E+009;1.821518689393997E-001;-3.961564972996712E-002;-2.925168257206678E-003;3.586844308301806E-003;
2.411333333333334E+009;1.822048872709274E-001;-4.002112895250320E-002;-2.773090731352568E-003;3.620647126808763E-003;
2.411500000000000E+009;1.822777539491653E-001;-4.059235751628876E-002;-2.495711669325829E-003;3.595239249989390E-003;
2.411666666666667E+009;1.826621592044830E-001;-4.097120836377144E-002;-2.187279751524329E-003;3.591665765270591E-003;
2.411833333333334E+009;1.823634207248688E-001;-4.112095385789871E-002;-2.149218460544944E-003;3.727773670107126E-003;
2.412000000000000E+009;1.821560412645340E-001;-4.165910929441452E-002;-1.891928026452661E-003;3.743997076526284E-003;
2.412166666666667E+009;1.818034797906876E-001;-4.203395172953606E-002;-1.782721257768571E-003;3.713523969054222E-003;
2.412333333333334E+009;1.816257238388062E-001;-4.220643267035484E-002;-1.574774505570531E-003;3.876265371218324E-003;
2.412500000000000E+009;1.809329539537430E-001;-4.249569028615952E-002;-1.506211701780558E-003;3.683096263557673E-003;
2.412666666666667E+009;1.804669946432114E-001;-4.294453933835030E-002;-1.367227523587644E-003;3.775911405682564E-003;
2.412833333333334E+009;1.796712130308151E-001;-4.320669174194336E-002;-1.229723333381116E-003;3.663369687274098E-003;
2.413000000000000E+009;1.789588630199432E-001;-4.360304772853851E-002;-1.144510461017489E-003;3.617193782702088E-003;
2.413166666666667E+009;1.781137734651566E-001;-4.403054714202881E-002;-1.100590685382485E-003;3.566999454051256E-003;
2.413333333333334E+009;1.768946796655655E-001;-4.442783072590828E-002;-1.015625079162419E-003;3.534567309543490E-003;
2.413500000000000E+009;1.761684417724609E-001;-4.488543421030045E-002;-9.109593229368329E-004;3.523681079968810E-003;
2.413666666666667E+009;1.752216070890427E-001;-4.531835764646530E-002;-8.763845544308424E-004;3.396625164896250E-003;
2.413833333333334E+009;1.739508062601090E-001;-4.590968415141106E-002;-6.232097512111068E-004;3.594638779759407E-003;
2.414000000000000E+009;1.726831793785095E-001;-4.654732719063759E-002;-7.311821100302041E-004;3.388560144230723E-003;
2.414166666666667E+009;1.716348975896835E-001;-4.724035412073135E-002;-6.447259802371264E-004;3.467205679044128E-003;
2.414333333333334E+009;1.702996045351028E-001;-4.811286926269531E-002;-5.940829287283123E-004;3.567146137356758E-003;
2.414500000000000E+009;1.692945063114166E-001;-4.878415167331696E-002;-5.853414768353105E-004;3.497059457004070E-003;
2.414666666666667E+009;1.680052578449249E-001;-4.978470131754875E-002;-4.681656137108803E-004;3.533836221322417E-003;
2.414833333333334E+009;1.667463928461075E-001;-5.091432109475136E-002;-1.137305953307077E-004;3.407660406082869E-003;
2.415000000000000E+009;1.652731299400330E-001;-5.185380578041077E-002;-6.623761146329343E-005;3.466194029897451E-003;
2.415166666666667E+009;1.641048043966293E-001;-5.329780280590057E-002;-3.365367956575938E-005;3.496121149510145E-003;
2.415333333333334E+009;1.631861627101898E-001;-5.466568842530251E-002;-3.813131797869573E-006;3.446490969508886E-003;
2.415500000000000E+009;1.618674993515015E-001;-5.590482056140900E-002;-1.174531644210219E-004;3.644856857135892E-003;
2.415666666666667E+009;1.607402414083481E-001;-5.739475414156914E-002;8.601156878285110E-006;3.421199973672628E-003;
2.415833333333334E+009;1.597336977720261E-001;-5.894533917307854E-002;9.229322313331068E-005;3.530204063281417E-003;
2.416000000000000E+009;1.584622263908386E-001;-6.073954328894615E-002;8.766065002419055E-005;3.395923646166921E-003;
2.416166666666667E+009;1.575946956872940E-001;-6.241849437355995E-002;1.678545086178929E-004;3.458550199866295E-003;
2.416333333333334E+009;1.565691232681274E-001;-6.412572413682938E-002;4.103944229427725E-004;3.409082768484950E-003;
2.416500000000000E+009;1.555884331464768E-001;-6.615482270717621E-002;4.384336352813989E-004;3.360571106895804E-003;
2.416666666666667E+009;1.546967476606369E-001;-6.791757792234421E-002;4.520304501056671E-004;3.361458424478769E-003;
2.416833333333334E+009;1.540678739547730E-001;-7.010620832443237E-002;5.457413499243558E-004;3.403805429115892E-003;
2.417000000000000E+009;1.530631333589554E-001;-7.194866240024567E-002;6.602187058888376E-004;3.378425491973758E-003;
2.417166666666667E+009;1.524195075035095E-001;-7.393249124288559E-002;6.758850067853928E-004;3.261486534029245E-003;
2.417333333333334E+009;1.519397348165512E-001;-7.574054598808289E-002;7.208625902421773E-004;3.254270646721125E-003;
2.417500000000000E+009;1.512692272663117E-001;-7.796795666217804E-002;7.847356610000134E-004;3.182573011144996E-003;
2.417666666666667E+009;1.508990079164505E-001;-7.958083599805832E-002;7.519272039644420E-004;3.190876450389624E-003;
2.417833333333334E+009;1.505172103643417E-001;-8.158092200756073E-002;8.074332145042718E-004;3.266967134550214E-003;
2.418000000000000E+009;1.502127498388290E-001;-8.356018364429474E-002;9.268455323763192E-004;3.328257007524371E-003;
2.418166666666667E+009;1.498820036649704E-001;-8.519190549850464E-002;9.297634824179113E-004;3.305796533823013E-003;
2.418333333333334E+009;1.499168723821640E-001;-8.704429119825363E-002;8.372120792046189E-004;3.298372961580753E-003;
2.418500000000000E+009;1.495364904403687E-001;-8.854374289512634E-002;9.361052070744336E-004;3.336560679599643E-003;
2.418666666666667E+009;1.496470123529434E-001;-9.024872630834580E-002;1.074022846296430E-003;3.456722712144256E-003;
2.418833333333334E+009;1.494616270065308E-001;-9.160912781953812E-002;1.081046997569501E-003;3.629297483712435E-003;
2.419000000000000E+009;1.495425254106522E-001;-9.296010434627533E-002;1.302517019212246E-003;3.673065220937133E-003;
2.419166666666667E+009;1.497583836317062E-001;-9.430047869682312E-002;1.331667182967067E-003;3.709644544869661E-003;
2.419333333333334E+009;1.497821062803268E-001;-9.523878991603851E-002;1.465866575017571E-003;3.777055069804192E-003;
2.419500000000000E+009;1.500355303287506E-001;-9.649345278739929E-002;1.705186325125396E-003;3.807819681242108E-003;
2.419666666666667E+009;1.502111703157425E-001;-9.743735194206238E-002;1.955721527338028E-003;3.850339213386178E-003;
2.419833333333334E+009;1.503968387842178E-001;-9.809218347072601E-002;2.224101917818189E-003;3.842011792585254E-003;
2.420000000000000E+009;1.509593874216080E-001;-9.882199764251709E-002;2.255274681374431E-003;3.731965087354183E-003;
2.420166666666667E+009;1.510435640811920E-001;-9.939771890640259E-002;2.545921364799142E-003;3.851356916129589E-003;
2.420333333333334E+009;1.514054387807846E-001;-9.980674833059311E-002;2.676891628652811E-003;3.667575074359775E-003;
2.420500000000000E+009;1.516934186220169E-001;-1.000477522611618E-001;3.079058602452278E-003;3.577514318749309E-003;
2.420666666666667E+009;1.520630866289139E-001;-1.002882197499275E-001;3.250721842050552E-003;3.377343993633986E-003;
2.420833333333334E+009;1.523849964141846E-001;-1.005126163363457E-001;3.339897142723203E-003;3.438777290284634E-003;
2.421000000000000E+009;1.524370461702347E-001;-1.006616577506065E-001;3.609251463785768E-003;3.299695206806064E-003;
2.421166666666667E+009;1.527033597230911E-001;-1.004097387194634E-001;3.743337001651526E-003;3.106798278167844E-003;
2.421333333333334E+009;1.529712527990341E-001;-1.004825606942177E-001;3.957143519073725E-003;2.921052742749453E-003;
2.421500000000000E+009;1.528429985046387E-001;-1.003112196922302E-001;4.140155855566263E-003;2.795092063024640E-003;
2.421666666666667E+009;1.530221998691559E-001;-1.002130284905434E-001;4.078193567693234E-003;2.596998820081353E-003;
2.421833333333334E+009;1.530555486679077E-001;-9.990129619836807E-002;4.282020032405853E-003;2.388658002018929E-003;
2.422000000000000E+009;1.527011394500732E-001;-9.952259063720703E-002;4.262801725417376E-003;2.247577765956521E-003;
2.422166666666667E+009;1.524707674980164E-001;-9.920108318328857E-002;4.588385578244925E-003;2.000594045966864E-003;
2.422333333333334E+009;1.522874385118485E-001;-9.894424676895142E-002;4.679022356867790E-003;1.783909159712493E-003;
2.422500000000000E+009;1.516968011856079E-001;-9.846624732017517E-002;4.668946843594313E-003;1.796766184270382E-003;
2.422666666666667E+009;1.510400474071503E-001;-9.817714244127274E-002;4.801266826689243E-003;1.542772515676916E-003;
2.422833333333334E+009;1.504384428262711E-001;-9.798520803451538E-002;4.814715590327978E-003;1.339343143627048E-003;
2.423000000000000E+009;1.495502889156342E-001;-9.749449789524078E-002;4.770923871546984E-003;1.273875008337200E-003;
2.423166666666667E+009;1.488970220088959E-001;-9.717292338609695E-002;4.939151927828789E-003;9.568396490067244E-004;
2.423333333333334E+009;1.479211151599884E-001;-9.651424735784531E-002;4.824685398489237E-003;7.670640479773283E-004;
2.423500000000000E+009;1.466669291257858E-001;-9.639730304479599E-002;4.974205978214741E-003;5.993994418531656E-004;
2.423666666666667E+009;1.455154716968536E-001;-9.610681235790253E-002;5.103379022330046E-003;3.783362917602062E-004;
2.423833333333334E+009;1.443860530853272E-001;-9.602641314268112E-002;4.922647494822741E-003;2.150777581846342E-004;
2.424000000000000E+009;1.430044621229172E-001;-9.568081796169281E-002;5.079545080661774E-003;1.017561735352501E-004;
2.424166666666667E+009;1.414849609136581E-001;-9.541747719049454E-002;4.975681658834219E-003;-9.819509432418272E-005;
2.424333333333334E+009;1.402241885662079E-001;-9.530816227197647E-002;4.893525969237089E-003;-3.674529434647411E-004;
2.424500000000000E+009;1.388463228940964E-001;-9.543118625879288E-002;5.043572280555964E-003;-4.900299245491624E-004;
2.424666666666667E+009;1.374313533306122E-001;-9.531108289957047E-002;4.985384643077850E-003;-7.663000724278390E-004;
2.424833333333334E+009;1.357029378414154E-001;-9.566026926040649E-002;5.045999307185412E-003;-9.642845252528787E-004;
2.425000000000000E+009;1.343356519937515E-001;-9.609775245189667E-002;4.947599954903126E-003;-1.245021820068359E-003;
2.425166666666667E+009;1.326300799846649E-001;-9.633378684520721E-002;4.859054926782847E-003;-1.241079997271299E-003;
2.425333333333334E+009;1.310736835002899E-001;-9.697610884904862E-002;4.996807780116797E-003;-1.567346043884754E-003;
2.425500000000000E+009;1.298175603151321E-001;-9.764610975980759E-002;4.793194122612476E-003;-1.772420131601393E-003;
2.425666666666667E+009;1.279798448085785E-001;-9.841293096542358E-002;4.626986570656300E-003;-1.991757890209556E-003;
2.425833333333334E+009;1.265481561422348E-001;-9.930284321308136E-002;4.510353785008192E-003;-2.113878726959229E-003;
2.426000000000000E+009;1.251597553491592E-001;-1.003010720014572E-001;4.571186378598213E-003;-2.334067597985268E-003;
2.426166666666667E+009;1.239682510495186E-001;-1.015229895710945E-001;4.241788759827614E-003;-2.569477306678891E-003;
2.426333333333334E+009;1.225379705429077E-001;-1.027257293462753E-001;4.156416282057762E-003;-2.695016330108047E-003;
2.426500000000000E+009;1.212940365076065E-001;-1.039204970002174E-001;4.055900964885950E-003;-2.701980061829090E-003;
2.426666666666667E+009;1.202414631843567E-001;-1.053911671042442E-001;3.879665397107601E-003;-2.969443332403898E-003;
2.426833333333334E+009;1.190367490053177E-001;-1.069042608141899E-001;3.720562206581235E-003;-3.189651528373361E-003;
2.427000000000000E+009;1.179534941911697E-001;-1.086024269461632E-001;3.397353924810886E-003;-3.356635337695479E-003;
2.427166666666667E+009;1.170505359768868E-001;-1.101026907563210E-001;3.397879423573613E-003;-3.304149489849806E-003;
2.427333333333334E+009;1.160839349031448E-001;-1.118503585457802E-001;3.043307689949870E-003;-3.260411089286208E-003;
2.427500000000000E+009;1.153411790728569E-001;-1.135533601045609E-001;2.983673010021448E-003;-3.380958223715425E-003;
2.427666666666667E+009;1.145042181015015E-001;-1.153614595532417E-001;2.786421217024326E-003;-3.561416873708367E-003;
