# Version 1.00
#
freq[Hz];re:Trc1_S11;im:Trc1_S11;re:Trc2_S21;im:Trc2_S21;
2.400000000000000E+009;1.680342257022858E-001;4.713014140725136E-002;-2.158999443054199E-003;4.922261461615562E-003;
2.400166666666667E+009;1.690952032804489E-001;4.625505954027176E-002;-2.227492164820433E-003;5.047258920967579E-003;
2.400333333333334E+009;1.700363606214523E-001;4.502567276358604E-002;-2.075596479699016E-003;5.247488152235746E-003;
2.400500000000000E+009;1.710065901279450E-001;4.407575726509094E-002;-1.990046119317412E-003;5.144987720996141E-003;
2.400666666666667E+009;1.717689484357834E-001;4.293607547879219E-002;-2.100612735375762E-003;5.331130698323250E-003;
2.400833333333334E+009;1.727230548858643E-001;4.208061471581459E-002;-1.778540201485157E-003;5.251139868050814E-003;
2.401000000000000E+009;1.736405640840530E-001;4.107140004634857E-002;-1.591003849171102E-003;5.479663610458374E-003;
2.401166666666667E+009;1.744653880596161E-001;4.025579616427422E-002;-1.546432147733867E-003;5.622053518891335E-003;
2.401333333333334E+009;1.750277578830719E-001;3.954610973596573E-002;-1.285445061512291E-003;5.702876951545477E-003;
2.401500000000000E+009;1.757599264383316E-001;3.873933106660843E-002;-1.002210425212979E-003;5.900292191654444E-003;
2.401666666666667E+009;1.764107942581177E-001;3.799866512417793E-002;-7.812759722582996E-004;6.065176334232092E-003;
2.401833333333334E+009;1.770671010017395E-001;3.739534690976143E-002;-6.058925646357238E-004;6.114780437201262E-003;
2.402000000000000E+009;1.776956021785736E-001;3.652723878622055E-002;-3.833512600976974E-004;6.263572257012129E-003;
2.402166666666667E+009;1.779812574386597E-001;3.580514714121819E-002;-1.620990369701758E-004;6.201408803462982E-003;
2.402333333333334E+009;1.783290058374405E-001;3.501719981431961E-002;2.441515098325908E-004;6.219666451215744E-003;
2.402500000000000E+009;1.787496805191040E-001;3.455705568194389E-002;4.361737810540944E-004;6.248448044061661E-003;
2.402666666666667E+009;1.789748668670654E-001;3.389081358909607E-002;6.875161780044437E-004;6.108538247644901E-003;
2.402833333333334E+009;1.793514192104340E-001;3.307699784636498E-002;9.408553014509380E-004;6.243217736482620E-003;
2.403000000000000E+009;1.794251501560211E-001;3.234902396798134E-002;1.240128302015364E-003;5.914158187806606E-003;
2.403166666666667E+009;1.793962419033051E-001;3.142325952649117E-002;1.399429980665445E-003;5.978434346616268E-003;
2.403333333333334E+009;1.794816255569458E-001;3.066757321357727E-002;1.616286346688867E-003;5.944042466580868E-003;
2.403500000000000E+009;1.791889369487763E-001;2.954368107020855E-002;1.771440263837576E-003;5.895437207072973E-003;
2.403666666666667E+009;1.790824681520462E-001;2.858625352382660E-002;2.157356822863221E-003;5.623131059110165E-003;
2.403833333333334E+009;1.789696663618088E-001;2.752752788364887E-002;2.225200645625591E-003;5.710134748369455E-003;
2.404000000000000E+009;1.786948293447495E-001;2.648138068616390E-002;2.467258833348751E-003;5.356391426175833E-003;
2.404166666666667E+009;1.780921816825867E-001;2.514133974909782E-002;2.622504485771060E-003;5.228862166404724E-003;
2.404333333333334E+009;1.778466254472733E-001;2.412430383265019E-002;2.741933101788163E-003;5.122076254338026E-003;
2.404500000000000E+009;1.773305237293243E-001;2.270327135920525E-002;2.956332638859749E-003;5.038394127041102E-003;
2.404666666666667E+009;1.769556999206543E-001;2.126806229352951E-002;3.087837947532535E-003;4.979165736585856E-003;
2.404833333333334E+009;1.765970736742020E-001;1.999598555266857E-002;3.181125037372112E-003;4.964987281709909E-003;
2.405000000000000E+009;1.760192811489105E-001;1.840277202427387E-002;3.345242468640208E-003;4.947281908243895E-003;
2.405166666666667E+009;1.756835430860519E-001;1.693980209529400E-002;3.483747830614448E-003;4.782464820891619E-003;
2.405333333333334E+009;1.754731535911560E-001;1.524207368493080E-002;3.708975156769157E-003;4.508571233600378E-003;
2.405500000000000E+009;1.749953776597977E-001;1.380666065961123E-002;3.783469088375568E-003;4.484049044549465E-003;
2.405666666666667E+009;1.745134294033051E-001;1.198533363640308E-002;4.144207574427128E-003;4.318454768508673E-003;
2.405833333333334E+009;1.740610599517822E-001;1.045264769345522E-002;4.130197223275900E-003;4.233070183545351E-003;
2.406000000000000E+009;1.738328784704208E-001;8.526072837412357E-003;4.228428471833468E-003;4.042197484523058E-003;
2.406166666666667E+009;1.734039485454559E-001;6.735554430633783E-003;4.558249842375517E-003;3.820745274424553E-003;
2.406333333333334E+009;1.735401898622513E-001;4.807026591151953E-003;4.765010904520750E-003;3.698829794302583E-003;
2.406500000000000E+009;1.732991933822632E-001;2.778675872832537E-003;4.814035724848509E-003;3.540742909535766E-003;
2.406666666666667E+009;1.729741096496582E-001;1.041891751810908E-003;5.035460460931063E-003;3.296575043350458E-003;
2.406833333333334E+009;1.730976253747940E-001;-1.042103860527277E-003;5.220364313572645E-003;3.164265770465136E-003;
2.407000000000000E+009;1.731235235929489E-001;-3.006041748449206E-003;5.308064632117748E-003;3.039346542209387E-003;
2.407166666666667E+009;1.732641160488129E-001;-5.045524798333645E-003;5.489535629749298E-003;2.815861487761140E-003;
2.407333333333334E+009;1.733657717704773E-001;-7.065332494676113E-003;5.611178930848837E-003;2.538854721933603E-003;
2.407500000000000E+009;1.734287440776825E-001;-9.149529039859772E-003;5.659461021423340E-003;2.290297532454133E-003;
2.407666666666667E+009;1.738233417272568E-001;-1.097116246819496E-002;5.843537859618664E-003;1.975042046979070E-003;
2.407833333333334E+009;1.738923788070679E-001;-1.321381889283657E-002;5.830809473991394E-003;1.791841932572424E-003;
2.408000000000000E+009;1.743564158678055E-001;-1.527271699160337E-002;5.889632273465395E-003;1.518071629106998E-003;
2.408166666666667E+009;1.745958030223846E-001;-1.703467778861523E-002;6.087652873247862E-003;1.301349606364965E-003;
2.408333333333334E+009;1.750634461641312E-001;-1.903735846281052E-002;5.927810445427895E-003;8.626847993582487E-004;
2.408500000000000E+009;1.752424836158752E-001;-2.094215899705887E-002;6.099621299654245E-003;6.146741216070950E-004;
2.408666666666667E+009;1.755991429090500E-001;-2.276918664574623E-002;6.086918059736490E-003;2.956790849566460E-004;
2.408833333333334E+009;1.758066862821579E-001;-2.447497658431530E-002;5.968164186924696E-003;-6.001475867378758E-006;
2.409000000000000E+009;1.762414425611496E-001;-2.604773454368115E-002;5.991583690047264E-003;-3.244333784095943E-004;
2.409166666666667E+009;1.767004132270813E-001;-2.754276804625988E-002;5.905010271817446E-003;-6.516264402307570E-004;
2.409333333333334E+009;1.770700663328171E-001;-2.911191992461681E-002;5.867317784577608E-003;-9.384328732267022E-004;
2.409500000000000E+009;1.775377243757248E-001;-3.041949681937695E-002;5.687674507498741E-003;-1.125490642152727E-003;
2.409666666666667E+009;1.776614189147949E-001;-3.172865137457848E-002;5.678333807736635E-003;-1.362621784210205E-003;
2.409833333333334E+009;1.781173050403595E-001;-3.255119174718857E-002;5.427932366728783E-003;-1.661242800764740E-003;
2.410000000000000E+009;1.785647720098496E-001;-3.349970281124115E-002;5.320135504007340E-003;-1.906703924760222E-003;
2.410166666666667E+009;1.789889633655548E-001;-3.452224284410477E-002;5.161310080438852E-003;-2.045619301497936E-003;
2.410333333333334E+009;1.793651431798935E-001;-3.538664430379868E-002;4.820044152438641E-003;-2.330533694475889E-003;
2.410500000000000E+009;1.797896921634674E-001;-3.613166138529778E-002;4.791822284460068E-003;-2.484357450157404E-003;
2.410666666666667E+009;1.801865696907044E-001;-3.688691928982735E-002;4.676851443946362E-003;-2.559643937274814E-003;
2.410833333333334E+009;1.804139763116837E-001;-3.751613199710846E-002;4.549448844045401E-003;-2.918240847066045E-003;
2.411000000000000E+009;1.807575523853302E-001;-3.813938796520233E-002;4.360585007816553E-003;-3.041228977963328E-003;
2.411166666666667E+009;1.810195744037628E-001;-3.868628665804863E-002;4.051941446959972E-003;-3.077567322179675E-003;
2.411333333333334E+009;1.810351014137268E-001;-3.925463929772377E-002;3.776673926040530E-003;-3.209755755960941E-003;
2.411500000000000E+009;1.811449229717255E-001;-3.979754820466042E-002;3.590105799958110E-003;-3.430955577641726E-003;
2.411666666666667E+009;1.814026087522507E-001;-4.011059552431107E-002;3.460227744653821E-003;-3.488525515422225E-003;
2.411833333333334E+009;1.811454296112061E-001;-4.061322659254074E-002;3.160323249176145E-003;-3.506222739815712E-003;
2.412000000000000E+009;1.810247749090195E-001;-4.105271399021149E-002;2.979489974677563E-003;-3.688037395477295E-003;
2.412166666666667E+009;1.807063072919846E-001;-4.161700606346130E-002;2.828159369528294E-003;-3.711666446179152E-003;
2.412333333333334E+009;1.805669367313385E-001;-4.168856516480446E-002;2.502680756151676E-003;-3.810741472989321E-003;
2.412500000000000E+009;1.799585223197937E-001;-4.218553006649017E-002;2.297111088410020E-003;-3.810754278674722E-003;
2.412666666666667E+009;1.794142127037048E-001;-4.266297072172165E-002;2.050618175417185E-003;-3.886448685079813E-003;
2.412833333333334E+009;1.788832843303680E-001;-4.316126927733421E-002;1.665498130023480E-003;-3.765533445402980E-003;
2.413000000000000E+009;1.780619919300079E-001;-4.343448206782341E-002;1.531981281004846E-003;-3.731215838342905E-003;
2.413166666666667E+009;1.773779541254044E-001;-4.387016221880913E-002;1.265514409169555E-003;-3.624130738899112E-003;
2.413333333333334E+009;1.764847487211227E-001;-4.437328875064850E-002;1.134606543928385E-003;-3.669849364086986E-003;
2.413500000000000E+009;1.756348609924316E-001;-4.492641612887383E-002;9.121060720644891E-004;-3.572461893782020E-003;
2.413666666666667E+009;1.746147423982620E-001;-4.558946937322617E-002;6.928992806933820E-004;-3.411975223571062E-003;
2.413833333333334E+009;1.737037152051926E-001;-4.607355222105980E-002;5.654088454321027E-004;-3.291380358859897E-003;
2.414000000000000E+009;1.725403815507889E-001;-4.675296694040299E-002;5.536311655305326E-004;-3.208631649613380E-003;
2.414166666666667E+009;1.714501231908798E-001;-4.749374091625214E-002;2.600014558993280E-004;-3.070031525567174E-003;
2.414333333333334E+009;1.703366786241531E-001;-4.831875488162041E-002;1.619992835912854E-004;-2.708564978092909E-003;
2.414500000000000E+009;1.693405807018280E-001;-4.921373724937439E-002;1.616295048734173E-004;-2.704924438148737E-003;
2.414666666666667E+009;1.681655347347260E-001;-4.997311159968376E-002;6.993670831434429E-005;-2.590658608824015E-003;
2.414833333333334E+009;1.669084876775742E-001;-5.105705931782723E-002;8.626687485957518E-005;-2.314936136826873E-003;
2.415000000000000E+009;1.657007783651352E-001;-5.211939290165901E-002;1.078610948752612E-004;-2.278836676850915E-003;
2.415166666666667E+009;1.645744591951370E-001;-5.346031114459038E-002;7.354567060247064E-005;-2.047271467745304E-003;
2.415333333333334E+009;1.635732352733612E-001;-5.473140254616737E-002;1.675037783570588E-004;-2.115276176482439E-003;
2.415500000000000E+009;1.624846160411835E-001;-5.608476325869560E-002;1.392373378621414E-004;-1.835837960243225E-003;
2.415666666666667E+009;1.613485217094421E-001;-5.762816220521927E-002;2.879690437112004E-004;-1.853289781138301E-003;
2.415833333333334E+009;1.603935509920120E-001;-5.918371677398682E-002;1.512770686531439E-004;-1.858767587691546E-003;
2.416000000000000E+009;1.592021286487579E-001;-6.081277877092362E-002;4.366695939097554E-004;-1.684763701632619E-003;
2.416166666666667E+009;1.583004742860794E-001;-6.252691894769669E-002;3.593089350033552E-004;-1.842976198531687E-003;
2.416333333333334E+009;1.573754996061325E-001;-6.419654935598373E-002;2.066454908344895E-004;-1.658271416090429E-003;
2.416500000000000E+009;1.564758121967316E-001;-6.613504141569138E-002;2.283752110088244E-004;-1.647208351641893E-003;
2.416666666666667E+009;1.555201560258865E-001;-6.789861619472504E-002;5.073609645478427E-004;-1.811252906918526E-003;
2.416833333333334E+009;1.548649966716766E-001;-6.992055475711823E-002;2.341359795536846E-004;-1.688728109002113E-003;
2.417000000000000E+009;1.538307368755341E-001;-7.178795337677002E-002;4.644513246603310E-004;-1.923590549267829E-003;
2.417166666666667E+009;1.532442420721054E-001;-7.356925308704376E-002;5.301767378114164E-004;-1.735753146931529E-003;
2.417333333333334E+009;1.526339203119278E-001;-7.549281418323517E-002;5.223551415838301E-004;-1.859487500041723E-003;
2.417500000000000E+009;1.519201248884201E-001;-7.765386253595352E-002;4.628754395525903E-004;-1.749457209371030E-003;
2.417666666666667E+009;1.514643877744675E-001;-7.929491996765137E-002;6.559591274708509E-004;-1.827287371270359E-003;
2.417833333333334E+009;1.509935706853867E-001;-8.113487064838409E-002;8.484709542244673E-004;-1.955871237441897E-003;
2.418000000000000E+009;1.505101621150971E-001;-8.302064239978790E-002;7.138830842450261E-004;-2.027066424489021E-003;
2.418166666666667E+009;1.502203941345215E-001;-8.464315533638001E-002;6.321234395727515E-004;-2.143067307770252E-003;
2.418333333333334E+009;1.501843631267548E-001;-8.622447401285172E-002;8.269150275737047E-004;-2.237711800262332E-003;
2.418500000000000E+009;1.499011665582657E-001;-8.801268786191940E-002;5.387385026551783E-004;-2.126797568053007E-003;
2.418666666666667E+009;1.498780995607376E-001;-8.947914093732834E-002;5.196343408897519E-004;-2.446346217766404E-003;
2.418833333333334E+009;1.495544016361237E-001;-9.101212769746780E-002;5.776213365606964E-004;-2.238244516775012E-003;
2.419000000000000E+009;1.494813412427902E-001;-9.218471497297287E-002;3.353154461365193E-004;-2.416946226730943E-003;
2.419166666666667E+009;1.496195644140244E-001;-9.346195310354233E-002;3.179589984938502E-004;-2.585848094895482E-003;
2.419333333333334E+009;1.494776308536530E-001;-9.438239037990570E-002;1.597030932316557E-004;-2.476264024153352E-003;
2.419500000000000E+009;1.496431082487106E-001;-9.563245624303818E-002;7.732371159363538E-005;-2.577316714450717E-003;
2.419666666666667E+009;1.499267369508743E-001;-9.651353955268860E-002;-1.156160360551439E-004;-2.553202677518129E-003;
2.419833333333334E+009;1.500235795974731E-001;-9.712044149637222E-002;-2.609986695460975E-004;-2.740877214819193E-003;
2.420000000000000E+009;1.503436863422394E-001;-9.795186668634415E-002;-3.676199121400714E-004;-2.585349604487419E-003;
2.420166666666667E+009;1.505948603153229E-001;-9.861360490322113E-002;-4.307872732169926E-004;-2.608860144391656E-003;
2.420333333333334E+009;1.508366912603378E-001;-9.898900240659714E-002;-5.280752666294575E-004;-2.514570951461792E-003;
2.420500000000000E+009;1.510391235351563E-001;-9.915778040885925E-002;-6.998162134550512E-004;-2.500241156667471E-003;
2.420666666666667E+009;1.513380855321884E-001;-9.944610297679901E-002;-7.734577520750463E-004;-2.411054447293282E-003;
2.420833333333334E+009;1.516129672527313E-001;-9.976019710302353E-002;-7.490810821764171E-004;-2.585518406704068E-003;
2.421000000000000E+009;1.517686843872070E-001;-9.985645860433579E-002;-8.354068268090487E-004;-2.069021575152874E-003;
2.421166666666667E+009;1.519524753093720E-001;-9.987314790487289E-002;-9.571959380991757E-004;-2.194096101447940E-003;
2.421333333333334E+009;1.521750092506409E-001;-9.991221129894257E-002;-9.823192376643419E-004;-2.202476141974330E-003;
2.421500000000000E+009;1.520636528730393E-001;-9.974500536918640E-002;-9.406383032910526E-004;-2.059109974652529E-003;
2.421666666666667E+009;1.521871387958527E-001;-9.971971809864044E-002;-8.856164640747011E-004;-2.131750341504812E-003;
2.421833333333334E+009;1.521810889244080E-001;-9.949679672718048E-002;-9.178947657346726E-004;-1.833164482377470E-003;
2.422000000000000E+009;1.519700437784195E-001;-9.921322762966156E-002;-9.374840883538127E-004;-1.970797777175903E-003;
2.422166666666667E+009;1.519199907779694E-001;-9.900221228599548E-002;-9.360524127259851E-004;-1.975761028006673E-003;
2.422333333333334E+009;1.514958292245865E-001;-9.885428100824356E-002;-1.015888294205070E-003;-1.806929591111839E-003;
2.422500000000000E+009;1.510732620954514E-001;-9.838862717151642E-002;-9.806465823203325E-004;-1.772197079844773E-003;
2.422666666666667E+009;1.504379510879517E-001;-9.815621376037598E-002;-8.740459452383220E-004;-1.793677220121026E-003;
2.422833333333334E+009;1.499145776033402E-001;-9.789545089006424E-002;-9.855618700385094E-004;-1.900199218653143E-003;
2.423000000000000E+009;1.488911509513855E-001;-9.760929644107819E-002;-1.046405173838139E-003;-1.741087413392961E-003;
2.423166666666667E+009;1.482264250516892E-001;-9.718365967273712E-002;-8.444576524198055E-004;-1.795308548025787E-003;
2.423333333333334E+009;1.473343819379807E-001;-9.673982113599777E-002;-9.631084394641221E-004;-1.847368897870183E-003;
2.423500000000000E+009;1.462941318750382E-001;-9.655907750129700E-002;-8.713171700946987E-004;-1.887631951831281E-003;
2.423666666666667E+009;1.448286771774292E-001;-9.647007286548615E-002;-8.232056861743331E-004;-1.889155246317387E-003;
2.423833333333334E+009;1.439058184623718E-001;-9.602651745080948E-002;-7.648294558748603E-004;-2.161460695788264E-003;
2.424000000000000E+009;1.426045000553131E-001;-9.573342651128769E-002;-9.254496544599533E-004;-2.312987344339490E-003;
2.424166666666667E+009;1.413193345069885E-001;-9.557107090950012E-002;-9.633317240513861E-004;-2.248455071821809E-003;
2.424333333333334E+009;1.401300281286240E-001;-9.543557465076447E-002;-1.061533344909549E-003;-2.372006652876735E-003;
2.424500000000000E+009;1.386513710021973E-001;-9.543969482183456E-002;-1.286652171984315E-003;-2.343961736187339E-003;
2.424666666666667E+009;1.375035345554352E-001;-9.539039433002472E-002;-1.349215512163937E-003;-2.465161262080073E-003;
2.424833333333334E+009;1.359256356954575E-001;-9.560559689998627E-002;-1.503589213825762E-003;-2.437473507598043E-003;
2.425000000000000E+009;1.345480978488922E-001;-9.595552086830139E-002;-1.648973906412721E-003;-2.517451997846365E-003;
2.425166666666667E+009;1.329660415649414E-001;-9.620791673660278E-002;-1.884013414382935E-003;-2.552529098466039E-003;
2.425333333333334E+009;1.316256970167160E-001;-9.680906683206558E-002;-1.906304853037000E-003;-2.540754387155175E-003;
2.425500000000000E+009;1.302049458026886E-001;-9.750539809465408E-002;-2.197143621742725E-003;-2.454830799251795E-003;
2.425666666666667E+009;1.286782473325729E-001;-9.815179556608200E-002;-2.242558868601918E-003;-2.667244290933013E-003;
2.425833333333334E+009;1.272715032100678E-001;-9.896282106637955E-002;-2.567881718277931E-003;-2.606044290587306E-003;
2.426000000000000E+009;1.259692460298538E-001;-1.000834032893181E-001;-2.674618735909462E-003;-2.421546727418900E-003;
2.426166666666667E+009;1.247299537062645E-001;-1.012383997440338E-001;-2.765059471130371E-003;-2.248310483992100E-003;
2.426333333333334E+009;1.233346536755562E-001;-1.022156924009323E-001;-2.861501183360815E-003;-2.028484595939517E-003;
2.426500000000000E+009;1.221248432993889E-001;-1.034374013543129E-001;-3.207368543371558E-003;-1.872800872661173E-003;
2.426666666666667E+009;1.209383159875870E-001;-1.046847626566887E-001;-3.208131296560168E-003;-1.720908447168768E-003;
2.426833333333334E+009;1.198712438344955E-001;-1.062626317143440E-001;-3.251057816669345E-003;-1.477635814808309E-003;
2.427000000000000E+009;1.187783926725388E-001;-1.079493463039398E-001;-3.403336973860860E-003;-1.372064580209553E-003;
2.427166666666667E+009;1.177333891391754E-001;-1.092577502131462E-001;-3.423118731006980E-003;-1.201277831569314E-003;
2.427333333333334E+009;1.167806833982468E-001;-1.109955757856369E-001;-3.329919185489416E-003;-9.453825186938047E-004;
2.427500000000000E+009;1.160005033016205E-001;-1.126690208911896E-001;-3.299895208328962E-003;-6.971309776417911E-004;
2.427666666666667E+009;1.152513697743416E-001;-1.143610328435898E-001;-3.317438764497638E-003;-4.686005413532257E-004;
