# Version 1.00
#
freq[Hz];re:Trc1_S11;im:Trc1_S11;re:Trc2_S21;im:Trc2_S21;
2.400000000000000E+009;1.679883897304535E-001;4.741077870130539E-002;-2.098126104101539E-003;4.965572617948055E-003;
2.400166666666667E+009;1.690278798341751E-001;4.609153419733048E-002;-2.221253467723727E-003;5.135632120072842E-003;
2.400333333333334E+009;1.700398027896881E-001;4.500678554177284E-002;-1.977078150957823E-003;5.095675587654114E-003;
2.400500000000000E+009;1.709636002779007E-001;4.395918548107147E-002;-1.855834037996829E-003;5.277303978800774E-003;
2.400666666666667E+009;1.716459691524506E-001;4.297953471541405E-002;-1.794657786376774E-003;5.334342364221811E-003;
2.400833333333334E+009;1.726035326719284E-001;4.195715114474297E-002;-1.708161318674684E-003;5.306123290210962E-003;
2.401000000000000E+009;1.735553890466690E-001;4.124527424573898E-002;-1.544238417409360E-003;5.466465372592211E-003;
2.401166666666667E+009;1.743495315313339E-001;4.019637033343315E-002;-1.545463339425623E-003;5.556380841881037E-003;
2.401333333333334E+009;1.750118285417557E-001;3.951707854866982E-002;-1.269632368348539E-003;5.733531899750233E-003;
2.401500000000000E+009;1.758753806352615E-001;3.864723071455956E-002;-9.577844757586718E-004;5.881356541067362E-003;
2.401666666666667E+009;1.763004809617996E-001;3.825665265321732E-002;-8.141563739627600E-004;5.899690091609955E-003;
2.401833333333334E+009;1.768455654382706E-001;3.748574480414391E-002;-7.004968356341124E-004;5.888813175261021E-003;
2.402000000000000E+009;1.774245947599411E-001;3.673123568296433E-002;-3.388279292266816E-004;6.099870894104242E-003;
2.402166666666667E+009;1.778805851936340E-001;3.599024191498756E-002;-7.305749750230461E-005;6.273248698562384E-003;
2.402333333333334E+009;1.782135218381882E-001;3.530247882008553E-002;1.721705048112199E-004;6.076177116483450E-003;
2.402500000000000E+009;1.786395013332367E-001;3.463865071535111E-002;3.455466649029404E-004;6.182621233165264E-003;
2.402666666666667E+009;1.788856685161591E-001;3.369173407554627E-002;8.106835884973407E-004;6.104331929236651E-003;
2.402833333333334E+009;1.792774200439453E-001;3.303758800029755E-002;8.762811194173992E-004;6.093429401516914E-003;
2.403000000000000E+009;1.793299466371536E-001;3.232918679714203E-002;1.256426563486457E-003;5.839401390403509E-003;
2.403166666666667E+009;1.792870759963989E-001;3.147428482770920E-002;1.518954290077090E-003;5.836466792970896E-003;
2.403333333333334E+009;1.794198751449585E-001;3.048177435994148E-002;1.724573201499879E-003;5.873268004506826E-003;
2.403500000000000E+009;1.792337745428085E-001;2.974545955657959E-002;2.060298342257738E-003;5.808342713862658E-003;
2.403666666666667E+009;1.789757907390595E-001;2.847858145833015E-002;2.217405708506703E-003;5.767981521785259E-003;
2.403833333333334E+009;1.790085732936859E-001;2.740573883056641E-002;2.183950506150723E-003;5.470396950840950E-003;
2.404000000000000E+009;1.786101311445236E-001;2.635841630399227E-002;2.498054644092917E-003;5.352257750928402E-003;
2.404166666666667E+009;1.782818287611008E-001;2.521648816764355E-002;2.591721480712295E-003;5.492371972650290E-003;
2.404333333333334E+009;1.779139339923859E-001;2.385747805237770E-002;2.645753091201186E-003;5.188565235584974E-003;
2.404500000000000E+009;1.773802191019058E-001;2.264104969799519E-002;2.923677209764719E-003;4.987449850887060E-003;
2.404666666666667E+009;1.770879030227661E-001;2.132823690772057E-002;2.824864117428660E-003;4.922806285321713E-003;
2.404833333333334E+009;1.765948534011841E-001;1.996248029172421E-002;3.046189434826374E-003;4.908369854092598E-003;
2.405000000000000E+009;1.762688606977463E-001;1.844415813684464E-002;3.389088204130530E-003;4.698135424405336E-003;
2.405166666666667E+009;1.756843626499176E-001;1.697507686913014E-002;3.491491079330444E-003;4.646081011742353E-003;
2.405333333333334E+009;1.754173785448074E-001;1.528829801827669E-002;3.598416456952691E-003;4.573638550937176E-003;
2.405500000000000E+009;1.749617755413055E-001;1.375404279679060E-002;4.085169173777103E-003;4.494385328143835E-003;
2.405666666666667E+009;1.745814979076386E-001;1.211079861968756E-002;4.141236189752817E-003;4.314245656132698E-003;
2.405833333333334E+009;1.741361618041992E-001;1.040500961244106E-002;4.035761579871178E-003;4.257674328982830E-003;
2.406000000000000E+009;1.739885061979294E-001;8.509521372616291E-003;4.411601461470127E-003;4.128540400415659E-003;
2.406166666666667E+009;1.735395342111588E-001;6.841331720352173E-003;4.607860930263996E-003;3.867853898555040E-003;
2.406333333333334E+009;1.735305041074753E-001;4.911641590297222E-003;4.553375765681267E-003;3.855988383293152E-003;
2.406500000000000E+009;1.732875704765320E-001;2.889806171879172E-003;4.800169728696346E-003;3.571253968402743E-003;
2.406666666666667E+009;1.730507314205170E-001;1.025395467877388E-003;5.119442474097014E-003;3.477263962849975E-003;
2.406833333333334E+009;1.731353849172592E-001;-1.039904658682644E-003;5.182513967156410E-003;3.138263709843159E-003;
2.407000000000000E+009;1.730378717184067E-001;-3.150002332404256E-003;5.227074958384037E-003;2.986228326335549E-003;
2.407166666666667E+009;1.733561903238297E-001;-4.920392297208309E-003;5.365951452404261E-003;2.835215069353581E-003;
2.407333333333334E+009;1.733363270759583E-001;-7.042226381599903E-003;5.614195019006729E-003;2.739463699981570E-003;
2.407500000000000E+009;1.734516322612763E-001;-9.076320566236973E-003;5.630642641335726E-003;2.450534375384450E-003;
2.407666666666667E+009;1.737683117389679E-001;-1.104406174272299E-002;5.776008591055870E-003;2.022180706262589E-003;
2.407833333333334E+009;1.738964766263962E-001;-1.315671671181917E-002;5.944487638771534E-003;1.848349231295288E-003;
2.408000000000000E+009;1.742555201053619E-001;-1.526037137955427E-002;6.063392385840416E-003;1.705036149360240E-003;
2.408166666666667E+009;1.745688319206238E-001;-1.695804111659527E-002;6.186962127685547E-003;1.305739395320416E-003;
2.408333333333334E+009;1.749690473079681E-001;-1.895941607654095E-002;6.122744642198086E-003;8.249810198321939E-004;
2.408500000000000E+009;1.752396076917648E-001;-2.097314223647118E-002;6.147924344986677E-003;5.778923514299095E-004;
2.408666666666667E+009;1.754872351884842E-001;-2.267396636307240E-002;6.095365155488253E-003;2.522786962799728E-004;
2.408833333333334E+009;1.757308989763260E-001;-2.443613670766354E-002;6.050631869584322E-003;-5.610819425783120E-005;
2.409000000000000E+009;1.761216521263123E-001;-2.593618072569370E-002;5.996352061629295E-003;-2.248680830234662E-004;
2.409166666666667E+009;1.765578538179398E-001;-2.743104659020901E-002;5.813310854136944E-003;-7.012908463366330E-004;
2.409333333333334E+009;1.769262105226517E-001;-2.900388091802597E-002;5.877880379557610E-003;-8.464538841508329E-004;
2.409500000000000E+009;1.772670447826386E-001;-3.035609051585197E-002;5.637953989207745E-003;-1.115008955821395E-003;
2.409666666666667E+009;1.777231246232987E-001;-3.152662143111229E-002;5.629681982100010E-003;-1.387766329571605E-003;
2.409833333333334E+009;1.779801845550537E-001;-3.260354697704315E-002;5.584089085459709E-003;-1.723045366816223E-003;
2.410000000000000E+009;1.784819662570953E-001;-3.347235918045044E-002;5.358769092708826E-003;-1.956832828000188E-003;
2.410166666666667E+009;1.789038032293320E-001;-3.458545729517937E-002;5.183572415262461E-003;-2.061817795038223E-003;
2.410333333333334E+009;1.791789531707764E-001;-3.514290228486061E-002;5.045177880674601E-003;-2.383550163358450E-003;
2.410500000000000E+009;1.797825843095779E-001;-3.613319993019104E-002;4.896224942058325E-003;-2.548188436776400E-003;
2.410666666666667E+009;1.799679845571518E-001;-3.689566627144814E-002;4.649256821721792E-003;-2.714881906285882E-003;
2.410833333333334E+009;1.804496496915817E-001;-3.739789500832558E-002;4.490425810217857E-003;-2.848758595064282E-003;
2.411000000000000E+009;1.805917173624039E-001;-3.809605911374092E-002;4.341251216828823E-003;-2.969988156110048E-003;
2.411166666666667E+009;1.808042973279953E-001;-3.869362920522690E-002;4.095450043678284E-003;-3.322597127407789E-003;
2.411333333333334E+009;1.810285001993179E-001;-3.902864083647728E-002;3.873049048706889E-003;-3.152843331918120E-003;
2.411500000000000E+009;1.810529977083206E-001;-3.966692835092545E-002;3.647811012342572E-003;-3.355053253471851E-003;
2.411666666666667E+009;1.813788861036301E-001;-4.021744430065155E-002;3.379515139386058E-003;-3.469395218417049E-003;
2.411833333333334E+009;1.810401231050491E-001;-4.059825837612152E-002;3.205887041985989E-003;-3.615530207753182E-003;
2.412000000000000E+009;1.809420585632324E-001;-4.097622632980347E-002;2.852817997336388E-003;-3.533727722242475E-003;
2.412166666666667E+009;1.806105077266693E-001;-4.144953191280365E-002;2.861865097656846E-003;-3.764734603464603E-003;
2.412333333333334E+009;1.805010885000229E-001;-4.180116951465607E-002;2.595836063846946E-003;-3.674773732200265E-003;
2.412500000000000E+009;1.799119263887405E-001;-4.211844503879547E-002;2.297543920576572E-003;-3.945238422602415E-003;
2.412666666666667E+009;1.793719232082367E-001;-4.271198064088821E-002;2.093884162604809E-003;-3.681969130411744E-003;
2.412833333333334E+009;1.789104789495468E-001;-4.309495911002159E-002;1.889294479042292E-003;-3.930714912712574E-003;
2.413000000000000E+009;1.781243681907654E-001;-4.338137432932854E-002;1.569910557009280E-003;-3.824061248451471E-003;
2.413166666666667E+009;1.773690581321716E-001;-4.390066862106323E-002;1.310654100961983E-003;-3.587236395105720E-003;
2.413333333333334E+009;1.765299886465073E-001;-4.438340291380882E-002;1.227216795086861E-003;-3.736813552677631E-003;
2.413500000000000E+009;1.756020486354828E-001;-4.490039870142937E-002;9.976226137951016E-004;-3.520658006891608E-003;
2.413666666666667E+009;1.748263537883759E-001;-4.555170610547066E-002;7.528988062404096E-004;-3.445342648774386E-003;
2.413833333333334E+009;1.736485809087753E-001;-4.609693214297295E-002;6.229797145351768E-004;-3.215311560779810E-003;
2.414000000000000E+009;1.724883764982224E-001;-4.682062566280365E-002;5.159868742339313E-004;-3.094740211963654E-003;
2.414166666666667E+009;1.715203672647476E-001;-4.743972420692444E-002;3.087946679443121E-004;-2.956292824819684E-003;
2.414333333333334E+009;1.703186929225922E-001;-4.824210330843926E-002;3.135520091746002E-004;-3.012140979990363E-003;
2.414500000000000E+009;1.693562567234039E-001;-4.911897331476212E-002;2.437111834296957E-004;-2.658036304637790E-003;
2.414666666666667E+009;1.681374758481979E-001;-5.003681778907776E-002;1.371532271150500E-004;-2.519234549254179E-003;
2.414833333333334E+009;1.669850945472717E-001;-5.111553147435188E-002;7.112873572623357E-005;-2.375485375523567E-003;
2.415000000000000E+009;1.659136861562729E-001;-5.218289047479630E-002;6.458861753344536E-005;-2.454635920003057E-003;
2.415166666666667E+009;1.647482365369797E-001;-5.348835885524750E-002;1.372524711769074E-004;-2.131528919562697E-003;
2.415333333333334E+009;1.637025624513626E-001;-5.500647425651550E-002;1.931523147504777E-004;-1.929670106619597E-003;
2.415500000000000E+009;1.625247448682785E-001;-5.617913603782654E-002;2.618126163724810E-004;-2.007723553106189E-003;
2.415666666666667E+009;1.614205390214920E-001;-5.748058483004570E-002;1.852543209679425E-004;-1.914305263198912E-003;
2.415833333333334E+009;1.603638976812363E-001;-5.916798487305641E-002;1.905850804178044E-004;-1.802937709726393E-003;
2.416000000000000E+009;1.592665314674377E-001;-6.091057136654854E-002;2.505492011550814E-004;-1.786528970114887E-003;
2.416166666666667E+009;1.585118025541306E-001;-6.263281404972076E-002;2.843916299752891E-004;-1.812192494980991E-003;
2.416333333333334E+009;1.574749201536179E-001;-6.424736976623535E-002;3.400492423679680E-004;-1.665188581682742E-003;
2.416500000000000E+009;1.564801037311554E-001;-6.614466011524200E-002;5.854793125763536E-004;-1.691153040155768E-003;
2.416666666666667E+009;1.556170433759689E-001;-6.794449687004089E-002;5.275937146507204E-004;-1.869244384579361E-003;
2.416833333333334E+009;1.548957526683807E-001;-6.995036453008652E-002;5.300156190060079E-004;-1.757330726832151E-003;
2.417000000000000E+009;1.539659947156906E-001;-7.179256528615952E-002;6.049509975127876E-004;-1.910281134769321E-003;
2.417166666666667E+009;1.532270759344101E-001;-7.365890592336655E-002;6.994186551310122E-004;-1.877797883935273E-003;
2.417333333333334E+009;1.525063514709473E-001;-7.552005350589752E-002;7.483531371690333E-004;-1.789355068467557E-003;
2.417500000000000E+009;1.519134342670441E-001;-7.764720171689987E-002;6.002521258778870E-004;-1.833516405895352E-003;
2.417666666666667E+009;1.515726298093796E-001;-7.924807816743851E-002;6.335659418255091E-004;-1.919855945743620E-003;
2.417833333333334E+009;1.509815752506256E-001;-8.112702518701553E-002;6.764997378922999E-004;-1.979209482669830E-003;
2.418000000000000E+009;1.505262851715088E-001;-8.308647572994232E-002;7.027754327282310E-004;-2.008001785725355E-003;
2.418166666666667E+009;1.502529233694077E-001;-8.447822928428650E-002;5.774048622697592E-004;-2.021988853812218E-003;
2.418333333333334E+009;1.502607762813568E-001;-8.637700974941254E-002;6.979181198403239E-004;-2.233432605862618E-003;
2.418500000000000E+009;1.499732285737991E-001;-8.783195912837982E-002;6.736374925822020E-004;-2.337526762858033E-003;
2.418666666666667E+009;1.497485190629959E-001;-8.943184465169907E-002;4.467696417123079E-004;-2.262823516502976E-003;
2.418833333333334E+009;1.494861394166946E-001;-9.089494496583939E-002;3.307326987851411E-004;-2.528914483264089E-003;
2.419000000000000E+009;1.494660526514053E-001;-9.222494810819626E-002;3.726882860064507E-004;-2.534929197281599E-003;
2.419166666666667E+009;1.495886892080307E-001;-9.336555749177933E-002;1.759375736583024E-004;-2.534378785640001E-003;
2.419333333333334E+009;1.495920419692993E-001;-9.434939175844193E-002;9.250686707673594E-005;-2.553849946707487E-003;
2.419500000000000E+009;1.496743857860565E-001;-9.557648003101349E-002;3.752482371055521E-005;-2.545087598264217E-003;
2.419666666666667E+009;1.499695479869843E-001;-9.645595401525497E-002;-4.670275302487426E-005;-2.635108772665262E-003;
2.419833333333334E+009;1.499434709548950E-001;-9.707096964120865E-002;-1.152179684140720E-004;-2.695157192647457E-003;
2.420000000000000E+009;1.504587382078171E-001;-9.785259515047073E-002;-3.285904822405428E-004;-2.671991242095828E-003;
2.420166666666667E+009;1.504634320735931E-001;-9.850761294364929E-002;-4.272482474334538E-004;-2.561308443546295E-003;
2.420333333333334E+009;1.506896615028381E-001;-9.900156408548355E-002;-5.963038420304656E-004;-2.541392343118787E-003;
2.420500000000000E+009;1.510417163372040E-001;-9.912190586328507E-002;-6.960677565075457E-004;-2.338176360353828E-003;
2.420666666666667E+009;1.512250900268555E-001;-9.937246888875961E-002;-8.830578881315887E-004;-2.323817694559693E-003;
2.420833333333334E+009;1.515910774469376E-001;-9.971263259649277E-002;-7.543371175415814E-004;-2.324567176401615E-003;
2.421000000000000E+009;1.517090648412705E-001;-9.999984502792358E-002;-8.095735684037209E-004;-2.354630269110203E-003;
2.421166666666667E+009;1.518447548151016E-001;-9.980607032775879E-002;-8.994732634164393E-004;-2.210526959970594E-003;
2.421333333333334E+009;1.521103382110596E-001;-9.982424229383469E-002;-9.075751295313239E-004;-2.133902627974749E-003;
2.421500000000000E+009;1.521835029125214E-001;-9.970591217279434E-002;-9.566075168550015E-004;-2.149919280782342E-003;
2.421666666666667E+009;1.521618217229843E-001;-9.975237399339676E-002;-9.747789590619505E-004;-2.176960930228233E-003;
2.421833333333334E+009;1.523167192935944E-001;-9.940114617347717E-002;-1.007433980703354E-003;-2.012084471061826E-003;
2.422000000000000E+009;1.520183682441711E-001;-9.922301024198532E-002;-9.807850001379848E-004;-1.978986198082566E-003;
2.422166666666667E+009;1.516464352607727E-001;-9.921894967556000E-002;-1.010867417789996E-003;-1.764218439348042E-003;
2.422333333333334E+009;1.514849811792374E-001;-9.875962138175964E-002;-9.958735899999738E-004;-1.850534696131945E-003;
2.422500000000000E+009;1.510044932365418E-001;-9.853214770555496E-002;-9.023416205309331E-004;-1.815808122046292E-003;
2.422666666666667E+009;1.503527313470841E-001;-9.823675453662872E-002;-9.787114104256034E-004;-1.785147818736732E-003;
2.422833333333334E+009;1.499212831258774E-001;-9.796959906816483E-002;-8.517880341969430E-004;-1.986125484108925E-003;
2.423000000000000E+009;1.488379985094070E-001;-9.768944978713989E-002;-9.506561327725649E-004;-1.838647061958909E-003;
2.423166666666667E+009;1.482668817043304E-001;-9.733315557241440E-002;-9.131581173278391E-004;-1.901197480037808E-003;
2.423333333333334E+009;1.472209990024567E-001;-9.682033210992813E-002;-7.911920547485352E-004;-1.787805464118719E-003;
2.423500000000000E+009;1.463724821805954E-001;-9.649981558322907E-002;-1.034395419992507E-003;-1.921794842928648E-003;
2.423666666666667E+009;1.450307816267014E-001;-9.644974768161774E-002;-1.021706382744014E-003;-2.212565625086427E-003;
2.423833333333334E+009;1.439640671014786E-001;-9.620082378387451E-002;-9.318655356764793E-004;-1.978929154574871E-003;
2.424000000000000E+009;1.425573676824570E-001;-9.578444063663483E-002;-9.570940746925771E-004;-2.114049624651671E-003;
2.424166666666667E+009;1.413236558437347E-001;-9.570367634296417E-002;-9.148039971478283E-004;-2.146208425983787E-003;
2.424333333333334E+009;1.400191038846970E-001;-9.537500143051148E-002;-1.041283132508397E-003;-2.333264332264662E-003;
2.424500000000000E+009;1.386436074972153E-001;-9.551341831684113E-002;-1.187165849842131E-003;-2.413245150819421E-003;
2.424666666666667E+009;1.374534219503403E-001;-9.542649984359741E-002;-1.256771385669708E-003;-2.495465334504843E-003;
2.424833333333334E+009;1.358724534511566E-001;-9.567095339298248E-002;-1.450955052860081E-003;-2.496412023901939E-003;
2.425000000000000E+009;1.346854865550995E-001;-9.610970318317413E-002;-1.423621200956404E-003;-2.449790015816689E-003;
2.425166666666667E+009;1.328929513692856E-001;-9.639479964971542E-002;-1.609644968993962E-003;-2.448307583108544E-003;
2.425333333333334E+009;1.316468268632889E-001;-9.686288982629776E-002;-1.946843927726150E-003;-2.502980409190059E-003;
2.425500000000000E+009;1.302464455366135E-001;-9.749002009630203E-002;-2.128396416082978E-003;-2.502215793356299E-003;
2.425666666666667E+009;1.286863833665848E-001;-9.821099042892456E-002;-2.276770537719131E-003;-2.439484233036637E-003;
2.425833333333334E+009;1.273067891597748E-001;-9.904126077890396E-002;-2.333487616851926E-003;-2.371378708630800E-003;
2.426000000000000E+009;1.258236169815064E-001;-1.000936627388001E-001;-2.529161982238293E-003;-2.231040969491005E-003;
2.426166666666667E+009;1.247120127081871E-001;-1.011370122432709E-001;-2.833139151334763E-003;-2.073441166430712E-003;
2.426333333333334E+009;1.233015209436417E-001;-1.022531241178513E-001;-2.900189952924848E-003;-1.961028669029474E-003;
2.426500000000000E+009;1.220872849225998E-001;-1.035385578870773E-001;-3.075581276789308E-003;-2.001237357035279E-003;
2.426666666666667E+009;1.211634203791618E-001;-1.047355979681015E-001;-3.166062990203500E-003;-1.594300963915885E-003;
2.426833333333334E+009;1.199252232909203E-001;-1.063491553068161E-001;-3.246176056563854E-003;-1.569537445902824E-003;
2.427000000000000E+009;1.187311708927155E-001;-1.078478395938873E-001;-3.305711317807436E-003;-1.432370976544917E-003;
2.427166666666667E+009;1.177203208208084E-001;-1.092998906970024E-001;-3.433245699852705E-003;-1.197013887576759E-003;
2.427333333333334E+009;1.167497262358666E-001;-1.108788549900055E-001;-3.391289152204990E-003;-9.551823022775352E-004;
2.427500000000000E+009;1.160624474287033E-001;-1.125856563448906E-001;-3.356756642460823E-003;-6.754041532985866E-004;
2.427666666666667E+009;1.152093037962914E-001;-1.143666729331017E-001;-3.287306753918529E-003;-6.485646008513868E-004;
