# Version 1.00
#
freq[Hz];re:Trc1_S11;im:Trc1_S11;re:Trc2_S21;im:Trc2_S21;
2.400000000000000E+009;1.564074754714966E-001;6.034779176115990E-002;1.276259543374181E-003;1.849980180850253E-004;
2.400166666666667E+009;1.564675569534302E-001;5.851112306118012E-002;1.406551105901599E-003;9.517047146800906E-005;
2.400333333333334E+009;1.566001027822495E-001;5.645604431629181E-002;1.261940691620112E-003;1.634761138120666E-004;
2.400500000000000E+009;1.568125784397125E-001;5.448381975293160E-002;1.332238200120628E-003;2.137061819666997E-004;
2.400666666666667E+009;1.568108946084976E-001;5.244508758187294E-002;1.340332906693220E-003;1.808769593480974E-004;
2.400833333333334E+009;1.573546081781387E-001;5.041325837373734E-002;1.224352279677987E-003;1.454999000998214E-004;
2.401000000000000E+009;1.575869023799896E-001;4.848765581846237E-002;1.176459831185639E-003;3.122868365608156E-004;
2.401166666666667E+009;1.580475121736527E-001;4.631568491458893E-002;1.224776613526046E-003;3.711680765263736E-004;
2.401333333333334E+009;1.582926064729691E-001;4.427665844559670E-002;1.174805453047156E-003;2.792171144392341E-004;
2.401500000000000E+009;1.591833978891373E-001;4.233250766992569E-002;1.198427518829703E-003;2.064463478745893E-004;
2.401666666666667E+009;1.595548391342163E-001;4.034671559929848E-002;1.185459666885436E-003;3.889236832037568E-004;
2.401833333333334E+009;1.601614058017731E-001;3.830932080745697E-002;1.328594866208732E-003;2.870741882361472E-004;
2.402000000000000E+009;1.605828255414963E-001;3.649820387363434E-002;1.216902164742351E-003;4.024300433229655E-004;
2.402166666666667E+009;1.614242494106293E-001;3.460505977272987E-002;1.244837301783264E-003;4.338003054726869E-004;
2.402333333333334E+009;1.621336787939072E-001;3.293175250291824E-002;1.350090024061501E-003;4.760317679028958E-004;
2.402500000000000E+009;1.631634533405304E-001;3.129676356911659E-002;1.258674543350935E-003;4.277007828932256E-004;
2.402666666666667E+009;1.637932211160660E-001;2.959587052464485E-002;1.252806279808283E-003;4.897777689620853E-004;
2.402833333333334E+009;1.648049503564835E-001;2.827737666666508E-002;1.194336218759418E-003;4.153234767727554E-004;
2.403000000000000E+009;1.654937416315079E-001;2.670542337000370E-002;1.234630704857409E-003;6.075411802157760E-004;
2.403166666666667E+009;1.665626019239426E-001;2.538066171109676E-002;1.353836269117892E-003;5.307233077473939E-004;
2.403333333333334E+009;1.676689982414246E-001;2.424129098653793E-002;1.427288050763309E-003;6.730594323016703E-004;
2.403500000000000E+009;1.684141010046005E-001;2.309063822031021E-002;1.524821040220559E-003;6.919014267623425E-004;
2.403666666666667E+009;1.693857759237289E-001;2.170009166002274E-002;1.586209167726338E-003;5.636438145302236E-004;
2.403833333333334E+009;1.705011725425720E-001;2.074192091822624E-002;1.675050356425345E-003;5.346686812117696E-004;
2.404000000000000E+009;1.714651137590408E-001;1.971147768199444E-002;1.692229183390737E-003;4.988476866856217E-004;
2.404166666666667E+009;1.722537428140640E-001;1.886809989809990E-002;1.705180038698018E-003;5.747483228333294E-004;
2.404333333333334E+009;1.732922196388245E-001;1.816232129931450E-002;1.871537417173386E-003;5.729881231673062E-004;
2.404500000000000E+009;1.740101426839829E-001;1.741850376129150E-002;2.006496069952846E-003;4.980403464287520E-004;
2.404666666666667E+009;1.748001426458359E-001;1.676079630851746E-002;2.043997868895531E-003;3.622256626840681E-004;
2.404833333333334E+009;1.755620688199997E-001;1.612107083201408E-002;2.033510711044073E-003;4.503229865804315E-004;
2.405000000000000E+009;1.762678176164627E-001;1.563114300370216E-002;2.183119300752878E-003;4.752922395709902E-004;
2.405166666666667E+009;1.770175993442535E-001;1.536195725202560E-002;2.274215221405029E-003;4.099798679817468E-004;
2.405333333333334E+009;1.777212321758270E-001;1.477377023547888E-002;2.301306230947375E-003;2.926195156760514E-004;
2.405500000000000E+009;1.782581657171249E-001;1.461335644125938E-002;2.404066734015942E-003;6.206436228239909E-005;
2.405666666666667E+009;1.787222921848297E-001;1.420142222195864E-002;2.487727673724294E-003;2.260838809888810E-004;
2.405833333333334E+009;1.788574457168579E-001;1.400754041969776E-002;2.506611868739128E-003;-7.185967115219683E-005;
2.406000000000000E+009;1.792649775743485E-001;1.361809670925140E-002;2.529860706999898E-003;-1.541878446005285E-004;
2.406166666666667E+009;1.793270558118820E-001;1.335266884416342E-002;2.521103015169501E-003;-9.264356049243361E-005;
2.406333333333334E+009;1.796504110097885E-001;1.307885814458132E-002;2.574242185801268E-003;-2.585082547739148E-004;
2.406500000000000E+009;1.797278225421906E-001;1.279877591878176E-002;2.711447188630700E-003;-3.496359277050942E-004;
2.406666666666667E+009;1.796608418226242E-001;1.251178141683340E-002;2.745443489402533E-003;-5.258499877527356E-004;
2.406833333333334E+009;1.796361804008484E-001;1.203628256917000E-002;2.863385248929262E-003;-5.264716455712915E-004;
2.407000000000000E+009;1.795822679996491E-001;1.162841171026230E-002;2.775052562355995E-003;-5.729867261834443E-004;
2.407166666666667E+009;1.794498115777969E-001;1.138374954462051E-002;2.747028134763241E-003;-7.232091738842428E-004;
2.407333333333334E+009;1.788977682590485E-001;1.078300364315510E-002;2.845912938937545E-003;-8.247155928984284E-004;
2.407500000000000E+009;1.787636429071426E-001;1.040700636804104E-002;2.722126431763172E-003;-1.037700800225139E-003;
2.407666666666667E+009;1.783136427402496E-001;9.885860607028008E-003;2.803393639624119E-003;-1.065687974914908E-003;
2.407833333333334E+009;1.776449531316757E-001;9.142032824456692E-003;2.776972716674209E-003;-1.076158834621310E-003;
2.408000000000000E+009;1.772711575031281E-001;8.154978044331074E-003;2.723329700529575E-003;-1.311816740781069E-003;
2.408166666666667E+009;1.767256408929825E-001;7.458958774805069E-003;2.734484151005745E-003;-1.214419957250357E-003;
2.408333333333334E+009;1.762615144252777E-001;6.567329633980990E-003;2.870275638997555E-003;-1.504080835729837E-003;
2.408500000000000E+009;1.755472719669342E-001;5.457493010908365E-003;2.888684161007404E-003;-1.555885537527502E-003;
2.408666666666667E+009;1.748911589384079E-001;4.353823140263557E-003;2.679548226296902E-003;-1.624712138436735E-003;
2.408833333333334E+009;1.740866750478745E-001;3.129819408059120E-003;2.844472881406546E-003;-1.819891738705337E-003;
2.409000000000000E+009;1.735212206840515E-001;1.847695093601942E-003;2.901787403970957E-003;-1.958770444616675E-003;
2.409166666666667E+009;1.728865206241608E-001;4.970853333361447E-004;2.766262739896774E-003;-2.001609187573195E-003;
2.409333333333334E+009;1.722962558269501E-001;-9.579693432897329E-004;2.709061838686466E-003;-2.206413773819804E-003;
2.409500000000000E+009;1.715067476034164E-001;-2.558378037065268E-003;2.746317768469453E-003;-2.067909110337496E-003;
2.409666666666667E+009;1.709446460008621E-001;-4.078433848917484E-003;2.715887734666467E-003;-2.470337320119143E-003;
2.409833333333334E+009;1.704276651144028E-001;-5.684104748070240E-003;2.584441564977169E-003;-2.610862022265792E-003;
2.410000000000000E+009;1.699144691228867E-001;-7.384738884866238E-003;2.608734183013439E-003;-2.824015682563186E-003;
2.410166666666667E+009;1.693086773157120E-001;-9.061147458851337E-003;2.628285437822342E-003;-2.806862117722631E-003;
2.410333333333334E+009;1.689569205045700E-001;-1.096714846789837E-002;2.363729523494840E-003;-3.002482233569026E-003;
2.410500000000000E+009;1.684578210115433E-001;-1.289715431630611E-002;2.271607285365462E-003;-3.108412260189652E-003;
2.410666666666667E+009;1.682196110486984E-001;-1.487165596336126E-002;2.225341508165002E-003;-3.334963927045465E-003;
2.410833333333334E+009;1.679874807596207E-001;-1.666546426713467E-002;1.972205005586147E-003;-3.456908510997891E-003;
2.411000000000000E+009;1.677594929933548E-001;-1.872655935585499E-002;2.175329485908151E-003;-3.594099776819348E-003;
2.411166666666667E+009;1.677237600088120E-001;-2.064699307084084E-002;1.927885576151311E-003;-3.731437725946307E-003;
2.411333333333334E+009;1.676362752914429E-001;-2.264554984867573E-002;1.813294133171439E-003;-3.879289142787457E-003;
2.411500000000000E+009;1.676340401172638E-001;-2.473047003149986E-002;1.627568970434368E-003;-3.939787391573191E-003;
2.411666666666667E+009;1.679472774267197E-001;-2.668170817196369E-002;1.493361778557301E-003;-3.983774222433567E-003;
2.411833333333334E+009;1.680193394422531E-001;-2.852599322795868E-002;1.326484256424010E-003;-4.096691031008959E-003;
2.412000000000000E+009;1.682604849338532E-001;-3.056434355676174E-002;1.278429874219000E-003;-4.246045835316181E-003;
2.412166666666667E+009;1.686041653156281E-001;-3.231476619839668E-002;8.195178234018385E-004;-4.397145938128233E-003;
2.412333333333334E+009;1.690564751625061E-001;-3.409725800156593E-002;5.321837961673737E-004;-4.321275278925896E-003;
2.412500000000000E+009;1.693437546491623E-001;-3.586387634277344E-002;5.150589277036488E-004;-4.372635390609503E-003;
2.412666666666667E+009;1.699175387620926E-001;-3.797971084713936E-002;3.827502077911049E-004;-4.418592434376478E-003;
2.412833333333334E+009;1.705209016799927E-001;-3.964458033442497E-002;-2.753093212959357E-006;-4.437369760125876E-003;
2.413000000000000E+009;1.710247993469238E-001;-4.120560362935066E-002;-2.251064288429916E-004;-4.547739401459694E-003;
2.413166666666667E+009;1.717297434806824E-001;-4.266983643174171E-002;-3.571173292584717E-004;-4.439884331077337E-003;
2.413333333333334E+009;1.720593124628067E-001;-4.417090117931366E-002;-4.399291647132486E-004;-4.370186943560839E-003;
2.413500000000000E+009;1.728508323431015E-001;-4.569639265537262E-002;-7.850837428122759E-004;-4.330542404204607E-003;
2.413666666666667E+009;1.734201163053513E-001;-4.709368944168091E-002;-1.005785888992250E-003;-4.356855060905218E-003;
2.413833333333334E+009;1.738593727350235E-001;-4.845485091209412E-002;-1.104149734601378E-003;-4.418302327394486E-003;
2.414000000000000E+009;1.744926124811173E-001;-4.961960762739182E-002;-1.316720969043672E-003;-4.175490234047175E-003;
2.414166666666667E+009;1.752030104398727E-001;-5.078537389636040E-002;-1.434202655218542E-003;-4.287618212401867E-003;
2.414333333333334E+009;1.758513897657394E-001;-5.178282037377358E-002;-1.613846165128052E-003;-4.075447097420692E-003;
2.414500000000000E+009;1.764184236526489E-001;-5.266869813203812E-002;-1.896558329463005E-003;-4.058883059769869E-003;
2.414666666666667E+009;1.768640726804733E-001;-5.347346886992455E-002;-2.026381436735392E-003;-3.912082873284817E-003;
2.414833333333334E+009;1.772244870662689E-001;-5.431242659687996E-002;-2.155276713892818E-003;-3.853136673569679E-003;
2.415000000000000E+009;1.776567846536636E-001;-5.488677695393562E-002;-2.293537138029933E-003;-3.686828771606088E-003;
2.415166666666667E+009;1.779439747333527E-001;-5.544924363493919E-002;-2.426485531032085E-003;-3.701347624883056E-003;
2.415333333333334E+009;1.782491356134415E-001;-5.605155974626541E-002;-2.552080200985074E-003;-3.417257452383637E-003;
2.415500000000000E+009;1.784206181764603E-001;-5.646497383713722E-002;-2.732515335083008E-003;-3.430334385484457E-003;
2.415666666666667E+009;1.785052716732025E-001;-5.678443983197212E-002;-2.892178483307362E-003;-3.186760935932398E-003;
2.415833333333334E+009;1.786226779222488E-001;-5.717850849032402E-002;-2.932022092863917E-003;-3.205921035259962E-003;
2.416000000000000E+009;1.784253865480423E-001;-5.757667496800423E-002;-3.091222839429975E-003;-3.118235850706697E-003;
2.416166666666667E+009;1.784950941801071E-001;-5.767495557665825E-002;-3.155125770717859E-003;-3.009103238582611E-003;
2.416333333333334E+009;1.782561093568802E-001;-5.788105726242065E-002;-3.350039478391409E-003;-2.648484194651246E-003;
2.416500000000000E+009;1.778764873743057E-001;-5.820091068744659E-002;-3.419958753511310E-003;-2.699566772207618E-003;
2.416666666666667E+009;1.774614602327347E-001;-5.830769240856171E-002;-3.386646043509245E-003;-2.388690365478396E-003;
2.416833333333334E+009;1.771296858787537E-001;-5.870066955685616E-002;-3.572743618860841E-003;-2.243083203211427E-003;
2.417000000000000E+009;1.764958798885346E-001;-5.885470658540726E-002;-3.610589774325490E-003;-2.208594465628266E-003;
2.417166666666667E+009;1.758691221475601E-001;-5.893569067120552E-002;-3.775931894779205E-003;-2.089868998154998E-003;
2.417333333333334E+009;1.750471144914627E-001;-5.916958674788475E-002;-3.791655879467726E-003;-1.859780168160796E-003;
2.417500000000000E+009;1.741619706153870E-001;-5.964810401201248E-002;-3.837449941784143E-003;-1.806734595447779E-003;
2.417666666666667E+009;1.734496504068375E-001;-5.975928530097008E-002;-3.824366722255945E-003;-1.532392576336861E-003;
2.417833333333334E+009;1.724489033222199E-001;-6.022149696946144E-002;-3.843602491542697E-003;-1.385129406116903E-003;
2.418000000000000E+009;1.712637096643448E-001;-6.054746359586716E-002;-3.947549033910036E-003;-1.294328831136227E-003;
2.418166666666667E+009;1.702390611171722E-001;-6.086967140436173E-002;-3.808879991993308E-003;-1.028052531182766E-003;
2.418333333333334E+009;1.693245917558670E-001;-6.143705546855927E-002;-3.875324036926031E-003;-9.442276204936206E-004;
2.418500000000000E+009;1.680083572864533E-001;-6.200391426682472E-002;-3.858154639601708E-003;-7.193969213403761E-004;
2.418666666666667E+009;1.670041531324387E-001;-6.264755874872208E-002;-4.059421829879284E-003;-6.622229120694101E-004;
2.418833333333334E+009;1.654520779848099E-001;-6.340029835700989E-002;-3.850953420624137E-003;-5.317447357811034E-004;
2.419000000000000E+009;1.643006652593613E-001;-6.417605280876160E-002;-3.869003150612116E-003;-2.959560079034418E-004;
2.419166666666667E+009;1.630475968122482E-001;-6.512644886970520E-002;-3.909187391400337E-003;-3.470078227110207E-004;
2.419333333333334E+009;1.617105603218079E-001;-6.584749370813370E-002;-3.919258248060942E-003;-1.128272342612036E-004;
2.419500000000000E+009;1.607347130775452E-001;-6.696359813213348E-002;-3.722560824826360E-003;-1.574191701365635E-004;
2.419666666666667E+009;1.594543904066086E-001;-6.814966350793839E-002;-3.747181966900826E-003;-3.640282739070244E-005;
2.419833333333334E+009;1.583083868026733E-001;-6.915470212697983E-002;-3.788417903706431E-003;2.178477880079299E-004;
2.420000000000000E+009;1.572076678276062E-001;-7.040135562419891E-002;-3.706797724589706E-003;5.263000493869185E-004;
2.420166666666667E+009;1.561935096979141E-001;-7.160125672817230E-002;-3.650067839771509E-003;5.015400238335133E-004;
2.420333333333334E+009;1.552343964576721E-001;-7.312045246362686E-002;-3.654427360743284E-003;6.431668298318982E-004;
2.420500000000000E+009;1.544045656919479E-001;-7.432374358177185E-002;-3.558997530490160E-003;7.854864234104753E-004;
2.420666666666667E+009;1.534964740276337E-001;-7.570632547140122E-002;-3.676121588796377E-003;8.459339151158929E-004;
2.420833333333334E+009;1.527121961116791E-001;-7.739452272653580E-002;-3.479670966044068E-003;9.493576944805682E-004;
2.421000000000000E+009;1.519167870283127E-001;-7.896080613136292E-002;-3.550470806658268E-003;1.126564340665937E-003;
2.421166666666667E+009;1.514412909746170E-001;-8.068187534809113E-002;-3.360454225912690E-003;1.195503864437342E-003;
2.421333333333334E+009;1.507499366998673E-001;-8.221636712551117E-002;-3.455876139923930E-003;1.303000026382506E-003;
2.421500000000000E+009;1.502201706171036E-001;-8.377166837453842E-002;-3.296053968369961E-003;1.345529220998287E-003;
2.421666666666667E+009;1.500209718942642E-001;-8.549100905656815E-002;-3.313514636829495E-003;1.571411616168916E-003;
2.421833333333334E+009;1.498160362243652E-001;-8.741062134504318E-002;-3.213551826775074E-003;1.712040626443923E-003;
2.422000000000000E+009;1.496334075927734E-001;-8.908678591251373E-002;-3.060579067096114E-003;2.045657485723496E-003;
2.422166666666667E+009;1.494285315275192E-001;-9.081204980611801E-002;-3.028916893526912E-003;1.997913699597120E-003;
2.422333333333334E+009;1.494633108377457E-001;-9.242139756679535E-002;-2.953002229332924E-003;2.012636279687285E-003;
2.422500000000000E+009;1.494414955377579E-001;-9.394767880439758E-002;-2.773991785943508E-003;2.264481969177723E-003;
2.422666666666667E+009;1.494742482900620E-001;-9.572491794824600E-002;-2.820233581587672E-003;2.254930790513754E-003;
2.422833333333334E+009;1.498010605573654E-001;-9.737174212932587E-002;-2.541020046919584E-003;2.630136441439390E-003;
2.423000000000000E+009;1.500684767961502E-001;-9.894093126058579E-002;-2.530346624553204E-003;2.543001435697079E-003;
2.423166666666667E+009;1.506636291742325E-001;-1.006386578083038E-001;-2.357907360419631E-003;2.730800770223141E-003;
2.423333333333334E+009;1.511774659156799E-001;-1.016138494014740E-001;-2.102203667163849E-003;2.761936513707042E-003;
2.423500000000000E+009;1.514441817998886E-001;-1.033415943384171E-001;-2.009141724556685E-003;2.819227287545800E-003;
2.423666666666667E+009;1.517652124166489E-001;-1.046939268708229E-001;-1.819308614358306E-003;2.891943324357271E-003;
2.423833333333334E+009;1.523776054382324E-001;-1.059721335768700E-001;-1.580398762598634E-003;3.050022292882204E-003;
2.424000000000000E+009;1.527121216058731E-001;-1.071649640798569E-001;-1.415149075910449E-003;3.000303870067000E-003;
2.424166666666667E+009;1.533029228448868E-001;-1.082748919725418E-001;-1.264448976144195E-003;3.131730947643518E-003;
2.424333333333334E+009;1.538858562707901E-001;-1.092788279056549E-001;-1.094327657483518E-003;3.079547081142664E-003;
2.424500000000000E+009;1.543361842632294E-001;-1.104095354676247E-001;-9.085136698558927E-004;3.033285727724433E-003;
2.424666666666667E+009;1.550440192222595E-001;-1.110203489661217E-001;-6.970933754928410E-004;3.098307410255075E-003;
2.424833333333334E+009;1.551866531372070E-001;-1.121647506952286E-001;-4.953742027282715E-004;3.071306971833110E-003;
2.425000000000000E+009;1.559005975723267E-001;-1.129354909062386E-001;-5.058791139163077E-004;2.906284760683775E-003;
2.425166666666667E+009;1.559975445270538E-001;-1.134215220808983E-001;-3.821419086307287E-004;3.011734690517187E-003;
2.425333333333334E+009;1.564249545335770E-001;-1.141333058476448E-001;-9.311489520769101E-006;2.819643123075366E-003;
2.425500000000000E+009;1.567568778991699E-001;-1.147639080882072E-001;6.237129127839580E-005;2.819533227011561E-003;
2.425666666666667E+009;1.568322330713272E-001;-1.151236966252327E-001;2.144805475836620E-004;2.655820455402136E-003;
2.425833333333334E+009;1.571575254201889E-001;-1.154306977987289E-001;3.231829905416817E-004;2.570943674072623E-003;
2.426000000000000E+009;1.571244001388550E-001;-1.159723773598671E-001;4.895963938906789E-004;2.575886435806751E-003;
2.426166666666667E+009;1.573278307914734E-001;-1.161071509122849E-001;5.044248537160456E-004;2.295815153047442E-003;
2.426333333333334E+009;1.571177095174789E-001;-1.163590922951698E-001;6.669598515145481E-004;2.157752402126789E-003;
2.426500000000000E+009;1.569708585739136E-001;-1.165763810276985E-001;7.583085680380464E-004;2.238485962152481E-003;
2.426666666666667E+009;1.567694097757340E-001;-1.165576949715614E-001;8.280904730781913E-004;2.078627236187458E-003;
2.426833333333334E+009;1.563993394374847E-001;-1.167980879545212E-001;8.431238820776343E-004;1.877275179140270E-003;
2.427000000000000E+009;1.559670716524124E-001;-1.170577704906464E-001;1.012607128359377E-003;1.787974382750690E-003;
2.427166666666667E+009;1.552808582782745E-001;-1.169551908969879E-001;9.766544681042433E-004;1.725129433907569E-003;
2.427333333333334E+009;1.547049731016159E-001;-1.170396357774735E-001;8.025398710742593E-004;1.626735436730087E-003;
2.427500000000000E+009;1.540905833244324E-001;-1.172643676400185E-001;1.051008468493819E-003;1.507933950051665E-003;
2.427666666666667E+009;1.531810760498047E-001;-1.174574643373489E-001;9.074833942577243E-004;1.334314350970089E-003;
