# Version 1.00
#
freq[Hz];re:Trc1_S11;im:Trc1_S11;re:Trc2_S21;im:Trc2_S21;
2.400000000000000E+009;1.562800556421280E-001;6.029257923364639E-002;1.288815052248538E-003;2.115698152920231E-004;
2.400166666666667E+009;1.565996408462524E-001;5.858821421861649E-002;1.278676907531917E-003;2.673501148819923E-004;
2.400333333333334E+009;1.566309034824371E-001;5.650229007005692E-002;1.348542165942490E-003;5.650060120387934E-005;
2.400500000000000E+009;1.567787677049637E-001;5.444958060979843E-002;1.269492669962347E-003;6.321208638837561E-005;
2.400666666666667E+009;1.570340842008591E-001;5.235071852803230E-002;1.259353477507830E-003;8.020600216696039E-005;
2.400833333333334E+009;1.573515236377716E-001;5.044326186180115E-002;1.225378829985857E-003;2.560704706411343E-005;
2.401000000000000E+009;1.577962040901184E-001;4.837069287896156E-002;1.309626502916217E-003;1.423213252564892E-004;
2.401166666666667E+009;1.579254418611527E-001;4.624871537089348E-002;1.219580415636301E-003;2.113637892762199E-004;
2.401333333333334E+009;1.584395766258240E-001;4.410776495933533E-002;1.186350244097412E-003;2.846201823558658E-004;
2.401500000000000E+009;1.590691208839417E-001;4.206806048750877E-002;1.077659893780947E-003;2.751330903265625E-004;
2.401666666666667E+009;1.595784127712250E-001;4.035240039229393E-002;1.062113093212247E-003;2.470927720423788E-004;
2.401833333333334E+009;1.602013558149338E-001;3.807724267244339E-002;1.244154758751392E-003;2.746311656665057E-004;
2.402000000000000E+009;1.605751961469650E-001;3.643041476607323E-002;1.278624287806451E-003;3.661333175841719E-004;
2.402166666666667E+009;1.614727675914764E-001;3.445110470056534E-002;1.186582143418491E-003;3.445478796493262E-004;
2.402333333333334E+009;1.620799154043198E-001;3.283217176795006E-002;1.232330570928752E-003;4.059836210217327E-004;
2.402500000000000E+009;1.630400121212006E-001;3.105328045785427E-002;1.177457277663052E-003;5.661382456310093E-004;
2.402666666666667E+009;1.639612019062042E-001;2.947453223168850E-002;1.178154023364186E-003;3.903417382389307E-004;
2.402833333333334E+009;1.648125052452087E-001;2.812109887599945E-002;1.428232877515256E-003;3.254025941714644E-004;
2.403000000000000E+009;1.657331585884094E-001;2.670637145638466E-002;1.348547055386007E-003;5.880907992832363E-004;
2.403166666666667E+009;1.667660176753998E-001;2.519712038338184E-002;1.507244538515806E-003;5.373116582632065E-004;
2.403333333333334E+009;1.675263196229935E-001;2.426997013390064E-002;1.475992030464113E-003;6.649211863987148E-004;
2.403500000000000E+009;1.683494597673416E-001;2.296971157193184E-002;1.682587084360421E-003;5.882515688426793E-004;
2.403666666666667E+009;1.694702059030533E-001;2.161817252635956E-002;1.680166227743030E-003;5.204819026403129E-004;
2.403833333333334E+009;1.705161333084106E-001;2.083983272314072E-002;1.612682361155748E-003;3.959186724387109E-004;
2.404000000000000E+009;1.713770776987076E-001;1.989986561238766E-002;1.836342620663345E-003;5.392176681198180E-004;
2.404166666666667E+009;1.723355352878571E-001;1.894101500511169E-002;1.761813415214419E-003;5.335662281140685E-004;
2.404333333333334E+009;1.731814444065094E-001;1.815393380820751E-002;1.968625001609325E-003;4.590727330651134E-004;
2.404500000000000E+009;1.739192754030228E-001;1.741629093885422E-002;2.058882964774966E-003;3.616682079154998E-004;
2.404666666666667E+009;1.748645156621933E-001;1.691084541380405E-002;2.109848428517580E-003;3.614299057517201E-004;
2.404833333333334E+009;1.756772398948669E-001;1.619856990873814E-002;2.186822937801480E-003;4.731192020699382E-004;
2.405000000000000E+009;1.763524413108826E-001;1.569643802940846E-002;2.241362351924181E-003;2.180225856136531E-004;
2.405166666666667E+009;1.770523637533188E-001;1.531221251934767E-002;2.262013964354992E-003;8.601036824984476E-005;
2.405333333333334E+009;1.777781844139099E-001;1.484225690364838E-002;2.282615052536130E-003;8.697977318661287E-005;
2.405500000000000E+009;1.783182024955750E-001;1.451542228460312E-002;2.498264424502850E-003;1.215477896039374E-004;
2.405666666666667E+009;1.787793487310410E-001;1.422561053186655E-002;2.603925531730056E-003;-6.901415326865390E-005;
2.405833333333334E+009;1.790010482072830E-001;1.397491525858641E-002;2.515565138310194E-003;-4.836544758290984E-005;
2.406000000000000E+009;1.793326586484909E-001;1.349497679620981E-002;2.635661978274584E-003;-1.324467593804002E-004;
2.406166666666667E+009;1.795485466718674E-001;1.328354701399803E-002;2.684910083189607E-003;-2.710866101551801E-004;
2.406333333333334E+009;1.798330098390579E-001;1.307459827512503E-002;2.505447017028928E-003;-4.593863850459456E-004;
2.406500000000000E+009;1.799020618200302E-001;1.276576519012451E-002;2.578839194029570E-003;-4.526240227278322E-004;
2.406666666666667E+009;1.796506196260452E-001;1.252507418394089E-002;2.672897418960929E-003;-4.927859990857542E-004;
2.406833333333334E+009;1.797475218772888E-001;1.199744362384081E-002;2.680405043065548E-003;-7.158552180044353E-004;
2.407000000000000E+009;1.795362383127213E-001;1.171675790101290E-002;2.697293646633625E-003;-8.337040781043470E-004;
2.407166666666667E+009;1.794795095920563E-001;1.126530673354864E-002;2.746038837358356E-003;-8.633557590655983E-004;
2.407333333333334E+009;1.790218800306320E-001;1.084418687969446E-002;2.796567976474762E-003;-8.842204115353525E-004;
2.407500000000000E+009;1.787545979022980E-001;1.033989246934652E-002;2.821258269250393E-003;-1.173324184492230E-003;
2.407666666666667E+009;1.782707273960114E-001;9.831528179347515E-003;2.665656385943294E-003;-1.130306976847351E-003;
2.407833333333334E+009;1.776271015405655E-001;8.945978246629238E-003;2.802613424137235E-003;-1.304912031628192E-003;
2.408000000000000E+009;1.772403120994568E-001;8.131171576678753E-003;2.684625564143062E-003;-1.374077284708619E-003;
2.408166666666667E+009;1.766452640295029E-001;7.499017752707005E-003;2.830390818417072E-003;-1.331430044956505E-003;
2.408333333333334E+009;1.762874275445938E-001;6.387701723724604E-003;2.692765090614557E-003;-1.518981182016432E-003;
2.408500000000000E+009;1.755476742982864E-001;5.312209483236074E-003;2.743709832429886E-003;-1.626894692890346E-003;
2.408666666666667E+009;1.748646050691605E-001;4.317169077694416E-003;2.777331275865436E-003;-1.794826705008745E-003;
2.408833333333334E+009;1.741041690111160E-001;3.115451429039240E-003;2.776921726763248E-003;-1.852812943980098E-003;
2.409000000000000E+009;1.734375506639481E-001;1.832984620705247E-003;2.746890066191554E-003;-2.157121431082487E-003;
2.409166666666667E+009;1.728300303220749E-001;5.794340977445245E-004;2.675677882507443E-003;-2.180340467020869E-003;
2.409333333333334E+009;1.721562892198563E-001;-8.825445547699928E-004;2.653980394825339E-003;-2.174102934077382E-003;
2.409500000000000E+009;1.715744882822037E-001;-2.553669270128012E-003;2.669173292815685E-003;-2.430183812975884E-003;
2.409666666666667E+009;1.708964705467224E-001;-4.220406524837017E-003;2.489093923941255E-003;-2.402983140200377E-003;
2.409833333333334E+009;1.702676862478256E-001;-5.754276644438505E-003;2.546335104852915E-003;-2.697833580896258E-003;
2.410000000000000E+009;1.698173880577087E-001;-7.337414659559727E-003;2.542955568060279E-003;-2.750490326434374E-003;
2.410166666666667E+009;1.694521456956863E-001;-9.231808595359325E-003;2.473023720085621E-003;-2.873070305213332E-003;
2.410333333333334E+009;1.688917428255081E-001;-1.087838504463434E-002;2.389938803389669E-003;-3.023259807378054E-003;
2.410500000000000E+009;1.686084121465683E-001;-1.293106283992529E-002;2.310428069904447E-003;-3.329390659928322E-003;
2.410666666666667E+009;1.683338135480881E-001;-1.489010453224182E-002;2.039333805441856E-003;-3.346931422129273E-003;
2.410833333333334E+009;1.680593192577362E-001;-1.675748638808727E-002;2.080896403640509E-003;-3.384911455214024E-003;
2.411000000000000E+009;1.678150147199631E-001;-1.861314103007317E-002;2.054772106930614E-003;-3.700252622365952E-003;
2.411166666666667E+009;1.678093820810318E-001;-2.062075771391392E-002;1.843621837906539E-003;-3.681191941723228E-003;
2.411333333333334E+009;1.677149087190628E-001;-2.252597920596600E-002;1.703881658613682E-003;-3.900628304108977E-003;
2.411500000000000E+009;1.675726026296616E-001;-2.474509552121162E-002;1.564931240864098E-003;-4.059196449816227E-003;
2.411666666666667E+009;1.678767055273056E-001;-2.669686824083328E-002;1.440077903680503E-003;-3.994019702076912E-003;
2.411833333333334E+009;1.679135411977768E-001;-2.846478484570980E-002;1.104302355088294E-003;-4.156678449362516E-003;
2.412000000000000E+009;1.683136969804764E-001;-3.054845519363880E-002;1.050462597049773E-003;-4.299610387533903E-003;
2.412166666666667E+009;1.685163527727127E-001;-3.238693624734879E-002;9.040486766025424E-004;-4.333639517426491E-003;
2.412333333333334E+009;1.690548509359360E-001;-3.410450369119644E-002;5.836837226524949E-004;-4.486344289034605E-003;
2.412500000000000E+009;1.693648397922516E-001;-3.591706976294518E-002;3.932725230697542E-004;-4.469850566238165E-003;
2.412666666666667E+009;1.698333323001862E-001;-3.786718845367432E-002;2.891780750360340E-004;-4.596638493239880E-003;
2.412833333333334E+009;1.704357862472534E-001;-3.945568203926086E-002;7.177329825935885E-005;-4.628440365195274E-003;
2.413000000000000E+009;1.711317300796509E-001;-4.103122279047966E-002;-3.618241171352565E-004;-4.503053147345781E-003;
2.413166666666667E+009;1.715495288372040E-001;-4.277811199426651E-002;-5.557548720389605E-004;-4.539913497865200E-003;
2.413333333333334E+009;1.720797568559647E-001;-4.426047205924988E-002;-7.632009801454842E-004;-4.447186365723610E-003;
2.413500000000000E+009;1.727212220430374E-001;-4.576658084988594E-002;-8.664680644869804E-004;-4.565780051052570E-003;
2.413666666666667E+009;1.734729558229446E-001;-4.705850407481194E-002;-1.097602420486510E-003;-4.430313594639301E-003;
2.413833333333334E+009;1.739245355129242E-001;-4.838627949357033E-002;-1.056407345458865E-003;-4.480542615056038E-003;
2.414000000000000E+009;1.744642406702042E-001;-4.981464147567749E-002;-1.494448981247842E-003;-4.215835127979517E-003;
2.414166666666667E+009;1.752548962831497E-001;-5.074101686477661E-002;-1.648982753977180E-003;-4.214860498905182E-003;
2.414333333333334E+009;1.756311058998108E-001;-5.181770399212837E-002;-1.824738690629602E-003;-4.075645003467798E-003;
2.414500000000000E+009;1.763778477907181E-001;-5.266613885760307E-002;-1.943323994055390E-003;-4.168677609413862E-003;
2.414666666666667E+009;1.768239587545395E-001;-5.342280864715576E-002;-2.181975869461894E-003;-4.025513306260109E-003;
2.414833333333334E+009;1.772827059030533E-001;-5.430541932582855E-002;-2.287329407408834E-003;-3.881562734022737E-003;
2.415000000000000E+009;1.775418519973755E-001;-5.497317388653755E-002;-2.451528562232852E-003;-3.698919899761677E-003;
2.415166666666667E+009;1.779073327779770E-001;-5.549646168947220E-002;-2.504355506971479E-003;-3.607098245993257E-003;
2.415333333333334E+009;1.782426238059998E-001;-5.601709708571434E-002;-2.757981419563294E-003;-3.467158880084753E-003;
2.415500000000000E+009;1.784286797046661E-001;-5.652410909533501E-002;-2.752137370407581E-003;-3.439888590946794E-003;
2.415666666666667E+009;1.785390675067902E-001;-5.684645101428032E-002;-2.885497175157070E-003;-3.168393159285188E-003;
2.415833333333334E+009;1.787393242120743E-001;-5.717564001679421E-002;-3.085806267336011E-003;-3.167348215356469E-003;
2.416000000000000E+009;1.784719079732895E-001;-5.760283768177033E-002;-3.167204558849335E-003;-3.073503263294697E-003;
2.416166666666667E+009;1.785660088062286E-001;-5.783530324697495E-002;-3.215567907318473E-003;-2.881735796108842E-003;
2.416333333333334E+009;1.782894283533096E-001;-5.799405649304390E-002;-3.434712765738368E-003;-2.823757706210017E-003;
2.416500000000000E+009;1.779481321573257E-001;-5.831672251224518E-002;-3.335892921313644E-003;-2.494418062269688E-003;
2.416666666666667E+009;1.773609966039658E-001;-5.839562416076660E-002;-3.508886788040400E-003;-2.506847493350506E-003;
2.416833333333334E+009;1.770772486925125E-001;-5.877809971570969E-002;-3.599658375605941E-003;-2.298629377037287E-003;
2.417000000000000E+009;1.764227449893951E-001;-5.900109559297562E-002;-3.711963770911098E-003;-2.133087953552604E-003;
2.417166666666667E+009;1.758355498313904E-001;-5.896305292844772E-002;-3.762783715501428E-003;-1.890050363726914E-003;
2.417333333333334E+009;1.750580072402954E-001;-5.933838337659836E-002;-3.769264556467533E-003;-1.663992414250970E-003;
2.417500000000000E+009;1.741316616535187E-001;-5.961948260664940E-002;-4.001493100076914E-003;-1.664196839556098E-003;
2.417666666666667E+009;1.733978688716888E-001;-5.979042127728462E-002;-3.883137134835124E-003;-1.505114021711052E-003;
2.417833333333334E+009;1.723704487085342E-001;-6.012533977627754E-002;-4.022251348942518E-003;-1.159913255833089E-003;
2.418000000000000E+009;1.712595373392105E-001;-6.070347130298615E-002;-3.877384820953012E-003;-1.102138194255531E-003;
2.418166666666667E+009;1.701886653900147E-001;-6.090748310089111E-002;-3.928657621145248E-003;-1.087556243874133E-003;
2.418333333333334E+009;1.693098992109299E-001;-6.154361739754677E-002;-3.982486668974161E-003;-8.157340344041586E-004;
2.418500000000000E+009;1.680572777986527E-001;-6.209505721926689E-002;-3.923712298274040E-003;-7.151996833272278E-004;
2.418666666666667E+009;1.669553667306900E-001;-6.264342367649078E-002;-3.909963183104992E-003;-6.093427655287087E-004;
2.418833333333334E+009;1.654535681009293E-001;-6.346338987350464E-002;-4.027537535876036E-003;-3.753968048840761E-004;
2.419000000000000E+009;1.642033606767654E-001;-6.411472707986832E-002;-3.970273770391941E-003;-3.806606109719724E-004;
2.419166666666667E+009;1.631713956594467E-001;-6.503102183341980E-002;-3.787967842072249E-003;-1.832413108786568E-004;
2.419333333333334E+009;1.618092060089111E-001;-6.576120853424072E-002;-3.827018663287163E-003;-1.581971155246720E-004;
2.419500000000000E+009;1.606231778860092E-001;-6.689766794443131E-002;-3.799065947532654E-003;4.568210715660825E-005;
2.419666666666667E+009;1.594874411821365E-001;-6.798133254051209E-002;-3.835638286545873E-003;1.259443961316720E-004;
2.419833333333334E+009;1.582284122705460E-001;-6.899538636207581E-002;-3.743185196071863E-003;4.378024896141142E-004;
2.420000000000000E+009;1.571813076734543E-001;-7.035323977470398E-002;-3.852694993838668E-003;4.677881370298564E-004;
2.420166666666667E+009;1.562397480010986E-001;-7.166384160518646E-002;-3.721376648172736E-003;4.595853970386088E-004;
2.420333333333334E+009;1.552733927965164E-001;-7.311156392097473E-002;-3.736862447112799E-003;6.470868247561157E-004;
2.420500000000000E+009;1.543435454368591E-001;-7.434528321027756E-002;-3.785060951486230E-003;9.474225225858390E-004;
2.420666666666667E+009;1.533746421337128E-001;-7.583537697792053E-002;-3.643041476607323E-003;8.904881542548537E-004;
2.420833333333334E+009;1.527252346277237E-001;-7.736419886350632E-002;-3.536060918122530E-003;1.080484595149756E-003;
2.421000000000000E+009;1.519875079393387E-001;-7.913212478160858E-002;-3.538163844496012E-003;1.119703752920032E-003;
2.421166666666667E+009;1.512982994318008E-001;-8.074998110532761E-002;-3.577543189749122E-003;1.335032400675118E-003;
2.421333333333334E+009;1.508079767227173E-001;-8.227395266294479E-002;-3.439910011366010E-003;1.327675185166299E-003;
2.421500000000000E+009;1.503315269947052E-001;-8.383167535066605E-002;-3.406339325010777E-003;1.541269361041486E-003;
2.421666666666667E+009;1.500275284051895E-001;-8.548193424940109E-002;-3.314714878797531E-003;1.742854365147650E-003;
2.421833333333334E+009;1.499758213758469E-001;-8.736915141344070E-002;-3.302507102489471E-003;1.655510044656694E-003;
2.422000000000000E+009;1.495535820722580E-001;-8.895692974328995E-002;-3.268161788582802E-003;1.881227828562260E-003;
2.422166666666667E+009;1.495120823383331E-001;-9.071786701679230E-002;-3.095369786024094E-003;2.106331288814545E-003;
2.422333333333334E+009;1.495952010154724E-001;-9.242051839828491E-002;-2.749069593846798E-003;2.056480851024389E-003;
2.422500000000000E+009;1.496210098266602E-001;-9.387865662574768E-002;-2.813246566802263E-003;2.261198358610272E-003;
2.422666666666667E+009;1.496230065822601E-001;-9.567497670650482E-002;-2.717017196118832E-003;2.414910355582833E-003;
2.422833333333334E+009;1.499011218547821E-001;-9.740851819515228E-002;-2.570498967543244E-003;2.689234446734190E-003;
2.423000000000000E+009;1.501492410898209E-001;-9.901936352252960E-002;-2.513271989300847E-003;2.599269617348909E-003;
2.423166666666667E+009;1.506929993629456E-001;-1.004424616694450E-001;-2.365824766457081E-003;2.773540560156107E-003;
2.423333333333334E+009;1.510127484798431E-001;-1.020595654845238E-001;-2.263314556330442E-003;2.837982494384050E-003;
2.423500000000000E+009;1.513359844684601E-001;-1.033107936382294E-001;-2.041305880993605E-003;2.664057770743966E-003;
2.423666666666667E+009;1.517726331949234E-001;-1.047714203596115E-001;-1.918107853271067E-003;3.139789449051023E-003;
2.423833333333334E+009;1.523755788803101E-001;-1.060123071074486E-001;-1.746331225149334E-003;3.109659999608994E-003;
2.424000000000000E+009;1.527928709983826E-001;-1.071741282939911E-001;-1.456783968023956E-003;3.118352731689811E-003;
2.424166666666667E+009;1.532806754112244E-001;-1.082547828555107E-001;-1.326569705270231E-003;3.338421927765012E-003;
2.424333333333334E+009;1.539034545421600E-001;-1.093679070472717E-001;-1.094090868718922E-003;3.191021271049976E-003;
2.424500000000000E+009;1.545280218124390E-001;-1.104578897356987E-001;-8.370245341211557E-004;3.032553009688854E-003;
2.424666666666667E+009;1.549610495567322E-001;-1.111800074577332E-001;-7.310321670956910E-004;3.180116647854447E-003;
2.424833333333334E+009;1.554411798715591E-001;-1.121523901820183E-001;-4.589048039633781E-004;3.116782987490296E-003;
2.425000000000000E+009;1.558761298656464E-001;-1.128855422139168E-001;-4.651389317587018E-004;3.208511043339968E-003;
2.425166666666667E+009;1.560484021902084E-001;-1.134770214557648E-001;-2.838210202753544E-004;3.122446592897177E-003;
2.425333333333334E+009;1.564944684505463E-001;-1.140891090035439E-001;-1.328784564975649E-004;2.907461952418089E-003;
2.425500000000000E+009;1.568607687950134E-001;-1.147103607654572E-001;8.119722770061344E-005;3.023393684998155E-003;
2.425666666666667E+009;1.568562686443329E-001;-1.151252686977387E-001;1.145601345342584E-004;2.750529209151864E-003;
2.425833333333334E+009;1.570750772953033E-001;-1.155125647783279E-001;2.597230195533484E-004;2.757967682555318E-003;
2.426000000000000E+009;1.571536958217621E-001;-1.159311383962631E-001;4.225106677040458E-004;2.660664962604642E-003;
2.426166666666667E+009;1.572046428918839E-001;-1.161851286888123E-001;6.143537466414273E-004;2.447297563776374E-003;
2.426333333333334E+009;1.570679396390915E-001;-1.164737343788147E-001;5.922070122323930E-004;2.328288508579135E-003;
2.426500000000000E+009;1.569883823394775E-001;-1.165406778454781E-001;7.594567141495645E-004;2.262750407680869E-003;
2.426666666666667E+009;1.568751782178879E-001;-1.165823116898537E-001;9.153521968983114E-004;2.128856722265482E-003;
2.426833333333334E+009;1.564051061868668E-001;-1.166993081569672E-001;9.042968740686774E-004;2.043315442278981E-003;
2.427000000000000E+009;1.559939831495285E-001;-1.170451268553734E-001;1.022643758915365E-003;1.916999812237918E-003;
2.427166666666667E+009;1.554342806339264E-001;-1.169628128409386E-001;1.008129795081914E-003;1.833808841183782E-003;
2.427333333333334E+009;1.545604318380356E-001;-1.171546354889870E-001;1.007406855933368E-003;1.630510203540325E-003;
2.427500000000000E+009;1.540540456771851E-001;-1.173066496849060E-001;1.048302976414561E-003;1.602996722795069E-003;
2.427666666666667E+009;1.531933397054672E-001;-1.174544319510460E-001;1.053227693773806E-003;1.544441911391914E-003;
