# Version 1.00
#
freq[Hz];re:Trc1_S11;im:Trc1_S11;re:Trc2_S21;im:Trc2_S21;
2.400000000000000E+009;1.563470661640167E-001;6.037907674908638E-002;1.349189900793135E-003;3.089575038757175E-004;
2.400166666666667E+009;1.563764810562134E-001;5.856264382600784E-002;1.123054185882211E-003;2.858732186723501E-004;
2.400333333333334E+009;1.567118614912033E-001;5.646682158112526E-002;1.247542910277844E-003;1.938407804118469E-004;
2.400500000000000E+009;1.569499820470810E-001;5.448165163397789E-002;1.107837422750890E-003;2.001064131036401E-004;
2.400666666666667E+009;1.569342166185379E-001;5.228846147656441E-002;1.188800903037190E-003;2.466038276907057E-004;
2.400833333333334E+009;1.573817282915115E-001;5.040979757905006E-002;1.129485084675252E-003;2.219476737082005E-004;
2.401000000000000E+009;1.576877981424332E-001;4.826258867979050E-002;1.277389703318477E-003;3.892736276611686E-004;
2.401166666666667E+009;1.580912917852402E-001;4.625121131539345E-002;1.204247702844441E-003;2.851033932529390E-004;
2.401333333333334E+009;1.583202928304672E-001;4.410382360219955E-002;1.239378820173442E-003;3.452719829510897E-004;
2.401500000000000E+009;1.588912308216095E-001;4.221120476722717E-002;1.110325334593654E-003;3.261563251726329E-004;
2.401666666666667E+009;1.594782024621964E-001;4.026456922292709E-002;1.202284358441830E-003;5.000469973310828E-004;
2.401833333333334E+009;1.602359414100647E-001;3.820093721151352E-002;1.275714370422065E-003;5.193800316192210E-004;
2.402000000000000E+009;1.605627983808518E-001;3.646163269877434E-002;1.216599950566888E-003;4.242577124387026E-004;
2.402166666666667E+009;1.612588018178940E-001;3.445778414607048E-002;1.253873109817505E-003;5.068709142506123E-004;
2.402333333333334E+009;1.621010899543762E-001;3.265590965747833E-002;1.178994076326489E-003;5.592523375526071E-004;
2.402500000000000E+009;1.631166934967041E-001;3.117321617901325E-002;1.293995534069836E-003;6.753547932021320E-004;
2.402666666666667E+009;1.638156920671463E-001;2.954033762216568E-002;1.214191201142967E-003;7.130730082280934E-004;
2.402833333333334E+009;1.647273302078247E-001;2.819375880062580E-002;1.269184984266758E-003;6.938344449736178E-004;
2.403000000000000E+009;1.656147539615631E-001;2.668373659253120E-002;1.312535488978028E-003;7.679865229874849E-004;
2.403166666666667E+009;1.665963381528854E-001;2.534762769937515E-002;1.403675996698439E-003;6.647792761214078E-004;
2.403333333333334E+009;1.675048172473908E-001;2.411770820617676E-002;1.503839739598334E-003;6.495869020000100E-004;
2.403500000000000E+009;1.685148924589157E-001;2.299261651933193E-002;1.541774719953537E-003;5.598025163635612E-004;
2.403666666666667E+009;1.694961935281754E-001;2.172289974987507E-002;1.603972981683910E-003;5.526202730834484E-004;
2.403833333333334E+009;1.704255044460297E-001;2.066304348409176E-002;1.767243607901037E-003;7.775541744194925E-004;
2.404000000000000E+009;1.715519577264786E-001;1.978753693401814E-002;2.007249742746353E-003;6.389922928065062E-004;
2.404166666666667E+009;1.723468303680420E-001;1.896383985877037E-002;1.847747713327408E-003;6.281265523284674E-004;
2.404333333333334E+009;1.732984632253647E-001;1.827538758516312E-002;1.949155121110380E-003;6.550241960212588E-004;
2.404500000000000E+009;1.740043610334396E-001;1.742754131555557E-002;2.087327186018229E-003;5.054651992395520E-004;
2.404666666666667E+009;1.747602671384811E-001;1.680449023842812E-002;2.160730771720409E-003;4.401995684020221E-004;
2.404833333333334E+009;1.757030934095383E-001;1.620555669069290E-002;2.373107476159930E-003;4.152074106968939E-004;
2.405000000000000E+009;1.763647794723511E-001;1.574522629380226E-002;2.317384583875537E-003;4.053619632031769E-004;
2.405166666666667E+009;1.769489347934723E-001;1.516374014317989E-002;2.446000697091222E-003;3.034276014659554E-004;
2.405333333333334E+009;1.777095645666122E-001;1.467085815966129E-002;2.561205299571157E-003;1.916125329444185E-004;
2.405500000000000E+009;1.781581491231918E-001;1.450405362993479E-002;2.586280228570104E-003;4.728596468339674E-005;
2.405666666666667E+009;1.787084043025971E-001;1.419775933027268E-002;2.516833366826177E-003;1.043106967699714E-004;
2.405833333333334E+009;1.789559423923492E-001;1.397736743092537E-002;2.705404069274664E-003;1.180930121336132E-004;
2.406000000000000E+009;1.794866621494293E-001;1.352902408689261E-002;2.649865578860045E-003;-2.031086187344044E-004;
2.406166666666667E+009;1.794935613870621E-001;1.332526374608278E-002;2.729961881414056E-003;-1.503972162026912E-004;
2.406333333333334E+009;1.798887252807617E-001;1.305075641721487E-002;2.521169139072299E-003;-3.173082950524986E-004;
2.406500000000000E+009;1.798548400402069E-001;1.266648713499308E-002;2.729544183239341E-003;-4.623286076821387E-004;
2.406666666666667E+009;1.795489192008972E-001;1.251794584095478E-002;2.715653739869595E-003;-5.594848771579564E-004;
2.406833333333334E+009;1.796936541795731E-001;1.206445228308439E-002;2.714512404054403E-003;-6.408608751371503E-004;
2.407000000000000E+009;1.796817034482956E-001;1.180317718535662E-002;2.816457767039537E-003;-6.115363212302327E-004;
2.407166666666667E+009;1.793824732303619E-001;1.135738287121058E-002;2.890737261623144E-003;-8.278095046989620E-004;
2.407333333333334E+009;1.790393143892288E-001;1.072521228343248E-002;2.987522166222334E-003;-8.112116483971477E-004;
2.407500000000000E+009;1.786038130521774E-001;1.036682166159153E-002;2.908674068748951E-003;-1.061912858858705E-003;
2.407666666666667E+009;1.782942414283752E-001;9.650099091231823E-003;2.755097812041640E-003;-1.110700424760580E-003;
2.407833333333334E+009;1.777519434690476E-001;8.888852782547474E-003;2.848736708983779E-003;-1.263692975044251E-003;
2.408000000000000E+009;1.773767322301865E-001;8.171106688678265E-003;2.897174097597599E-003;-1.279607880860567E-003;
2.408166666666667E+009;1.767996251583099E-001;7.365174591541290E-003;2.863769885152578E-003;-1.490033930167556E-003;
2.408333333333334E+009;1.762699931859970E-001;6.463644560426474E-003;2.917422447353602E-003;-1.692032557912171E-003;
2.408500000000000E+009;1.756126433610916E-001;5.419163499027491E-003;2.978563075885177E-003;-1.568312174640596E-003;
2.408666666666667E+009;1.748311072587967E-001;4.305052570998669E-003;2.762493677437306E-003;-1.682455185800791E-003;
2.408833333333334E+009;1.741674542427063E-001;3.152786521241069E-003;2.838201122358441E-003;-1.880333526059985E-003;
2.409000000000000E+009;1.736131310462952E-001;2.041308907791972E-003;2.754823770374060E-003;-1.836567069403827E-003;
2.409166666666667E+009;1.729048937559128E-001;4.134748014621437E-004;2.830023411661387E-003;-1.960549270734191E-003;
2.409333333333334E+009;1.723531633615494E-001;-9.904565522447228E-004;2.866764087229967E-003;-2.311192452907562E-003;
2.409500000000000E+009;1.716001629829407E-001;-2.650186885148287E-003;2.857417566701770E-003;-2.373087452724576E-003;
2.409666666666667E+009;1.708750426769257E-001;-4.146969877183437E-003;2.718942239880562E-003;-2.460505580529571E-003;
2.409833333333334E+009;1.703004688024521E-001;-5.576163996011019E-003;2.536238636821508E-003;-2.554740291088820E-003;
2.410000000000000E+009;1.698447167873383E-001;-7.339268457144499E-003;2.748147118836641E-003;-2.690208610147238E-003;
2.410166666666667E+009;1.693477034568787E-001;-9.186765179038048E-003;2.678854158148170E-003;-2.772567793726921E-003;
2.410333333333334E+009;1.689761728048325E-001;-1.096986886113882E-002;2.598951105028391E-003;-3.123109461739659E-003;
2.410500000000000E+009;1.685163229703903E-001;-1.286088023334742E-002;2.399266697466373E-003;-3.264146856963635E-003;
2.410666666666667E+009;1.682242006063461E-001;-1.489689294248819E-002;2.362792845815420E-003;-3.347173100337386E-003;
2.410833333333334E+009;1.678843945264816E-001;-1.666124351322651E-002;2.239731838926673E-003;-3.571778535842896E-003;
2.411000000000000E+009;1.678815484046936E-001;-1.873548328876495E-002;1.978074666112661E-003;-3.568586427718401E-003;
2.411166666666667E+009;1.677691936492920E-001;-2.055950462818146E-002;1.830634428188205E-003;-3.869740758091211E-003;
2.411333333333334E+009;1.676187366247177E-001;-2.268061786890030E-002;1.763650798238814E-003;-3.879563417285681E-003;
2.411500000000000E+009;1.675723046064377E-001;-2.468176744878292E-002;1.619543065316975E-003;-4.063825123012066E-003;
2.411666666666667E+009;1.678441613912582E-001;-2.670847810804844E-002;1.492675510235131E-003;-4.242722876369953E-003;
2.411833333333334E+009;1.681195497512817E-001;-2.851492911577225E-002;1.360486960038543E-003;-4.172694869339466E-003;
2.412000000000000E+009;1.683224588632584E-001;-3.058130666613579E-002;1.214188523590565E-003;-4.389886278659105E-003;
2.412166666666667E+009;1.686301976442337E-001;-3.247396647930145E-002;1.048429985530675E-003;-4.469076637178659E-003;
2.412333333333334E+009;1.689612567424774E-001;-3.423920273780823E-002;5.807444103993475E-004;-4.434771370142698E-003;
2.412500000000000E+009;1.692583709955216E-001;-3.598660230636597E-002;4.587582370731980E-004;-4.584836307913065E-003;
2.412666666666667E+009;1.699235737323761E-001;-3.800917044281960E-002;2.976797113660723E-004;-4.570577293634415E-003;
2.412833333333334E+009;1.705430448055267E-001;-3.957779705524445E-002;-5.049018363934010E-005;-4.576894920319319E-003;
2.413000000000000E+009;1.710577011108398E-001;-4.131196811795235E-002;-1.582149416208267E-004;-4.430366680026054E-003;
2.413166666666667E+009;1.715428233146668E-001;-4.287867993116379E-002;-3.534873249009252E-004;-4.441475495696068E-003;
2.413333333333334E+009;1.720145493745804E-001;-4.434817656874657E-002;-4.502873634919524E-004;-4.551954101771116E-003;
2.413500000000000E+009;1.726361662149429E-001;-4.592777416110039E-002;-7.270284695550799E-004;-4.668218549340963E-003;
2.413666666666667E+009;1.733497530221939E-001;-4.712855443358421E-002;-9.734513005241752E-004;-4.576212260872126E-003;
2.413833333333334E+009;1.738740503787994E-001;-4.845359548926354E-002;-1.227381406351924E-003;-4.436858464032412E-003;
2.414000000000000E+009;1.744328737258911E-001;-4.960265755653381E-002;-1.393813639879227E-003;-4.395836032927036E-003;
2.414166666666667E+009;1.752467900514603E-001;-5.073820799589157E-002;-1.490923925302923E-003;-4.238556604832411E-003;
2.414333333333334E+009;1.758341789245606E-001;-5.186446756124497E-002;-1.732193166390061E-003;-4.207839723676443E-003;
2.414500000000000E+009;1.763664931058884E-001;-5.264043062925339E-002;-1.992516452446580E-003;-4.048762377351522E-003;
2.414666666666667E+009;1.766629219055176E-001;-5.351384356617928E-002;-1.931885606609285E-003;-4.094506148248911E-003;
2.414833333333334E+009;1.771184951066971E-001;-5.426735803484917E-002;-2.284484915435314E-003;-3.971615806221962E-003;
2.415000000000000E+009;1.775601357221603E-001;-5.486089363694191E-002;-2.289877738803625E-003;-3.759002080187202E-003;
2.415166666666667E+009;1.779449284076691E-001;-5.561837181448937E-002;-2.533697057515383E-003;-3.749528434127569E-003;
2.415333333333334E+009;1.783180236816406E-001;-5.615342408418655E-002;-2.648869529366493E-003;-3.681782633066177E-003;
2.415500000000000E+009;1.783741712570190E-001;-5.662789195775986E-002;-2.821522299200296E-003;-3.459385829046369E-003;
2.415666666666667E+009;1.785321086645126E-001;-5.679903924465179E-002;-2.786537865176797E-003;-3.288838779553771E-003;
2.415833333333334E+009;1.786494255065918E-001;-5.731511861085892E-002;-3.117342712357640E-003;-3.154390724375844E-003;
2.416000000000000E+009;1.785308867692947E-001;-5.759989842772484E-002;-3.168081166222692E-003;-3.074495354667306E-003;
2.416166666666667E+009;1.785821318626404E-001;-5.790013074874878E-002;-3.301795572042465E-003;-3.043831093236804E-003;
2.416333333333334E+009;1.782101392745972E-001;-5.799705907702446E-002;-3.287545405328274E-003;-2.787787467241287E-003;
2.416500000000000E+009;1.779137998819351E-001;-5.824327841401100E-002;-3.414173377677798E-003;-2.690196037292481E-003;
2.416666666666667E+009;1.774763911962509E-001;-5.844281986355782E-002;-3.441451815888286E-003;-2.422878285869956E-003;
2.416833333333334E+009;1.770582348108292E-001;-5.879676342010498E-002;-3.761862637475133E-003;-2.279089065268636E-003;
2.417000000000000E+009;1.763136088848114E-001;-5.896919593214989E-002;-3.719501662999392E-003;-2.016688929870725E-003;
2.417166666666667E+009;1.757945865392685E-001;-5.910385400056839E-002;-3.730116877704859E-003;-2.091040834784508E-003;
2.417333333333334E+009;1.750855594873428E-001;-5.925258994102478E-002;-3.970096353441477E-003;-1.805447507649660E-003;
2.417500000000000E+009;1.741613000631332E-001;-5.965092405676842E-002;-3.900473238900304E-003;-1.712570432573557E-003;
2.417666666666667E+009;1.733959168195725E-001;-5.976858735084534E-002;-3.873633453622460E-003;-1.484046224504709E-003;
2.417833333333334E+009;1.723219901323319E-001;-6.006925180554390E-002;-3.786561544984579E-003;-1.441839733161032E-003;
2.418000000000000E+009;1.711907982826233E-001;-6.055916473269463E-002;-4.001427441835403E-003;-1.107265241444111E-003;
2.418166666666667E+009;1.701517999172211E-001;-6.093142181634903E-002;-3.959169145673513E-003;-1.043698401190341E-003;
2.418333333333334E+009;1.692611426115036E-001;-6.155782565474510E-002;-3.908533137291670E-003;-9.763469570316374E-004;
2.418500000000000E+009;1.679783314466476E-001;-6.200026348233223E-002;-3.954725805670023E-003;-8.012291509658098E-004;
2.418666666666667E+009;1.668420284986496E-001;-6.276565790176392E-002;-3.872026223689318E-003;-6.756643997505307E-004;
2.418833333333334E+009;1.654202193021774E-001;-6.350447982549667E-002;-3.817614633589983E-003;-5.532192299142480E-004;
2.419000000000000E+009;1.642580926418304E-001;-6.406796723604202E-002;-3.887786064296961E-003;-4.005028749816120E-004;
2.419166666666667E+009;1.630488336086273E-001;-6.512796878814697E-002;-3.796243807300925E-003;-1.858335162978619E-004;
2.419333333333334E+009;1.617108881473541E-001;-6.567683815956116E-002;-3.952987492084503E-003;-1.695677492534742E-004;
2.419500000000000E+009;1.605656296014786E-001;-6.701046228408814E-002;-3.848181571811438E-003;7.599835953442380E-005;
2.419666666666667E+009;1.594188809394836E-001;-6.814414262771606E-002;-3.873642534017563E-003;2.061694831354544E-004;
2.419833333333334E+009;1.582510173320770E-001;-6.921388208866119E-002;-3.831954440101981E-003;3.161401837132871E-004;
2.420000000000000E+009;1.571555435657501E-001;-7.028590887784958E-002;-3.889296669512987E-003;4.098875797353685E-004;
2.420166666666667E+009;1.560837477445602E-001;-7.167810946702957E-002;-3.853423520922661E-003;4.316641134209931E-004;
2.420333333333334E+009;1.552646756172180E-001;-7.312127202749252E-002;-3.717207815498114E-003;7.590877939946950E-004;
2.420500000000000E+009;1.543497592210770E-001;-7.445194572210312E-002;-3.656930522993207E-003;8.233610424213111E-004;
2.420666666666667E+009;1.533223837614059E-001;-7.573653012514114E-002;-3.713196841999888E-003;8.084065048024058E-004;
2.420833333333334E+009;1.526608616113663E-001;-7.726516574621201E-002;-3.679757472127676E-003;1.018301350995898E-003;
2.421000000000000E+009;1.519789546728134E-001;-7.911118119955063E-002;-3.681530011817813E-003;1.125862239859998E-003;
2.421166666666667E+009;1.513341516256332E-001;-8.059991896152496E-002;-3.427758812904358E-003;1.223293365910649E-003;
2.421333333333334E+009;1.509135365486145E-001;-8.228895813226700E-002;-3.501325380057097E-003;1.523857004940510E-003;
2.421500000000000E+009;1.503620594739914E-001;-8.389355987310410E-002;-3.415441373363137E-003;1.497768098488450E-003;
2.421666666666667E+009;1.501458585262299E-001;-8.557023108005524E-002;-3.455213503912091E-003;1.680970075540245E-003;
2.421833333333334E+009;1.497886329889298E-001;-8.738714456558228E-002;-3.235113341361284E-003;1.807356718927622E-003;
2.422000000000000E+009;1.496578902006149E-001;-8.898828923702240E-002;-3.146783215925098E-003;1.831954461522400E-003;
2.422166666666667E+009;1.494835317134857E-001;-9.080389142036438E-002;-3.015491878613830E-003;1.990676159039140E-003;
2.422333333333334E+009;1.495294272899628E-001;-9.225331246852875E-002;-2.995484275743365E-003;2.060313010588288E-003;
2.422500000000000E+009;1.496131122112274E-001;-9.402165561914444E-002;-2.939895028248429E-003;2.168114762753248E-003;
2.422666666666667E+009;1.494311839342117E-001;-9.571502357721329E-002;-2.779717324301601E-003;2.365652471780777E-003;
2.422833333333334E+009;1.499659270048142E-001;-9.721156209707260E-002;-2.638542791828513E-003;2.507949247956276E-003;
2.423000000000000E+009;1.502456814050674E-001;-9.904728829860687E-002;-2.492029918357730E-003;2.576400991529226E-003;
2.423166666666667E+009;1.506269872188568E-001;-1.005385369062424E-001;-2.306660404428840E-003;2.930576214566827E-003;
2.423333333333334E+009;1.509944200515747E-001;-1.018266305327416E-001;-2.194534521549940E-003;2.819430083036423E-003;
2.423500000000000E+009;1.513903886079788E-001;-1.033634692430496E-001;-2.075286582112312E-003;2.801672089844942E-003;
2.423666666666667E+009;1.518363356590271E-001;-1.046767160296440E-001;-1.833899877965450E-003;2.997496863827109E-003;
2.423833333333334E+009;1.524221748113632E-001;-1.061657592654228E-001;-1.643819385208190E-003;2.917282283306122E-003;
2.424000000000000E+009;1.528723388910294E-001;-1.071632951498032E-001;-1.553019857965410E-003;2.996685681864619E-003;
2.424166666666667E+009;1.531647145748138E-001;-1.082992330193520E-001;-1.323144999332726E-003;3.187628695741296E-003;
2.424333333333334E+009;1.539692431688309E-001;-1.093949079513550E-001;-1.184031600132585E-003;3.025179728865624E-003;
2.424500000000000E+009;1.544147133827210E-001;-1.103779897093773E-001;-9.399494156241417E-004;3.125354181975126E-003;
2.424666666666667E+009;1.549456417560577E-001;-1.112632453441620E-001;-7.915229070931673E-004;3.155295504257083E-003;
2.424833333333334E+009;1.552809476852417E-001;-1.120383068919182E-001;-6.641111685894430E-004;3.123179310932756E-003;
2.425000000000000E+009;1.558534055948257E-001;-1.129122674465179E-001;-4.166210128460079E-004;3.113621147349477E-003;
2.425166666666667E+009;1.560080051422119E-001;-1.135548278689385E-001;-2.440877287881449E-004;2.805821131914854E-003;
2.425333333333334E+009;1.564369499683380E-001;-1.141975894570351E-001;-1.685859169811010E-004;2.886708592996001E-003;
2.425500000000000E+009;1.568568646907806E-001;-1.146444752812386E-001;1.193232528748922E-004;3.005532547831535E-003;
2.425666666666667E+009;1.568580269813538E-001;-1.151229888200760E-001;1.854694710345939E-004;2.816675463691354E-003;
2.425833333333334E+009;1.571558713912964E-001;-1.154326647520065E-001;2.830443263519555E-004;2.645238535478711E-003;
2.426000000000000E+009;1.570546925067902E-001;-1.158638745546341E-001;3.861826844513416E-004;2.609253395348787E-003;
2.426166666666667E+009;1.572967469692230E-001;-1.161662265658379E-001;5.470174364745617E-004;2.460269490256906E-003;
2.426333333333334E+009;1.570955812931061E-001;-1.164805814623833E-001;6.953658303245902E-004;2.367370994761586E-003;
2.426500000000000E+009;1.568868458271027E-001;-1.165689155459404E-001;6.850935751572251E-004;2.201336901634932E-003;
2.426666666666667E+009;1.568571776151657E-001;-1.165363341569901E-001;8.469866588711739E-004;2.098537981510162E-003;
2.426833333333334E+009;1.564150452613831E-001;-1.168285906314850E-001;1.053920481353998E-003;1.979621360078454E-003;
2.427000000000000E+009;1.558797061443329E-001;-1.169684603810310E-001;9.125794167630374E-004;1.908416394144297E-003;
2.427166666666667E+009;1.553223878145218E-001;-1.169218644499779E-001;9.476701961830258E-004;1.868222258053720E-003;
2.427333333333334E+009;1.546132564544678E-001;-1.171375364065170E-001;1.072049373760819E-003;1.527660759165883E-003;
2.427500000000000E+009;1.539965271949768E-001;-1.173316538333893E-001;8.443999104201794E-004;1.576599199324846E-003;
2.427666666666667E+009;1.532033830881119E-001;-1.174371391534805E-001;1.009158440865576E-003;1.392737030982971E-003;
