# Version 1.00
#
freq[Hz];re:Trc1_S11;im:Trc1_S11;re:Trc2_S21;im:Trc2_S21;
2.400000000000000E+009;1.563937515020371E-001;6.022587418556213E-002;1.306439051404595E-003;2.651458780746907E-004;
2.400166666666667E+009;1.563488394021988E-001;5.855616927146912E-002;1.416496932506561E-003;2.955714880954474E-004;
2.400333333333334E+009;1.565295457839966E-001;5.653787404298782E-002;1.432385062798858E-003;1.627381425350905E-004;
2.400500000000000E+009;1.567359715700150E-001;5.452539771795273E-002;1.159022795036435E-003;2.470926847308874E-004;
2.400666666666667E+009;1.569854170084000E-001;5.240311846137047E-002;1.340037444606423E-003;2.690255350898951E-004;
2.400833333333334E+009;1.574429124593735E-001;5.047748610377312E-002;1.178333652205765E-003;2.329300332348794E-004;
2.401000000000000E+009;1.577115356922150E-001;4.846302047371864E-002;1.303297700360417E-003;2.096106181852520E-004;
2.401166666666667E+009;1.580969542264938E-001;4.615239426493645E-002;1.360639929771423E-003;3.827525069937110E-004;
2.401333333333334E+009;1.583939939737320E-001;4.417497664690018E-002;1.206064829602838E-003;2.375810872763395E-004;
2.401500000000000E+009;1.589763015508652E-001;4.209523275494576E-002;1.349494792521000E-003;3.453840909060091E-004;
2.401666666666667E+009;1.594909280538559E-001;4.035125672817230E-002;1.146634109318256E-003;5.442194014904089E-005;
2.401833333333334E+009;1.601604372262955E-001;3.812695667147636E-002;1.227531931363046E-003;3.552582929842174E-004;
2.402000000000000E+009;1.606628298759460E-001;3.647256642580032E-002;1.241321675479412E-003;3.804987936746329E-004;
2.402166666666667E+009;1.614866107702255E-001;3.442346304655075E-002;1.270793378353119E-003;4.996024072170258E-004;
2.402333333333334E+009;1.620960682630539E-001;3.259233385324478E-002;1.239379402250052E-003;3.170646086800844E-004;
2.402500000000000E+009;1.630310267210007E-001;3.107264824211597E-002;1.202072598971427E-003;4.518260248005390E-004;
2.402666666666667E+009;1.638732105493546E-001;2.951532602310181E-002;1.237626769579947E-003;5.833795876242220E-004;
2.402833333333334E+009;1.649179309606552E-001;2.791678532958031E-002;1.454924698919058E-003;5.692585837095976E-004;
2.403000000000000E+009;1.655856519937515E-001;2.662228792905808E-002;1.323253265582025E-003;3.996420709881932E-004;
2.403166666666667E+009;1.666073799133301E-001;2.519657649099827E-002;1.432397402822971E-003;5.447653238661587E-004;
2.403333333333334E+009;1.675829142332077E-001;2.402423880994320E-002;1.487091300077736E-003;4.780585586559027E-004;
2.403500000000000E+009;1.683548986911774E-001;2.292393893003464E-002;1.469158567488194E-003;6.538431625813246E-004;
2.403666666666667E+009;1.694936007261276E-001;2.174032106995583E-002;1.625675125978887E-003;4.765916964970529E-004;
2.403833333333334E+009;1.703698784112930E-001;2.079041674733162E-002;1.726314891129732E-003;5.274135037325323E-004;
2.404000000000000E+009;1.714120507240295E-001;1.972853019833565E-002;1.543859834782779E-003;6.489357328973711E-004;
2.404166666666667E+009;1.724351346492767E-001;1.898748986423016E-002;1.701008412055671E-003;7.160304812714458E-004;
2.404333333333334E+009;1.732231080532074E-001;1.822368800640106E-002;2.001353306695819E-003;4.041403008159250E-004;
2.404500000000000E+009;1.738033890724182E-001;1.740607619285584E-002;2.006069989874959E-003;4.612285702023655E-004;
2.404666666666667E+009;1.747649759054184E-001;1.690806262195110E-002;1.965882722288370E-003;4.760458832606673E-004;
2.404833333333334E+009;1.755884140729904E-001;1.631650328636169E-002;2.181017771363258E-003;3.068762889597565E-004;
2.405000000000000E+009;1.762809008359909E-001;1.571068167686462E-002;2.206975826993585E-003;3.672337334137410E-004;
2.405166666666667E+009;1.768625974655151E-001;1.532554626464844E-002;2.315399702638388E-003;2.637213619891554E-004;
2.405333333333334E+009;1.776902526617050E-001;1.476229727268219E-002;2.365882974117994E-003;3.644590324256569E-004;
2.405500000000000E+009;1.781193763017654E-001;1.454001199454069E-002;2.466004109010100E-003;1.454905868740752E-004;
2.405666666666667E+009;1.786576062440872E-001;1.420312188565731E-002;2.491698134690523E-003;1.684979361016303E-005;
2.405833333333334E+009;1.789275109767914E-001;1.397233642637730E-002;2.658332465216517E-003;-1.144270936492831E-004;
2.406000000000000E+009;1.793408989906311E-001;1.349994819611311E-002;2.554951235651970E-003;-3.011209773831070E-004;
2.406166666666667E+009;1.794347614049912E-001;1.349917426705360E-002;2.713716821745038E-003;-3.219095815438777E-004;
2.406333333333334E+009;1.797423362731934E-001;1.316306181252003E-002;2.684483071789146E-003;-2.792977320495993E-004;
2.406500000000000E+009;1.797527968883514E-001;1.288028340786696E-002;2.751721767708659E-003;-4.477006150409579E-004;
2.406666666666667E+009;1.795629560947418E-001;1.264130230993033E-002;2.683636732399464E-003;-4.652248171623796E-004;
2.406833333333334E+009;1.796056181192398E-001;1.213347725570202E-002;2.715415321290493E-003;-6.792639032937586E-004;
2.407000000000000E+009;1.795022636651993E-001;1.177122164517641E-002;2.825400326400995E-003;-8.942022686824203E-004;
2.407166666666667E+009;1.793846189975739E-001;1.145958993583918E-002;2.874891739338636E-003;-7.181506953202188E-004;
2.407333333333334E+009;1.790227293968201E-001;1.091710384935141E-002;2.876623999327421E-003;-9.134451393038034E-004;
2.407500000000000E+009;1.786744743585587E-001;1.034514419734478E-002;2.911804243922234E-003;-9.253767784684897E-004;
2.407666666666667E+009;1.782756894826889E-001;9.862272068858147E-003;2.875803969800472E-003;-1.045307377353311E-003;
2.407833333333334E+009;1.776910126209259E-001;8.907672017812729E-003;2.870651893317699E-003;-1.374732702970505E-003;
2.408000000000000E+009;1.772588640451431E-001;8.378036320209503E-003;2.794865053147078E-003;-1.344617106951773E-003;
2.408166666666667E+009;1.766518801450729E-001;7.468109950423241E-003;2.821943722665310E-003;-1.440402935259044E-003;
2.408333333333334E+009;1.763051897287369E-001;6.511941086500883E-003;2.787305507808924E-003;-1.624919357709587E-003;
2.408500000000000E+009;1.755482405424118E-001;5.466854199767113E-003;2.786078024655581E-003;-1.601831871084869E-003;
2.408666666666667E+009;1.749893724918366E-001;4.298582207411528E-003;2.819842658936977E-003;-1.699789077974856E-003;
2.408833333333334E+009;1.742771714925766E-001;3.243038896471262E-003;2.751780441030860E-003;-1.904188655316830E-003;
2.409000000000000E+009;1.735244095325470E-001;1.945753348991275E-003;2.742248587310314E-003;-1.919260714203119E-003;
2.409166666666667E+009;1.729424595832825E-001;6.225327961146832E-004;2.753184176981449E-003;-1.946706091985107E-003;
2.409333333333334E+009;1.722945272922516E-001;-9.599152253940702E-004;2.716240240260959E-003;-2.363494364544749E-003;
2.409500000000000E+009;1.715957969427109E-001;-2.578014740720391E-003;2.729065483435988E-003;-2.438781084492803E-003;
2.409666666666667E+009;1.709812134504318E-001;-3.966823685914278E-003;2.693308517336845E-003;-2.443911507725716E-003;
2.409833333333334E+009;1.703934818506241E-001;-5.837658420205116E-003;2.564819529652596E-003;-2.717336406931281E-003;
2.410000000000000E+009;1.699372828006744E-001;-7.232979871332645E-003;2.429009415209293E-003;-2.882318571209908E-003;
2.410166666666667E+009;1.694231480360031E-001;-9.174625389277935E-003;2.493533072993159E-003;-2.872213488444686E-003;
2.410333333333334E+009;1.690398156642914E-001;-1.108978502452374E-002;2.341560553759337E-003;-3.127394476905465E-003;
2.410500000000000E+009;1.685530245304108E-001;-1.299303863197565E-002;2.256722655147314E-003;-3.291830886155367E-003;
2.410666666666667E+009;1.682234853506088E-001;-1.488665957003832E-002;2.190584782510996E-003;-3.340132534503937E-003;
2.410833333333334E+009;1.680293977260590E-001;-1.700566709041596E-002;2.140314783900976E-003;-3.373753046616912E-003;
2.411000000000000E+009;1.676405221223831E-001;-1.861683465540409E-002;1.925512566231191E-003;-3.591357497498393E-003;
2.411166666666667E+009;1.677522361278534E-001;-2.080971002578735E-002;1.954570179805160E-003;-3.716771723702550E-003;
2.411333333333334E+009;1.677376925945282E-001;-2.259036898612976E-002;1.759924925863743E-003;-3.917898982763290E-003;
2.411500000000000E+009;1.676828265190125E-001;-2.473328821361065E-002;1.457648701034486E-003;-3.967385739088059E-003;
2.411666666666667E+009;1.678901165723801E-001;-2.666659653186798E-002;1.351662911474705E-003;-4.086609929800034E-003;
2.411833333333334E+009;1.680342853069305E-001;-2.856991998851299E-002;1.211636816151440E-003;-4.096701275557280E-003;
2.412000000000000E+009;1.683027744293213E-001;-3.054066561162472E-002;1.067475415766239E-003;-4.275443498045206E-003;
2.412166666666667E+009;1.685750335454941E-001;-3.242675587534905E-002;7.679029949940741E-004;-4.448633641004562E-003;
2.412333333333334E+009;1.690435856580734E-001;-3.417787328362465E-002;6.199582712724805E-004;-4.454317037016153E-003;
2.412500000000000E+009;1.692908555269241E-001;-3.615321591496468E-002;2.851103199645877E-004;-4.277471452951431E-003;
2.412666666666667E+009;1.698746681213379E-001;-3.789483010768890E-002;2.378203644184396E-004;-4.575930070132017E-003;
2.412833333333334E+009;1.704907566308975E-001;-3.944206982851028E-002;1.505308227933710E-005;-4.546033684164286E-003;
2.413000000000000E+009;1.708634346723557E-001;-4.127981886267662E-002;-1.923322997754440E-004;-4.420210141688585E-003;
2.413166666666667E+009;1.715354621410370E-001;-4.273921996355057E-002;-4.579163796734065E-004;-4.630009643733501E-003;
2.413333333333334E+009;1.719780564308167E-001;-4.437742009758949E-002;-6.644557579420507E-004;-4.480704199522734E-003;
2.413500000000000E+009;1.727400422096252E-001;-4.576763510704041E-002;-8.832625462673605E-004;-4.372247960418463E-003;
2.413666666666667E+009;1.733344048261643E-001;-4.707631841301918E-002;-9.972313418984413E-004;-4.399307072162628E-003;
2.413833333333334E+009;1.739425063133240E-001;-4.841873049736023E-002;-1.092455000616610E-003;-4.161971621215344E-003;
2.414000000000000E+009;1.744272857904434E-001;-4.959607869386673E-002;-1.473980722948909E-003;-4.308704752475023E-003;
2.414166666666667E+009;1.751195937395096E-001;-5.078890919685364E-002;-1.619309536181390E-003;-4.285942297428846E-003;
2.414333333333334E+009;1.757414937019348E-001;-5.163609981536865E-002;-1.705400645732880E-003;-4.047622438520193E-003;
2.414500000000000E+009;1.764100492000580E-001;-5.249994620680809E-002;-1.988820964470506E-003;-3.971858415752649E-003;
2.414666666666667E+009;1.767318099737167E-001;-5.332768708467484E-002;-2.008144743740559E-003;-3.766099922358990E-003;
2.414833333333334E+009;1.769677847623825E-001;-5.408918485045433E-002;-2.245797775685787E-003;-3.875441150739789E-003;
2.415000000000000E+009;1.774860024452210E-001;-5.480302497744560E-002;-2.358336234465241E-003;-3.770875744521618E-003;
2.415166666666667E+009;1.778788864612579E-001;-5.548378080129623E-002;-2.493359381332994E-003;-3.565715858712792E-003;
2.415333333333334E+009;1.782507002353668E-001;-5.604872480034828E-002;-2.540467074140906E-003;-3.486137371510267E-003;
2.415500000000000E+009;1.785333305597305E-001;-5.645386129617691E-002;-2.747110789641738E-003;-3.256559139117599E-003;
2.415666666666667E+009;1.784856319427490E-001;-5.683968216180801E-002;-2.790912752971053E-003;-3.217265708371997E-003;
2.415833333333334E+009;1.785279363393784E-001;-5.720997601747513E-002;-2.926167566329241E-003;-3.258476732298732E-003;
2.416000000000000E+009;1.785209178924561E-001;-5.745390430092812E-002;-3.108842764049768E-003;-2.953614108264446E-003;
2.416166666666667E+009;1.784724891185761E-001;-5.782284587621689E-002;-3.301826072856784E-003;-2.907325513660908E-003;
2.416333333333334E+009;1.781478226184845E-001;-5.794093012809753E-002;-3.311324166134000E-003;-2.725619124248624E-003;
2.416500000000000E+009;1.779909133911133E-001;-5.827161297202110E-002;-3.417091676965356E-003;-2.652248833328486E-003;
2.416666666666667E+009;1.774472296237946E-001;-5.840949714183807E-002;-3.443580586463213E-003;-2.395095536485314E-003;
2.416833333333334E+009;1.771296858787537E-001;-5.867734923958778E-002;-3.635467030107975E-003;-2.173527842387557E-003;
2.417000000000000E+009;1.764069497585297E-001;-5.887110903859139E-002;-3.605300094932318E-003;-2.181442920118570E-003;
2.417166666666667E+009;1.757282614707947E-001;-5.902745947241783E-002;-3.819117555394769E-003;-2.026443136855960E-003;
2.417333333333334E+009;1.749451309442520E-001;-5.921930074691773E-002;-3.705690382048488E-003;-1.849153777584434E-003;
2.417500000000000E+009;1.741182506084442E-001;-5.959014967083931E-002;-3.934778273105621E-003;-1.713096396997571E-003;
2.417666666666667E+009;1.734032630920410E-001;-5.976038053631783E-002;-3.881672862917185E-003;-1.584629062563181E-003;
2.417833333333334E+009;1.723393499851227E-001;-6.006528437137604E-002;-3.968017175793648E-003;-1.393359038047493E-003;
2.418000000000000E+009;1.712256073951721E-001;-6.059683114290237E-002;-3.913848660886288E-003;-1.221870305016637E-003;
2.418166666666667E+009;1.701057702302933E-001;-6.088881939649582E-002;-4.046488553285599E-003;-9.719676454551518E-004;
2.418333333333334E+009;1.692758500576019E-001;-6.163958460092545E-002;-3.945547156035900E-003;-7.927333936095238E-004;
2.418500000000000E+009;1.679395437240601E-001;-6.208378076553345E-002;-3.855581395328045E-003;-7.828211528249085E-004;
2.418666666666667E+009;1.668427288532257E-001;-6.273494660854340E-002;-3.934721928089857E-003;-4.400875477585942E-004;
2.418833333333334E+009;1.655094325542450E-001;-6.336012482643127E-002;-3.888096893206239E-003;-4.515504406299442E-004;
2.419000000000000E+009;1.640506833791733E-001;-6.425614655017853E-002;-3.913437481969595E-003;-3.727650910150260E-004;
2.419166666666667E+009;1.630791425704956E-001;-6.515300273895264E-002;-3.916087094694376E-003;-3.224498068448156E-004;
2.419333333333334E+009;1.616412699222565E-001;-6.592198461294174E-002;-3.820599988102913E-003;-1.884737866930664E-004;
2.419500000000000E+009;1.605057567358017E-001;-6.707661598920822E-002;-3.757840255275369E-003;1.369932870147750E-004;
2.419666666666667E+009;1.594643741846085E-001;-6.815550476312637E-002;-3.933333326131105E-003;1.603457058081403E-004;
2.419833333333334E+009;1.581646353006363E-001;-6.906814128160477E-002;-3.770839422941208E-003;3.463939938228577E-004;
2.420000000000000E+009;1.570228636264801E-001;-7.048370689153671E-002;-3.809686517342925E-003;6.401438731700182E-004;
2.420166666666667E+009;1.560611873865128E-001;-7.167971134185791E-002;-3.605050966143608E-003;6.308155134320259E-004;
2.420333333333334E+009;1.550532281398773E-001;-7.311686873435974E-002;-3.654374042525888E-003;7.452028221450746E-004;
2.420500000000000E+009;1.542248874902725E-001;-7.440016418695450E-002;-3.620801959186792E-003;7.316683186218143E-004;
2.420666666666667E+009;1.533026695251465E-001;-7.583044469356537E-002;-3.648563520982862E-003;1.084139687009156E-003;
2.420833333333334E+009;1.526592373847961E-001;-7.738145440816879E-002;-3.409378929063678E-003;1.191868796013296E-003;
2.421000000000000E+009;1.517941653728485E-001;-7.904851436614990E-002;-3.441224806010723E-003;1.223341212607920E-003;
2.421166666666667E+009;1.512355655431747E-001;-8.061540871858597E-002;-3.380030160769820E-003;1.152650453150272E-003;
2.421333333333334E+009;1.506251394748688E-001;-8.227577060461044E-002;-3.488334594294429E-003;1.359144691377878E-003;
2.421500000000000E+009;1.503141075372696E-001;-8.375997841358185E-002;-3.253667848184705E-003;1.510611153207719E-003;
2.421666666666667E+009;1.499150842428207E-001;-8.564120531082153E-002;-3.292323322966695E-003;1.620632945559919E-003;
2.421833333333334E+009;1.496822088956833E-001;-8.744744211435318E-002;-3.091291291639209E-003;1.864519203081727E-003;
2.422000000000000E+009;1.495669037103653E-001;-8.901689201593399E-002;-3.044030396267772E-003;1.808565342798829E-003;
2.422166666666667E+009;1.494328379631043E-001;-9.084433317184448E-002;-2.959397388622165E-003;2.107794629409909E-003;
2.422333333333334E+009;1.493490636348724E-001;-9.240285307168961E-002;-3.070634789764881E-003;2.320326864719391E-003;
2.422500000000000E+009;1.495383679866791E-001;-9.402766823768616E-002;-2.817763481289148E-003;2.403177553787828E-003;
2.422666666666667E+009;1.496497690677643E-001;-9.578007459640503E-002;-2.689739223569632E-003;2.345806919038296E-003;
2.422833333333334E+009;1.499802619218826E-001;-9.731800854206085E-002;-2.525393618270755E-003;2.437838586047292E-003;
2.423000000000000E+009;1.500625759363174E-001;-9.899377077817917E-002;-2.481636358425021E-003;2.606335096061230E-003;
2.423166666666667E+009;1.505970358848572E-001;-1.004790514707565E-001;-2.358854282647371E-003;2.835126826539636E-003;
2.423333333333334E+009;1.509993225336075E-001;-1.017469838261604E-001;-2.058144891634584E-003;2.817416097968817E-003;
2.423500000000000E+009;1.514095664024353E-001;-1.032938808202744E-001;-1.992659876123071E-003;2.932041883468628E-003;
2.423666666666667E+009;1.517672687768936E-001;-1.047799289226532E-001;-1.941313268616796E-003;3.084215801209211E-003;
2.423833333333334E+009;1.523767858743668E-001;-1.060407385230064E-001;-1.696479623205960E-003;3.043452510610223E-003;
2.424000000000000E+009;1.527324616909027E-001;-1.070398837327957E-001;-1.572184730321169E-003;3.023823257535696E-003;
2.424166666666667E+009;1.533422917127609E-001;-1.083352640271187E-001;-1.357399276457727E-003;3.012368222698569E-003;
2.424333333333334E+009;1.539086997509003E-001;-1.093905419111252E-001;-1.060054870322347E-003;3.181537846103311E-003;
2.424500000000000E+009;1.543807983398438E-001;-1.103617027401924E-001;-9.219221537932754E-004;3.093561623245478E-003;
2.424666666666667E+009;1.549477875232697E-001;-1.111566275358200E-001;-8.476044749841094E-004;3.206893336027861E-003;
2.424833333333334E+009;1.552210748195648E-001;-1.121220588684082E-001;-6.309513119049370E-004;3.046700498089194E-003;
2.425000000000000E+009;1.558174937963486E-001;-1.128144115209580E-001;-3.502744075376540E-004;3.071029437705874E-003;
2.425166666666667E+009;1.559752821922302E-001;-1.134548410773277E-001;-1.834367431001738E-004;3.019801806658506E-003;
2.425333333333334E+009;1.565192937850952E-001;-1.140687093138695E-001;-7.677784742554650E-005;3.049351973459125E-003;
2.425500000000000E+009;1.568268686532974E-001;-1.146559193730354E-001;1.370702229905874E-004;2.819698071107268E-003;
2.425666666666667E+009;1.568578034639359E-001;-1.151251047849655E-001;1.905352692119777E-004;2.812764607369900E-003;
2.425833333333334E+009;1.571145206689835E-001;-1.154334396123886E-001;3.356731613166630E-004;2.590578747913241E-003;
2.426000000000000E+009;1.570416092872620E-001;-1.159221678972244E-001;5.057759117335081E-004;2.552634570747614E-003;
2.426166666666667E+009;1.572043448686600E-001;-1.161811351776123E-001;6.565320072695613E-004;2.445467049255967E-003;
2.426333333333334E+009;1.570046097040176E-001;-1.163436323404312E-001;7.027495885267854E-004;2.236643806099892E-003;
2.426500000000000E+009;1.570214629173279E-001;-1.166017204523087E-001;7.215105579234660E-004;2.259892877191305E-003;
2.426666666666667E+009;1.567619740962982E-001;-1.166426017880440E-001;8.355418685823679E-004;2.105188323184848E-003;
2.426833333333334E+009;1.565218716859818E-001;-1.168324127793312E-001;8.720374316908419E-004;2.004525158554316E-003;
2.427000000000000E+009;1.559243351221085E-001;-1.170421317219734E-001;8.899825043044984E-004;2.103510079905391E-003;
2.427166666666667E+009;1.553617566823959E-001;-1.169692128896713E-001;1.017447095364332E-003;1.722079003229737E-003;
2.427333333333334E+009;1.546225249767304E-001;-1.172221377491951E-001;1.088601071387529E-003;1.576724462211132E-003;
2.427500000000000E+009;1.541327089071274E-001;-1.173441857099533E-001;9.576866868883371E-004;1.423267764039338E-003;
2.427666666666667E+009;1.531525999307632E-001;-1.175080910325050E-001;1.052298932336271E-003;1.395380473695695E-003;
