# Version 1.00
#
freq[Hz];re:Trc1_S11;im:Trc1_S11;re:Trc2_S21;im:Trc2_S21;
2.400000000000000E+009;1.687566041946411E-001;4.041016101837158E-002;1.883436227217317E-003;2.277939347550273E-003;
2.400166666666667E+009;1.695332527160645E-001;3.971283510327339E-002;2.007258357480168E-003;2.239751396700740E-003;
2.400333333333334E+009;1.699684560298920E-001;3.882294893264771E-002;2.099944744259119E-003;2.361152786761522E-003;
2.400500000000000E+009;1.704735606908798E-001;3.793185949325562E-002;2.442395081743598E-003;2.202572301030159E-003;
2.400666666666667E+009;1.709857732057571E-001;3.716767206788063E-002;2.457210328429937E-003;2.109284279868007E-003;
2.400833333333334E+009;1.714369058609009E-001;3.662831336259842E-002;2.680651377886534E-003;2.041514497250319E-003;
2.401000000000000E+009;1.716506481170654E-001;3.566889837384224E-002;2.803419483825564E-003;1.956484280526638E-003;
2.401166666666667E+009;1.718363165855408E-001;3.482262045145035E-002;3.160146065056324E-003;1.926994300447404E-003;
2.401333333333334E+009;1.720494925975800E-001;3.398570418357849E-002;3.261851845309138E-003;1.722364453598857E-003;
2.401500000000000E+009;1.722106486558914E-001;3.352206200361252E-002;3.393745981156826E-003;1.517277560196817E-003;
2.401666666666667E+009;1.723516732454300E-001;3.246189653873444E-002;3.523452905938029E-003;1.281643519178033E-003;
2.401833333333334E+009;1.723801791667938E-001;3.171741589903832E-002;3.535692347213626E-003;1.313850516453385E-003;
2.402000000000000E+009;1.723808497190476E-001;3.098800964653492E-002;3.626233199611306E-003;1.098987879231572E-003;
2.402166666666667E+009;1.723718196153641E-001;3.005765378475189E-002;3.446395741775632E-003;7.281678845174611E-004;
2.402333333333334E+009;1.723146289587021E-001;2.917466685175896E-002;3.624230623245239E-003;5.448261508718133E-004;
2.402500000000000E+009;1.723415255546570E-001;2.849792502820492E-002;3.735156496986747E-003;3.918629372492433E-004;
2.402666666666667E+009;1.723596453666687E-001;2.737436257302761E-002;3.789896611124277E-003;3.257567877881229E-004;
2.402833333333334E+009;1.722310036420822E-001;2.661978453397751E-002;3.614843590185046E-003;1.811513066058978E-004;
2.403000000000000E+009;1.718382686376572E-001;2.562155015766621E-002;3.601863281801343E-003;3.267687861807644E-005;
2.403166666666667E+009;1.717282086610794E-001;2.445790916681290E-002;3.513966454192996E-003;-9.852772927843034E-005;
2.403333333333334E+009;1.717173904180527E-001;2.333436347544193E-002;3.545594867318869E-003;-3.536144213285297E-004;
2.403500000000000E+009;1.715129911899567E-001;2.233587205410004E-002;3.305815160274506E-003;-4.361925821285695E-004;
2.403666666666667E+009;1.712059229612351E-001;2.104509808123112E-002;3.406503703445196E-003;-5.048175808042288E-004;
2.403833333333334E+009;1.710012853145599E-001;1.974997669458389E-002;3.455591388046742E-003;-6.669831927865744E-004;
2.404000000000000E+009;1.706414967775345E-001;1.864120736718178E-002;3.447068389505148E-003;-8.454407216049731E-004;
2.404166666666667E+009;1.704696714878082E-001;1.714418083429337E-002;3.332439577206969E-003;-8.983535226434469E-004;
2.404333333333334E+009;1.703633069992065E-001;1.592895574867725E-002;3.331599291414022E-003;-9.146907250396907E-004;
2.404500000000000E+009;1.701572239398956E-001;1.454140618443489E-002;3.305842401459813E-003;-1.201087608933449E-003;
2.404666666666667E+009;1.701927930116653E-001;1.299272570759058E-002;3.280928125604987E-003;-1.446987851522863E-003;
2.404833333333334E+009;1.699158996343613E-001;1.151103246957064E-002;3.221510211005807E-003;-1.487537520006299E-003;
2.405000000000000E+009;1.698310822248459E-001;1.001407764852047E-002;3.255881834775209E-003;-1.443817163817585E-003;
2.405166666666667E+009;1.696944683790207E-001;8.280945010483265E-003;3.127553733065724E-003;-1.720328233204782E-003;
2.405333333333334E+009;1.697480827569962E-001;6.731424015015364E-003;3.024102654308081E-003;-1.783541636541486E-003;
2.405500000000000E+009;1.696999371051788E-001;5.076254718005657E-003;3.039157018065453E-003;-1.929646241478622E-003;
2.405666666666667E+009;1.695080399513245E-001;3.473002696409822E-003;3.004250116646290E-003;-2.243775408715010E-003;
2.405833333333334E+009;1.691986620426178E-001;1.808975008316338E-003;2.814386738464236E-003;-2.329866867512465E-003;
2.406000000000000E+009;1.694280803203583E-001;-2.006778668146581E-004;2.509823301807046E-003;-2.495319349691272E-003;
2.406166666666667E+009;1.691033989191055E-001;-1.542076817713678E-003;2.272962825372815E-003;-2.519496949389577E-003;
2.406333333333334E+009;1.691616028547287E-001;-3.366742748767138E-003;2.165009966120124E-003;-2.696761162951589E-003;
2.406500000000000E+009;1.690372228622437E-001;-5.077739246189594E-003;1.674580853432417E-003;-2.589276060461998E-003;
2.406666666666667E+009;1.686138361692429E-001;-6.686444859951735E-003;1.669836696237326E-003;-2.674183575436473E-003;
2.406833333333334E+009;1.685420423746109E-001;-8.291157893836498E-003;1.474184216931462E-003;-2.519733039662242E-003;
2.407000000000000E+009;1.685278117656708E-001;-9.793992154300213E-003;1.361953560262919E-003;-2.496350090950728E-003;
2.407166666666667E+009;1.684332340955734E-001;-1.138253975659609E-002;1.168676186352968E-003;-2.397286007180810E-003;
2.407333333333334E+009;1.682331562042236E-001;-1.284124609082937E-002;1.038697897456586E-003;-2.490888582542539E-003;
2.407500000000000E+009;1.680977493524551E-001;-1.417399849742651E-002;9.107679943554103E-004;-2.191211562603712E-003;
2.407666666666667E+009;1.679688394069672E-001;-1.541893091052771E-002;9.468856151215732E-004;-2.208656864240766E-003;
2.407833333333334E+009;1.677995771169663E-001;-1.673274487257004E-002;9.125475771725178E-004;-2.152020577341318E-003;
2.408000000000000E+009;1.677841097116470E-001;-1.797040738165379E-002;8.003254188224673E-004;-2.205793047323823E-003;
2.408166666666667E+009;1.679472476243973E-001;-1.881340704858303E-002;7.939077913761139E-004;-1.969753764569759E-003;
2.408333333333334E+009;1.679337024688721E-001;-1.976908743381500E-002;8.398579666391015E-004;-1.942793140187860E-003;
2.408500000000000E+009;1.681252270936966E-001;-2.087784558534622E-002;8.172935340553522E-004;-1.761863939464092E-003;
2.408666666666667E+009;1.681006699800491E-001;-2.191554196178913E-002;8.746851817704737E-004;-1.895348541438580E-003;
2.408833333333334E+009;1.682652980089188E-001;-2.275489456951618E-002;7.424810319207609E-004;-1.536562456749380E-003;
2.409000000000000E+009;1.683672517538071E-001;-2.357224188745022E-002;9.157953900285065E-004;-1.701317261904478E-003;
2.409166666666667E+009;1.686395406723023E-001;-2.446957118809223E-002;1.083785900846124E-003;-1.527140033431351E-003;
2.409333333333334E+009;1.689672768115997E-001;-2.530153654515743E-002;9.884504834190011E-004;-1.449235598556697E-003;
2.409500000000000E+009;1.692631393671036E-001;-2.632273733615875E-002;1.174133270978928E-003;-1.544771715998650E-003;
2.409666666666667E+009;1.693906188011169E-001;-2.701126597821713E-002;1.263842452317476E-003;-1.474353251978755E-003;
2.409833333333334E+009;1.694147139787674E-001;-2.772686071693897E-002;1.336214481852949E-003;-1.593033433891833E-003;
2.410000000000000E+009;1.698074936866760E-001;-2.863137796521187E-002;1.453786389902234E-003;-1.706050243228674E-003;
2.410166666666667E+009;1.698919683694840E-001;-2.940942533314228E-002;1.398917171172798E-003;-1.749249873682857E-003;
2.410333333333334E+009;1.698422878980637E-001;-3.025935031473637E-002;1.565116341225803E-003;-2.006157999858260E-003;
2.410500000000000E+009;1.699999868869782E-001;-3.109709173440933E-002;1.492924522608519E-003;-2.037004567682743E-003;
2.410666666666667E+009;1.698870509862900E-001;-3.195581212639809E-002;1.538239070214331E-003;-2.254863502457738E-003;
2.410833333333334E+009;1.700859367847443E-001;-3.267909958958626E-002;1.660534529946744E-003;-2.337952144443989E-003;
2.411000000000000E+009;1.699239909648895E-001;-3.357777372002602E-002;1.455682097002864E-003;-2.593395998701453E-003;
2.411166666666667E+009;1.699520647525787E-001;-3.432370722293854E-002;1.465564360842109E-003;-2.613462740555406E-003;
2.411333333333334E+009;1.696793586015701E-001;-3.505515679717064E-002;1.234443159773946E-003;-2.876840066164732E-003;
2.411500000000000E+009;1.694315820932388E-001;-3.599750995635986E-002;1.191948656924069E-003;-3.041408257558942E-003;
2.411666666666667E+009;1.693416088819504E-001;-3.660498932003975E-002;1.243420061655343E-003;-3.028794424608350E-003;
2.411833333333334E+009;1.692692935466766E-001;-3.741237148642540E-002;9.848696645349264E-004;-3.230495844036341E-003;
2.412000000000000E+009;1.689880639314652E-001;-3.819518908858299E-002;7.786693749949336E-004;-3.300970653072000E-003;
2.412166666666667E+009;1.685358136892319E-001;-3.909203037619591E-002;7.319744909182191E-004;-3.411001991480589E-003;
2.412333333333334E+009;1.683730185031891E-001;-4.003937542438507E-002;5.363569362089038E-004;-3.453996730968356E-003;
2.412500000000000E+009;1.678141802549362E-001;-4.091860726475716E-002;6.673741154372692E-004;-3.537202021107078E-003;
2.412666666666667E+009;1.674912720918655E-001;-4.187127202749252E-002;3.601300704758614E-004;-3.735729260370135E-003;
2.412833333333334E+009;1.670825928449631E-001;-4.270657896995544E-002;2.588442876003683E-004;-3.687447169795632E-003;
2.413000000000000E+009;1.665062755346298E-001;-4.363596439361572E-002;3.788544563576579E-005;-3.992664162069559E-003;
2.413166666666667E+009;1.660769283771515E-001;-4.451519250869751E-002;-2.104908635374159E-004;-4.053939133882523E-003;
2.413333333333334E+009;1.654147356748581E-001;-4.565241932868958E-002;-5.352104199118912E-004;-4.204449243843556E-003;
2.413500000000000E+009;1.650013625621796E-001;-4.671065881848335E-002;-7.078126072883606E-004;-4.208372440189123E-003;
2.413666666666667E+009;1.644154340028763E-001;-4.783715680241585E-002;-1.008456572890282E-003;-4.300003871321678E-003;
2.413833333333334E+009;1.637356430292130E-001;-4.863844811916351E-002;-1.295621390454471E-003;-4.215985536575317E-003;
2.414000000000000E+009;1.632316857576370E-001;-4.959440976381302E-002;-1.627794932574034E-003;-4.155067726969719E-003;
2.414166666666667E+009;1.627843528985977E-001;-5.052484199404717E-002;-1.952837803401053E-003;-3.975337836891413E-003;
2.414333333333334E+009;1.622374057769775E-001;-5.163373425602913E-002;-2.220554277300835E-003;-3.681443631649017E-003;
2.414500000000000E+009;1.620561480522156E-001;-5.242963880300522E-002;-2.273967256769538E-003;-3.630286315456033E-003;
2.414666666666667E+009;1.614390611648560E-001;-5.339218303561211E-002;-2.445400226861239E-003;-3.448355942964554E-003;
2.414833333333334E+009;1.611847132444382E-001;-5.451225861907005E-002;-2.469796687364578E-003;-3.139643464237452E-003;
2.415000000000000E+009;1.608271598815918E-001;-5.561495572328568E-002;-2.691961824893951E-003;-2.977534662932158E-003;
2.415166666666667E+009;1.603425890207291E-001;-5.678933113813400E-002;-2.945068292319775E-003;-2.866847207769752E-003;
2.415333333333334E+009;1.602542698383331E-001;-5.800662934780121E-002;-2.901124535128474E-003;-2.607836853712797E-003;
2.415500000000000E+009;1.600023210048676E-001;-5.899281427264214E-002;-2.959811827167869E-003;-2.401812002062798E-003;
2.415666666666667E+009;1.596281528472900E-001;-6.033304706215859E-002;-3.058287315070629E-003;-2.205596538260579E-003;
2.415833333333334E+009;1.595165878534317E-001;-6.168777123093605E-002;-2.935478230938315E-003;-2.003437140956521E-003;
2.416000000000000E+009;1.591705828905106E-001;-6.290870904922485E-002;-3.078487468883395E-003;-1.761461375281215E-003;
2.416166666666667E+009;1.591354608535767E-001;-6.420237571001053E-002;-2.908542286604643E-003;-1.709550619125366E-003;
2.416333333333334E+009;1.587093174457550E-001;-6.551505625247955E-002;-2.725043334066868E-003;-1.563729601912201E-003;
2.416500000000000E+009;1.585480719804764E-001;-6.690596044063568E-002;-2.746834186837077E-003;-1.311871223151684E-003;
2.416666666666667E+009;1.581119447946549E-001;-6.811814755201340E-002;-2.932579955086112E-003;-1.118869637139142E-003;
2.416833333333334E+009;1.579624116420746E-001;-6.952905654907227E-002;-2.912979573011398E-003;-1.115637482143939E-003;
2.417000000000000E+009;1.574331074953079E-001;-7.066261023283005E-002;-2.617859514430165E-003;-1.193065545521677E-003;
2.417166666666667E+009;1.571658700704575E-001;-7.172487676143646E-002;-2.738383365795016E-003;-9.342380217276514E-004;
2.417333333333334E+009;1.569425463676453E-001;-7.288348674774170E-002;-2.561354544013739E-003;-1.043133554048836E-003;
2.417500000000000E+009;1.565717607736588E-001;-7.399538904428482E-002;-2.716298215091229E-003;-9.965436765924096E-004;
2.417666666666667E+009;1.564038842916489E-001;-7.498095929622650E-002;-2.740921685472131E-003;-8.022258407436311E-004;
2.417833333333334E+009;1.562480181455612E-001;-7.582152634859085E-002;-2.712697954848409E-003;-7.559933001175523E-004;
2.418000000000000E+009;1.557832062244415E-001;-7.693038880825043E-002;-2.847988624125719E-003;-7.824561325833201E-004;
2.418166666666667E+009;1.556346416473389E-001;-7.760345935821533E-002;-2.777953632175922E-003;-6.904930924065411E-004;
2.418333333333334E+009;1.557563096284866E-001;-7.870008796453476E-002;-2.783120842650533E-003;-5.648582591675222E-004;
2.418500000000000E+009;1.553241163492203E-001;-7.948637008666992E-002;-2.814384410157800E-003;-5.849165609106422E-004;
2.418666666666667E+009;1.553035229444504E-001;-8.036965131759644E-002;-2.883831737563014E-003;-3.504830237943679E-004;
2.418833333333334E+009;1.548338234424591E-001;-8.119845390319824E-002;-2.701058518141508E-003;-2.725914237089455E-004;
2.419000000000000E+009;1.546239405870438E-001;-8.192460983991623E-002;-2.728622406721115E-003;-1.796261349227279E-004;
2.419166666666667E+009;1.545532643795013E-001;-8.253034204244614E-002;-2.577313920482993E-003;-6.328698873403482E-006;
2.419333333333334E+009;1.542719602584839E-001;-8.310455083847046E-002;-2.569485921412706E-003;6.488140934379771E-005;
2.419500000000000E+009;1.541136950254440E-001;-8.392839878797531E-002;-2.496455330401659E-003;9.879162098513916E-005;
2.419666666666667E+009;1.537613570690155E-001;-8.453901857137680E-002;-2.468184567987919E-003;1.973794278455898E-004;
2.419833333333334E+009;1.533869802951813E-001;-8.509216457605362E-002;-2.340825274586678E-003;3.161982749588788E-005;
2.420000000000000E+009;1.533021479845047E-001;-8.559971302747726E-002;-2.343947533518076E-003;9.789628529688343E-005;
2.420166666666667E+009;1.529881954193115E-001;-8.627781271934509E-002;-2.410031156614423E-003;5.102659997646697E-005;
2.420333333333334E+009;1.528042554855347E-001;-8.671652525663376E-002;-2.356105251237750E-003;1.265458267880604E-004;
2.420500000000000E+009;1.526221036911011E-001;-8.708637207746506E-002;-2.353310817852616E-003;-2.280630178574938E-005;
2.420666666666667E+009;1.521528810262680E-001;-8.767474442720413E-002;-2.330476418137550E-003;7.815224671503529E-005;
2.420833333333334E+009;1.521429419517517E-001;-8.832491934299469E-002;-2.242913702502847E-003;6.255546031752601E-005;
2.421000000000000E+009;1.515158414840698E-001;-8.892557770013809E-002;-2.339144470170140E-003;1.453065196983516E-004;
2.421166666666667E+009;1.510532200336456E-001;-8.944123983383179E-002;-2.372605027630925E-003;1.956386258825660E-004;
2.421333333333334E+009;1.509617269039154E-001;-9.014376997947693E-002;-2.308074850589037E-003;1.593730412423611E-004;
2.421500000000000E+009;1.502766013145447E-001;-9.070331603288651E-002;-2.140292432159185E-003;2.321250649401918E-004;
2.421666666666667E+009;1.497859507799149E-001;-9.136639535427094E-002;-2.320143394172192E-003;4.279261338524520E-004;
2.421833333333334E+009;1.493004709482193E-001;-9.205552935600281E-002;-2.254114719107747E-003;2.715398441068828E-004;
2.422000000000000E+009;1.485809385776520E-001;-9.254997968673706E-002;-2.474271226674318E-003;3.009182401001453E-004;
2.422166666666667E+009;1.477625370025635E-001;-9.328684955835342E-002;-2.330773742869496E-003;3.943729680031538E-004;
2.422333333333334E+009;1.472880244255066E-001;-9.394943714141846E-002;-2.282335422933102E-003;2.934010699391365E-004;
2.422500000000000E+009;1.465795189142227E-001;-9.445634484291077E-002;-2.112629590556026E-003;4.065123503096402E-004;
2.422666666666667E+009;1.457363218069077E-001;-9.513253718614578E-002;-2.499828580766916E-003;3.035122063010931E-004;
2.422833333333334E+009;1.451580077409744E-001;-9.600984305143356E-002;-2.425364218652248E-003;4.009864060208201E-004;
2.423000000000000E+009;1.444364339113236E-001;-9.672933071851730E-002;-2.359285717830062E-003;4.282344598323107E-004;
2.423166666666667E+009;1.439777165651321E-001;-9.770421683788300E-002;-2.576063387095928E-003;5.206281784921885E-004;
2.423333333333334E+009;1.431561559438705E-001;-9.809742867946625E-002;-2.616012236103416E-003;4.551336751319468E-004;
2.423500000000000E+009;1.424150764942169E-001;-9.909079223871231E-002;-2.745268400758505E-003;3.969523531850427E-004;
2.423666666666667E+009;1.415035575628281E-001;-1.000435352325440E-001;-2.831582445651293E-003;5.773934535682201E-004;
2.423833333333334E+009;1.408533304929733E-001;-1.008576601743698E-001;-2.629254944622517E-003;6.668698624707758E-004;
2.424000000000000E+009;1.401110440492630E-001;-1.017181500792503E-001;-3.011312102898955E-003;7.999594090506434E-004;
2.424166666666667E+009;1.392591744661331E-001;-1.026145368814468E-001;-3.041162155568600E-003;9.523764601908624E-004;
2.424333333333334E+009;1.385459601879120E-001;-1.035126820206642E-001;-3.125283401459456E-003;1.057152054272592E-003;
2.424500000000000E+009;1.379852443933487E-001;-1.046041771769524E-001;-3.276315284892917E-003;1.374774496071041E-003;
2.424666666666667E+009;1.370748579502106E-001;-1.052502989768982E-001;-3.123018890619278E-003;1.414133817888796E-003;
2.424833333333334E+009;1.364342719316483E-001;-1.062478646636009E-001;-3.186445450410247E-003;1.708554103970528E-003;
2.425000000000000E+009;1.359434425830841E-001;-1.073691695928574E-001;-3.241113619878888E-003;1.933828578330576E-003;
2.425166666666667E+009;1.350516378879547E-001;-1.083857491612434E-001;-3.117491956800222E-003;2.181442454457283E-003;
2.425333333333334E+009;1.344976276159287E-001;-1.092659533023834E-001;-3.075646469369531E-003;2.400687895715237E-003;
2.425500000000000E+009;1.340578347444534E-001;-1.103971302509308E-001;-2.939243335276842E-003;2.527015749365091E-003;
2.425666666666667E+009;1.333306878805161E-001;-1.114049926400185E-001;-2.736630616709590E-003;2.750275656580925E-003;
2.425833333333334E+009;1.328607350587845E-001;-1.123518422245979E-001;-2.614855300635099E-003;2.930921036750078E-003;
2.426000000000000E+009;1.322879344224930E-001;-1.135597303509712E-001;-2.356216078624129E-003;3.196845296770334E-003;
2.426166666666667E+009;1.320376247167587E-001;-1.144553571939468E-001;-2.110570203512907E-003;3.195851575583220E-003;
2.426333333333334E+009;1.313009262084961E-001;-1.155654862523079E-001;-1.836475566960871E-003;3.428327850997448E-003;
2.426500000000000E+009;1.309118121862412E-001;-1.165821924805641E-001;-1.760207698680461E-003;3.349089296534658E-003;
2.426666666666667E+009;1.306089758872986E-001;-1.173073425889015E-001;-1.531253568828106E-003;3.515176940709353E-003;
2.426833333333334E+009;1.300802528858185E-001;-1.183783635497093E-001;-1.298753311857581E-003;3.432877827435732E-003;
2.427000000000000E+009;1.297011226415634E-001;-1.192950233817101E-001;-1.214078045450151E-003;3.429514588788152E-003;
2.427166666666667E+009;1.294184029102325E-001;-1.200532391667366E-001;-1.025124103762209E-003;3.300586715340614E-003;
2.427333333333334E+009;1.290453672409058E-001;-1.208332180976868E-001;-8.240941097028554E-004;3.359063295647502E-003;
2.427500000000000E+009;1.288897395133972E-001;-1.216808035969734E-001;-6.961140315979719E-004;3.293569432571530E-003;
2.427666666666667E+009;1.284838318824768E-001;-1.226487606763840E-001;-6.911166128702462E-004;3.180678235366941E-003;
