# Version 1.00
#
freq[Hz];re:Trc1_S11;im:Trc1_S11;re:Trc2_S21;im:Trc2_S21;
2.400000000000000E+009;1.562758386135101E-001;5.915475636720657E-002;3.533866722136736E-003;1.077971392078325E-004;
2.400166666666667E+009;1.564162969589233E-001;5.736862495541573E-002;3.520271740853787E-003;-1.923139352584258E-004;
2.400333333333334E+009;1.565592437982559E-001;5.526432394981384E-002;3.499454353004694E-003;-1.914562453748658E-004;
2.400500000000000E+009;1.569191515445709E-001;5.338321253657341E-002;3.347578691318631E-003;-2.551871002651751E-004;
2.400666666666667E+009;1.569278836250305E-001;5.110553279519081E-002;3.512830240651965E-003;-1.017150643747300E-004;
2.400833333333334E+009;1.574326157569885E-001;4.928797855973244E-002;3.524278989061713E-003;-4.638283280655742E-004;
2.401000000000000E+009;1.575548797845841E-001;4.710648581385613E-002;3.404262475669384E-003;-4.207797464914620E-004;
2.401166666666667E+009;1.581510305404663E-001;4.516116902232170E-002;3.682964248582721E-003;-7.094757165759802E-004;
2.401333333333334E+009;1.585757881402969E-001;4.309680312871933E-002;3.475368721410632E-003;-7.110540173016489E-004;
2.401500000000000E+009;1.592198908329010E-001;4.129250720143318E-002;3.541001817211509E-003;-9.254149626940489E-004;
2.401666666666667E+009;1.598058491945267E-001;3.948764130473137E-002;3.520482219755650E-003;-9.019171120598912E-004;
2.401833333333334E+009;1.605183184146881E-001;3.730086237192154E-002;3.438785439357162E-003;-9.780204854905605E-004;
2.402000000000000E+009;1.610033065080643E-001;3.571762144565582E-002;3.518553683534265E-003;-1.120524713769555E-003;
2.402166666666667E+009;1.617222726345062E-001;3.377626091241837E-002;3.462173277512193E-003;-1.206986955367029E-003;
2.402333333333334E+009;1.625061780214310E-001;3.233670815825462E-002;3.457484766840935E-003;-1.236768206581473E-003;
2.402500000000000E+009;1.637164503335953E-001;3.065847791731358E-002;3.458222141489387E-003;-1.480707782320678E-003;
2.402666666666667E+009;1.642793565988541E-001;2.912865020334721E-002;3.333881264552474E-003;-1.435673213563860E-003;
2.402833333333334E+009;1.651771813631058E-001;2.776960656046867E-002;3.335917368531227E-003;-1.697412808425725E-003;
2.403000000000000E+009;1.660268902778626E-001;2.635540813207626E-002;3.188890870660543E-003;-1.773412106558681E-003;
2.403166666666667E+009;1.671140789985657E-001;2.519114688038826E-002;3.292770124971867E-003;-1.829386339522898E-003;
2.403333333333334E+009;1.680414974689484E-001;2.406062558293343E-002;3.160059917718172E-003;-1.943234819918871E-003;
2.403500000000000E+009;1.688686460256577E-001;2.291189692914486E-002;3.200484206900001E-003;-2.006837865337730E-003;
2.403666666666667E+009;1.698995828628540E-001;2.187038213014603E-002;3.131676930934191E-003;-2.241060370579362E-003;
2.403833333333334E+009;1.710324734449387E-001;2.071054093539715E-002;3.054202301427722E-003;-2.232925733551383E-003;
2.404000000000000E+009;1.718053668737412E-001;2.001503668725491E-002;3.092799568548799E-003;-2.440772019326687E-003;
2.404166666666667E+009;1.726867109537125E-001;1.902395859360695E-002;3.009448293596506E-003;-2.379676792770624E-003;
2.404333333333334E+009;1.733800172805786E-001;1.845120452344418E-002;2.729756757616997E-003;-2.647773828357458E-003;
2.404500000000000E+009;1.741796135902405E-001;1.769910566508770E-002;2.872468670830131E-003;-2.918058773502708E-003;
2.404666666666667E+009;1.750202178955078E-001;1.724844798445702E-002;2.660012105479837E-003;-2.849899930879474E-003;
2.404833333333334E+009;1.756990700960159E-001;1.666454784572125E-002;2.631450304761529E-003;-2.860855078324676E-003;
2.405000000000000E+009;1.764602512121201E-001;1.599003002047539E-002;2.506966469809413E-003;-2.919390099123120E-003;
2.405166666666667E+009;1.770813912153244E-001;1.558837760239840E-002;2.455340931192040E-003;-3.336391644552350E-003;
2.405333333333334E+009;1.776984184980393E-001;1.507957000285387E-002;2.235571620985866E-003;-3.175407880917192E-003;
2.405500000000000E+009;1.782015562057495E-001;1.488072797656059E-002;2.127415267750621E-003;-3.289951244369149E-003;
2.405666666666667E+009;1.785833090543747E-001;1.467371638864279E-002;2.247215481474996E-003;-3.286429680883884E-003;
2.405833333333334E+009;1.787200272083283E-001;1.428297162055969E-002;1.894059241749346E-003;-3.399964654818177E-003;
2.406000000000000E+009;1.790824830532074E-001;1.391229033470154E-002;1.802440499886870E-003;-3.429958131164312E-003;
2.406166666666667E+009;1.792210936546326E-001;1.374024245887995E-002;1.675805076956749E-003;-3.462730906903744E-003;
2.406333333333334E+009;1.793580651283264E-001;1.352118514478207E-002;1.516843214631081E-003;-3.467223839834333E-003;
2.406500000000000E+009;1.793322414159775E-001;1.306163892149925E-002;1.322200056165457E-003;-3.495876677334309E-003;
2.406666666666667E+009;1.793014556169510E-001;1.270237192511559E-002;1.778506790287793E-003;-3.690976416692138E-003;
2.406833333333334E+009;1.792114228010178E-001;1.223800703883171E-002;1.418778556399047E-003;-3.840293735265732E-003;
2.407000000000000E+009;1.790861189365387E-001;1.192229706794024E-002;1.180060789920390E-003;-3.564796410501003E-003;
2.407166666666667E+009;1.789275854825974E-001;1.145802158862352E-002;1.298609073273838E-003;-3.656752640381455E-003;
2.407333333333334E+009;1.784364134073257E-001;1.070979703217745E-002;1.069702091626823E-003;-3.505290951579809E-003;
2.407500000000000E+009;1.782183796167374E-001;1.025793980807066E-002;9.766218718141317E-004;-3.510418813675642E-003;
2.407666666666667E+009;1.778023540973663E-001;9.630866348743439E-003;9.596337913535535E-004;-3.592850407585502E-003;
2.407833333333334E+009;1.770184040069580E-001;8.716415613889694E-003;8.421838865615428E-004;-3.597907489165664E-003;
2.408000000000000E+009;1.766451597213745E-001;7.847667671740055E-003;8.058334351517260E-004;-3.306215163320303E-003;
2.408166666666667E+009;1.760273724794388E-001;6.979187019169331E-003;6.192881846800447E-004;-3.628525417298079E-003;
2.408333333333334E+009;1.755122393369675E-001;6.072460208088160E-003;5.767535767517984E-004;-3.363065421581268E-003;
2.408500000000000E+009;1.748935282230377E-001;4.827903117984533E-003;4.634461947716773E-004;-3.713327692821622E-003;
2.408666666666667E+009;1.742708683013916E-001;3.684590104967356E-003;4.494417516980320E-004;-3.669564146548510E-003;
2.408833333333334E+009;1.735550463199616E-001;2.386354608461261E-003;5.438307998701930E-004;-3.631359897553921E-003;
2.409000000000000E+009;1.727438420057297E-001;1.185642438940704E-003;3.419073182158172E-004;-3.639433067291975E-003;
2.409166666666667E+009;1.723469942808151E-001;-2.425431302981451E-004;3.260140947531909E-004;-3.670259378850460E-003;
2.409333333333334E+009;1.717149615287781E-001;-1.801435602828860E-003;2.329456328880042E-004;-3.691929625347257E-003;
2.409500000000000E+009;1.711107343435288E-001;-3.461058251559734E-003;2.481342744431458E-005;-3.846606938168407E-003;
2.409666666666667E+009;1.704508364200592E-001;-4.985024221241474E-003;2.184476034017280E-005;-3.838714677840471E-003;
2.409833333333334E+009;1.699139177799225E-001;-6.543850526213646E-003;-1.254228118341416E-005;-3.836386837065220E-003;
2.410000000000000E+009;1.695817559957504E-001;-8.342520333826542E-003;-1.881796779343858E-004;-3.912806510925293E-003;
2.410166666666667E+009;1.690918952226639E-001;-1.004642155021429E-002;-2.720191841945052E-004;-3.997870720922947E-003;
2.410333333333334E+009;1.686548888683319E-001;-1.187511626631022E-002;-3.161189961247146E-004;-3.898263676092029E-003;
2.410500000000000E+009;1.683960109949112E-001;-1.383479312062264E-002;-4.953391617164016E-004;-3.951550461351872E-003;
2.410666666666667E+009;1.679784357547760E-001;-1.574464142322540E-002;-5.470838514156640E-004;-4.155381117016077E-003;
2.410833333333334E+009;1.678897440433502E-001;-1.764251850545406E-002;-6.757171940989792E-004;-4.134920425713062E-003;
2.411000000000000E+009;1.677833199501038E-001;-1.966890878975391E-002;-1.020372845232487E-003;-4.175364505499601E-003;
2.411166666666667E+009;1.676636487245560E-001;-2.161370776593685E-002;-1.035058638080955E-003;-4.290202632546425E-003;
2.411333333333334E+009;1.677256673574448E-001;-2.353913709521294E-002;-1.165622146800160E-003;-4.266356118023396E-003;
2.411500000000000E+009;1.678527891635895E-001;-2.567034587264061E-002;-1.276349998079240E-003;-4.205760080367327E-003;
2.411666666666667E+009;1.680837869644165E-001;-2.751426585018635E-002;-1.529643428511918E-003;-4.055067896842957E-003;
2.411833333333334E+009;1.682640612125397E-001;-2.938259579241276E-002;-1.796594355255365E-003;-4.289807751774788E-003;
2.412000000000000E+009;1.685053706169128E-001;-3.117013722658157E-002;-1.902605406939983E-003;-4.187477286905050E-003;
2.412166666666667E+009;1.688044071197510E-001;-3.302375227212906E-002;-2.142157405614853E-003;-4.063474014401436E-003;
2.412333333333334E+009;1.695949733257294E-001;-3.485308587551117E-002;-2.289480064064264E-003;-4.159057512879372E-003;
2.412500000000000E+009;1.697529703378677E-001;-3.653514757752419E-002;-2.567460527643561E-003;-3.990784753113985E-003;
2.412666666666667E+009;1.703905463218689E-001;-3.840354830026627E-002;-2.644409425556660E-003;-3.985461778938770E-003;
2.412833333333334E+009;1.708888709545136E-001;-4.012755304574966E-002;-2.976686693727970E-003;-3.810712834820151E-003;
2.413000000000000E+009;1.714468747377396E-001;-4.174964129924774E-002;-3.084472147747874E-003;-3.750566393136978E-003;
2.413166666666667E+009;1.719695329666138E-001;-4.323784634470940E-002;-3.253622679039836E-003;-3.541565034538508E-003;
2.413333333333334E+009;1.724702268838882E-001;-4.453920200467110E-002;-3.442664397880435E-003;-3.304184880107641E-003;
2.413500000000000E+009;1.731877624988556E-001;-4.615390673279762E-002;-3.403660142794251E-003;-3.144112415611744E-003;
2.413666666666667E+009;1.738358438014984E-001;-4.741612449288368E-002;-3.703519236296415E-003;-3.062617033720017E-003;
2.413833333333334E+009;1.744669526815414E-001;-4.853847995400429E-002;-3.662991570308805E-003;-2.873245859518647E-003;
2.414000000000000E+009;1.748131513595581E-001;-4.986234754323959E-002;-3.747257404029369E-003;-2.853595884516835E-003;
2.414166666666667E+009;1.754050850868225E-001;-5.074821040034294E-002;-4.019190091639757E-003;-2.581693930551410E-003;
2.414333333333334E+009;1.760435104370117E-001;-5.173877626657486E-002;-4.113475792109966E-003;-2.348274458199740E-003;
2.414500000000000E+009;1.766139417886734E-001;-5.265545099973679E-002;-4.172117915004492E-003;-2.141227945685387E-003;
2.414666666666667E+009;1.770725995302200E-001;-5.329558998346329E-002;-4.145998973399401E-003;-1.904816715978086E-003;
2.414833333333334E+009;1.774545311927795E-001;-5.413770675659180E-002;-4.304866306483746E-003;-1.769819646142423E-003;
2.415000000000000E+009;1.776415854692459E-001;-5.473112314939499E-002;-4.281032830476761E-003;-1.500819926150143E-003;
2.415166666666667E+009;1.778846085071564E-001;-5.531950667500496E-002;-4.262816160917282E-003;-1.523454557172954E-003;
2.415333333333334E+009;1.782395094633102E-001;-5.580297857522965E-002;-4.444393794983625E-003;-1.094626146368682E-003;
2.415500000000000E+009;1.783520132303238E-001;-5.621532723307610E-002;-4.308859817683697E-003;-1.185165019705892E-003;
2.415666666666667E+009;1.783926486968994E-001;-5.665583163499832E-002;-4.324388690292835E-003;-8.000419475138187E-004;
2.415833333333334E+009;1.784507334232330E-001;-5.696351453661919E-002;-4.406552761793137E-003;-7.126098498702049E-004;
2.416000000000000E+009;1.781949847936630E-001;-5.743553116917610E-002;-4.310312680900097E-003;-5.742129869759083E-004;
2.416166666666667E+009;1.781760156154633E-001;-5.752842873334885E-002;-4.347909241914749E-003;-4.298606072552502E-004;
2.416333333333334E+009;1.778844147920609E-001;-5.777153000235558E-002;-4.296376369893551E-003;-2.399551158305258E-004;
2.416500000000000E+009;1.775256097316742E-001;-5.810543522238731E-002;-4.292277619242668E-003;-2.119141863659024E-004;
2.416666666666667E+009;1.770324558019638E-001;-5.831472948193550E-002;-4.188838414847851E-003;1.273393572773784E-004;
2.416833333333334E+009;1.766101568937302E-001;-5.853863433003426E-002;-4.174361936748028E-003;1.209477995871566E-004;
2.417000000000000E+009;1.757646054029465E-001;-5.874117463827133E-002;-4.068515729159117E-003;2.997191331814975E-004;
2.417166666666667E+009;1.750329881906509E-001;-5.893650650978088E-002;-3.918813541531563E-003;4.253332444932312E-004;
2.417333333333334E+009;1.743910312652588E-001;-5.920556187629700E-002;-3.983401227742434E-003;6.992553244344890E-004;
2.417500000000000E+009;1.735103428363800E-001;-5.976610630750656E-002;-3.830928122624755E-003;6.408913177438080E-004;
2.417666666666667E+009;1.726080477237701E-001;-5.995413661003113E-002;-3.782701445743442E-003;7.870745612308383E-004;
2.417833333333334E+009;1.716173142194748E-001;-6.038392707705498E-002;-3.905002959072590E-003;9.126657969318330E-004;
2.418000000000000E+009;1.704842895269394E-001;-6.089369952678680E-002;-3.826211905106902E-003;1.088546123355627E-003;
2.418166666666667E+009;1.694076508283615E-001;-6.115642189979553E-002;-3.688607597723603E-003;1.043297001160681E-003;
2.418333333333334E+009;1.685075312852860E-001;-6.187729164958000E-002;-3.730731317773461E-003;1.119145657867193E-003;
2.418500000000000E+009;1.671974509954453E-001;-6.246529519557953E-002;-3.434160025790334E-003;1.337197027169168E-003;
2.418666666666667E+009;1.661177128553391E-001;-6.323620676994324E-002;-3.574393223971129E-003;1.194448093883693E-003;
2.418833333333334E+009;1.646561026573181E-001;-6.404229998588562E-002;-3.300222568213940E-003;1.355689717456698E-003;
2.419000000000000E+009;1.634019911289215E-001;-6.474213302135468E-002;-3.092952771112323E-003;1.478915452025831E-003;
2.419166666666667E+009;1.622289568185806E-001;-6.578497588634491E-002;-3.298400435596705E-003;1.495701028034091E-003;
2.419333333333334E+009;1.608528196811676E-001;-6.640372425317764E-002;-3.237213008105755E-003;1.520801219157875E-003;
2.419500000000000E+009;1.598249971866608E-001;-6.768935173749924E-002;-3.099503461271524E-003;1.645648037083447E-003;
2.419666666666667E+009;1.586884409189224E-001;-6.892542541027069E-002;-2.975664800032973E-003;1.695298589766026E-003;
2.419833333333334E+009;1.575985997915268E-001;-6.993454694747925E-002;-3.021520795300603E-003;1.664997660554946E-003;
2.420000000000000E+009;1.566028445959091E-001;-7.121835649013519E-002;-3.059264039620757E-003;1.823258819058538E-003;
2.420166666666667E+009;1.554637402296066E-001;-7.262527197599411E-002;-2.894814591854811E-003;1.815919298678637E-003;
2.420333333333334E+009;1.545390784740448E-001;-7.398846745491028E-002;-2.912826370447874E-003;1.839580596424639E-003;
2.420500000000000E+009;1.537505835294724E-001;-7.529071718454361E-002;-2.909205621108413E-003;1.964922063052654E-003;
2.420666666666667E+009;1.528448611497879E-001;-7.679941505193710E-002;-2.805744297802448E-003;2.095429692417383E-003;
2.420833333333334E+009;1.522645503282547E-001;-7.826400548219681E-002;-2.791699022054672E-003;2.055747900158167E-003;
2.421000000000000E+009;1.514776200056076E-001;-7.986292243003845E-002;-2.867434173822403E-003;2.149482723325491E-003;
2.421166666666667E+009;1.509532332420349E-001;-8.151973038911820E-002;-2.766689984127879E-003;2.264571608975530E-003;
2.421333333333334E+009;1.506586670875549E-001;-8.307051658630371E-002;-2.572159282863140E-003;2.318100538104773E-003;
2.421500000000000E+009;1.501089781522751E-001;-8.475209772586823E-002;-2.674716291949153E-003;2.468158025294542E-003;
2.421666666666667E+009;1.500068753957748E-001;-8.633811771869659E-002;-2.500807400792837E-003;2.432179171591997E-003;
2.421833333333334E+009;1.496758460998535E-001;-8.812723308801651E-002;-2.600085223093629E-003;2.491902792826295E-003;
2.422000000000000E+009;1.495258808135986E-001;-8.983002603054047E-002;-2.544073853641748E-003;2.638511592522264E-003;
2.422166666666667E+009;1.494533270597458E-001;-9.151555597782135E-002;-2.538789529353380E-003;2.805051160976291E-003;
2.422333333333334E+009;1.497682482004166E-001;-9.300868213176727E-002;-2.503539668396115E-003;2.856817794963718E-003;
2.422500000000000E+009;1.497128009796143E-001;-9.460232406854630E-002;-2.397517906501889E-003;2.997702220454812E-003;
2.422666666666667E+009;1.497684270143509E-001;-9.627487510442734E-002;-2.342412248253822E-003;3.044885117560625E-003;
2.422833333333334E+009;1.500859111547470E-001;-9.791040420532227E-002;-2.174870576709509E-003;3.289870452135801E-003;
2.423000000000000E+009;1.504383981227875E-001;-9.937276691198349E-002;-2.246479503810406E-003;3.373553976416588E-003;
2.423166666666667E+009;1.510343253612518E-001;-1.008992865681648E-001;-1.947381417267025E-003;3.418779699131846E-003;
2.423333333333334E+009;1.512736976146698E-001;-1.022095233201981E-001;-1.896426896564663E-003;3.535216441377997E-003;
2.423500000000000E+009;1.517798304557800E-001;-1.035826653242111E-001;-1.832115929573774E-003;3.703865688294172E-003;
2.423666666666667E+009;1.520721167325974E-001;-1.050246581435204E-001;-1.596097717992961E-003;3.734670113772154E-003;
2.423833333333334E+009;1.527015119791031E-001;-1.062877625226975E-001;-1.549877226352692E-003;3.847636980935931E-003;
2.424000000000000E+009;1.531400531530380E-001;-1.072818487882614E-001;-1.293301931582391E-003;3.794701769948006E-003;
2.424166666666667E+009;1.535245329141617E-001;-1.083798483014107E-001;-1.043577562086284E-003;3.912144806236029E-003;
2.424333333333334E+009;1.540552824735642E-001;-1.093421354889870E-001;-9.732529870234430E-004;4.092762712389231E-003;
2.424500000000000E+009;1.545303165912628E-001;-1.104671657085419E-001;-7.714239764027298E-004;4.091368988156319E-003;
2.424666666666667E+009;1.551684290170670E-001;-1.109166219830513E-001;-5.520550766959786E-004;4.067472647875547E-003;
2.424833333333334E+009;1.553551405668259E-001;-1.119314059615135E-001;-4.048270056955516E-004;4.168356303125620E-003;
2.425000000000000E+009;1.558938473463059E-001;-1.127101778984070E-001;-2.496213128324598E-004;4.070712719112635E-003;
2.425166666666667E+009;1.560504883527756E-001;-1.133139431476593E-001;1.551179157104343E-004;4.179797135293484E-003;
2.425333333333334E+009;1.564527302980423E-001;-1.138809248805046E-001;2.768710546661168E-004;4.046068526804447E-003;
2.425500000000000E+009;1.567974388599396E-001;-1.144672185182571E-001;2.997951232828200E-004;4.081248771399260E-003;
2.425666666666667E+009;1.568711549043655E-001;-1.148145869374275E-001;5.922025302425027E-004;3.949204459786415E-003;
2.425833333333334E+009;1.569657772779465E-001;-1.152246743440628E-001;8.465713472105563E-004;3.906452096998692E-003;
2.426000000000000E+009;1.568563580513001E-001;-1.156276986002922E-001;9.397740941494703E-004;3.804316977038980E-003;
2.426166666666667E+009;1.570611000061035E-001;-1.159500330686569E-001;1.261048135347664E-003;3.785421838983893E-003;
2.426333333333334E+009;1.566834151744843E-001;-1.160522550344467E-001;1.363567076623440E-003;3.653112798929215E-003;
2.426500000000000E+009;1.565911024808884E-001;-1.161930859088898E-001;1.370792044326663E-003;3.680150257423520E-003;
2.426666666666667E+009;1.563108861446381E-001;-1.162995100021362E-001;1.549292588606477E-003;3.619205905124545E-003;
2.426833333333334E+009;1.559356302022934E-001;-1.164924204349518E-001;1.793105271644890E-003;3.352929605171084E-003;
2.427000000000000E+009;1.553411036729813E-001;-1.168204173445702E-001;1.940376590937376E-003;3.298171563073993E-003;
2.427166666666667E+009;1.547507196664810E-001;-1.167755126953125E-001;1.833392889238894E-003;3.147073322907090E-003;
2.427333333333334E+009;1.540292203426361E-001;-1.168465912342072E-001;1.891665393486619E-003;3.132809419184923E-003;
2.427500000000000E+009;1.533050239086151E-001;-1.171897128224373E-001;1.987744821235538E-003;2.775398781523109E-003;
2.427666666666667E+009;1.525500863790512E-001;-1.172738447785378E-001;2.118129283189774E-003;2.775470260530710E-003;
