# Version 1.00
#
freq[Hz];re:Trc1_S11;im:Trc1_S11;re:Trc2_S21;im:Trc2_S21;
2.400000000000000E+009;1.562197655439377E-001;5.907220393419266E-002;3.387808799743652E-003;1.927349949255586E-004;
2.400166666666667E+009;1.565761864185333E-001;5.737397074699402E-002;3.463900648057461E-003;4.761851232615300E-005;
2.400333333333334E+009;1.567002087831497E-001;5.543886497616768E-002;3.563514910638332E-003;-1.891746796900407E-004;
2.400500000000000E+009;1.568113416433334E-001;5.330565199255943E-002;3.464465960860252E-003;-2.555681567173451E-004;
2.400666666666667E+009;1.570305079221726E-001;5.107482522726059E-002;3.530453657731414E-003;-4.208599275443703E-004;
2.400833333333334E+009;1.575785428285599E-001;4.938361793756485E-002;3.545613726601005E-003;-4.893444129265845E-004;
2.401000000000000E+009;1.579100340604782E-001;4.734620824456215E-002;3.460342995822430E-003;-5.588650237768889E-004;
2.401166666666667E+009;1.581364572048187E-001;4.513357579708099E-002;3.575866809114814E-003;-6.442657904699445E-004;
2.401333333333334E+009;1.585787534713745E-001;4.314159601926804E-002;3.515640739351511E-003;-7.317571435123682E-004;
2.401500000000000E+009;1.592648476362228E-001;4.128637164831162E-002;3.548329230397940E-003;-7.442911155521870E-004;
2.401666666666667E+009;1.598641723394394E-001;3.950707614421845E-002;3.429872915148735E-003;-9.148933459073305E-004;
2.401833333333334E+009;1.604918539524078E-001;3.739184141159058E-002;3.446688177064061E-003;-1.006644801236689E-003;
2.402000000000000E+009;1.610318869352341E-001;3.577455878257752E-002;3.486227011308074E-003;-1.101491972804070E-003;
2.402166666666667E+009;1.618491262197495E-001;3.388376533985138E-002;3.510328009724617E-003;-1.236428972333670E-003;
2.402333333333334E+009;1.625998914241791E-001;3.220600634813309E-002;3.421694273129106E-003;-1.339837675914168E-003;
2.402500000000000E+009;1.634887009859085E-001;3.066279366612434E-002;3.420170163735747E-003;-1.571718370541930E-003;
2.402666666666667E+009;1.644360423088074E-001;2.922531403601170E-002;3.373277606442571E-003;-1.547807361930609E-003;
2.402833333333334E+009;1.651842147111893E-001;2.786314673721790E-002;3.272485453635454E-003;-1.621204195544124E-003;
2.403000000000000E+009;1.661134213209152E-001;2.649504691362381E-002;3.373900661244988E-003;-1.580439507961273E-003;
2.403166666666667E+009;1.672498136758804E-001;2.517341077327728E-002;3.234959905967116E-003;-2.055602846667171E-003;
2.403333333333334E+009;1.680818349123001E-001;2.408129535615444E-002;3.038361202925444E-003;-1.945266616530716E-003;
2.403500000000000E+009;1.687898635864258E-001;2.285801619291306E-002;3.231768263503909E-003;-2.184258308261633E-003;
2.403666666666667E+009;1.700138002634049E-001;2.180653251707554E-002;3.197909332811832E-003;-2.198238391429186E-003;
2.403833333333334E+009;1.709716320037842E-001;2.093046903610230E-002;3.047290956601501E-003;-2.340773819014430E-003;
2.404000000000000E+009;1.718672066926956E-001;2.010063827037811E-002;3.059173002839088E-003;-2.477917354553938E-003;
2.404166666666667E+009;1.727287620306015E-001;1.920025050640106E-002;2.880967687815428E-003;-2.514978870749474E-003;
2.404333333333334E+009;1.736492216587067E-001;1.863300241529942E-002;2.764611272141337E-003;-2.659318968653679E-003;
2.404500000000000E+009;1.744015812873840E-001;1.775125414133072E-002;2.710131462663412E-003;-2.687244908884168E-003;
2.404666666666667E+009;1.751763671636581E-001;1.707743480801582E-002;2.585056005045772E-003;-2.868732437491417E-003;
2.404833333333334E+009;1.758395433425903E-001;1.649647392332554E-002;2.532605547457933E-003;-2.907140646129847E-003;
2.405000000000000E+009;1.764931529760361E-001;1.608751341700554E-002;2.462381031364203E-003;-3.080931026488543E-003;
2.405166666666667E+009;1.771633923053742E-001;1.564010046422482E-002;2.305822679772973E-003;-3.091237973421812E-003;
2.405333333333334E+009;1.777706295251846E-001;1.510413922369480E-002;2.244693227112293E-003;-3.307138103991747E-003;
2.405500000000000E+009;1.782260388135910E-001;1.486248988658190E-002;2.234915038570762E-003;-3.197391983121634E-003;
2.405666666666667E+009;1.786710619926453E-001;1.463391724973917E-002;1.910246326588094E-003;-3.370318561792374E-003;
2.405833333333334E+009;1.787986755371094E-001;1.430929172784090E-002;1.973710488528013E-003;-3.482700325548649E-003;
2.406000000000000E+009;1.792625635862351E-001;1.377583295106888E-002;1.764790271408856E-003;-3.360027680173516E-003;
2.406166666666667E+009;1.792558878660202E-001;1.370905339717865E-002;1.783684594556689E-003;-3.395648440346122E-003;
2.406333333333334E+009;1.795805990695953E-001;1.328447740525007E-002;1.560320728458464E-003;-3.533716080710292E-003;
2.406500000000000E+009;1.794209480285645E-001;1.291885506361723E-002;1.542170182801783E-003;-3.481714520603418E-003;
2.406666666666667E+009;1.792901009321213E-001;1.253212802112103E-002;1.497947960160673E-003;-3.495271317660809E-003;
2.406833333333334E+009;1.792939901351929E-001;1.221542619168758E-002;1.152638578787446E-003;-3.532917238771915E-003;
2.407000000000000E+009;1.789053082466126E-001;1.183177251368761E-002;1.223822822794318E-003;-3.507017390802503E-003;
2.407166666666667E+009;1.789009273052216E-001;1.139412913471460E-002;1.013401662930846E-003;-3.540262812748551E-003;
2.407333333333334E+009;1.785148829221726E-001;1.087968237698078E-002;9.215487516485155E-004;-3.699325956404209E-003;
2.407500000000000E+009;1.780671775341034E-001;1.022216957062483E-002;7.839064346626401E-004;-3.566024126484990E-003;
2.407666666666667E+009;1.777438521385193E-001;9.600761346518993E-003;9.202919318340719E-004;-3.622361691668630E-003;
2.407833333333334E+009;1.770044714212418E-001;8.660134859383106E-003;7.661877898499370E-004;-3.682261100038886E-003;
2.408000000000000E+009;1.766027957201004E-001;7.795523852109909E-003;6.860787980258465E-004;-3.637417219579220E-003;
2.408166666666667E+009;1.760036647319794E-001;7.053610403090715E-003;7.699934649281204E-004;-3.531274618580937E-003;
2.408333333333334E+009;1.755994856357575E-001;6.066084839403629E-003;6.039295694790781E-004;-3.552268957719207E-003;
2.408500000000000E+009;1.749574244022369E-001;4.998134449124336E-003;5.366565892472863E-004;-3.524876898154616E-003;
2.408666666666667E+009;1.742434650659561E-001;3.790629561990500E-003;3.572798741515726E-004;-3.623958444222808E-003;
2.408833333333334E+009;1.736178994178772E-001;2.512734849005938E-003;4.744561156257987E-004;-3.683374496176839E-003;
2.409000000000000E+009;1.729121208190918E-001;1.210860558785498E-003;3.630577994044870E-004;-3.665601136162877E-003;
2.409166666666667E+009;1.723054051399231E-001;-1.563920086482540E-004;9.529681119602174E-005;-3.592163557186723E-003;
2.409333333333334E+009;1.718142628669739E-001;-1.697155064903200E-003;1.666093303356320E-004;-3.584463382139802E-003;
2.409500000000000E+009;1.711487770080566E-001;-3.306455910205841E-003;6.177290924824774E-005;-3.763952758163214E-003;
2.409666666666667E+009;1.706901043653488E-001;-4.963700193911791E-003;-1.797587515284249E-006;-3.816020675003529E-003;
2.409833333333334E+009;1.699585020542145E-001;-6.445852573961020E-003;-1.749317198118661E-005;-3.849711036309600E-003;
2.410000000000000E+009;1.695846170186997E-001;-8.296499960124493E-003;-1.775015334715135E-005;-3.835698589682579E-003;
2.410166666666667E+009;1.690987646579742E-001;-1.010213978588581E-002;-1.980671950150281E-004;-3.814931027591229E-003;
2.410333333333334E+009;1.685611754655838E-001;-1.195742283016443E-002;-2.260760957142338E-004;-4.121141042560339E-003;
2.410500000000000E+009;1.684289425611496E-001;-1.376694068312645E-002;-4.986936692148447E-004;-3.975047264248133E-003;
2.410666666666667E+009;1.681123524904251E-001;-1.594457216560841E-002;-5.154135287739337E-004;-4.153019748628140E-003;
2.410833333333334E+009;1.680643707513809E-001;-1.783238723874092E-002;-7.459599873982370E-004;-4.117112141102552E-003;
2.411000000000000E+009;1.678207218647003E-001;-1.954813301563263E-002;-9.078574948944151E-004;-4.208238795399666E-003;
2.411166666666667E+009;1.677607148885727E-001;-2.167642116546631E-002;-1.042082672938705E-003;-4.234561696648598E-003;
2.411333333333334E+009;1.677598357200623E-001;-2.366331033408642E-002;-1.175547717139125E-003;-4.124767147004604E-003;
2.411500000000000E+009;1.678265631198883E-001;-2.549351938068867E-002;-1.575232367031276E-003;-4.173259250819683E-003;
2.411666666666667E+009;1.681132018566132E-001;-2.740314789116383E-002;-1.424436573870480E-003;-4.138489253818989E-003;
2.411833333333334E+009;1.684417575597763E-001;-2.932763472199440E-002;-1.669783610850573E-003;-4.158207681030035E-003;
2.412000000000000E+009;1.686619222164154E-001;-3.138456121087074E-002;-2.012296812608838E-003;-4.146039951592684E-003;
2.412166666666667E+009;1.688231974840164E-001;-3.332573175430298E-002;-2.114648465067148E-003;-4.288056865334511E-003;
2.412333333333334E+009;1.695144474506378E-001;-3.471054881811142E-002;-2.304612658917904E-003;-4.082526545971632E-003;
2.412500000000000E+009;1.696941405534744E-001;-3.661054000258446E-002;-2.433281391859055E-003;-4.062128253281117E-003;
2.412666666666667E+009;1.703284531831741E-001;-3.864319622516632E-002;-2.608600771054626E-003;-3.833058290183544E-003;
2.412833333333334E+009;1.708153486251831E-001;-3.998545557260513E-002;-2.971514826640487E-003;-3.680225228890777E-003;
2.413000000000000E+009;1.713993400335312E-001;-4.173834621906281E-002;-3.049718914553523E-003;-3.570659551769495E-003;
2.413166666666667E+009;1.718990951776505E-001;-4.322498664259911E-002;-3.219058969989419E-003;-3.518127836287022E-003;
2.413333333333334E+009;1.725058704614639E-001;-4.458478465676308E-002;-3.380350535735488E-003;-3.334629349410534E-003;
2.413500000000000E+009;1.732623279094696E-001;-4.614706337451935E-002;-3.538968507200480E-003;-3.279074793681502E-003;
2.413666666666667E+009;1.737590283155441E-001;-4.745618253946304E-002;-3.606730606406927E-003;-3.090320620685816E-003;
2.413833333333334E+009;1.742921322584152E-001;-4.866727441549301E-002;-3.810467431321740E-003;-2.927911700680852E-003;
2.414000000000000E+009;1.749196201562882E-001;-4.983270168304443E-002;-3.843747545033693E-003;-2.794478787109256E-003;
2.414166666666667E+009;1.755169928073883E-001;-5.082490667700768E-002;-4.138398915529251E-003;-2.375389449298382E-003;
2.414333333333334E+009;1.760465651750565E-001;-5.170394480228424E-002;-4.052402917295694E-003;-2.267556264996529E-003;
2.414500000000000E+009;1.766780465841293E-001;-5.264387652277947E-002;-4.158477764576674E-003;-2.059685299172998E-003;
2.414666666666667E+009;1.770570874214172E-001;-5.342528223991394E-002;-4.296135157346726E-003;-1.833828864619136E-003;
2.414833333333334E+009;1.773725599050522E-001;-5.411128327250481E-002;-4.230322781950235E-003;-1.834838651120663E-003;
2.415000000000000E+009;1.777025610208511E-001;-5.482935532927513E-002;-4.320467356592417E-003;-1.646663760766387E-003;
2.415166666666667E+009;1.780201792716980E-001;-5.540683493018150E-002;-4.358757752925158E-003;-1.517316210083664E-003;
2.415333333333334E+009;1.782453060150147E-001;-5.588932707905769E-002;-4.413321148604155E-003;-1.224146806634963E-003;
2.415500000000000E+009;1.783441603183746E-001;-5.626983940601349E-002;-4.270328208804131E-003;-9.865289321169257E-004;
2.415666666666667E+009;1.782434582710266E-001;-5.673566833138466E-002;-4.397267010062933E-003;-8.977995603345335E-004;
2.415833333333334E+009;1.784313917160034E-001;-5.704066902399063E-002;-4.418771713972092E-003;-6.245622644200921E-004;
2.416000000000000E+009;1.781557351350784E-001;-5.733447521924973E-002;-4.470366053283215E-003;-5.116898682899773E-004;
2.416166666666667E+009;1.782217025756836E-001;-5.752233043313026E-002;-4.238100722432137E-003;-3.655284817796201E-004;
2.416333333333334E+009;1.779403835535049E-001;-5.780389904975891E-002;-4.180633462965488E-003;-2.550393401179463E-004;
2.416500000000000E+009;1.775542795658112E-001;-5.803502351045609E-002;-4.267765674740076E-003;-1.167730515589938E-004;
2.416666666666667E+009;1.769963800907135E-001;-5.833719670772553E-002;-4.115036688745022E-003;2.495965236448683E-005;
2.416833333333334E+009;1.765820235013962E-001;-5.864570662379265E-002;-4.257945809513331E-003;4.819692185265012E-005;
2.417000000000000E+009;1.757480353116989E-001;-5.874377489089966E-002;-3.984126728028059E-003;3.527762892190367E-004;
2.417166666666667E+009;1.750225722789764E-001;-5.893277004361153E-002;-4.023114684969187E-003;2.918786485679448E-004;
2.417333333333334E+009;1.743582785129547E-001;-5.924963206052780E-002;-3.942795563489199E-003;6.053691031411290E-004;
2.417500000000000E+009;1.734652817249298E-001;-5.971156433224678E-002;-3.905821125954390E-003;6.191660067997873E-004;
2.417666666666667E+009;1.726433783769608E-001;-6.001595780253410E-002;-3.996162209659815E-003;7.953566964715719E-004;
2.417833333333334E+009;1.716180145740509E-001;-6.036153808236122E-002;-3.826947184279561E-003;8.600211003795266E-004;
2.418000000000000E+009;1.704668253660202E-001;-6.091368943452835E-002;-3.768236143514514E-003;1.081245718523860E-003;
2.418166666666667E+009;1.692305356264114E-001;-6.123710796236992E-002;-3.616078523918986E-003;1.016542315483093E-003;
2.418333333333334E+009;1.684782654047012E-001;-6.187036633491516E-002;-3.635089611634612E-003;1.176890335045755E-003;
2.418500000000000E+009;1.671527326107025E-001;-6.245700642466545E-002;-3.646820783615112E-003;1.237853313796222E-003;
2.418666666666667E+009;1.660476177930832E-001;-6.328391283750534E-002;-3.477040212601423E-003;1.409139251336455E-003;
2.418833333333334E+009;1.647008806467056E-001;-6.404785066843033E-002;-3.382916329428554E-003;1.443535555154085E-003;
2.419000000000000E+009;1.634811162948608E-001;-6.486461311578751E-002;-3.283354919403791E-003;1.489668968133628E-003;
2.419166666666667E+009;1.622625887393951E-001;-6.571470201015472E-002;-3.252754686400294E-003;1.606188947334886E-003;
2.419333333333334E+009;1.609458327293396E-001;-6.643980741500855E-002;-3.179322695359588E-003;1.667398959398270E-003;
2.419500000000000E+009;1.597573161125183E-001;-6.780304014682770E-002;-3.231080714613199E-003;1.713179633952677E-003;
2.419666666666667E+009;1.586870998144150E-001;-6.883282959461212E-002;-3.108828794211149E-003;1.747265807352960E-003;
2.419833333333334E+009;1.574983000755310E-001;-7.003208994865418E-002;-3.057287074625492E-003;1.738143037073314E-003;
2.420000000000000E+009;1.567455828189850E-001;-7.126905769109726E-002;-2.979308832436800E-003;1.902171759866178E-003;
2.420166666666667E+009;1.556758433580399E-001;-7.246170938014984E-002;-3.025508951395750E-003;1.835656934417784E-003;
2.420333333333334E+009;1.546841412782669E-001;-7.397725433111191E-002;-2.832280704751611E-003;1.851629582233727E-003;
2.420500000000000E+009;1.537647247314453E-001;-7.532092928886414E-002;-2.964261220768094E-003;1.970455981791019E-003;
2.420666666666667E+009;1.530319899320602E-001;-7.664202153682709E-002;-2.737191040068865E-003;1.952490187250078E-003;
2.420833333333334E+009;1.522707790136337E-001;-7.817471772432327E-002;-2.861624816432595E-003;2.191641135141254E-003;
2.421000000000000E+009;1.516249775886536E-001;-8.000186830759049E-002;-2.884079935029149E-003;2.198498230427504E-003;
2.421166666666667E+009;1.510671079158783E-001;-8.160481601953507E-002;-2.762117190286517E-003;2.320657018572092E-003;
2.421333333333334E+009;1.508331894874573E-001;-8.337175101041794E-002;-2.807792043313384E-003;2.193821128457785E-003;
2.421500000000000E+009;1.502977907657623E-001;-8.465354889631271E-002;-2.650809474289417E-003;2.367030829191208E-003;
2.421666666666667E+009;1.500037014484406E-001;-8.632301539182663E-002;-2.730902517214418E-003;2.499635564163327E-003;
2.421833333333334E+009;1.497875303030014E-001;-8.813025802373886E-002;-2.600870328024030E-003;2.527154516428709E-003;
2.422000000000000E+009;1.495364308357239E-001;-8.980906009674072E-002;-2.695632865652442E-003;2.734001725912094E-003;
2.422166666666667E+009;1.495723128318787E-001;-9.164787083864212E-002;-2.501939656212926E-003;2.832042286172509E-003;
2.422333333333334E+009;1.495693773031235E-001;-9.309177100658417E-002;-2.416326431557536E-003;2.782544586807489E-003;
2.422500000000000E+009;1.498368829488754E-001;-9.461615234613419E-002;-2.429474378004670E-003;2.970483386889100E-003;
2.422666666666667E+009;1.496455073356628E-001;-9.642747044563294E-002;-2.253993647173047E-003;3.121275687590241E-003;
2.422833333333334E+009;1.501948833465576E-001;-9.797546267509460E-002;-2.285584574565291E-003;3.038269933313131E-003;
2.423000000000000E+009;1.503712534904480E-001;-9.941408038139343E-002;-2.131060464307666E-003;3.322354517877102E-003;
2.423166666666667E+009;1.508490890264511E-001;-1.008222624659538E-001;-1.995068741962314E-003;3.493392374366522E-003;
2.423333333333334E+009;1.512602418661118E-001;-1.022798195481300E-001;-1.876501482911408E-003;3.569058608263731E-003;
2.423500000000000E+009;1.517886221408844E-001;-1.036204844713211E-001;-1.781772240065038E-003;3.746910253539681E-003;
2.423666666666667E+009;1.519924253225327E-001;-1.049708053469658E-001;-1.769356895238161E-003;3.738401923328638E-003;
2.423833333333334E+009;1.526713073253632E-001;-1.061584949493408E-001;-1.436948659829795E-003;3.910861909389496E-003;
2.424000000000000E+009;1.530528515577316E-001;-1.072833240032196E-001;-1.347522949799895E-003;4.019111394882202E-003;
2.424166666666667E+009;1.537106484174728E-001;-1.083380207419395E-001;-1.080174115486443E-003;3.938827197998762E-003;
2.424333333333334E+009;1.540836691856384E-001;-1.092789396643639E-001;-8.521737763658166E-004;3.932418301701546E-003;
2.424500000000000E+009;1.545411199331284E-001;-1.103116199374199E-001;-6.521840114146471E-004;4.073479212820530E-003;
2.424666666666667E+009;1.550871878862381E-001;-1.110464408993721E-001;-4.584802372846752E-004;4.230475984513760E-003;
2.424833333333334E+009;1.555530279874802E-001;-1.119133606553078E-001;-5.165354814380407E-004;4.148579668253660E-003;
2.425000000000000E+009;1.558837145566940E-001;-1.127885356545448E-001;-1.259112032130361E-004;4.122026730328798E-003;
2.425166666666667E+009;1.560654491186142E-001;-1.131858453154564E-001;8.515440276823938E-005;4.104351159185171E-003;
2.425333333333334E+009;1.564334183931351E-001;-1.137359440326691E-001;4.310309595894069E-004;4.208663012832403E-003;
2.425500000000000E+009;1.568548232316971E-001;-1.143476665019989E-001;4.295546386856586E-004;4.103191196918488E-003;
2.425666666666667E+009;1.567250788211823E-001;-1.147350147366524E-001;5.405874107964337E-004;3.837710479274392E-003;
2.425833333333334E+009;1.568713188171387E-001;-1.151476725935936E-001;8.655574056319892E-004;3.895067842677236E-003;
2.426000000000000E+009;1.568138599395752E-001;-1.155832931399345E-001;9.989178506657481E-004;3.889461746439338E-003;
2.426166666666667E+009;1.571721136569977E-001;-1.158218830823898E-001;1.047121244482696E-003;3.799872472882271E-003;
2.426333333333334E+009;1.567700058221817E-001;-1.161084622144699E-001;1.308737439103425E-003;3.731030039489269E-003;
2.426500000000000E+009;1.565525680780411E-001;-1.162166744470596E-001;1.295002759434283E-003;3.559012664481998E-003;
2.426666666666667E+009;1.563221514225006E-001;-1.162700206041336E-001;1.493873423896730E-003;3.429588163271546E-003;
2.426833333333334E+009;1.559528708457947E-001;-1.165690273046494E-001;1.638433313928545E-003;3.408973105251789E-003;
2.427000000000000E+009;1.553807407617569E-001;-1.167061924934387E-001;1.728734001517296E-003;3.353378269821405E-003;
2.427166666666667E+009;1.547126322984695E-001;-1.167068332433701E-001;1.897334586828947E-003;3.122601658105850E-003;
2.427333333333334E+009;1.539314985275269E-001;-1.168999299407005E-001;2.014067955315113E-003;3.068434307351708E-003;
2.427500000000000E+009;1.533743739128113E-001;-1.170851960778236E-001;2.025465015321970E-003;2.838223241269589E-003;
2.427666666666667E+009;1.524101942777634E-001;-1.173343285918236E-001;2.124873921275139E-003;2.707062987610698E-003;
