# Version 1.00
#
freq[Hz];re:Trc1_S11;im:Trc1_S11;re:Trc2_S21;im:Trc2_S21;
2.400000000000000E+009;1.561871021986008E-001;5.905006825923920E-002;3.310611937195063E-003;-2.941535603895318E-005;
2.400166666666667E+009;1.563206613063812E-001;5.737792700529099E-002;3.478277474641800E-003;-2.799734147629351E-006;
2.400333333333334E+009;1.564700305461884E-001;5.543787777423859E-002;3.396409796550870E-003;-1.616109075257555E-004;
2.400500000000000E+009;1.567573994398117E-001;5.351415649056435E-002;3.329799277707934E-003;-2.780627983156592E-004;
2.400666666666667E+009;1.569294780492783E-001;5.151250958442688E-002;3.444962203502655E-003;-3.190546121913940E-004;
2.400833333333334E+009;1.574380695819855E-001;4.938522726297379E-002;3.432551166042686E-003;-4.047138500027359E-004;
2.401000000000000E+009;1.577924787998200E-001;4.734563082456589E-002;3.599228803068399E-003;-6.208685808815062E-004;
2.401166666666667E+009;1.580586284399033E-001;4.531418532133102E-002;3.594528185203672E-003;-5.375580512918532E-004;
2.401333333333334E+009;1.587042063474655E-001;4.334762319922447E-002;3.496032208204269E-003;-5.859184893779457E-004;
2.401500000000000E+009;1.593043208122253E-001;4.135837033390999E-002;3.525661770254374E-003;-8.708812529221177E-004;
2.401666666666667E+009;1.597955226898193E-001;3.945381566882134E-002;3.454275662079454E-003;-8.671265095472336E-004;
2.401833333333334E+009;1.605362743139267E-001;3.761546313762665E-002;3.624161006882787E-003;-9.887823835015297E-004;
2.402000000000000E+009;1.611333638429642E-001;3.567162528634071E-002;3.462419379502535E-003;-1.105467788875103E-003;
2.402166666666667E+009;1.616975665092468E-001;3.393839299678803E-002;3.561284393072128E-003;-1.144841313362122E-003;
2.402333333333334E+009;1.626836806535721E-001;3.241167590022087E-002;3.518782090395689E-003;-1.222597435116768E-003;
2.402500000000000E+009;1.634819805622101E-001;3.078453801572323E-002;3.368821926414967E-003;-1.407928881235421E-003;
2.402666666666667E+009;1.643094420433044E-001;2.925571613013744E-002;3.352029481902719E-003;-1.622238312847912E-003;
2.402833333333334E+009;1.652288287878037E-001;2.794925868511200E-002;3.429168136790395E-003;-1.777894329279661E-003;
2.403000000000000E+009;1.661886274814606E-001;2.637483365833759E-002;3.362624207511544E-003;-1.773698604665697E-003;
2.403166666666667E+009;1.670612394809723E-001;2.513308078050613E-002;3.381648799404502E-003;-1.889207982458174E-003;
2.403333333333334E+009;1.680540889501572E-001;2.408393472433090E-002;3.399826120585203E-003;-1.969916746020317E-003;
2.403500000000000E+009;1.690057963132858E-001;2.280236408114433E-002;3.229929832741618E-003;-2.160264179110527E-003;
2.403666666666667E+009;1.698651164770126E-001;2.175072766840458E-002;3.109335899353027E-003;-2.065056003630161E-003;
2.403833333333334E+009;1.710097193717957E-001;2.079221233725548E-002;3.146553179249167E-003;-2.252706326544285E-003;
2.404000000000000E+009;1.717871576547623E-001;2.004390209913254E-002;3.000931115821004E-003;-2.505068434402347E-003;
2.404166666666667E+009;1.725666373968124E-001;1.927293837070465E-002;3.099516732618213E-003;-2.486728131771088E-003;
2.404333333333334E+009;1.734305322170258E-001;1.850226707756519E-002;2.841834444552660E-003;-2.783946460112929E-003;
2.404500000000000E+009;1.742823421955109E-001;1.772657036781311E-002;2.743641380220652E-003;-3.008557949215174E-003;
2.404666666666667E+009;1.750504821538925E-001;1.716037839651108E-002;2.777709858492017E-003;-2.777833491563797E-003;
2.404833333333334E+009;1.757118254899979E-001;1.671334914863110E-002;2.540412358939648E-003;-3.009665524587035E-003;
2.405000000000000E+009;1.764289438724518E-001;1.609320566058159E-002;2.444101730361581E-003;-3.038255264982581E-003;
2.405166666666667E+009;1.770472377538681E-001;1.564863510429859E-002;2.418220508843660E-003;-3.160043619573116E-003;
2.405333333333334E+009;1.776249557733536E-001;1.508839707821608E-002;2.148187719285488E-003;-3.330477047711611E-003;
2.405500000000000E+009;1.780453622341156E-001;1.495677512139082E-002;2.243239665403962E-003;-3.211239818483591E-003;
2.405666666666667E+009;1.784850507974625E-001;1.456128247082233E-002;2.027878304943442E-003;-3.148717340081930E-003;
2.405833333333334E+009;1.786375194787979E-001;1.434151176363230E-002;1.813023234717548E-003;-3.395109437406063E-003;
2.406000000000000E+009;1.790736019611359E-001;1.382284518331289E-002;1.985614886507392E-003;-3.503504674881697E-003;
2.406166666666667E+009;1.790957301855087E-001;1.380238402634859E-002;1.615309738554061E-003;-3.390714991837740E-003;
2.406333333333334E+009;1.794634461402893E-001;1.347328443080187E-002;1.528493710793555E-003;-3.409749595448375E-003;
2.406500000000000E+009;1.794321984052658E-001;1.306231878697872E-002;1.467450638301671E-003;-3.667103126645088E-003;
2.406666666666667E+009;1.791028082370758E-001;1.269684825092554E-002;1.451786025427282E-003;-3.481143387034535E-003;
2.406833333333334E+009;1.790634989738464E-001;1.228274405002594E-002;1.103186979889870E-003;-3.554925089702010E-003;
2.407000000000000E+009;1.790327876806259E-001;1.180752739310265E-002;1.169499591924250E-003;-3.567329840734601E-003;
2.407166666666667E+009;1.787827312946320E-001;1.149513665586710E-002;1.050240593031049E-003;-3.660130314528942E-003;
2.407333333333334E+009;1.784028112888336E-001;1.076121535152197E-002;1.079133013263345E-003;-3.501584054902196E-003;
2.407500000000000E+009;1.781020015478134E-001;1.036121416836977E-002;6.610954296775162E-004;-3.613218665122986E-003;
2.407666666666667E+009;1.776165068149567E-001;9.643334895372391E-003;7.836424047127366E-004;-3.821040736511350E-003;
2.407833333333334E+009;1.770591884851456E-001;8.762032724916935E-003;6.802898133173585E-004;-3.463186090812087E-003;
2.408000000000000E+009;1.766495853662491E-001;7.948587648570538E-003;6.281699170358479E-004;-3.642216790467501E-003;
2.408166666666667E+009;1.759733855724335E-001;7.229930721223354E-003;5.648761289194226E-004;-3.550747875124216E-003;
2.408333333333334E+009;1.756363660097122E-001;6.090797949582338E-003;5.189868970774114E-004;-3.691842081025243E-003;
2.408500000000000E+009;1.748300343751907E-001;4.911929834634066E-003;3.647466364782304E-004;-3.626574063673616E-003;
2.408666666666667E+009;1.743562966585159E-001;3.708755830302835E-003;1.599227980477735E-004;-3.671151120215654E-003;
2.408833333333334E+009;1.735806465148926E-001;2.591092139482498E-003;2.966009487863630E-004;-3.550930181518197E-003;
2.409000000000000E+009;1.729472726583481E-001;1.243539503775537E-003;2.367893903283402E-004;-3.682890674099326E-003;
2.409166666666667E+009;1.722522526979446E-001;-2.213923726230860E-004;2.693522255867720E-004;-3.758416976779699E-003;
2.409333333333334E+009;1.719181984663010E-001;-1.755294390022755E-003;1.275797258131206E-004;-3.645376535132527E-003;
2.409500000000000E+009;1.710394918918610E-001;-3.312251297757030E-003;1.685528841335326E-004;-3.717558458447456E-003;
2.409666666666667E+009;1.705718338489533E-001;-4.968855530023575E-003;-1.398177664668765E-005;-3.743840614333749E-003;
2.409833333333334E+009;1.699346005916596E-001;-6.476605776697397E-003;-1.311761880060658E-004;-3.941222559660673E-003;
2.410000000000000E+009;1.696545928716660E-001;-8.169231005012989E-003;-1.750474475556985E-004;-3.773901378735900E-003;
2.410166666666667E+009;1.692153811454773E-001;-1.005153916776180E-002;-2.594522957224399E-004;-3.815909614786506E-003;
2.410333333333334E+009;1.687273383140564E-001;-1.182464696466923E-002;-3.739654785022140E-004;-4.062664695084095E-003;
2.410500000000000E+009;1.684542149305344E-001;-1.366128306835890E-002;-3.038150025531650E-004;-3.953716717660427E-003;
2.410666666666667E+009;1.679451018571854E-001;-1.589735224843025E-002;-6.409573252312839E-004;-4.016102757304907E-003;
2.410833333333334E+009;1.680236905813217E-001;-1.761193387210369E-002;-8.457282674498856E-004;-4.039112478494644E-003;
2.411000000000000E+009;1.678260713815689E-001;-1.972217857837677E-002;-9.539206512272358E-004;-4.242214374244213E-003;
2.411166666666667E+009;1.677996218204498E-001;-2.147817052900791E-002;-1.074713887646794E-003;-4.158961120992899E-003;
2.411333333333334E+009;1.676352620124817E-001;-2.360337413847446E-002;-1.288209226913750E-003;-4.223960917443037E-003;
2.411500000000000E+009;1.677686721086502E-001;-2.552917040884495E-002;-1.413945574313402E-003;-4.300930537283421E-003;
2.411666666666667E+009;1.681326329708099E-001;-2.739122509956360E-002;-1.655861269682646E-003;-4.271463956683874E-003;
2.411833333333334E+009;1.683507561683655E-001;-2.918488532304764E-002;-1.868021208792925E-003;-4.112418740987778E-003;
2.412000000000000E+009;1.688441634178162E-001;-3.126868978142738E-002;-2.129412721842527E-003;-4.013095516711474E-003;
2.412166666666667E+009;1.688777208328247E-001;-3.301429376006126E-002;-2.205466851592064E-003;-4.080890212208033E-003;
2.412333333333334E+009;1.694677919149399E-001;-3.487599641084671E-002;-2.377716824412346E-003;-4.271238110959530E-003;
2.412500000000000E+009;1.699776202440262E-001;-3.644992038607597E-002;-2.607144881039858E-003;-3.941143397241831E-003;
2.412666666666667E+009;1.703622937202454E-001;-3.844471275806427E-002;-2.700839890167117E-003;-3.838173113763332E-003;
2.412833333333334E+009;1.709004938602448E-001;-4.002531245350838E-002;-3.012875327840447E-003;-3.743028733879328E-003;
2.413000000000000E+009;1.714661419391632E-001;-4.175022616982460E-002;-3.081189235672355E-003;-3.713813144713640E-003;
2.413166666666667E+009;1.721553057432175E-001;-4.306885227560997E-002;-3.243678249418736E-003;-3.379487665370107E-003;
2.413333333333334E+009;1.724907904863358E-001;-4.472277313470841E-002;-3.468944691121578E-003;-3.356876783072949E-003;
2.413500000000000E+009;1.731627434492111E-001;-4.597136378288269E-002;-3.575838403776288E-003;-3.216555574908853E-003;
2.413666666666667E+009;1.738228350877762E-001;-4.739445447921753E-002;-3.681499278172851E-003;-2.900338731706142E-003;
2.413833333333334E+009;1.744267940521240E-001;-4.866188392043114E-002;-3.798664780333638E-003;-2.765067853033543E-003;
2.414000000000000E+009;1.748227179050446E-001;-4.966463893651962E-002;-4.039566498249769E-003;-2.739494899287820E-003;
2.414166666666667E+009;1.753057986497879E-001;-5.065795779228210E-002;-4.141686018556356E-003;-2.522712806239724E-003;
2.414333333333334E+009;1.759196519851685E-001;-5.174322053790093E-002;-4.137289710342884E-003;-2.228191588073969E-003;
2.414500000000000E+009;1.766105443239212E-001;-5.253424122929573E-002;-4.314636345952749E-003;-1.937482738867402E-003;
2.414666666666667E+009;1.769136041402817E-001;-5.333113670349121E-002;-4.292094614356756E-003;-1.878122682683170E-003;
2.414833333333334E+009;1.772503852844238E-001;-5.400424450635910E-002;-4.184848628938198E-003;-1.875232439488173E-003;
2.415000000000000E+009;1.776520907878876E-001;-5.481100827455521E-002;-4.322276450693607E-003;-1.560054253786802E-003;
2.415166666666667E+009;1.778729856014252E-001;-5.521593242883682E-002;-4.523856565356255E-003;-1.409190823324025E-003;
2.415333333333334E+009;1.780563443899155E-001;-5.589520558714867E-002;-4.276219289749861E-003;-1.202434534206986E-003;
2.415500000000000E+009;1.783543974161148E-001;-5.616919323801994E-002;-4.406591877341270E-003;-9.752587066031992E-004;
2.415666666666667E+009;1.783422827720642E-001;-5.652626603841782E-002;-4.456970375031233E-003;-9.332344634458423E-004;
2.415833333333334E+009;1.784282326698303E-001;-5.695891380310059E-002;-4.466165322810412E-003;-6.632210570387542E-004;
2.416000000000000E+009;1.781278103590012E-001;-5.721095204353333E-002;-4.324588458985090E-003;-6.424221210181713E-004;
2.416166666666667E+009;1.782040446996689E-001;-5.748069286346436E-002;-4.367089830338955E-003;-3.494849661365151E-004;
2.416333333333334E+009;1.778983771800995E-001;-5.765526369214058E-002;-4.313561134040356E-003;-1.398231688654050E-004;
2.416500000000000E+009;1.774979531764984E-001;-5.794992297887802E-002;-4.195866640657187E-003;4.799763246410294E-006;
2.416666666666667E+009;1.769913434982300E-001;-5.814750865101814E-002;-4.098133184015751E-003;1.853924768511206E-004;
2.416833333333334E+009;1.767211407423019E-001;-5.853934213519096E-002;-4.284843336790800E-003;2.261309855384752E-004;
2.417000000000000E+009;1.757839620113373E-001;-5.868085101246834E-002;-4.196182824671269E-003;2.747315447777510E-004;
2.417166666666667E+009;1.751782149076462E-001;-5.888637155294418E-002;-4.113983828574419E-003;3.284161793999374E-004;
2.417333333333334E+009;1.743750125169754E-001;-5.906908214092255E-002;-3.947390709072352E-003;4.989550798200071E-004;
2.417500000000000E+009;1.735659539699554E-001;-5.961563438177109E-002;-3.963242284953594E-003;6.855701794847846E-004;
2.417666666666667E+009;1.727091670036316E-001;-5.981747061014175E-002;-3.956694621592760E-003;1.009093364700675E-003;
2.417833333333334E+009;1.716583967208862E-001;-6.023192405700684E-002;-3.893161192536354E-003;9.648319683037698E-004;
2.418000000000000E+009;1.704724878072739E-001;-6.075816974043846E-002;-3.779523540288210E-003;9.499096777290106E-004;
2.418166666666667E+009;1.693857908248901E-001;-6.123354285955429E-002;-3.675497602671385E-003;1.144161564297974E-003;
2.418333333333334E+009;1.684519052505493E-001;-6.183578819036484E-002;-3.490858012810350E-003;1.250414177775383E-003;
2.418500000000000E+009;1.673081368207932E-001;-6.239406019449234E-002;-3.527760971337557E-003;1.252806629054248E-003;
2.418666666666667E+009;1.661736667156220E-001;-6.315077841281891E-002;-3.564426209777594E-003;1.392569858580828E-003;
2.418833333333334E+009;1.647102385759354E-001;-6.403674930334091E-002;-3.276170231401920E-003;1.465507317334414E-003;
2.419000000000000E+009;1.634261757135391E-001;-6.477025151252747E-002;-3.402111819013953E-003;1.619183341972530E-003;
2.419166666666667E+009;1.622925251722336E-001;-6.566445529460907E-002;-3.153988858684897E-003;1.628409139811993E-003;
2.419333333333334E+009;1.610662937164307E-001;-6.639671325683594E-002;-3.210246330127120E-003;1.699572778306902E-003;
2.419500000000000E+009;1.597163379192352E-001;-6.776864081621170E-002;-3.088901285082102E-003;1.748339855112135E-003;
2.419666666666667E+009;1.588767617940903E-001;-6.886424869298935E-002;-3.097990062087774E-003;1.819171127863228E-003;
2.419833333333334E+009;1.575368940830231E-001;-6.992881745100021E-002;-2.995163667947054E-003;1.876677037216723E-003;
2.420000000000000E+009;1.566597819328308E-001;-7.130109518766403E-002;-2.892655553296208E-003;1.689820666797459E-003;
2.420166666666667E+009;1.556680351495743E-001;-7.251027226448059E-002;-3.083243267610669E-003;1.894872169941664E-003;
2.420333333333334E+009;1.546047180891037E-001;-7.410549372434616E-002;-2.914635930210352E-003;1.911108032800257E-003;
2.420500000000000E+009;1.538126617670059E-001;-7.522729784250259E-002;-2.792857820168138E-003;1.913452870212495E-003;
2.420666666666667E+009;1.530253589153290E-001;-7.663228362798691E-002;-2.757020993158221E-003;1.917752786539495E-003;
2.420833333333334E+009;1.523394584655762E-001;-7.840418815612793E-002;-2.792502287775278E-003;2.095735166221857E-003;
2.421000000000000E+009;1.515838950872421E-001;-7.998936623334885E-002;-2.837049774825573E-003;2.158033428713679E-003;
2.421166666666667E+009;1.510639935731888E-001;-8.146890997886658E-002;-2.643493236973882E-003;2.229095203801990E-003;
2.421333333333334E+009;1.506547778844833E-001;-8.303999900817871E-002;-2.578892977908254E-003;2.384432824328542E-003;
2.421500000000000E+009;1.501366347074509E-001;-8.459285646677017E-002;-2.591334283351898E-003;2.380778547376394E-003;
2.421666666666667E+009;1.499118208885193E-001;-8.652149140834808E-002;-2.826168667525053E-003;2.514840103685856E-003;
2.421833333333334E+009;1.497228145599365E-001;-8.801997452974320E-002;-2.624851651489735E-003;2.603707602247596E-003;
2.422000000000000E+009;1.496426612138748E-001;-8.969333767890930E-002;-2.502009039744735E-003;2.859764499589801E-003;
2.422166666666667E+009;1.495756506919861E-001;-9.151238203048706E-002;-2.472052583470941E-003;2.757844049483538E-003;
2.422333333333334E+009;1.496767997741699E-001;-9.306537359952927E-002;-2.425500191748142E-003;3.094654297456145E-003;
2.422500000000000E+009;1.496498286724091E-001;-9.457688778638840E-002;-2.284700749441981E-003;2.992591820657253E-003;
2.422666666666667E+009;1.497517228126526E-001;-9.632087498903275E-002;-2.338550752028823E-003;3.185783512890339E-003;
2.422833333333334E+009;1.499605774879456E-001;-9.791511297225952E-002;-2.144698053598404E-003;3.280908567830920E-003;
2.423000000000000E+009;1.503540277481079E-001;-9.952528029680252E-002;-1.965609146282077E-003;3.240719204768539E-003;
2.423166666666667E+009;1.507839113473892E-001;-1.007914245128632E-001;-1.939247129485011E-003;3.486734349280596E-003;
2.423333333333334E+009;1.512286216020584E-001;-1.021521165966988E-001;-1.991705270484090E-003;3.755637211725116E-003;
2.423500000000000E+009;1.518039107322693E-001;-1.034066975116730E-001;-1.662593218497932E-003;3.721778513863683E-003;
2.423666666666667E+009;1.519346982240677E-001;-1.049482077360153E-001;-1.496135839261115E-003;3.888332052156329E-003;
2.423833333333334E+009;1.527529060840607E-001;-1.062102317810059E-001;-1.428089803084731E-003;3.866068786010146E-003;
2.424000000000000E+009;1.530415564775467E-001;-1.070987805724144E-001;-1.135089900344610E-003;4.023901186883450E-003;
2.424166666666667E+009;1.535779237747192E-001;-1.083652600646019E-001;-1.051689730957151E-003;3.950073383748531E-003;
2.424333333333334E+009;1.541571766138077E-001;-1.091582998633385E-001;-8.895779610611498E-004;4.005119670182467E-003;
2.424500000000000E+009;1.545873135328293E-001;-1.101892888545990E-001;-6.017475388944149E-004;4.140829667448998E-003;
2.424666666666667E+009;1.551126837730408E-001;-1.109143942594528E-001;-5.005928687751293E-004;4.148801788687706E-003;
2.424833333333334E+009;1.554129719734192E-001;-1.118943914771080E-001;-2.314002340426669E-004;4.226861055940390E-003;
2.425000000000000E+009;1.558962315320969E-001;-1.126269698143005E-001;-2.304693589394447E-005;4.080251790583134E-003;
2.425166666666667E+009;1.560435295104981E-001;-1.131407320499420E-001;1.146220529335551E-004;4.117618780583143E-003;
2.425333333333334E+009;1.564947962760925E-001;-1.138369515538216E-001;3.816991229541600E-004;4.170428495854139E-003;
2.425500000000000E+009;1.567611843347549E-001;-1.142750903964043E-001;4.528927092906088E-004;4.047421272844076E-003;
2.425666666666667E+009;1.567548662424088E-001;-1.146661490201950E-001;6.245963159017265E-004;3.871635301038623E-003;
2.425833333333334E+009;1.569692045450211E-001;-1.151062622666359E-001;7.633013883605599E-004;3.843156620860100E-003;
2.426000000000000E+009;1.569224148988724E-001;-1.155057996511459E-001;9.321696707047522E-004;3.750602249056101E-003;
2.426166666666667E+009;1.570536941289902E-001;-1.158960461616516E-001;1.277312287129462E-003;3.737195394933224E-003;
2.426333333333334E+009;1.567666977643967E-001;-1.160354092717171E-001;1.257747528143227E-003;3.711487632244825E-003;
2.426500000000000E+009;1.565432250499725E-001;-1.162569075822830E-001;1.315188361331821E-003;3.677687607705593E-003;
2.426666666666667E+009;1.563431471586227E-001;-1.163191497325897E-001;1.526944106444717E-003;3.538434393703938E-003;
2.426833333333334E+009;1.558472961187363E-001;-1.164590045809746E-001;1.712507684715092E-003;3.340670838952065E-003;
2.427000000000000E+009;1.554242968559265E-001;-1.167457401752472E-001;1.925834105350077E-003;3.328875405713916E-003;
2.427166666666667E+009;1.547983139753342E-001;-1.167633458971977E-001;1.789838308468461E-003;3.089789766818285E-003;
2.427333333333334E+009;1.540550291538239E-001;-1.168906167149544E-001;1.959967426955700E-003;2.913849195465446E-003;
2.427500000000000E+009;1.533651649951935E-001;-1.171432137489319E-001;1.984992530196905E-003;2.786218654364348E-003;
2.427666666666667E+009;1.524612605571747E-001;-1.173368170857430E-001;2.161229727789760E-003;2.719667507335544E-003;
