# Version 1.00
#
freq[Hz];re:Trc1_S11;im:Trc1_S11;re:Trc2_S21;im:Trc2_S21;
2.400000000000000E+009;1.572150141000748E-001;6.290886551141739E-002;-3.459111787378788E-003;4.734695889055729E-003;
2.400166666666667E+009;1.570568233728409E-001;6.126006320118904E-002;-3.308877814561129E-003;4.841870162636042E-003;
2.400333333333334E+009;1.568402349948883E-001;5.919739603996277E-002;-3.119352040812373E-003;4.922689869999886E-003;
2.400500000000000E+009;1.568447053432465E-001;5.740561708807945E-002;-2.915406366810203E-003;5.146642215549946E-003;
2.400666666666667E+009;1.567236632108688E-001;5.522146448493004E-002;-2.656839555129409E-003;5.058457143604755E-003;
2.400833333333334E+009;1.569788306951523E-001;5.343425273895264E-002;-2.465763827785850E-003;5.044303368777037E-003;
2.401000000000000E+009;1.572050750255585E-001;5.113412812352181E-002;-2.431394299492240E-003;5.225265864282847E-003;
2.401166666666667E+009;1.571454554796219E-001;4.915026947855949E-002;-2.046914072707295E-003;5.322078708559275E-003;
2.401333333333334E+009;1.574297398328781E-001;4.708896577358246E-002;-1.903119380585849E-003;5.264935549348593E-003;
2.401500000000000E+009;1.578183770179749E-001;4.489034041762352E-002;-1.832709647715092E-003;5.449046380817890E-003;
2.401666666666667E+009;1.580719798803330E-001;4.300215467810631E-002;-1.522752922028303E-003;5.492581985890865E-003;
2.401833333333334E+009;1.585932374000549E-001;4.096360132098198E-002;-1.435491954907775E-003;5.540583748370409E-003;
2.402000000000000E+009;1.589715331792831E-001;3.884440287947655E-002;-1.242434023879468E-003;5.506963469088078E-003;
2.402166666666667E+009;1.594662666320801E-001;3.671698644757271E-002;-1.025329460389912E-003;5.603889003396034E-003;
2.402333333333334E+009;1.600898057222366E-001;3.507577627897263E-002;-7.069385610520840E-004;5.648601800203323E-003;
2.402500000000000E+009;1.607961058616638E-001;3.311648592352867E-002;-6.210613064467907E-004;5.578075535595417E-003;
2.402666666666667E+009;1.614629924297333E-001;3.134924545884132E-002;-2.534924424253404E-004;5.631668958812952E-003;
2.402833333333334E+009;1.625058799982071E-001;2.965134195983410E-002;-2.242259361082688E-004;5.578118376433849E-003;
2.403000000000000E+009;1.631951630115509E-001;2.803989127278328E-002;9.509218216408044E-005;5.533191375434399E-003;
2.403166666666667E+009;1.643321663141251E-001;2.648434415459633E-002;2.734961744863540E-004;5.600991658866406E-003;
2.403333333333334E+009;1.651793718338013E-001;2.520227804780006E-002;5.699371104128659E-004;5.501713138073683E-003;
2.403500000000000E+009;1.659747809171677E-001;2.359052002429962E-002;7.449671975336969E-004;5.390821956098080E-003;
2.403666666666667E+009;1.672080606222153E-001;2.239448390901089E-002;1.161051681265235E-003;5.370134022086859E-003;
2.403833333333334E+009;1.682499945163727E-001;2.102520130574703E-002;1.324939192272723E-003;5.415966268628836E-003;
2.404000000000000E+009;1.692156046628952E-001;1.993045397102833E-002;1.310763065703213E-003;5.295308306813240E-003;
2.404166666666667E+009;1.702206432819367E-001;1.876919157803059E-002;1.511690556071699E-003;5.224039778113365E-003;
2.404333333333334E+009;1.712526530027390E-001;1.779494434595108E-002;1.692857826128602E-003;4.920938983559609E-003;
2.404500000000000E+009;1.722716093063355E-001;1.679459773004055E-002;2.026518108323216E-003;4.960377700626850E-003;
2.404666666666667E+009;1.731135249137878E-001;1.614448986947537E-002;2.008237875998020E-003;4.747956991195679E-003;
2.404833333333334E+009;1.740426123142242E-001;1.538951136171818E-002;2.234505489468575E-003;4.729128908365965E-003;
2.405000000000000E+009;1.751757860183716E-001;1.461836136877537E-002;2.684664446860552E-003;4.587336909025908E-003;
2.405166666666667E+009;1.759236305952072E-001;1.395341195166111E-002;2.673692302778363E-003;4.502914380282164E-003;
2.405333333333334E+009;1.768365651369095E-001;1.341453753411770E-002;2.702397992834449E-003;4.226177465170622E-003;
2.405500000000000E+009;1.776155233383179E-001;1.318090315908194E-002;2.762188669294119E-003;4.223979543894529E-003;
2.405666666666667E+009;1.782431155443192E-001;1.266968436539173E-002;3.005512524396181E-003;4.028076771646738E-003;
2.405833333333334E+009;1.787397265434265E-001;1.248134300112724E-002;3.258905839174986E-003;4.027004819363356E-003;
2.406000000000000E+009;1.794341951608658E-001;1.202823594212532E-002;3.303862642496824E-003;3.689763834699988E-003;
2.406166666666667E+009;1.796977967023850E-001;1.169511862099171E-002;3.493714611977339E-003;3.719748463481665E-003;
2.406333333333334E+009;1.801820546388626E-001;1.148672495037317E-002;3.495216835290194E-003;3.483762266114354E-003;
2.406500000000000E+009;1.804296225309372E-001;1.112267468124628E-002;3.721108427271247E-003;3.303040051832795E-003;
2.406666666666667E+009;1.806106865406036E-001;1.101050619035959E-002;3.750366857275367E-003;3.311695298179984E-003;
2.406833333333334E+009;1.808579713106155E-001;1.066156290471554E-002;3.732664044946432E-003;3.039756324142218E-003;
2.407000000000000E+009;1.810113638639450E-001;1.028721779584885E-002;3.873960813507438E-003;2.786420751363039E-003;
2.407166666666667E+009;1.810159832239151E-001;1.010058727115393E-002;3.952999599277973E-003;2.696172334253788E-003;
2.407333333333334E+009;1.807894557714462E-001;9.598482400178909E-003;3.962824121117592E-003;2.512219594791532E-003;
2.407500000000000E+009;1.806369274854660E-001;9.374574758112431E-003;4.037059843540192E-003;2.292976016178727E-003;
2.407666666666667E+009;1.804051548242569E-001;8.980842307209969E-003;4.024489317089319E-003;2.167179947718978E-003;
2.407833333333334E+009;1.799068152904511E-001;8.319972082972527E-003;4.319973755627871E-003;1.990195363759995E-003;
2.408000000000000E+009;1.796483844518662E-001;7.665527053177357E-003;4.310019779950380E-003;1.855838811025024E-003;
2.408166666666667E+009;1.791339069604874E-001;7.081825286149979E-003;4.167973529547453E-003;1.708551542833448E-003;
2.408333333333334E+009;1.787237077951431E-001;6.544148083776236E-003;4.258548375219107E-003;1.591665321029723E-003;
2.408500000000000E+009;1.779745966196060E-001;5.493419244885445E-003;4.245539195835590E-003;1.291620079427958E-003;
2.408666666666667E+009;1.773945689201355E-001;4.582776688039303E-003;4.328770097345114E-003;1.233084709383547E-003;
2.408833333333334E+009;1.767955422401428E-001;3.644651966169477E-003;4.283273592591286E-003;1.029912382364273E-003;
2.409000000000000E+009;1.760892570018768E-001;2.652074676007032E-003;4.223734140396118E-003;8.988078334368765E-004;
2.409166666666667E+009;1.753214895725250E-001;1.429888652637601E-003;4.254677798599005E-003;8.623720495961607E-004;
2.409333333333334E+009;1.746660321950913E-001;2.190087107010186E-004;4.321435932070017E-003;6.712423637509346E-004;
2.409500000000000E+009;1.738414764404297E-001;-1.335302018560469E-003;4.354266449809074E-003;5.650144303217530E-004;
2.409666666666667E+009;1.730801910161972E-001;-2.434828318655491E-003;4.241981543600559E-003;3.942364419344813E-004;
2.409833333333334E+009;1.724701821804047E-001;-3.970887511968613E-003;4.248687066137791E-003;3.003905585501343E-004;
2.410000000000000E+009;1.717393994331360E-001;-5.445790942758322E-003;4.212558735162020E-003;1.598952076165006E-004;
2.410166666666667E+009;1.712201088666916E-001;-7.192191667854786E-003;4.227087367326021E-003;2.033752934949007E-005;
2.410333333333334E+009;1.704871654510498E-001;-8.902662433683872E-003;4.083496052771807E-003;-6.104631756898016E-005;
2.410500000000000E+009;1.700368523597717E-001;-1.070872507989407E-002;3.968669567257166E-003;-1.771352108335123E-004;
2.410666666666667E+009;1.694703400135040E-001;-1.267263665795326E-002;4.060007166117430E-003;-2.993107191286981E-004;
2.410833333333334E+009;1.691729575395584E-001;-1.432247366756201E-002;4.003629088401794E-003;-4.431705747265369E-004;
2.411000000000000E+009;1.685895472764969E-001;-1.603375561535358E-002;3.927665296941996E-003;-5.878523807041347E-004;
2.411166666666667E+009;1.682687848806381E-001;-1.818561553955078E-002;3.993876278400421E-003;-6.161953788250685E-004;
2.411333333333334E+009;1.680692732334137E-001;-1.996245235204697E-002;3.838729811832309E-003;-7.300837314687669E-004;
2.411500000000000E+009;1.679443269968033E-001;-2.208881452679634E-002;3.797164186835289E-003;-1.086638891138136E-003;
2.411666666666667E+009;1.679358184337616E-001;-2.408786676824093E-002;3.785910783335567E-003;-1.023756223730743E-003;
2.411833333333334E+009;1.678536385297775E-001;-2.605648897588253E-002;3.778382204473019E-003;-1.365656964480877E-003;
2.412000000000000E+009;1.679503768682480E-001;-2.800967916846275E-002;3.803043859079480E-003;-1.323601347394288E-003;
2.412166666666667E+009;1.679910570383072E-001;-3.017516620457172E-002;3.728257957845926E-003;-1.489563146606088E-003;
2.412333333333334E+009;1.683991253376007E-001;-3.196141496300697E-002;3.493082243949175E-003;-1.428444520570338E-003;
2.412500000000000E+009;1.684585660696030E-001;-3.374558687210083E-002;3.399471053853631E-003;-1.726582529954612E-003;
2.412666666666667E+009;1.688492745161057E-001;-3.593859821557999E-002;3.418460721150041E-003;-1.846709637902677E-003;
2.412833333333334E+009;1.693402081727982E-001;-3.775737062096596E-002;3.255444578826428E-003;-1.867850194685161E-003;
2.413000000000000E+009;1.696253120899200E-001;-3.964215144515038E-002;3.107123775407672E-003;-1.907829311676323E-003;
2.413166666666667E+009;1.701134443283081E-001;-4.115800559520721E-002;3.011672524735332E-003;-2.151475287973881E-003;
2.413333333333334E+009;1.705149263143539E-001;-4.313716664910317E-002;2.982284873723984E-003;-2.292297780513763E-003;
2.413500000000000E+009;1.711370199918747E-001;-4.479313269257546E-002;2.799066016450524E-003;-2.239047084003687E-003;
2.413666666666667E+009;1.717182844877243E-001;-4.631656408309937E-002;2.721666358411312E-003;-2.403910271823406E-003;
2.413833333333334E+009;1.722796857357025E-001;-4.768212139606476E-002;2.891681855544448E-003;-2.315432997420430E-003;
2.414000000000000E+009;1.727162003517151E-001;-4.912759363651276E-002;2.468564547598362E-003;-2.483649179339409E-003;
2.414166666666667E+009;1.733147352933884E-001;-5.035499483346939E-002;2.467348007485271E-003;-2.644786145538092E-003;
2.414333333333334E+009;1.739221811294556E-001;-5.166238173842430E-002;2.318983431905508E-003;-2.682227641344070E-003;
2.414500000000000E+009;1.747186779975891E-001;-5.258227139711380E-002;2.163061406463385E-003;-2.759743249043822E-003;
2.414666666666667E+009;1.751407384872437E-001;-5.374113097786903E-002;2.060863422229886E-003;-2.687638625502586E-003;
2.414833333333334E+009;1.757239401340485E-001;-5.463226884603500E-002;1.782209263183177E-003;-2.819851273670793E-003;
2.415000000000000E+009;1.760123968124390E-001;-5.558734387159348E-002;1.917738467454910E-003;-2.759452909231186E-003;
2.415166666666667E+009;1.764998137950897E-001;-5.633914098143578E-002;1.817347249016166E-003;-2.904081949964166E-003;
2.415333333333334E+009;1.771052479743958E-001;-5.699458718299866E-002;1.530168694444001E-003;-2.910004230216146E-003;
2.415500000000000E+009;1.773854941129684E-001;-5.748697742819786E-002;1.606956589967012E-003;-2.937583485618234E-003;
2.415666666666667E+009;1.776394844055176E-001;-5.794470757246018E-002;1.317229238338769E-003;-3.046891652047634E-003;
2.415833333333334E+009;1.779048740863800E-001;-5.854163318872452E-002;1.104526221752167E-003;-2.963362028822303E-003;
2.416000000000000E+009;1.780366152524948E-001;-5.902234837412834E-002;1.120606670156121E-003;-2.881548367440701E-003;
2.416166666666667E+009;1.782676577568054E-001;-5.920669063925743E-002;9.997317101806402E-004;-2.873896155506373E-003;
2.416333333333334E+009;1.782071441411972E-001;-5.955124646425247E-002;8.114431984722614E-004;-2.842701040208340E-003;
2.416500000000000E+009;1.779480576515198E-001;-5.989336594939232E-002;7.583907572552562E-004;-2.959085162729025E-003;
2.416666666666667E+009;1.778654605150223E-001;-6.005842983722687E-002;6.826132885180414E-004;-2.669025911018252E-003;
2.416833333333334E+009;1.776939183473587E-001;-6.031235679984093E-002;5.093739018775523E-004;-2.661001635715365E-003;
2.417000000000000E+009;1.770494133234024E-001;-6.055864319205284E-002;5.834623589180410E-004;-2.547757700085640E-003;
2.417166666666667E+009;1.766244620084763E-001;-6.063098087906838E-002;3.517550940159708E-004;-2.608612412586808E-003;
2.417333333333334E+009;1.761362552642822E-001;-6.070899218320847E-002;4.212276544421911E-004;-2.618036698549986E-003;
2.417500000000000E+009;1.753726750612259E-001;-6.122517958283424E-002;2.686742227524519E-004;-2.639425452798605E-003;
2.417666666666667E+009;1.749309599399567E-001;-6.115824729204178E-002;4.823942726943642E-004;-2.540715504437685E-003;
2.417833333333334E+009;1.739827841520309E-001;-6.154287606477737E-002;1.755873818183318E-004;-2.420595148578286E-003;
2.418000000000000E+009;1.729719638824463E-001;-6.186937168240547E-002;2.570161304902285E-004;-2.340270904824138E-003;
2.418166666666667E+009;1.721000671386719E-001;-6.197154894471169E-002;7.971051672939211E-005;-2.494449261575937E-003;
2.418333333333334E+009;1.713060885667801E-001;-6.245292350649834E-002;1.826476509450004E-004;-2.497547771781683E-003;
2.418500000000000E+009;1.701545715332031E-001;-6.276501715183258E-002;2.941360289696604E-004;-2.372165443375707E-003;
2.418666666666667E+009;1.690911501646042E-001;-6.329622864723206E-002;1.763623185979668E-005;-2.383367158472538E-003;
2.418833333333334E+009;1.677309125661850E-001;-6.387206912040710E-002;-1.039147173287347E-004;-2.354821423068643E-003;
2.419000000000000E+009;1.665472090244293E-001;-6.441536545753479E-002;-7.845730578992516E-005;-2.358952770009637E-003;
2.419166666666667E+009;1.653515100479126E-001;-6.515961885452271E-002;3.325592479086481E-005;-2.344750566408038E-003;
2.419333333333334E+009;1.640585064888001E-001;-6.559556722640991E-002;3.537251541274600E-005;-2.447686856612563E-003;
2.419500000000000E+009;1.628408432006836E-001;-6.651411205530167E-002;-3.842732257908210E-005;-2.457923954352737E-003;
2.419666666666667E+009;1.617926806211472E-001;-6.749445945024490E-002;-9.843993029789999E-005;-2.314414363354445E-003;
2.419833333333334E+009;1.605184972286224E-001;-6.840368360280991E-002;-7.502932567149401E-005;-2.302733249962330E-003;
2.420000000000000E+009;1.593869328498840E-001;-6.938875466585159E-002;-2.558153064455837E-004;-2.332106931135058E-003;
2.420166666666667E+009;1.583296209573746E-001;-7.048106193542481E-002;-3.232285671401769E-004;-2.260688692331314E-003;
2.420333333333334E+009;1.572317630052567E-001;-7.185851782560349E-002;-1.830487890401855E-004;-2.356241922825575E-003;
2.420500000000000E+009;1.561415046453476E-001;-7.289204746484757E-002;-2.564462192822248E-004;-2.392950002104044E-003;
2.420666666666667E+009;1.551171839237213E-001;-7.429523766040802E-002;-3.702896356116980E-004;-2.317870501428843E-003;
2.420833333333334E+009;1.542743295431137E-001;-7.578942179679871E-002;-4.304806934669614E-004;-2.337714657187462E-003;
2.421000000000000E+009;1.533713042736054E-001;-7.730609923601151E-002;-4.318302089814097E-004;-2.383704762905836E-003;
2.421166666666667E+009;1.527350097894669E-001;-7.870060950517654E-002;-5.581211880780757E-004;-2.359278267249465E-003;
2.421333333333334E+009;1.520465314388275E-001;-8.034277707338333E-002;-5.132160149514675E-004;-2.366607775911689E-003;
2.421500000000000E+009;1.513374596834183E-001;-8.191464841365814E-002;-6.193368462845683E-004;-2.468773862347007E-003;
2.421666666666667E+009;1.507773250341415E-001;-8.349142968654633E-002;-7.712089573033154E-004;-2.438454655930400E-003;
2.421833333333334E+009;1.505320966243744E-001;-8.517742156982422E-002;-8.776170434430242E-004;-2.395436866208911E-003;
2.422000000000000E+009;1.500028967857361E-001;-8.697489649057388E-002;-8.724568178877235E-004;-2.462944248691201E-003;
2.422166666666667E+009;1.496250480413437E-001;-8.869840204715729E-002;-9.390488849021494E-004;-2.549635479226708E-003;
2.422333333333334E+009;1.497355252504349E-001;-9.026709944009781E-002;-1.088195014744997E-003;-2.444735495373607E-003;
2.422500000000000E+009;1.494151502847672E-001;-9.200765937566757E-002;-1.114260638132691E-003;-2.394871786236763E-003;
2.422666666666667E+009;1.494005322456360E-001;-9.380166977643967E-002;-1.145237358286977E-003;-2.340095117688179E-003;
2.422833333333334E+009;1.496296226978302E-001;-9.559553861618042E-002;-1.356795895844698E-003;-2.431871602311730E-003;
2.423000000000000E+009;1.497606635093689E-001;-9.719751775264740E-002;-1.356890774331987E-003;-2.411667490378022E-003;
2.423166666666667E+009;1.499856412410736E-001;-9.901008009910584E-002;-1.627983292564750E-003;-2.251771045848727E-003;
2.423333333333334E+009;1.503514796495438E-001;-1.004419997334480E-001;-1.688447431661189E-003;-2.251999918371439E-003;
2.423500000000000E+009;1.506748050451279E-001;-1.020716726779938E-001;-1.695472281426191E-003;-2.247387776151300E-003;
2.423666666666667E+009;1.510036140680313E-001;-1.035560443997383E-001;-1.848199521191418E-003;-1.952950260601938E-003;
2.423833333333334E+009;1.514260768890381E-001;-1.050670668482781E-001;-2.006676280871034E-003;-1.805268810130656E-003;
2.424000000000000E+009;1.518167257308960E-001;-1.062747910618782E-001;-2.043619286268950E-003;-1.982628833502531E-003;
2.424166666666667E+009;1.522765904664993E-001;-1.076638922095299E-001;-2.029390539973974E-003;-1.963984919711947E-003;
2.424333333333334E+009;1.528228074312210E-001;-1.088639125227928E-001;-2.295590937137604E-003;-1.766350585967302E-003;
2.424500000000000E+009;1.532848775386810E-001;-1.100542545318604E-001;-2.293751109391451E-003;-1.482962397858501E-003;
2.424666666666667E+009;1.540071070194244E-001;-1.109576001763344E-001;-2.226231386885047E-003;-1.624316326342523E-003;
2.424833333333334E+009;1.542851328849793E-001;-1.121485680341721E-001;-2.344670239835978E-003;-1.393069629557431E-003;
2.425000000000000E+009;1.547353565692902E-001;-1.130370423197746E-001;-2.347848843783140E-003;-1.359680783934891E-003;
2.425166666666667E+009;1.551391184329987E-001;-1.138027235865593E-001;-2.479329705238342E-003;-1.024493249133229E-003;
2.425333333333334E+009;1.555216163396835E-001;-1.145786270499229E-001;-2.369327470660210E-003;-1.044253585860133E-003;
2.425500000000000E+009;1.559900343418121E-001;-1.153417006134987E-001;-2.395389601588249E-003;-8.262304472737014E-004;
2.425666666666667E+009;1.562460064888001E-001;-1.158956587314606E-001;-2.405290724709630E-003;-8.109858026728034E-004;
2.425833333333334E+009;1.566434949636459E-001;-1.163932085037231E-001;-2.486787969246507E-003;-5.928045138716698E-004;
2.426000000000000E+009;1.566433161497116E-001;-1.169078126549721E-001;-2.504976233467460E-003;-2.846203278750181E-004;
2.426166666666667E+009;1.569331884384155E-001;-1.172520592808723E-001;-2.335807075724006E-003;-3.610069397836924E-004;
2.426333333333334E+009;1.568819731473923E-001;-1.175137087702751E-001;-2.298188395798206E-003;-1.888241240521893E-004;
2.426500000000000E+009;1.569212377071381E-001;-1.177687123417854E-001;-2.343928208574653E-003;-2.725062076933682E-004;
2.426666666666667E+009;1.569830775260925E-001;-1.179066076874733E-001;-2.165761077776551E-003;-2.718730538617820E-004;
2.426833333333334E+009;1.567131280899048E-001;-1.181636899709702E-001;-2.118523465469480E-003;-5.394781692302786E-005;
2.427000000000000E+009;1.563903242349625E-001;-1.184614077210426E-001;-2.108066342771053E-003;9.444828174309805E-005;
2.427166666666667E+009;1.559589058160782E-001;-1.183373704552651E-001;-2.048036083579063E-003;8.038249507080764E-005;
2.427333333333334E+009;1.554621756076813E-001;-1.184527650475502E-001;-2.057459903880954E-003;2.249564131489024E-004;
2.427500000000000E+009;1.550285667181015E-001;-1.186759620904923E-001;-1.897565205581486E-003;2.010283787967637E-004;
2.427666666666667E+009;1.542596518993378E-001;-1.186913624405861E-001;-1.956902910023928E-003;2.915704972110689E-004;
