# Version 1.00
#
freq[Hz];re:Trc1_S11;im:Trc1_S11;re:Trc2_S21;im:Trc2_S21;
2.400000000000000E+009;1.571172028779984E-001;6.300452351570129E-002;-3.530869726091623E-003;4.709877073764801E-003;
2.400166666666667E+009;1.570193767547607E-001;6.127489358186722E-002;-3.312514163553715E-003;4.909413401037455E-003;
2.400333333333334E+009;1.569343209266663E-001;5.927433446049690E-002;-3.232239512726665E-003;4.812428727746010E-003;
2.400500000000000E+009;1.570313870906830E-001;5.742026865482330E-002;-2.962097059935331E-003;4.975882824510336E-003;
2.400666666666667E+009;1.567120552062988E-001;5.524165555834770E-002;-2.646822016686201E-003;5.235853604972363E-003;
2.400833333333334E+009;1.570282727479935E-001;5.348113179206848E-002;-2.585850656032562E-003;5.005872808396816E-003;
2.401000000000000E+009;1.570428311824799E-001;5.122086033225060E-002;-2.491463208571076E-003;5.263600964099169E-003;
2.401166666666667E+009;1.571574360132217E-001;4.902488738298416E-002;-2.195061417296529E-003;5.301919300109148E-003;
2.401333333333334E+009;1.572650223970413E-001;4.701958596706390E-002;-1.955989515408874E-003;5.379665177315474E-003;
2.401500000000000E+009;1.577570587396622E-001;4.492484033107758E-002;-1.671951962634921E-003;5.468712188303471E-003;
2.401666666666667E+009;1.579688042402268E-001;4.297703877091408E-002;-1.508417772129178E-003;5.623103119432926E-003;
2.401833333333334E+009;1.584701687097549E-001;4.076799377799034E-002;-1.304707140661776E-003;5.290830507874489E-003;
2.402000000000000E+009;1.588900685310364E-001;3.883211687207222E-002;-1.377154025249183E-003;5.539098754525185E-003;
2.402166666666667E+009;1.594360917806625E-001;3.688756749033928E-002;-9.015098330564797E-004;5.504884291440249E-003;
2.402333333333334E+009;1.599568277597427E-001;3.493160754442215E-002;-7.232770440168679E-004;5.515067838132381E-003;
2.402500000000000E+009;1.609426736831665E-001;3.315477818250656E-002;-4.761329328175634E-004;5.474170204252005E-003;
2.402666666666667E+009;1.616267412900925E-001;3.143170475959778E-002;-2.585736219771206E-004;5.648929625749588E-003;
2.402833333333334E+009;1.624011099338532E-001;2.969251200556755E-002;4.987840657122433E-005;5.652099847793579E-003;
2.403000000000000E+009;1.633899956941605E-001;2.818147279322147E-002;1.073872990673408E-004;5.519340746104717E-003;
2.403166666666667E+009;1.641732007265091E-001;2.668477408587933E-002;2.908332098741084E-004;5.480756051838398E-003;
2.403333333333334E+009;1.651720851659775E-001;2.515222504734993E-002;2.590061631053686E-004;5.408372264355421E-003;
2.403500000000000E+009;1.660191565752029E-001;2.378566190600395E-002;7.463683723472059E-004;5.431221332401037E-003;
2.403666666666667E+009;1.670887768268585E-001;2.225013077259064E-002;1.050416496582329E-003;5.402209237217903E-003;
2.403833333333334E+009;1.682670712471008E-001;2.096648514270783E-002;1.214916352182627E-003;5.390880163758993E-003;
2.404000000000000E+009;1.691325008869171E-001;1.992586441338062E-002;1.486143679358065E-003;5.313809961080551E-003;
2.404166666666667E+009;1.702512353658676E-001;1.888556592166424E-002;1.560824224725366E-003;5.021000280976296E-003;
2.404333333333334E+009;1.712787896394730E-001;1.787600852549076E-002;1.868835184723139E-003;4.997130949050188E-003;
2.404500000000000E+009;1.720537543296814E-001;1.678618043661118E-002;1.810517045669258E-003;4.941354040056467E-003;
2.404666666666667E+009;1.731927245855331E-001;1.629843562841415E-002;2.124232240021229E-003;4.819544497877359E-003;
2.404833333333334E+009;1.740180850028992E-001;1.539199333637953E-002;2.341620158404112E-003;4.782652016729116E-003;
2.405000000000000E+009;1.748825907707214E-001;1.466613356024027E-002;2.511469647288322E-003;4.572057630866766E-003;
2.405166666666667E+009;1.757367104291916E-001;1.404371485114098E-002;2.530971542000771E-003;4.416004754602909E-003;
2.405333333333334E+009;1.768125444650650E-001;1.350278593599796E-002;2.667230321094394E-003;4.301211331039667E-003;
2.405500000000000E+009;1.775849312543869E-001;1.316685788333416E-002;2.984080230817199E-003;4.178205039352179E-003;
2.405666666666667E+009;1.780728101730347E-001;1.269208081066608E-002;3.058823524042964E-003;4.128889646381140E-003;
2.405833333333334E+009;1.786456257104874E-001;1.240708213299513E-002;3.094281069934368E-003;3.960781730711460E-003;
2.406000000000000E+009;1.792910844087601E-001;1.199549436569214E-002;3.349477425217629E-003;3.674925304949284E-003;
2.406166666666667E+009;1.796715408563614E-001;1.183284446597099E-002;3.420410212129355E-003;3.661230206489563E-003;
2.406333333333334E+009;1.801076233386993E-001;1.153502240777016E-002;3.542192745953798E-003;3.501807805150747E-003;
2.406500000000000E+009;1.804784685373306E-001;1.126136351376772E-002;3.634420223534107E-003;3.372793551534414E-003;
2.406666666666667E+009;1.804632693529129E-001;1.100442372262478E-002;3.677343484014273E-003;3.093118546530604E-003;
2.406833333333334E+009;1.808386892080307E-001;1.061223633587360E-002;3.832003101706505E-003;2.974147209897637E-003;
2.407000000000000E+009;1.809729188680649E-001;1.037518586963415E-002;3.854907350614667E-003;2.708730986341834E-003;
2.407166666666667E+009;1.810370832681656E-001;1.013349089771509E-002;3.879476105794311E-003;2.702526748180389E-003;
2.407333333333334E+009;1.806880980730057E-001;9.600253775715828E-003;4.022232256829739E-003;2.648232737556100E-003;
2.407500000000000E+009;1.805249005556107E-001;9.318029507994652E-003;3.871789667755365E-003;2.298825886100531E-003;
2.407666666666667E+009;1.803220510482788E-001;9.093163534998894E-003;3.959480673074722E-003;2.115229610353708E-003;
2.407833333333334E+009;1.798273324966431E-001;8.386565372347832E-003;3.955641761422157E-003;1.922002877108753E-003;
2.408000000000000E+009;1.795600354671478E-001;7.723030634224415E-003;4.078472033143044E-003;1.717867096886039E-003;
2.408166666666667E+009;1.791160106658936E-001;7.183475885540247E-003;4.170889966189861E-003;1.642153831198812E-003;
2.408333333333334E+009;1.787229180335999E-001;6.434988696128130E-003;4.120746161788702E-003;1.518398523330689E-003;
2.408500000000000E+009;1.779906898736954E-001;5.590695887804031E-003;4.173730034381151E-003;1.443553483113647E-003;
2.408666666666667E+009;1.773818433284760E-001;4.742012824863195E-003;4.206803627312183E-003;1.177735161036253E-003;
2.408833333333334E+009;1.767674833536148E-001;3.737742546945810E-003;4.148956388235092E-003;9.283953695558012E-004;
2.409000000000000E+009;1.760251969099045E-001;2.881897147744894E-003;4.160615615546703E-003;1.017013448290527E-003;
2.409166666666667E+009;1.753420382738113E-001;1.611105632036924E-003;4.169545136392117E-003;8.052616612985730E-004;
2.409333333333334E+009;1.746620237827301E-001;3.372733481228352E-004;4.043482709676027E-003;7.557512726634741E-004;
2.409500000000000E+009;1.739889532327652E-001;-1.170804142020643E-003;4.056826233863831E-003;5.784399691037834E-004;
2.409666666666667E+009;1.731579005718231E-001;-2.535084728151560E-003;4.096522461622953E-003;3.945823409594595E-004;
2.409833333333334E+009;1.724461615085602E-001;-3.731374861672521E-003;4.027371760457754E-003;2.317525650141761E-004;
2.410000000000000E+009;1.718637496232987E-001;-5.279149860143662E-003;4.142364021390677E-003;2.074858784908429E-004;
2.410166666666667E+009;1.712837368249893E-001;-6.963502615690231E-003;4.021662753075361E-003;1.215854426845908E-004;
2.410333333333334E+009;1.705606430768967E-001;-8.737529627978802E-003;4.078112076967955E-003;-4.138372241868638E-005;
2.410500000000000E+009;1.701348721981049E-001;-1.047697011381388E-002;4.105452913790941E-003;-1.299131399719045E-004;
2.410666666666667E+009;1.695608794689179E-001;-1.246596220880747E-002;3.970464225858450E-003;-3.231259179301560E-004;
2.410833333333334E+009;1.691152155399323E-001;-1.419990230351687E-002;4.003779031336308E-003;-4.641801642719656E-004;
2.411000000000000E+009;1.689719557762146E-001;-1.609404571354389E-002;3.882686607539654E-003;-5.548259941861033E-004;
2.411166666666667E+009;1.683192700147629E-001;-1.811260171234608E-002;3.852273337543011E-003;-5.588670028373599E-004;
2.411333333333334E+009;1.680951863527298E-001;-1.990899071097374E-002;3.880060045048595E-003;-8.866002899594605E-004;
2.411500000000000E+009;1.678546220064163E-001;-2.194632962346077E-002;3.940323833376169E-003;-8.812506566755474E-004;
2.411666666666667E+009;1.679439991712570E-001;-2.421576716005802E-002;3.821797436103225E-003;-1.059948699548841E-003;
2.411833333333334E+009;1.678769439458847E-001;-2.598010376095772E-002;3.712097648531199E-003;-1.150444732047617E-003;
2.412000000000000E+009;1.680503636598587E-001;-2.820852957665920E-002;3.688112134113908E-003;-1.214424730278552E-003;
2.412166666666667E+009;1.679038256406784E-001;-3.005659393966198E-002;3.695200895890594E-003;-1.425424125045538E-003;
2.412333333333334E+009;1.682642251253128E-001;-3.178007900714874E-002;3.640337148681283E-003;-1.458911108784378E-003;
2.412500000000000E+009;1.683294624090195E-001;-3.359702602028847E-002;3.516383469104767E-003;-1.713122823275626E-003;
2.412666666666667E+009;1.686686575412750E-001;-3.590755164623261E-002;3.387389937415719E-003;-1.631431048735976E-003;
2.412833333333334E+009;1.691091656684876E-001;-3.770077973604202E-002;3.386003430932760E-003;-1.998730236664414E-003;
2.413000000000000E+009;1.695164293050766E-001;-3.945421427488327E-002;3.384665120393038E-003;-2.002507913857698E-003;
2.413166666666667E+009;1.699919849634171E-001;-4.120788350701332E-002;2.978180767968297E-003;-2.235533902421594E-003;
2.413333333333334E+009;1.704259067773819E-001;-4.292000457644463E-002;3.059007925912738E-003;-2.215041313320398E-003;
2.413500000000000E+009;1.710147857666016E-001;-4.449867457151413E-002;2.892499789595604E-003;-2.365317428484559E-003;
2.413666666666667E+009;1.716617792844772E-001;-4.593506455421448E-002;2.816238673403859E-003;-2.455556765198708E-003;
2.413833333333334E+009;1.722360998392105E-001;-4.766003414988518E-002;2.622121712192893E-003;-2.602905733510852E-003;
2.414000000000000E+009;1.726803183555603E-001;-4.905915632843971E-002;2.364846644923091E-003;-2.730105537921190E-003;
2.414166666666667E+009;1.734344065189362E-001;-5.044427886605263E-002;2.345278859138489E-003;-2.582960296422243E-003;
2.414333333333334E+009;1.738770604133606E-001;-5.157317966222763E-002;2.272131154313684E-003;-2.772615291178227E-003;
2.414500000000000E+009;1.746640652418137E-001;-5.257211998105049E-002;2.188201993703842E-003;-2.753941575065255E-003;
2.414666666666667E+009;1.750353276729584E-001;-5.365655943751335E-002;1.956884982064366E-003;-2.754214452579618E-003;
2.414833333333334E+009;1.756061762571335E-001;-5.462609976530075E-002;1.806168002076447E-003;-2.840314758941531E-003;
2.415000000000000E+009;1.760343760251999E-001;-5.554320663213730E-002;1.636485918425024E-003;-2.873993478715420E-003;
2.415166666666667E+009;1.765807420015335E-001;-5.618973821401596E-002;1.547378604300320E-003;-2.860814100131393E-003;
2.415333333333334E+009;1.771382689476013E-001;-5.699788779020309E-002;1.525020808912814E-003;-2.903675194829702E-003;
2.415500000000000E+009;1.774457842111588E-001;-5.755269527435303E-002;1.344976015388966E-003;-2.802893286570907E-003;
2.415666666666667E+009;1.776316910982132E-001;-5.792686343193054E-002;1.138851395808160E-003;-2.891071140766144E-003;
2.415833333333334E+009;1.779913157224655E-001;-5.851471796631813E-002;1.108300872147083E-003;-2.827533287927508E-003;
2.416000000000000E+009;1.779648065567017E-001;-5.886507406830788E-002;1.028114813379943E-003;-3.002885030582547E-003;
2.416166666666667E+009;1.782703846693039E-001;-5.917816981673241E-002;8.609257638454437E-004;-2.836547559127212E-003;
2.416333333333334E+009;1.781043112277985E-001;-5.943532288074493E-002;7.795282290317118E-004;-2.838836051523686E-003;
2.416500000000000E+009;1.779718846082687E-001;-5.984526872634888E-002;7.850746042095125E-004;-2.787990961223841E-003;
2.416666666666667E+009;1.778152137994766E-001;-5.997421219944954E-002;6.353096105158329E-004;-2.856223378330469E-003;
2.416833333333334E+009;1.776684224605560E-001;-6.033401191234589E-002;4.596656362991780E-004;-2.698017749935389E-003;
2.417000000000000E+009;1.771993339061737E-001;-6.052034348249435E-002;4.829360987059772E-004;-2.682678168639541E-003;
2.417166666666667E+009;1.766425073146820E-001;-6.050749868154526E-002;2.925339213106781E-004;-2.660497324541211E-003;
2.417333333333334E+009;1.762191802263260E-001;-6.075659021735191E-002;3.783319552894682E-004;-2.588495844975114E-003;
2.417500000000000E+009;1.754865944385529E-001;-6.111846119165421E-002;2.727548417169601E-004;-2.560433931648731E-003;
2.417666666666667E+009;1.748294234275818E-001;-6.112748757004738E-002;1.836126612033695E-004;-2.426824765279889E-003;
2.417833333333334E+009;1.740678846836090E-001;-6.136306375265122E-002;1.492943847551942E-004;-2.427951898425818E-003;
2.418000000000000E+009;1.730694770812988E-001;-6.174302846193314E-002;5.998299820930697E-005;-2.509287558495998E-003;
2.418166666666667E+009;1.721257120370865E-001;-6.199019774794579E-002;1.663122966419905E-004;-2.370654838159680E-003;
2.418333333333334E+009;1.713888943195343E-001;-6.249238923192024E-002;-1.041215341501811E-006;-2.385552739724517E-003;
2.418500000000000E+009;1.701070219278336E-001;-6.274017691612244E-002;-8.124549640342593E-005;-2.418004209175706E-003;
2.418666666666667E+009;1.691848039627075E-001;-6.321302801370621E-002;-1.265621449419996E-005;-2.272882265970111E-003;
2.418833333333334E+009;1.678913831710815E-001;-6.377091258764267E-002;2.123061130987480E-005;-2.186340047046542E-003;
2.419000000000000E+009;1.665262579917908E-001;-6.437928229570389E-002;-9.412097278982401E-005;-2.231101738288999E-003;
2.419166666666667E+009;1.654621958732605E-001;-6.507021933794022E-002;3.823296026439493E-007;-2.400428289547563E-003;
2.419333333333334E+009;1.639896631240845E-001;-6.550188362598419E-002;-1.364484342047945E-004;-2.210752340033650E-003;
2.419500000000000E+009;1.629862934350967E-001;-6.652610749006271E-002;-6.612853758269921E-005;-2.384597202762961E-003;
2.419666666666667E+009;1.618390232324600E-001;-6.749654561281204E-002;-7.324666512431577E-005;-2.293983940035105E-003;
2.419833333333334E+009;1.605139076709747E-001;-6.835126876831055E-002;-2.672534901648760E-004;-2.292587887495756E-003;
2.420000000000000E+009;1.593808531761169E-001;-6.940360367298126E-002;-6.919461156940088E-005;-2.378000877797604E-003;
2.420166666666667E+009;1.581683307886124E-001;-7.057392597198486E-002;-2.420990203972906E-004;-2.344527514651418E-003;
2.420333333333334E+009;1.572710126638413E-001;-7.188546657562256E-002;-1.462479995097965E-004;-2.274290425702930E-003;
2.420500000000000E+009;1.563439369201660E-001;-7.282913476228714E-002;-2.755153982434422E-004;-2.385197440162301E-003;
2.420666666666667E+009;1.551409214735031E-001;-7.414572685956955E-002;-3.450572839938104E-004;-2.270864788442850E-003;
2.420833333333334E+009;1.542329043149948E-001;-7.576560974121094E-002;-2.941602433566004E-004;-2.382829086855054E-003;
2.421000000000000E+009;1.531675010919571E-001;-7.725710421800613E-002;-4.671204078476876E-004;-2.348304493352771E-003;
2.421166666666667E+009;1.525759696960449E-001;-7.872553914785385E-002;-6.237979978322983E-004;-2.451345557346940E-003;
2.421333333333334E+009;1.518975347280502E-001;-8.037080615758896E-002;-4.994826740585268E-004;-2.426589140668511E-003;
2.421500000000000E+009;1.514103412628174E-001;-8.180212229490280E-002;-5.282982019707561E-004;-2.412465633824468E-003;
2.421666666666667E+009;1.509681344032288E-001;-8.357883244752884E-002;-5.866884603165090E-004;-2.522063674405217E-003;
2.421833333333334E+009;1.505169272422791E-001;-8.518628776073456E-002;-7.284134044311941E-004;-2.401106990873814E-003;
2.422000000000000E+009;1.500119715929031E-001;-8.691018819808960E-002;-8.625833434052765E-004;-2.425512298941612E-003;
2.422166666666667E+009;1.497705578804016E-001;-8.887732774019241E-002;-7.359212613664568E-004;-2.549042459577322E-003;
2.422333333333334E+009;1.495072245597839E-001;-9.030123800039291E-002;-8.522262214682996E-004;-2.249533543363214E-003;
2.422500000000000E+009;1.495151817798615E-001;-9.210383147001267E-002;-1.059067086316645E-003;-2.418822376057506E-003;
2.422666666666667E+009;1.494562327861786E-001;-9.401719272136688E-002;-1.254233415238559E-003;-2.510002115741372E-003;
2.422833333333334E+009;1.496423482894898E-001;-9.543871879577637E-002;-1.202014973387122E-003;-2.355301752686501E-003;
2.423000000000000E+009;1.497633308172226E-001;-9.727508574724197E-002;-1.495951437391341E-003;-2.340598497539759E-003;
2.423166666666667E+009;1.500656902790070E-001;-9.888348728418350E-002;-1.484346226789057E-003;-2.260123379528523E-003;
2.423333333333334E+009;1.503486484289169E-001;-1.002857089042664E-001;-1.745548215694726E-003;-2.078484743833542E-003;
2.423500000000000E+009;1.505243480205536E-001;-1.019022688269615E-001;-1.688402844592929E-003;-2.090306021273136E-003;
2.423666666666667E+009;1.507742553949356E-001;-1.035710871219635E-001;-1.849705120548606E-003;-2.082149963825941E-003;
2.423833333333334E+009;1.514472514390945E-001;-1.050474420189858E-001;-1.882626442238689E-003;-1.940844580531120E-003;
2.424000000000000E+009;1.517445594072342E-001;-1.062047183513641E-001;-2.035075332969427E-003;-1.903222175315023E-003;
2.424166666666667E+009;1.522200256586075E-001;-1.076927110552788E-001;-2.220712136477232E-003;-1.835419214330614E-003;
2.424333333333334E+009;1.526979207992554E-001;-1.087475195527077E-001;-2.190213184803724E-003;-1.740174484439194E-003;
2.424500000000000E+009;1.532905250787735E-001;-1.100022867321968E-001;-2.196284243836999E-003;-1.508498098701239E-003;
2.424666666666667E+009;1.541036218404770E-001;-1.111082285642624E-001;-2.344049513339996E-003;-1.445585046894848E-003;
2.424833333333334E+009;1.542787998914719E-001;-1.119409203529358E-001;-2.355593722313643E-003;-1.291865948587656E-003;
2.425000000000000E+009;1.548445522785187E-001;-1.129106655716896E-001;-2.329280367121100E-003;-1.248879125341773E-003;
2.425166666666667E+009;1.550726890563965E-001;-1.138066425919533E-001;-2.416901057586074E-003;-1.031222869642079E-003;
2.425333333333334E+009;1.556262820959091E-001;-1.145558282732964E-001;-2.349782036617398E-003;-8.821908850222826E-004;
2.425500000000000E+009;1.561073958873749E-001;-1.152797937393189E-001;-2.587959403172135E-003;-8.171811350621283E-004;
2.425666666666667E+009;1.562110036611557E-001;-1.158058345317841E-001;-2.388499910011888E-003;-5.715361330658197E-004;
2.425833333333334E+009;1.564716696739197E-001;-1.163939014077187E-001;-2.322999527677894E-003;-4.580347449518740E-004;
2.426000000000000E+009;1.566588878631592E-001;-1.169049963355064E-001;-2.249006181955338E-003;-4.908706177957356E-004;
2.426166666666667E+009;1.569529920816422E-001;-1.172423735260963E-001;-2.350114984437823E-003;-4.556751227937639E-004;
2.426333333333334E+009;1.569358557462692E-001;-1.176055073738098E-001;-2.308372873812914E-003;-2.522306749597192E-004;
2.426500000000000E+009;1.569533944129944E-001;-1.178219392895699E-001;-2.204830525442958E-003;-1.647405006224290E-004;
2.426666666666667E+009;1.569251567125320E-001;-1.179617121815682E-001;-2.130733337253332E-003;-1.583000557729974E-004;
2.426833333333334E+009;1.567276865243912E-001;-1.180908307433128E-001;-2.054295036941767E-003;-6.867360934847966E-005;
2.427000000000000E+009;1.564060747623444E-001;-1.183347478508949E-001;-2.176834503188729E-003;2.941432103398256E-005;
2.427166666666667E+009;1.560009419918060E-001;-1.183298304677010E-001;-1.965214498341084E-003;2.133524867531378E-005;
2.427333333333334E+009;1.554615497589111E-001;-1.185745894908905E-001;-1.961821457371116E-003;-1.513259940111311E-005;
2.427500000000000E+009;1.550733149051666E-001;-1.186427697539330E-001;-1.779740443453193E-003;1.495308242738247E-004;
2.427666666666667E+009;1.543191373348236E-001;-1.186676174402237E-001;-1.862165285274386E-003;1.815443829400465E-004;
