# Version 1.00
#
freq[Hz];re:Trc1_S11;im:Trc1_S11;re:Trc2_S21;im:Trc2_S21;
2.400000000000000E+009;1.571179777383804E-001;6.294833868741989E-002;-3.532759845256805E-003;4.687265027314425E-003;
2.400166666666667E+009;1.569707393646240E-001;6.140208616852760E-002;-3.404282731935382E-003;4.768405575305224E-003;
2.400333333333334E+009;1.568029969930649E-001;5.937252566218376E-002;-3.038750961422920E-003;4.904889501631260E-003;
2.400500000000000E+009;1.568088382482529E-001;5.729731172323227E-002;-2.927649067714810E-003;4.969879053533077E-003;
2.400666666666667E+009;1.566924750804901E-001;5.536027625203133E-002;-2.730100648477674E-003;5.065680481493473E-003;
2.400833333333334E+009;1.568534076213837E-001;5.340324714779854E-002;-2.434574766084552E-003;5.171061027795076E-003;
2.401000000000000E+009;1.569312959909439E-001;5.126964300870895E-002;-2.393174916505814E-003;5.235031712800264E-003;
2.401166666666667E+009;1.571065336465836E-001;4.917732998728752E-002;-2.251120749861002E-003;5.229852627962828E-003;
2.401333333333334E+009;1.571395248174667E-001;4.708926379680634E-002;-1.947514596395195E-003;5.366926547139883E-003;
2.401500000000000E+009;1.576514095067978E-001;4.494119435548782E-002;-1.703336951322854E-003;5.268496461212635E-003;
2.401666666666667E+009;1.582823395729065E-001;4.317194595932961E-002;-1.604586257599294E-003;5.522600375115871E-003;
2.401833333333334E+009;1.584262102842331E-001;4.101312905550003E-002;-1.431455253623426E-003;5.527437664568424E-003;
2.402000000000000E+009;1.588529795408249E-001;3.881258144974709E-002;-1.187686342746019E-003;5.486321169883013E-003;
2.402166666666667E+009;1.595090478658676E-001;3.671376779675484E-002;-1.031024265103042E-003;5.603620782494545E-003;
2.402333333333334E+009;1.600700318813324E-001;3.494843840599060E-002;-7.111792219802737E-004;5.651439074426889E-003;
2.402500000000000E+009;1.608495861291885E-001;3.327033668756485E-002;-4.883634974248707E-004;5.607867613434792E-003;
2.402666666666667E+009;1.616263538599014E-001;3.142102062702179E-002;-4.226805467624217E-004;5.626718513667584E-003;
2.402833333333334E+009;1.624340265989304E-001;2.981320954859257E-002;-1.132921606767923E-004;5.510164424777031E-003;
2.403000000000000E+009;1.632224470376968E-001;2.808112464845181E-002;1.343826988886576E-005;5.613929592072964E-003;
2.403166666666667E+009;1.640780270099640E-001;2.649782225489616E-002;4.096178454346955E-004;5.545692518353462E-003;
2.403333333333334E+009;1.651898622512817E-001;2.507073432207108E-002;6.311265751719475E-004;5.458781495690346E-003;
2.403500000000000E+009;1.661051809787750E-001;2.375312522053719E-002;8.165705366991460E-004;5.561564117670059E-003;
2.403666666666667E+009;1.671492904424667E-001;2.230189368128777E-002;1.020348398014903E-003;5.376658402383328E-003;
2.403833333333334E+009;1.682583242654800E-001;2.110691927373409E-002;1.200142083689570E-003;5.405862350016832E-003;
2.404000000000000E+009;1.691820472478867E-001;1.977283507585526E-002;1.381101435981691E-003;5.231334827840328E-003;
2.404166666666667E+009;1.701747030019760E-001;1.869962364435196E-002;1.613442087545991E-003;5.190948490053415E-003;
2.404333333333334E+009;1.712696105241776E-001;1.795893162488937E-002;1.687405048869550E-003;4.976423457264900E-003;
2.404500000000000E+009;1.720482707023621E-001;1.685604825615883E-002;1.925108488649130E-003;4.900555592030287E-003;
2.404666666666667E+009;1.731269508600235E-001;1.618024520576000E-002;2.248581498861313E-003;4.810290876775980E-003;
2.404833333333334E+009;1.740733832120895E-001;1.540737599134445E-002;2.339168684557080E-003;4.817999433726072E-003;
2.405000000000000E+009;1.749583929777145E-001;1.473173871636391E-002;2.542338799685240E-003;4.564076196402311E-003;
2.405166666666667E+009;1.758714467287064E-001;1.401960197836161E-002;2.582006156444550E-003;4.434291739016771E-003;
2.405333333333334E+009;1.768677979707718E-001;1.340510044246912E-002;2.866640686988831E-003;4.249332007020712E-003;
2.405500000000000E+009;1.773997098207474E-001;1.320630684494972E-002;2.860232489183545E-003;3.991294186562300E-003;
2.405666666666667E+009;1.780474334955216E-001;1.270451582968235E-002;3.075280925258994E-003;4.094252828508616E-003;
2.405833333333334E+009;1.786281317472458E-001;1.241152733564377E-002;3.197341458871961E-003;3.949925769120455E-003;
2.406000000000000E+009;1.793647557497025E-001;1.205927785485983E-002;3.343523014336824E-003;3.742582630366087E-003;
2.406166666666667E+009;1.796738207340241E-001;1.187066826969385E-002;3.425610018894076E-003;3.616118803620338E-003;
2.406333333333334E+009;1.803164780139923E-001;1.147482078522444E-002;3.544716630131006E-003;3.524068742990494E-003;
2.406500000000000E+009;1.804603040218353E-001;1.119111757725477E-002;3.565018298104405E-003;3.386416705325246E-003;
2.406666666666667E+009;1.805625110864639E-001;1.102416776120663E-002;3.754944074898958E-003;3.158215666189790E-003;
2.406833333333334E+009;1.807374209165573E-001;1.062149368226528E-002;3.773782867938280E-003;2.978953300043941E-003;
2.407000000000000E+009;1.807407736778259E-001;1.040942873805761E-002;3.842033213004470E-003;2.735055517405272E-003;
2.407166666666667E+009;1.808992177248001E-001;1.024997606873512E-002;3.952238708734512E-003;2.727487590163946E-003;
2.407333333333334E+009;1.806739866733551E-001;9.602611884474754E-003;3.941165748983622E-003;2.367923967540264E-003;
2.407500000000000E+009;1.805941164493561E-001;9.318975731730461E-003;4.042551852762699E-003;2.253646729514003E-003;
2.407666666666667E+009;1.803386807441711E-001;9.021413512527943E-003;3.855518531054258E-003;2.162090502679348E-003;
2.407833333333334E+009;1.798303127288818E-001;8.374820463359356E-003;4.097475204616785E-003;1.989912940189242E-003;
2.408000000000000E+009;1.795883178710938E-001;7.750363089144230E-003;4.191550426185131E-003;1.878835959360004E-003;
2.408166666666667E+009;1.790072470903397E-001;7.216781377792358E-003;4.099458921700716E-003;1.598347094841301E-003;
2.408333333333334E+009;1.787047833204269E-001;6.576826330274344E-003;4.072190262377262E-003;1.490815309807658E-003;
2.408500000000000E+009;1.779668182134628E-001;5.660055205225945E-003;4.091090522706509E-003;1.360704540275037E-003;
2.408666666666667E+009;1.774287372827530E-001;4.785570316016674E-003;4.144387785345316E-003;1.268725143745542E-003;
2.408833333333334E+009;1.767866909503937E-001;3.801634535193443E-003;4.184049088507891E-003;1.069944002665579E-003;
2.409000000000000E+009;1.759511083364487E-001;2.777964808046818E-003;4.109403584152460E-003;8.892680052667856E-004;
2.409166666666667E+009;1.754001080989838E-001;1.575109199620783E-003;4.054751247167587E-003;7.114443578757346E-004;
2.409333333333334E+009;1.747001260519028E-001;2.813445753417909E-004;3.968402743339539E-003;7.412002887576819E-004;
2.409500000000000E+009;1.738579869270325E-001;-1.076566404663026E-003;4.096960648894310E-003;5.939063266851008E-004;
2.409666666666667E+009;1.730532050132752E-001;-2.331007970497012E-003;4.026601091027260E-003;5.386106204241514E-004;
2.409833333333334E+009;1.724937260150909E-001;-3.754553617909551E-003;4.016145598143339E-003;3.523596387822181E-004;
2.410000000000000E+009;1.718451380729675E-001;-5.412756465375423E-003;4.032146651297808E-003;8.675948629388586E-005;
2.410166666666667E+009;1.711279004812241E-001;-7.084125187247992E-003;3.971148282289505E-003;5.309769403538667E-005;
2.410333333333334E+009;1.706021577119827E-001;-8.660249412059784E-003;4.031931050121784E-003;-7.097737125150161E-006;
2.410500000000000E+009;1.701714545488358E-001;-1.057183742523193E-002;3.836389863863587E-003;-1.853256690083072E-004;
2.410666666666667E+009;1.694706082344055E-001;-1.229862961918116E-002;4.103317391127348E-003;-3.346142184454948E-004;
2.410833333333334E+009;1.690639257431030E-001;-1.404113881289959E-002;3.847243729978800E-003;-3.815850359387696E-004;
2.411000000000000E+009;1.687620431184769E-001;-1.612335816025734E-002;4.014507867395878E-003;-5.080096307210624E-004;
2.411166666666667E+009;1.684208214282990E-001;-1.819225959479809E-002;3.747086971998215E-003;-5.499931867234409E-004;
2.411333333333334E+009;1.681671440601349E-001;-2.004623226821423E-002;3.836244810372591E-003;-7.632396300323308E-004;
2.411500000000000E+009;1.678644120693207E-001;-2.205581776797772E-002;3.801191924139857E-003;-8.033821359276772E-004;
2.411666666666667E+009;1.677045822143555E-001;-2.400708757340908E-002;3.741426160559058E-003;-8.589635253883898E-004;
2.411833333333334E+009;1.679233312606812E-001;-2.586822584271431E-002;3.634442575275898E-003;-1.044166041538119E-003;
2.412000000000000E+009;1.679382175207138E-001;-2.812982164323330E-002;3.625662298873067E-003;-1.274180482141674E-003;
2.412166666666667E+009;1.679544001817703E-001;-2.997388876974583E-002;3.500228049233556E-003;-1.325970864854753E-003;
2.412333333333334E+009;1.682623475790024E-001;-3.180980682373047E-002;3.522321581840515E-003;-1.346968347206712E-003;
2.412500000000000E+009;1.684519946575165E-001;-3.389288857579231E-002;3.557355143129826E-003;-1.656855805777013E-003;
2.412666666666667E+009;1.688835024833679E-001;-3.578658401966095E-002;3.191850148141384E-003;-1.729793730191886E-003;
2.412833333333334E+009;1.692171543836594E-001;-3.781552612781525E-002;3.263194113969803E-003;-1.908729202114046E-003;
2.413000000000000E+009;1.697246730327606E-001;-3.937609121203423E-002;3.244635649025440E-003;-2.034982899203897E-003;
2.413166666666667E+009;1.700300276279450E-001;-4.127081483602524E-002;3.126916708424687E-003;-2.041318221017718E-003;
2.413333333333334E+009;1.704103052616119E-001;-4.289746657013893E-002;3.117241663858295E-003;-2.229538047686219E-003;
2.413500000000000E+009;1.710501760244370E-001;-4.456942901015282E-002;2.792597515508533E-003;-2.242184942588210E-003;
2.413666666666667E+009;1.716799885034561E-001;-4.618353769183159E-002;2.717262832447887E-003;-2.438096096739173E-003;
2.413833333333334E+009;1.721224188804627E-001;-4.772851988673210E-002;2.705301623791456E-003;-2.544017275795341E-003;
2.414000000000000E+009;1.727203875780106E-001;-4.918061569333077E-002;2.627988811582327E-003;-2.510536462068558E-003;
2.414166666666667E+009;1.733426898717880E-001;-5.027134716510773E-002;2.489811973646283E-003;-2.586831804364920E-003;
2.414333333333334E+009;1.739184111356735E-001;-5.148478969931603E-002;2.231683814898133E-003;-2.680863253772259E-003;
2.414500000000000E+009;1.747444570064545E-001;-5.259886756539345E-002;2.143892226740718E-003;-2.755284542217851E-003;
2.414666666666667E+009;1.750794649124146E-001;-5.365587398409843E-002;2.153232693672180E-003;-2.896338002756238E-003;
2.414833333333334E+009;1.755986511707306E-001;-5.462075397372246E-002;1.757947262376547E-003;-2.864504000172019E-003;
2.415000000000000E+009;1.761185824871063E-001;-5.538688600063324E-002;1.581589458510280E-003;-2.852633362635970E-003;
2.415166666666667E+009;1.765834540128708E-001;-5.617319047451019E-002;1.483338652178645E-003;-2.829116536304355E-003;
2.415333333333334E+009;1.770126670598984E-001;-5.686711147427559E-002;1.344033051282167E-003;-2.900366671383381E-003;
2.415500000000000E+009;1.775257289409638E-001;-5.755434185266495E-002;1.242182217538357E-003;-2.946082036942244E-003;
2.415666666666667E+009;1.776518225669861E-001;-5.793220549821854E-002;1.123810186982155E-003;-2.923822961747646E-003;
2.415833333333334E+009;1.779982298612595E-001;-5.849510058760643E-002;1.014706678688526E-003;-2.693382324650884E-003;
2.416000000000000E+009;1.779182404279709E-001;-5.891305580735207E-002;9.272104362025857E-004;-2.944673411548138E-003;
2.416166666666667E+009;1.783841103315353E-001;-5.917066335678101E-002;7.871176931075752E-004;-2.743787830695510E-003;
2.416333333333334E+009;1.781374365091324E-001;-5.946353450417519E-002;6.320375250652432E-004;-2.789402846246958E-003;
2.416500000000000E+009;1.779876798391342E-001;-5.984491482377052E-002;7.546064443886280E-004;-2.674916991963983E-003;
2.416666666666667E+009;1.778290569782257E-001;-5.989323183894157E-002;5.632385727949441E-004;-2.628321526572108E-003;
2.416833333333334E+009;1.777369976043701E-001;-6.030132621526718E-002;3.932310792151839E-004;-2.691986504942179E-003;
2.417000000000000E+009;1.771112680435181E-001;-6.050170958042145E-002;3.835994284600020E-004;-2.559782937169075E-003;
2.417166666666667E+009;1.767495274543762E-001;-6.050770357251167E-002;3.635202592704445E-004;-2.572478726506233E-003;
2.417333333333334E+009;1.762124150991440E-001;-6.077675148844719E-002;3.351819468662143E-004;-2.395131392404437E-003;
2.417500000000000E+009;1.755317896604538E-001;-6.104636192321777E-002;2.376728371018544E-004;-2.475585788488388E-003;
2.417666666666667E+009;1.748498082160950E-001;-6.117099151015282E-002;2.468875609338284E-004;-2.477420261129737E-003;
2.417833333333334E+009;1.739914864301682E-001;-6.124966219067574E-002;9.135146683547646E-005;-2.320030471310020E-003;
2.418000000000000E+009;1.730758547782898E-001;-6.167925149202347E-002;8.209221414290369E-005;-2.457641763612628E-003;
2.418166666666667E+009;1.720806956291199E-001;-6.193226575851440E-002;-2.690848759812070E-006;-2.504657255485654E-003;
2.418333333333334E+009;1.712409406900406E-001;-6.242984533309937E-002;2.174671099055558E-004;-2.307784510776401E-003;
2.418500000000000E+009;1.702398210763931E-001;-6.276886165142059E-002;5.548471744987182E-005;-2.224941039457917E-003;
2.418666666666667E+009;1.691145449876785E-001;-6.329429149627686E-002;-4.969105430063792E-005;-2.189763821661472E-003;
2.418833333333334E+009;1.677899509668350E-001;-6.372997909784317E-002;-2.870938988053240E-005;-2.193080494180322E-003;
2.419000000000000E+009;1.665583252906799E-001;-6.434245407581329E-002;2.026906877290458E-004;-2.276884391903877E-003;
2.419166666666667E+009;1.653953790664673E-001;-6.503448635339737E-002;4.814903149963357E-005;-2.293734345585108E-003;
2.419333333333334E+009;1.640255451202393E-001;-6.558484584093094E-002;2.077936733257957E-005;-2.141368109732866E-003;
2.419500000000000E+009;1.628811806440353E-001;-6.651704758405685E-002;-8.721436461200938E-005;-2.267424250021577E-003;
2.419666666666667E+009;1.617766171693802E-001;-6.761797517538071E-002;-1.737184502417222E-004;-2.195772249251604E-003;
2.419833333333334E+009;1.604198068380356E-001;-6.832750141620636E-002;-2.430377353448421E-004;-2.212485531345010E-003;
2.420000000000000E+009;1.595555990934372E-001;-6.948147714138031E-002;-2.285915543325245E-004;-2.308219904080033E-003;
2.420166666666667E+009;1.582964658737183E-001;-7.052286714315414E-002;-1.914387830765918E-004;-2.258464228361845E-003;
2.420333333333334E+009;1.571700125932694E-001;-7.186047732830048E-002;-1.872496213763952E-004;-2.342164749279618E-003;
2.420500000000000E+009;1.561253070831299E-001;-7.280857861042023E-002;-3.703404217958450E-004;-2.146626124158502E-003;
2.420666666666667E+009;1.551938951015472E-001;-7.420427352190018E-002;-2.689492830540985E-004;-2.355412114411593E-003;
2.420833333333334E+009;1.542864590883255E-001;-7.577017694711685E-002;-3.238306962884963E-004;-2.206634497269988E-003;
2.421000000000000E+009;1.533600091934204E-001;-7.712256908416748E-002;-4.953967873007059E-004;-2.266878727823496E-003;
2.421166666666667E+009;1.526504307985306E-001;-7.868988066911697E-002;-5.580064607784152E-004;-2.293662633746862E-003;
2.421333333333334E+009;1.520079523324966E-001;-8.035149425268173E-002;-5.575910327024758E-004;-2.415310591459274E-003;
2.421500000000000E+009;1.513458192348480E-001;-8.177597820758820E-002;-5.323641817085445E-004;-2.303642919287086E-003;
2.421666666666667E+009;1.508337408304215E-001;-8.351457118988037E-002;-7.108845165930688E-004;-2.282012486830354E-003;
2.421833333333334E+009;1.503405570983887E-001;-8.520237356424332E-002;-7.022342178970575E-004;-2.322403714060783E-003;
2.422000000000000E+009;1.499874442815781E-001;-8.683739602565765E-002;-8.276585140265524E-004;-2.469181315973401E-003;
2.422166666666667E+009;1.497835665941238E-001;-8.886963129043579E-002;-8.811439620330930E-004;-2.284893067553639E-003;
2.422333333333334E+009;1.495314538478851E-001;-9.035786241292954E-002;-1.048144418746233E-003;-2.467808080837131E-003;
2.422500000000000E+009;1.496644169092178E-001;-9.199240058660507E-002;-9.692944004200399E-004;-2.273466438055039E-003;
2.422666666666667E+009;1.492520719766617E-001;-9.380920976400375E-002;-1.187073765322566E-003;-2.347987145185471E-003;
2.422833333333334E+009;1.495889872312546E-001;-9.560535103082657E-002;-1.352019840851426E-003;-2.066230168566108E-003;
2.423000000000000E+009;1.497023552656174E-001;-9.722618758678436E-002;-1.349897356703877E-003;-2.417400013655424E-003;
2.423166666666667E+009;1.500043421983719E-001;-9.890148788690567E-002;-1.634192303754389E-003;-2.230090089142323E-003;
2.423333333333334E+009;1.504221707582474E-001;-1.002782136201859E-001;-1.795657561160624E-003;-2.280578715726733E-003;
2.423500000000000E+009;1.505680829286575E-001;-1.020905077457428E-001;-1.799530815333128E-003;-2.053791424259543E-003;
2.423666666666667E+009;1.509775668382645E-001;-1.036439090967178E-001;-1.951019163243473E-003;-2.018176950514317E-003;
2.423833333333334E+009;1.514709591865540E-001;-1.051127612590790E-001;-1.993855694308877E-003;-1.946770586073399E-003;
2.424000000000000E+009;1.518834531307221E-001;-1.061668768525124E-001;-2.016636542975903E-003;-1.927089295350015E-003;
2.424166666666667E+009;1.523259729146957E-001;-1.077192425727844E-001;-2.069032285362482E-003;-1.730697345919907E-003;
2.424333333333334E+009;1.527452170848846E-001;-1.088562682271004E-001;-2.242659451439977E-003;-1.746967434883118E-003;
2.424500000000000E+009;1.533620953559876E-001;-1.100307106971741E-001;-2.143876627087593E-003;-1.630574814043939E-003;
2.424666666666667E+009;1.538551151752472E-001;-1.109651178121567E-001;-2.327342983335257E-003;-1.607344369404018E-003;
2.424833333333334E+009;1.543256491422653E-001;-1.120593920350075E-001;-2.351044211536646E-003;-1.395215163938701E-003;
2.425000000000000E+009;1.546904891729355E-001;-1.129137277603149E-001;-2.502566203474999E-003;-1.077754655852914E-003;
2.425166666666667E+009;1.550255864858627E-001;-1.137944459915161E-001;-2.429826417937875E-003;-1.010339707136154E-003;
2.425333333333334E+009;1.555899679660797E-001;-1.145104095339775E-001;-2.402628539130092E-003;-9.216194739565253E-004;
2.425500000000000E+009;1.560087352991104E-001;-1.152355223894119E-001;-2.332005184143782E-003;-9.792735800147057E-004;
2.425666666666667E+009;1.562286019325256E-001;-1.157859265804291E-001;-2.365451306104660E-003;-7.124936673790216E-004;
2.425833333333334E+009;1.565661430358887E-001;-1.163580939173698E-001;-2.496219240128994E-003;-6.563715287484229E-004;
2.426000000000000E+009;1.567144095897675E-001;-1.167983710765839E-001;-2.275390550494194E-003;-4.896583268418908E-004;
2.426166666666667E+009;1.570770442485809E-001;-1.172937527298927E-001;-2.278113272041082E-003;-4.121633537579328E-004;
2.426333333333334E+009;1.568779647350311E-001;-1.176259964704514E-001;-2.246429212391377E-003;-4.764021432492882E-004;
2.426500000000000E+009;1.570309996604919E-001;-1.177768781781197E-001;-2.165825804695487E-003;-2.796303306240588E-004;
2.426666666666667E+009;1.570562720298767E-001;-1.178339570760727E-001;-2.138449577614665E-003;-9.455571125727147E-005;
2.426833333333334E+009;1.567176878452301E-001;-1.181181147694588E-001;-2.088967710733414E-003;-7.835122232791036E-005;
2.427000000000000E+009;1.564321219921112E-001;-1.183245182037354E-001;-1.934414729475975E-003;-1.181372572318651E-004;
2.427166666666667E+009;1.561154723167419E-001;-1.183782219886780E-001;-1.900052535347641E-003;8.942137696976715E-007;
2.427333333333334E+009;1.555501073598862E-001;-1.185422837734222E-001;-2.022580942139030E-003;4.015734521090053E-005;
2.427500000000000E+009;1.550084352493286E-001;-1.185685470700264E-001;-1.992521574720740E-003;4.756438647746109E-005;
2.427666666666667E+009;1.542406231164932E-001;-1.186922565102577E-001;-1.854193862527609E-003;1.594982750248164E-004;
