# Version 1.00
#
freq[Hz];re:Trc1_S11;im:Trc1_S11;re:Trc2_S21;im:Trc2_S21;
2.400000000000000E+009;1.695579886436462E-001;4.583511874079704E-002;2.184512559324503E-003;-1.702425652183592E-003;
2.400166666666667E+009;1.706179082393646E-001;4.489675536751747E-002;1.902731601148844E-003;-1.862519420683384E-003;
2.400333333333334E+009;1.714179962873459E-001;4.387535527348518E-002;2.136513125151396E-003;-1.870298176072538E-003;
2.400500000000000E+009;1.726070344448090E-001;4.283435642719269E-002;2.213756320998073E-003;-2.043037908151746E-003;
2.400666666666667E+009;1.733511835336685E-001;4.190108925104141E-002;2.328132046386600E-003;-2.295173937454820E-003;
2.400833333333334E+009;1.744060069322586E-001;4.100503399968147E-002;2.370469737797976E-003;-2.403697697445750E-003;
2.401000000000000E+009;1.750242710113525E-001;4.037772491574287E-002;2.429060172289610E-003;-2.679630648344755E-003;
2.401166666666667E+009;1.758350282907486E-001;3.951548039913178E-002;2.400045050308108E-003;-2.913198666647077E-003;
2.401333333333334E+009;1.766180992126465E-001;3.885873034596443E-002;2.217238768935204E-003;-3.100565867498517E-003;
2.401500000000000E+009;1.773918867111206E-001;3.842193633317947E-002;2.153442241251469E-003;-3.403876675292850E-003;
2.401666666666667E+009;1.781420856714249E-001;3.774039074778557E-002;2.051320392638445E-003;-3.559521166607738E-003;
2.401833333333334E+009;1.785231381654739E-001;3.722350299358368E-002;2.013155724853277E-003;-3.720249747857451E-003;
2.402000000000000E+009;1.788737028837204E-001;3.664070740342140E-002;1.703056041151285E-003;-4.025509115308523E-003;
2.402166666666667E+009;1.792410165071487E-001;3.590574860572815E-002;1.635408611036837E-003;-4.295412451028824E-003;
2.402333333333334E+009;1.795194149017334E-001;3.543743118643761E-002;1.453670673072338E-003;-4.383446183055639E-003;
2.402500000000000E+009;1.801247894763947E-001;3.491098061203957E-002;1.383798429742456E-003;-4.542723763734102E-003;
2.402666666666667E+009;1.799817383289337E-001;3.415742143988609E-002;1.104941591620445E-003;-4.655536729842424E-003;
2.402833333333334E+009;1.801186800003052E-001;3.374843671917915E-002;8.464253041893244E-004;-4.820601083338261E-003;
2.403000000000000E+009;1.801362633705139E-001;3.285885602235794E-002;4.619201645255089E-004;-4.877074621617794E-003;
2.403166666666667E+009;1.801980286836624E-001;3.210723400115967E-002;2.492101921234280E-004;-4.846900235861540E-003;
2.403333333333334E+009;1.799078136682510E-001;3.150548413395882E-002;2.229142228316050E-005;-4.895753227174282E-003;
2.403500000000000E+009;1.797226518392563E-001;3.042734786868095E-002;-3.062898176722229E-004;-4.947793669998646E-003;
2.403666666666667E+009;1.794398277997971E-001;2.941988222301006E-002;-7.598730153404176E-004;-4.884384106844664E-003;
2.403833333333334E+009;1.791247576475143E-001;2.842070721089840E-002;-8.358730701729655E-004;-5.012433975934982E-003;
2.404000000000000E+009;1.787797957658768E-001;2.725089713931084E-002;-1.000881195068359E-003;-4.905941430479288E-003;
2.404166666666667E+009;1.782249808311462E-001;2.606001682579517E-002;-1.458826125599444E-003;-4.753256682306528E-003;
2.404333333333334E+009;1.778526306152344E-001;2.497653290629387E-002;-1.734436140395701E-003;-4.698169883340597E-003;
2.404500000000000E+009;1.771090626716614E-001;2.354316413402557E-002;-1.882108976133168E-003;-4.565100651234388E-003;
2.404666666666667E+009;1.767690479755402E-001;2.237043716013432E-002;-2.069048350676894E-003;-4.336262121796608E-003;
2.404833333333334E+009;1.761648356914520E-001;2.083453722298145E-002;-2.267181873321533E-003;-4.181495867669582E-003;
2.405000000000000E+009;1.755878627300263E-001;1.928917504847050E-002;-2.267917152494192E-003;-4.161411430686712E-003;
2.405166666666667E+009;1.751595139503479E-001;1.760341227054596E-002;-2.564220689237118E-003;-3.919348586350679E-003;
2.405333333333334E+009;1.747116744518280E-001;1.593133807182312E-002;-2.756763249635696E-003;-3.683997085317969E-003;
2.405500000000000E+009;1.741829216480255E-001;1.438156142830849E-002;-2.811725251376629E-003;-3.486290574073792E-003;
2.405666666666667E+009;1.738305836915970E-001;1.257933862507343E-002;-2.570681739598513E-003;-3.447341965511441E-003;
2.405833333333334E+009;1.732808053493500E-001;1.088690105825663E-002;-2.746951999142766E-003;-3.268637694418430E-003;
2.406000000000000E+009;1.730723977088928E-001;8.834399282932282E-003;-2.935007680207491E-003;-3.120163222774863E-003;
2.406166666666667E+009;1.727673709392548E-001;7.024443708360195E-003;-2.972308779135346E-003;-3.128811484202743E-003;
2.406333333333334E+009;1.726342439651489E-001;4.997051786631346E-003;-3.077075816690922E-003;-2.963605336844921E-003;
2.406500000000000E+009;1.724062263965607E-001;2.871632110327482E-003;-3.167761024087668E-003;-2.886827336624265E-003;
2.406666666666667E+009;1.722281426191330E-001;8.799135102890432E-004;-3.223525127395988E-003;-2.820781664922833E-003;
2.406833333333334E+009;1.721521168947220E-001;-1.273053116165102E-003;-3.370363730937243E-003;-2.786606084555388E-003;
2.407000000000000E+009;1.722061932086945E-001;-3.406940959393978E-003;-3.314401721581817E-003;-2.818217268213630E-003;
2.407166666666667E+009;1.725401729345322E-001;-5.422631278634071E-003;-3.420939203351736E-003;-2.731515327468514E-003;
2.407333333333334E+009;1.725804358720779E-001;-7.656780071556568E-003;-3.551785135641694E-003;-2.528944984078407E-003;
2.407500000000000E+009;1.727740317583084E-001;-9.669117629528046E-003;-3.675446845591068E-003;-2.408548956736922E-003;
2.407666666666667E+009;1.732087284326553E-001;-1.175224035978317E-002;-3.802290884777904E-003;-2.327086403965950E-003;
2.407833333333334E+009;1.733137518167496E-001;-1.401598006486893E-002;-4.000409040600061E-003;-2.183220814913511E-003;
2.408000000000000E+009;1.737897545099258E-001;-1.608741097152233E-002;-4.172779619693756E-003;-2.090294612571597E-003;
2.408166666666667E+009;1.740836054086685E-001;-1.813290268182755E-002;-4.254173953086138E-003;-1.741770072840154E-003;
2.408333333333334E+009;1.746134907007217E-001;-2.003902196884155E-002;-4.336830228567123E-003;-1.648215460591018E-003;
2.408500000000000E+009;1.750518679618835E-001;-2.210689894855022E-002;-4.466457292437553E-003;-1.406411407515407E-003;
2.408666666666667E+009;1.754104346036911E-001;-2.403859235346317E-002;-4.460020456463099E-003;-1.176642137579620E-003;
2.408833333333334E+009;1.757598221302033E-001;-2.560559846460819E-002;-4.568709991872311E-003;-9.584089275449514E-004;
2.409000000000000E+009;1.759773343801498E-001;-2.714606933295727E-002;-4.510724451392889E-003;-6.520051974803209E-004;
2.409166666666667E+009;1.765889525413513E-001;-2.882613800466061E-002;-4.448986612260342E-003;-5.019374075345695E-004;
2.409333333333334E+009;1.771082133054733E-001;-3.034644015133381E-002;-4.376974888145924E-003;-3.254542534705252E-004;
2.409500000000000E+009;1.776118278503418E-001;-3.172319382429123E-002;-4.247852601110935E-003;9.854176460066810E-005;
2.409666666666667E+009;1.780487298965454E-001;-3.273338451981545E-002;-4.178063943982124E-003;-2.159261748602148E-005;
2.409833333333334E+009;1.786031424999237E-001;-3.363818302750588E-002;-4.233504645526409E-003;1.391511759720743E-004;
2.410000000000000E+009;1.790807098150253E-001;-3.469990566372871E-002;-4.056896548718214E-003;6.152680725790560E-005;
2.410166666666667E+009;1.796149313449860E-001;-3.566910326480866E-002;-4.014155361801386E-003;3.678406937979162E-004;
2.410333333333334E+009;1.798577010631561E-001;-3.638226538896561E-002;-3.925063647329807E-003;4.771933890879154E-004;
2.410500000000000E+009;1.804015040397644E-001;-3.703330084681511E-002;-3.960201051086187E-003;4.707164189312607E-004;
2.410666666666667E+009;1.809346675872803E-001;-3.788404911756516E-002;-3.785756649449468E-003;7.001959602348507E-004;
2.410833333333334E+009;1.814171075820923E-001;-3.842701390385628E-002;-3.821194870397449E-003;7.696119137108326E-004;
2.411000000000000E+009;1.814865618944168E-001;-3.884886577725411E-002;-3.776955651119351E-003;9.692353196442127E-004;
2.411166666666667E+009;1.819034367799759E-001;-3.946132585406303E-002;-3.606440266594291E-003;8.348265546374023E-004;
2.411333333333334E+009;1.821340471506119E-001;-3.974458575248718E-002;-3.691701218485832E-003;1.138707506470382E-003;
2.411500000000000E+009;1.820537000894547E-001;-4.028194770216942E-002;-3.698158776387572E-003;1.087373122572899E-003;
2.411666666666667E+009;1.822959631681442E-001;-4.056715965270996E-002;-3.577525960281491E-003;1.246541156433523E-003;
2.411833333333334E+009;1.823434233665466E-001;-4.089964926242828E-002;-3.595306770876050E-003;1.332803512923420E-003;
2.412000000000000E+009;1.820858567953110E-001;-4.135002568364143E-002;-3.649606136605144E-003;1.574325142428279E-003;
2.412166666666667E+009;1.815813779830933E-001;-4.159075021743774E-002;-3.490699687972665E-003;1.438775565475225E-003;
2.412333333333334E+009;1.815420091152191E-001;-4.191159084439278E-002;-3.423204645514488E-003;1.591703388839960E-003;
2.412500000000000E+009;1.808267831802368E-001;-4.212311655282974E-002;-3.298539668321610E-003;1.647581811994314E-003;
2.412666666666667E+009;1.804248541593552E-001;-4.272733256220818E-002;-3.293777117505670E-003;1.907489378936589E-003;
2.412833333333334E+009;1.797782331705093E-001;-4.283405095338821E-002;-3.225620137527585E-003;1.658364548347890E-003;
2.413000000000000E+009;1.789515912532806E-001;-4.319449141621590E-002;-3.297769231721759E-003;1.929025282151997E-003;
2.413166666666667E+009;1.781133860349655E-001;-4.378235712647438E-002;-3.152339952066541E-003;2.091722795739770E-003;
2.413333333333334E+009;1.772100925445557E-001;-4.412054643034935E-002;-3.199569880962372E-003;1.978292362764478E-003;
2.413500000000000E+009;1.762056797742844E-001;-4.454102739691734E-002;-3.141036955639720E-003;2.144972095265985E-003;
2.413666666666667E+009;1.751741021871567E-001;-4.507071152329445E-002;-3.118126653134823E-003;2.175102010369301E-003;
2.413833333333334E+009;1.741389781236649E-001;-4.567791894078255E-002;-3.004638245329261E-003;2.217617118731141E-003;
2.414000000000000E+009;1.729177981615067E-001;-4.624696820974350E-002;-2.965346211567521E-003;2.207072451710701E-003;
2.414166666666667E+009;1.718714535236359E-001;-4.699667543172836E-002;-2.879715058952570E-003;2.434198511764407E-003;
2.414333333333334E+009;1.706255227327347E-001;-4.778290912508965E-002;-2.898100530728698E-003;2.403962658718228E-003;
2.414500000000000E+009;1.695451438426971E-001;-4.870047047734261E-002;-2.956216922029853E-003;2.465333323925734E-003;
2.414666666666667E+009;1.682075411081314E-001;-4.955938830971718E-002;-2.872518263757229E-003;2.843402791768313E-003;
2.414833333333334E+009;1.669664382934570E-001;-5.068710446357727E-002;-2.745308680459857E-003;2.748283790424466E-003;
2.415000000000000E+009;1.656727343797684E-001;-5.182531476020813E-002;-2.698834752663970E-003;2.807063749060035E-003;
2.415166666666667E+009;1.644379198551178E-001;-5.305393412709236E-002;-2.773466287180781E-003;2.956417156383395E-003;
2.415333333333334E+009;1.632715612649918E-001;-5.446603521704674E-002;-2.607885515317321E-003;2.965943654999137E-003;
2.415500000000000E+009;1.620846092700958E-001;-5.595746636390686E-002;-2.577259903773665E-003;3.183456137776375E-003;
2.415666666666667E+009;1.609426736831665E-001;-5.738196521997452E-002;-2.580977743491530E-003;3.263818798586726E-003;
2.415833333333334E+009;1.599414497613907E-001;-5.896818637847900E-002;-2.457137219607830E-003;3.387775039300323E-003;
2.416000000000000E+009;1.587242484092712E-001;-6.073799729347229E-002;-2.473099622875452E-003;3.439466701820493E-003;
2.416166666666667E+009;1.578357964754105E-001;-6.246377155184746E-002;-2.436741255223751E-003;3.634175285696983E-003;
2.416333333333334E+009;1.568967998027802E-001;-6.427869200706482E-002;-2.317232312634587E-003;3.758236765861511E-003;
2.416500000000000E+009;1.556973606348038E-001;-6.626290082931519E-002;-2.174145774915814E-003;3.900256939232349E-003;
2.416666666666667E+009;1.548966914415360E-001;-6.807718425989151E-002;-2.085358835756779E-003;3.971023485064507E-003;
2.416833333333334E+009;1.541837602853775E-001;-7.011105865240097E-002;-2.015882404521108E-003;4.068368114531040E-003;
2.417000000000000E+009;1.531751751899719E-001;-7.206173986196518E-002;-1.994891092181206E-003;4.393807612359524E-003;
2.417166666666667E+009;1.525602787733078E-001;-7.387702912092209E-002;-1.679274602793157E-003;4.371078219264746E-003;
2.417333333333334E+009;1.519996970891953E-001;-7.590576261281967E-002;-1.554762595333159E-003;4.563000984489918E-003;
2.417500000000000E+009;1.514196842908859E-001;-7.798595726490021E-002;-1.336329965852201E-003;4.531627986580133E-003;
2.417666666666667E+009;1.509692370891571E-001;-7.974524796009064E-002;-1.030989922583103E-003;4.737399984151125E-003;
2.417833333333334E+009;1.506025940179825E-001;-8.170372992753983E-002;-8.590974612161517E-004;4.831863567233086E-003;
2.418000000000000E+009;1.501780748367310E-001;-8.346090465784073E-002;-6.690732552669942E-004;4.926494788378477E-003;
2.418166666666667E+009;1.499192863702774E-001;-8.519226312637329E-002;-3.520149039104581E-004;5.050242878496647E-003;
2.418333333333334E+009;1.499589085578919E-001;-8.689150214195252E-002;-1.746708585415036E-004;4.987257532775402E-003;
2.418500000000000E+009;1.497053503990173E-001;-8.869934827089310E-002;-5.402377792051993E-005;5.132657475769520E-003;
2.418666666666667E+009;1.497433930635452E-001;-9.015186131000519E-002;2.592972305137664E-004;5.089852027595043E-003;
2.418833333333334E+009;1.496826708316803E-001;-9.162596613168716E-002;5.025628488510847E-004;5.066727753728628E-003;
2.419000000000000E+009;1.495909541845322E-001;-9.300418943166733E-002;8.086676243692637E-004;5.144742783159018E-003;
2.419166666666667E+009;1.498590409755707E-001;-9.421452134847641E-002;1.105344854295254E-003;5.028500221669674E-003;
2.419333333333334E+009;1.497960835695267E-001;-9.518451988697052E-002;1.156616955995560E-003;4.797239787876606E-003;
2.419500000000000E+009;1.501503288745880E-001;-9.650393575429916E-002;1.520213554613292E-003;4.907401744276285E-003;
2.419666666666667E+009;1.503938287496567E-001;-9.747334569692612E-002;1.679479144513607E-003;4.728000145405531E-003;
2.419833333333334E+009;1.505737304687500E-001;-9.801550954580307E-002;1.822827849537134E-003;4.781619645655155E-003;
2.420000000000000E+009;1.509806066751480E-001;-9.881585836410523E-002;1.922355615533888E-003;4.556229803711176E-003;
2.420166666666667E+009;1.514673680067062E-001;-9.928747266530991E-002;2.380716614425182E-003;4.411469213664532E-003;
2.420333333333334E+009;1.516813784837723E-001;-9.982873499393463E-002;2.373213646933436E-003;4.347777925431728E-003;
2.420500000000000E+009;1.520012319087982E-001;-1.001185476779938E-001;2.565613482147455E-003;4.172996152192354E-003;
2.420666666666667E+009;1.521628648042679E-001;-1.002547368407250E-001;2.752389525994659E-003;4.075164906680584E-003;
2.420833333333334E+009;1.524863541126251E-001;-1.005060151219368E-001;2.900897059589624E-003;3.908508457243443E-003;
2.421000000000000E+009;1.526112705469132E-001;-1.006787493824959E-001;3.109893295913935E-003;3.776396857574582E-003;
2.421166666666667E+009;1.527978926897049E-001;-1.005964279174805E-001;3.277144394814968E-003;3.644005861133337E-003;
2.421333333333334E+009;1.530784666538239E-001;-1.006271541118622E-001;3.376513021066785E-003;3.433037549257278E-003;
2.421500000000000E+009;1.531814783811569E-001;-1.004041135311127E-001;3.649240592494607E-003;3.140536602586508E-003;
2.421666666666667E+009;1.532467305660248E-001;-1.003042981028557E-001;3.653320949524641E-003;3.038281342014670E-003;
2.421833333333334E+009;1.532242149114609E-001;-1.002032533288002E-001;3.829840803518891E-003;2.862070919945836E-003;
2.422000000000000E+009;1.529039740562439E-001;-9.982388466596603E-002;4.134875256568193E-003;2.586205024272203E-003;
2.422166666666667E+009;1.528120040893555E-001;-9.973378479480743E-002;4.006761591881514E-003;2.442833501845598E-003;
2.422333333333334E+009;1.523833125829697E-001;-9.925114363431931E-002;4.060224629938602E-003;2.195232780650258E-003;
2.422500000000000E+009;1.518515348434448E-001;-9.884864091873169E-002;4.112984519451857E-003;2.134615322574973E-003;
2.422666666666667E+009;1.511857509613037E-001;-9.870766103267670E-002;4.198076203465462E-003;1.888372818939388E-003;
2.422833333333334E+009;1.505051255226135E-001;-9.837912023067474E-002;4.142988473176956E-003;1.635811640881002E-003;
2.423000000000000E+009;1.496598571538925E-001;-9.785956889390945E-002;4.110839217901230E-003;1.402407884597778E-003;
2.423166666666667E+009;1.487732380628586E-001;-9.751979261636734E-002;4.103172104805708E-003;1.315330970101059E-003;
2.423333333333334E+009;1.476386189460754E-001;-9.703300148248673E-002;4.064020700752735E-003;9.517999133095145E-004;
2.423500000000000E+009;1.464054286479950E-001;-9.668982774019241E-002;3.889176994562149E-003;7.108706049621105E-004;
2.423666666666667E+009;1.450488269329071E-001;-9.651213884353638E-002;3.926205448806286E-003;7.766457856632769E-004;
2.423833333333334E+009;1.441573202610016E-001;-9.615789353847504E-002;3.845614381134510E-003;6.323785637505353E-004;
2.424000000000000E+009;1.425659656524658E-001;-9.583520889282227E-002;3.713347483426333E-003;4.906711401417851E-004;
2.424166666666667E+009;1.411492377519608E-001;-9.571964293718338E-002;3.684590570628643E-003;4.467515973374248E-004;
2.424333333333334E+009;1.398687064647675E-001;-9.560692310333252E-002;3.718025283887982E-003;3.754732024390250E-004;
2.424500000000000E+009;1.384133100509644E-001;-9.545676410198212E-002;3.701630979776382E-003;2.276957820868120E-004;
2.424666666666667E+009;1.371226310729981E-001;-9.541170299053192E-002;3.759777173399925E-003;2.415638300590217E-004;
2.424833333333334E+009;1.354300230741501E-001;-9.571004658937454E-002;3.660560352727771E-003;9.352561028208584E-005;
2.425000000000000E+009;1.340032070875168E-001;-9.606567770242691E-002;3.515363670885563E-003;-6.847213171568001E-006;
2.425166666666667E+009;1.322703510522842E-001;-9.642577171325684E-002;3.619453636929393E-003;3.505988033225549E-008;
2.425333333333334E+009;1.309136152267456E-001;-9.694924205541611E-002;3.616869915276766E-003;-3.085320931859314E-004;
2.425500000000000E+009;1.295336782932282E-001;-9.765706956386566E-002;3.451570170000196E-003;-4.074510070495307E-004;
2.425666666666667E+009;1.277540028095245E-001;-9.844771772623062E-002;3.567755455151200E-003;-4.333927645348012E-004;
2.425833333333334E+009;1.264304369688034E-001;-9.931316971778870E-002;3.525144187733531E-003;-4.829911631532013E-004;
2.426000000000000E+009;1.250030398368835E-001;-1.003809422254562E-001;3.668512916192412E-003;-5.864931154064834E-004;
2.426166666666667E+009;1.238440945744515E-001;-1.014164164662361E-001;3.392457729205489E-003;-6.895168335177004E-004;
2.426333333333334E+009;1.224378272891045E-001;-1.026659458875656E-001;3.535167081281543E-003;-8.511639316566289E-004;
2.426500000000000E+009;1.212135031819344E-001;-1.039666086435318E-001;3.260449739173055E-003;-1.135010039433837E-003;
2.426666666666667E+009;1.201632842421532E-001;-1.052564084529877E-001;3.302105702459812E-003;-1.096978667192161E-003;
2.426833333333334E+009;1.188735365867615E-001;-1.067797169089317E-001;3.305040765553713E-003;-1.124746748246253E-003;
2.427000000000000E+009;1.178478598594666E-001;-1.084120795130730E-001;3.167913760989904E-003;-1.429031253792346E-003;
2.427166666666667E+009;1.168325245380402E-001;-1.099864393472672E-001;2.972543006762862E-003;-1.472223550081253E-003;
2.427333333333334E+009;1.158771291375160E-001;-1.116786673665047E-001;2.907171146944165E-003;-1.578606548719108E-003;
2.427500000000000E+009;1.151625216007233E-001;-1.134316027164459E-001;2.737402217462659E-003;-1.577108632773161E-003;
2.427666666666667E+009;1.143540292978287E-001;-1.151542440056801E-001;2.530563855543733E-003;-1.647255849093199E-003;
