# Version 1.00
#
freq[Hz];re:Trc1_S11;im:Trc1_S11;re:Trc2_S21;im:Trc2_S21;
2.400000000000000E+009;1.555595099925995E-001;1.062078922986984E-001;-9.719707304611802E-004;-7.521289517171681E-004;
2.400166666666667E+009;1.552818268537521E-001;1.037328466773033E-001;-9.822073625400662E-004;-6.464856560342014E-004;
2.400333333333334E+009;1.552980244159699E-001;1.013358533382416E-001;-9.974054992198944E-004;-8.198601426556706E-004;
2.400500000000000E+009;1.549526602029800E-001;9.867106378078461E-002;-1.170806586742401E-003;-8.600164437666535E-004;
2.400666666666667E+009;1.553395539522171E-001;9.624330699443817E-002;-1.226643333211541E-003;-8.199073490686715E-004;
2.400833333333334E+009;1.552276462316513E-001;9.330468624830246E-002;-1.533193048089743E-003;-8.477292722091079E-004;
2.401000000000000E+009;1.553631126880646E-001;9.044799953699112E-002;-1.516166143119335E-003;-8.805746911093593E-004;
2.401166666666667E+009;1.552430689334869E-001;8.771149814128876E-002;-1.819255179725587E-003;-8.247353835031390E-004;
2.401333333333334E+009;1.555856913328171E-001;8.478068560361862E-002;-1.944897579960525E-003;-6.577639724127948E-004;
2.401500000000000E+009;1.560323238372803E-001;8.190352469682694E-002;-1.913305954076350E-003;-7.184493588283658E-004;
2.401666666666667E+009;1.563859581947327E-001;7.914844900369644E-002;-2.093662275001407E-003;-6.085180211812258E-004;
2.401833333333334E+009;1.568219959735870E-001;7.616261392831802E-002;-2.141527133062482E-003;-5.347674014046788E-004;
2.402000000000000E+009;1.575525403022766E-001;7.344566285610199E-002;-2.328750211745501E-003;-2.165348123526201E-004;
2.402166666666667E+009;1.584160029888153E-001;7.100581377744675E-002;-2.375386888161302E-003;-1.440459745936096E-004;
2.402333333333334E+009;1.593136489391327E-001;6.816238164901733E-002;-2.527020871639252E-003;4.276591062080115E-005;
2.402500000000000E+009;1.604245752096176E-001;6.566381454467773E-002;-2.632815157994628E-003;3.075635759159923E-004;
2.402666666666667E+009;1.615020334720612E-001;6.331201642751694E-002;-2.675871597602963E-003;4.941275692544878E-004;
2.402833333333334E+009;1.627540737390518E-001;6.103151291608810E-002;-2.478232141584158E-003;6.514648557640612E-004;
2.403000000000000E+009;1.642211228609085E-001;5.852885171771050E-002;-2.706557977944613E-003;8.723786449991167E-004;
2.403166666666667E+009;1.659836769104004E-001;5.636461079120636E-002;-2.553530037403107E-003;1.181280822493136E-003;
2.403333333333334E+009;1.673509031534195E-001;5.419879406690598E-002;-2.504706848412752E-003;1.378555898554623E-003;
2.403500000000000E+009;1.691239476203919E-001;5.209694430232048E-002;-2.271851059049368E-003;1.558667747303844E-003;
2.403666666666667E+009;1.706150621175766E-001;5.026318505406380E-002;-2.065777080133557E-003;1.868259743787348E-003;
2.403833333333334E+009;1.724248677492142E-001;4.849669709801674E-002;-2.056267345324159E-003;1.983001129701734E-003;
2.404000000000000E+009;1.738865524530411E-001;4.664434492588043E-002;-1.671919948421419E-003;1.984574133530259E-003;
2.404166666666667E+009;1.757391840219498E-001;4.523732140660286E-002;-1.547207939438522E-003;2.080372767522931E-003;
2.404333333333334E+009;1.773772984743118E-001;4.372177273035049E-002;-1.390604651533067E-003;2.144159749150276E-003;
2.404500000000000E+009;1.790506541728973E-001;4.225931689143181E-002;-1.102548325434327E-003;2.268161159008741E-003;
2.404666666666667E+009;1.806303113698959E-001;4.139029979705811E-002;-1.058149849995971E-003;2.204750897362828E-003;
2.404833333333334E+009;1.823561042547226E-001;4.015469551086426E-002;-8.006385760381818E-004;2.147683640941978E-003;
2.405000000000000E+009;1.834792792797089E-001;3.957337513566017E-002;-6.164019578136504E-004;2.268506446853280E-003;
2.405166666666667E+009;1.851712465286255E-001;3.890832141041756E-002;-6.797903915867209E-004;2.051924588158727E-003;
2.405333333333334E+009;1.865577995777130E-001;3.839392960071564E-002;-5.927853635512292E-004;2.143182791769505E-003;
2.405500000000000E+009;1.879661530256271E-001;3.789196163415909E-002;-5.016861250624061E-004;2.070331480354071E-003;
2.405666666666667E+009;1.890142112970352E-001;3.768592327833176E-002;-3.909812949132174E-004;2.042287262156606E-003;
2.405833333333334E+009;1.905465126037598E-001;3.745741769671440E-002;-1.192700510728173E-004;1.998257357627153E-003;
2.406000000000000E+009;1.913705468177795E-001;3.732323646545410E-002;-2.597091661300510E-004;2.052906434983015E-003;
2.406166666666667E+009;1.923845261335373E-001;3.714306280016899E-002;-1.647281314944848E-004;2.063867636024952E-003;
2.406333333333334E+009;1.932323724031448E-001;3.721326217055321E-002;1.390454053762369E-005;1.879069022834301E-003;
2.406500000000000E+009;1.940528750419617E-001;3.730913251638413E-002;2.603855682536960E-004;1.989734359085560E-003;
2.406666666666667E+009;1.945088952779770E-001;3.736459091305733E-002;-1.743615393934306E-005;1.978942891582847E-003;
2.406833333333334E+009;1.952837854623795E-001;3.734097629785538E-002;3.853320085909218E-004;1.999824307858944E-003;
2.407000000000000E+009;1.954685747623444E-001;3.752362728118897E-002;4.940950311720371E-004;2.058824757114053E-003;
2.407166666666667E+009;1.958373188972473E-001;3.741499781608582E-002;6.722947582602501E-004;1.901812036521733E-003;
2.407333333333334E+009;1.958619356155396E-001;3.769502788782120E-002;6.909632356837392E-004;1.846705446951091E-003;
2.407500000000000E+009;1.957989186048508E-001;3.777721524238586E-002;8.902143454179168E-004;1.861799973994494E-003;
2.407666666666667E+009;1.957533210515976E-001;3.763598576188088E-002;8.625638438388705E-004;1.782206934876740E-003;
2.407833333333334E+009;1.952493488788605E-001;3.758097440004349E-002;8.658687002025545E-004;1.578985364176333E-003;
2.408000000000000E+009;1.950647830963135E-001;3.752992674708366E-002;1.030361279845238E-003;1.459295279346407E-003;
2.408166666666667E+009;1.946013867855072E-001;3.725115582346916E-002;1.082187634892762E-003;1.422477886080742E-003;
2.408333333333334E+009;1.942054629325867E-001;3.664020448923111E-002;1.028480008244515E-003;1.206998247653246E-003;
2.408500000000000E+009;1.934287548065186E-001;3.648545593023300E-002;1.134308637119830E-003;1.144968671724200E-003;
2.408666666666667E+009;1.926990896463394E-001;3.591840341687203E-002;1.109387492761016E-003;8.486799197271466E-004;
2.408833333333334E+009;1.921548396348953E-001;3.522787988185883E-002;9.832846699282527E-004;7.894554873928428E-004;
2.409000000000000E+009;1.910994946956635E-001;3.441522270441055E-002;1.116758910939097E-003;6.976703298278153E-004;
2.409166666666667E+009;1.902016997337341E-001;3.329770639538765E-002;1.104426803067327E-003;5.790287978015840E-004;
2.409333333333334E+009;1.891637295484543E-001;3.236980363726616E-002;9.419140988029540E-004;5.388869321905077E-004;
2.409500000000000E+009;1.880415529012680E-001;3.122777678072453E-002;9.671178413555026E-004;5.767571856267750E-004;
2.409666666666667E+009;1.871086806058884E-001;2.969873324036598E-002;7.474047015421093E-004;4.810662358067930E-004;
2.409833333333334E+009;1.859906315803528E-001;2.809486910700798E-002;7.024950464256108E-004;4.723176243714988E-004;
2.410000000000000E+009;1.851335018873215E-001;2.650235779583454E-002;8.215981069952250E-004;4.074649768881500E-004;
2.410166666666667E+009;1.839951127767563E-001;2.460197173058987E-002;7.918729097582400E-004;4.381067119538784E-004;
2.410333333333334E+009;1.829957962036133E-001;2.289645746350288E-002;7.081745425239205E-004;4.424185899551958E-004;
2.410500000000000E+009;1.820506751537323E-001;2.099158614873886E-002;8.132322109304369E-004;6.021545850671828E-004;
2.410666666666667E+009;1.810248643159866E-001;1.867674849927425E-002;6.129457033239305E-004;3.204942331649363E-004;
2.410833333333334E+009;1.805193573236466E-001;1.659375429153442E-002;9.079442243091762E-004;4.699930141214281E-004;
2.411000000000000E+009;1.795689314603806E-001;1.441401336342096E-002;8.258858579210937E-004;4.293838865123689E-004;
2.411166666666667E+009;1.790070831775665E-001;1.218598615378141E-002;6.525305798277259E-004;3.999203036073595E-004;
2.411333333333334E+009;1.786569952964783E-001;9.745687246322632E-003;7.739153224974871E-004;2.762964577414095E-004;
2.411500000000000E+009;1.779759228229523E-001;7.378198206424713E-003;7.869813125580549E-004;2.792239247355610E-004;
2.411666666666667E+009;1.778237819671631E-001;4.900012165307999E-003;6.422470905818045E-004;1.989019219763577E-004;
2.411833333333334E+009;1.775771677494049E-001;2.649945905432105E-003;6.661295774392784E-004;3.068157529924065E-004;
2.412000000000000E+009;1.779100745916367E-001;-5.693971252185293E-005;6.109867827035487E-004;1.251903304364532E-004;
2.412166666666667E+009;1.778316497802734E-001;-2.322920830920339E-003;5.017244257032871E-004;8.488649655191694E-006;
2.412333333333334E+009;1.779612600803375E-001;-4.801429808139801E-003;4.661322454921901E-004;7.047374674584717E-005;
2.412500000000000E+009;1.785122007131577E-001;-7.157944142818451E-003;4.545762494672090E-004;1.148782903328538E-004;
2.412666666666667E+009;1.789685934782028E-001;-9.652046486735344E-003;4.651558992918581E-004;1.015800153254531E-004;
2.412833333333334E+009;1.798609197139740E-001;-1.222340296953917E-002;3.765482688322663E-004;9.244964894605801E-005;
2.413000000000000E+009;1.805523931980133E-001;-1.453638635575771E-002;2.595191763248295E-004;-8.996365068014711E-006;
2.413166666666667E+009;1.813171058893204E-001;-1.656647212803364E-002;1.370188401779160E-004;1.432192075299099E-004;
2.413333333333334E+009;1.823174953460693E-001;-1.899304613471031E-002;6.021063745720312E-005;1.890808780444786E-004;
2.413500000000000E+009;1.831682473421097E-001;-2.127123624086380E-002;5.692418562830426E-005;2.870709868147969E-004;
2.413666666666667E+009;1.844529360532761E-001;-2.327568829059601E-002;1.030377534334548E-004;4.683242586906999E-004;
2.413833333333334E+009;1.855761408805847E-001;-2.522164210677147E-002;1.364725612802431E-004;5.077771493233740E-004;
2.414000000000000E+009;1.866249740123749E-001;-2.749480679631233E-002;1.559662196086720E-004;4.786799836438149E-004;
2.414166666666667E+009;1.879584789276123E-001;-2.902697585523129E-002;2.073399518849328E-004;5.544201703742147E-004;
2.414333333333334E+009;1.890820860862732E-001;-3.116732649505138E-002;3.462343011051416E-004;6.469573127105832E-004;
2.414500000000000E+009;1.903800219297409E-001;-3.265909478068352E-002;3.224297252018005E-004;5.042093689553440E-004;
2.414666666666667E+009;1.914034187793732E-001;-3.416315838694572E-002;4.881063359789550E-004;5.676817381754518E-004;
2.414833333333334E+009;1.927119344472885E-001;-3.540381044149399E-002;4.365354834590107E-004;6.363922730088234E-004;
2.415000000000000E+009;1.939495801925659E-001;-3.664577379822731E-002;4.415065341163427E-004;4.960900405421853E-004;
2.415166666666667E+009;1.952197104692459E-001;-3.780772536993027E-002;4.812474071513861E-004;5.870304885320365E-004;
2.415333333333334E+009;1.964101493358612E-001;-3.872364759445190E-002;4.289805947337300E-004;6.066642235964537E-004;
2.415500000000000E+009;1.973295509815216E-001;-3.934056684374809E-002;5.084515432827175E-004;5.980075802654028E-004;
2.415666666666667E+009;1.985424309968948E-001;-4.037841036915779E-002;5.173230310902000E-004;6.722852122038603E-004;
2.415833333333334E+009;1.993519812822342E-001;-4.077133908867836E-002;4.505107062868774E-004;6.214476888999343E-004;
2.416000000000000E+009;2.001431137323380E-001;-4.137262701988220E-002;4.607580485753715E-004;6.719994707964361E-004;
2.416166666666667E+009;2.008317410945892E-001;-4.186178743839264E-002;5.500311963260174E-004;7.300879224203527E-004;
2.416333333333334E+009;2.014755904674530E-001;-4.218046367168427E-002;6.192407454364002E-004;6.177074392326176E-004;
2.416500000000000E+009;2.020209580659866E-001;-4.235789179801941E-002;6.103083142079413E-004;6.853404338471592E-004;
2.416666666666667E+009;2.023051828145981E-001;-4.269690066576004E-002;8.101162966340780E-004;7.219552644528449E-004;
2.416833333333334E+009;2.024850696325302E-001;-4.255834594368935E-002;8.853761828504503E-004;6.922145257703960E-004;
2.417000000000000E+009;2.025355100631714E-001;-4.272327199578285E-002;9.566153166815639E-004;7.731459336355329E-004;
2.417166666666667E+009;2.023202627897263E-001;-4.260188713669777E-002;1.141275744885206E-003;7.267444743774831E-004;
2.417333333333334E+009;2.021067142486572E-001;-4.247568175196648E-002;1.212283619679511E-003;7.078886847011745E-004;
2.417500000000000E+009;2.017958611249924E-001;-4.243012145161629E-002;1.404068199917674E-003;6.680072401650250E-004;
2.417666666666667E+009;2.014087587594986E-001;-4.210769757628441E-002;1.444806577637792E-003;6.692219176329672E-004;
2.417833333333334E+009;2.008676826953888E-001;-4.188951104879379E-002;1.549117849208415E-003;4.307841300033033E-004;
2.418000000000000E+009;2.003303170204163E-001;-4.159195348620415E-002;1.508356421254575E-003;3.358453395776451E-004;
2.418166666666667E+009;1.994217485189438E-001;-4.159723222255707E-002;1.610376522876322E-003;3.916714049410075E-004;
2.418333333333334E+009;1.986137181520462E-001;-4.139710962772369E-002;1.575383474119008E-003;5.537855031434447E-005;
2.418500000000000E+009;1.974925547838211E-001;-4.123556241393089E-002;1.610549981705844E-003;1.317841906711692E-005;
2.418666666666667E+009;1.967765390872955E-001;-4.130706936120987E-002;1.612033811397851E-003;-7.454858860000968E-005;
2.418833333333334E+009;1.954183578491211E-001;-4.143960773944855E-002;1.424687565304339E-003;-2.904494467657059E-004;
2.419000000000000E+009;1.941469758749008E-001;-4.173454642295837E-002;1.566558610647917E-003;-3.035964036826044E-004;
2.419166666666667E+009;1.928452849388123E-001;-4.202490672469139E-002;1.510027213953435E-003;-3.797205572482199E-004;
2.419333333333334E+009;1.915028244256973E-001;-4.246241226792336E-002;1.535838819108903E-003;-4.768175422213972E-004;
2.419500000000000E+009;1.899064779281616E-001;-4.294288530945778E-002;1.511891954578459E-003;-5.858468939550221E-004;
2.419666666666667E+009;1.883936822414398E-001;-4.375443235039711E-002;1.341011608019471E-003;-5.835872143507004E-004;
2.419833333333334E+009;1.868246942758560E-001;-4.441402480006218E-002;1.165373832918704E-003;-5.282920901663601E-004;
2.420000000000000E+009;1.852428615093231E-001;-4.537110775709152E-002;1.306608784943819E-003;-7.082265219651163E-004;
2.420166666666667E+009;1.835918873548508E-001;-4.623635113239288E-002;1.361443079076707E-003;-4.675831005442888E-004;
2.420333333333334E+009;1.820236295461655E-001;-4.753302410244942E-002;1.337501220405102E-003;-8.180404547601938E-004;
2.420500000000000E+009;1.804068982601166E-001;-4.878695681691170E-002;1.264266553334892E-003;-8.894712082110345E-004;
2.420666666666667E+009;1.787759959697723E-001;-5.004103854298592E-002;1.357519533485174E-003;-8.548839832656086E-004;
2.420833333333334E+009;1.770656853914261E-001;-5.160500481724739E-002;1.179950311779976E-003;-8.575226529501379E-004;
2.421000000000000E+009;1.755902320146561E-001;-5.302665382623673E-002;1.351267332211137E-003;-8.916216902434826E-004;
2.421166666666667E+009;1.742791682481766E-001;-5.488610640168190E-002;1.339934067800641E-003;-8.772932924330235E-004;
2.421333333333334E+009;1.726031601428986E-001;-5.621088668704033E-002;1.418619183823466E-003;-1.200138474814594E-003;
2.421500000000000E+009;1.712875962257385E-001;-5.826219171285629E-002;1.231906586326659E-003;-1.206842833198607E-003;
2.421666666666667E+009;1.700403094291687E-001;-6.021050363779068E-002;1.425634138286114E-003;-1.357338041998446E-003;
2.421833333333334E+009;1.689562052488327E-001;-6.209689751267433E-002;1.252732123248279E-003;-1.559429452754557E-003;
2.422000000000000E+009;1.678450852632523E-001;-6.391391903162003E-002;1.185837318189442E-003;-1.662419643253088E-003;
2.422166666666667E+009;1.669999063014984E-001;-6.598769128322601E-002;1.141801010817289E-003;-1.716002239845693E-003;
2.422333333333334E+009;1.660044193267822E-001;-6.824222952127457E-002;1.045117271132767E-003;-1.962066395208240E-003;
2.422500000000000E+009;1.653250604867935E-001;-7.019390910863876E-002;8.636032580398023E-004;-1.914155203849077E-003;
2.422666666666667E+009;1.646768152713776E-001;-7.223401963710785E-002;6.555244326591492E-004;-2.227101707831025E-003;
2.422833333333334E+009;1.642339080572128E-001;-7.438246905803680E-002;5.248170928098261E-004;-2.232313388958573E-003;
2.423000000000000E+009;1.636600792407990E-001;-7.635104656219482E-002;5.097792018204927E-004;-2.327767666429281E-003;
2.423166666666667E+009;1.633723974227905E-001;-7.830651849508286E-002;2.257307060062885E-004;-2.344961976632476E-003;
2.423333333333334E+009;1.631084531545639E-001;-8.050940185785294E-002;8.442965190624818E-005;-2.233926439657807E-003;
2.423500000000000E+009;1.630495190620422E-001;-8.217818289995194E-002;-2.975203387904912E-004;-2.141004195436835E-003;
2.423666666666667E+009;1.631898134946823E-001;-8.422178775072098E-002;-4.807419027201831E-004;-2.112013055011630E-003;
2.423833333333334E+009;1.630312502384186E-001;-8.595605194568634E-002;-6.081773317418993E-004;-2.162354998290539E-003;
2.424000000000000E+009;1.631985455751419E-001;-8.778174221515656E-002;-8.524846634827554E-004;-2.143605845049024E-003;
2.424166666666667E+009;1.633178740739822E-001;-8.948732912540436E-002;-1.002337550744414E-003;-1.905868761241436E-003;
2.424333333333334E+009;1.637427210807800E-001;-9.103644639253616E-002;-9.405704331584275E-004;-2.041178988292813E-003;
2.424500000000000E+009;1.639989018440247E-001;-9.294980764389038E-002;-1.021604519337416E-003;-1.893741893582046E-003;
2.424666666666667E+009;1.642507761716843E-001;-9.419834613800049E-002;-1.179069164209068E-003;-1.732121687382460E-003;
2.424833333333334E+009;1.648358404636383E-001;-9.548246860504150E-002;-1.136937295086682E-003;-1.663154922425747E-003;
2.425000000000000E+009;1.652087569236755E-001;-9.686955064535141E-002;-1.352413324639201E-003;-1.484945416450501E-003;
2.425166666666667E+009;1.654785424470902E-001;-9.793055057525635E-002;-1.513816299848259E-003;-1.356031280010939E-003;
2.425333333333334E+009;1.658816784620285E-001;-9.885338693857193E-002;-1.568043604493141E-003;-1.124119036830962E-003;
2.425500000000000E+009;1.664280742406845E-001;-9.988231211900711E-002;-1.463212072849274E-003;-9.979305323213339E-004;
2.425666666666667E+009;1.667851507663727E-001;-1.005749925971031E-001;-1.443664659745991E-003;-1.053613377735019E-003;
2.425833333333334E+009;1.670313179492950E-001;-1.013891473412514E-001;-1.677105436101556E-003;-8.682676125317812E-004;
2.426000000000000E+009;1.673959344625473E-001;-1.016680747270584E-001;-1.617951435036957E-003;-7.155193015933037E-004;
2.426166666666667E+009;1.679271906614304E-001;-1.022609621286392E-001;-1.741003245115280E-003;-7.717894040979445E-004;
2.426333333333334E+009;1.680217683315277E-001;-1.028071790933609E-001;-1.621195813640952E-003;-5.453948397189379E-004;
2.426500000000000E+009;1.682890653610230E-001;-1.030816063284874E-001;-1.730031217448413E-003;-3.818586410488933E-004;
2.426666666666667E+009;1.685019284486771E-001;-1.033206284046173E-001;-1.621748553588986E-003;-3.201866056770086E-004;
2.426833333333334E+009;1.688289046287537E-001;-1.036116033792496E-001;-1.634492771700025E-003;-2.382779784966260E-004;
2.427000000000000E+009;1.687969118356705E-001;-1.038137227296829E-001;-1.668426441028714E-003;-1.421351335011423E-004;
2.427166666666667E+009;1.688019484281540E-001;-1.039305701851845E-001;-1.645117299631238E-003;5.219711965764873E-005;
2.427333333333334E+009;1.686332970857620E-001;-1.041747331619263E-001;-1.552368048578501E-003;7.451442797901109E-005;
2.427500000000000E+009;1.684391796588898E-001;-1.043170690536499E-001;-1.431762822903693E-003;1.962651003850624E-004;
2.427666666666667E+009;1.680689305067062E-001;-1.043176278471947E-001;-1.437989296391606E-003;3.450520162004978E-004;
2.427833333333334E+009;1.676182150840759E-001;-1.044447496533394E-001;-1.404189621098340E-003;4.525670665316284E-004;
