# Version 1.00
#
freq[Hz];re:Trc1_S11;im:Trc1_S11;re:Trc2_S21;im:Trc2_S21;
2.400000000000000E+009;1.553352624177933E-001;1.059629917144775E-001;-9.329115855507553E-004;-9.059878066182137E-004;
2.400166666666667E+009;1.551059484481812E-001;1.038071662187576E-001;-1.029724255204201E-003;-8.757497416809201E-004;
2.400333333333334E+009;1.551911979913712E-001;1.012524962425232E-001;-1.140241860412061E-003;-8.158092387020588E-004;
2.400500000000000E+009;1.549645811319351E-001;9.875499457120895E-002;-1.306366291828454E-003;-9.307602886110544E-004;
2.400666666666667E+009;1.551925987005234E-001;9.599114954471588E-002;-1.384916482493281E-003;-8.734835428185761E-004;
2.400833333333334E+009;1.549940854310989E-001;9.322937577962875E-002;-1.557490904815495E-003;-1.085416995920241E-003;
2.401000000000000E+009;1.553011983633041E-001;9.022834151983261E-002;-1.586512429639697E-003;-8.399219368584454E-004;
2.401166666666667E+009;1.552347987890244E-001;8.762153238058090E-002;-1.709256786853075E-003;-8.904077112674713E-004;
2.401333333333334E+009;1.554919779300690E-001;8.463275432586670E-002;-1.869710162281990E-003;-7.671063649468124E-004;
2.401500000000000E+009;1.561017930507660E-001;8.185548335313797E-002;-2.104517305269837E-003;-6.800396949984133E-004;
2.401666666666667E+009;1.562606543302536E-001;7.880654931068420E-002;-2.202865900471807E-003;-6.210753927007318E-004;
2.401833333333334E+009;1.566065102815628E-001;7.614649087190628E-002;-2.344634151086211E-003;-4.866506205871701E-004;
2.402000000000000E+009;1.577155739068985E-001;7.332703471183777E-002;-2.510413760319352E-003;-2.904697612393647E-004;
2.402166666666667E+009;1.582200974225998E-001;7.078339904546738E-002;-2.487188903614879E-003;-2.591360243968666E-004;
2.402333333333334E+009;1.591644138097763E-001;6.816521286964417E-002;-2.642491599544883E-003;7.558649940619944E-006;
2.402500000000000E+009;1.602979302406311E-001;6.565121561288834E-002;-2.582238288596273E-003;2.247854718007147E-004;
2.402666666666667E+009;1.613597124814987E-001;6.311419606208801E-002;-2.658494049683213E-003;4.670339112635702E-004;
2.402833333333334E+009;1.628459692001343E-001;6.080142408609390E-002;-2.697303425520659E-003;6.559702451340854E-004;
2.403000000000000E+009;1.642486453056335E-001;5.847504362463951E-002;-2.702589379623532E-003;9.242762462235987E-004;
2.403166666666667E+009;1.657590866088867E-001;5.634409561753273E-002;-2.619499107822776E-003;1.180889667011797E-003;
2.403333333333334E+009;1.672221720218658E-001;5.396644771099091E-002;-2.489327453076839E-003;1.414802158251405E-003;
2.403500000000000E+009;1.688909232616425E-001;5.205430835485458E-002;-2.342924242839217E-003;1.578371739014983E-003;
2.403666666666667E+009;1.706749349832535E-001;5.025232583284378E-002;-2.126124454662204E-003;1.787119195796549E-003;
2.403833333333334E+009;1.722079068422318E-001;4.838683456182480E-002;-2.045526402071118E-003;2.018749946728349E-003;
2.404000000000000E+009;1.738951355218887E-001;4.670180752873421E-002;-1.825253479182720E-003;2.012734534218907E-003;
2.404166666666667E+009;1.754446029663086E-001;4.516619443893433E-002;-1.565820537507534E-003;2.224382944405079E-003;
2.404333333333334E+009;1.772259920835495E-001;4.366055503487587E-002;-1.383907278068364E-003;2.036589197814465E-003;
2.404500000000000E+009;1.787371933460236E-001;4.220655933022499E-002;-1.338382251560688E-003;2.167062368243933E-003;
2.404666666666667E+009;1.804332286119461E-001;4.129900783300400E-002;-1.190371345728636E-003;2.165247686207295E-003;
2.404833333333334E+009;1.821140199899674E-001;4.020558297634125E-002;-8.490692125633359E-004;2.062302781268954E-003;
2.405000000000000E+009;1.835443973541260E-001;3.955197334289551E-002;-8.242290932685137E-004;2.118377480655909E-003;
2.405166666666667E+009;1.848462820053101E-001;3.891663253307343E-002;-7.064029341563582E-004;2.090492052957416E-003;
2.405333333333334E+009;1.862113177776337E-001;3.836262971162796E-002;-6.223781965672970E-004;2.199043519794941E-003;
2.405500000000000E+009;1.877806633710861E-001;3.794865310192108E-002;-5.601734737865627E-004;2.114542527124286E-003;
2.405666666666667E+009;1.889182329177856E-001;3.762605041265488E-002;-4.770071536768228E-004;2.131302375346422E-003;
2.405833333333334E+009;1.903387904167175E-001;3.744430094957352E-002;-3.365095180924982E-004;2.044802531599999E-003;
2.406000000000000E+009;1.912978142499924E-001;3.730800002813339E-002;-3.500522871036083E-004;2.057818230241537E-003;
2.406166666666667E+009;1.922723948955536E-001;3.716273978352547E-002;-1.074481115210801E-004;2.066710032522678E-003;
2.406333333333334E+009;1.931917071342468E-001;3.716144338250160E-002;-1.453719305573031E-004;2.024096669629216E-003;
2.406500000000000E+009;1.938565671443939E-001;3.720359876751900E-002;-3.466968337306753E-005;2.135086338967085E-003;
2.406666666666667E+009;1.945721060037613E-001;3.736413270235062E-002;2.775633183773607E-004;1.984035130590200E-003;
2.406833333333334E+009;1.951017975807190E-001;3.737566992640495E-002;3.277635551057756E-004;2.199167152866721E-003;
2.407000000000000E+009;1.952980905771256E-001;3.757231310009956E-002;4.074493481311947E-004;2.079075900837779E-003;
2.407166666666667E+009;1.957307159900665E-001;3.767577558755875E-002;5.295905284583569E-004;2.041765721514821E-003;
2.407333333333334E+009;1.956639140844345E-001;3.775788843631744E-002;4.234309017192572E-004;1.783435582183301E-003;
2.407500000000000E+009;1.956394612789154E-001;3.790768608450890E-002;9.304968407377601E-004;1.926603144966066E-003;
2.407666666666667E+009;1.956586837768555E-001;3.783881291747093E-002;8.927294402383268E-004;1.715702353976667E-003;
2.407833333333334E+009;1.952300518751144E-001;3.760042786598206E-002;9.504063636995852E-004;1.732867676764727E-003;
2.408000000000000E+009;1.952082812786102E-001;3.772157803177834E-002;1.015055691823363E-003;1.610215287655592E-003;
2.408166666666667E+009;1.944753676652908E-001;3.728325292468071E-002;1.152100274339318E-003;1.448713708668947E-003;
2.408333333333334E+009;1.940402388572693E-001;3.685905039310455E-002;1.196584780700505E-003;1.229402725584805E-003;
2.408500000000000E+009;1.932619512081146E-001;3.663491085171700E-002;1.063362346030772E-003;1.045351848006249E-003;
2.408666666666667E+009;1.926312744617462E-001;3.604394942522049E-002;1.118902000598609E-003;1.052710460498929E-003;
2.408833333333334E+009;1.919853836297989E-001;3.533468022942543E-002;1.113445148803294E-003;9.683548705652356E-004;
2.409000000000000E+009;1.910277009010315E-001;3.445153683423996E-002;1.109177246689796E-003;7.446351228281856E-004;
2.409166666666667E+009;1.899861246347427E-001;3.339432179927826E-002;1.004520687274635E-003;7.524771499447525E-004;
2.409333333333334E+009;1.892289668321610E-001;3.236711025238037E-002;9.740659734234214E-004;7.179273525252938E-004;
2.409500000000000E+009;1.879484504461289E-001;3.105931356549263E-002;9.855951648205519E-004;5.793184973299503E-004;
2.409666666666667E+009;1.870096474885941E-001;2.974676713347435E-002;8.025000570341945E-004;4.514830652624369E-004;
2.409833333333334E+009;1.860477775335312E-001;2.824801206588745E-002;7.776521961204708E-004;5.572442896664143E-004;
2.410000000000000E+009;1.849445998668671E-001;2.674389071762562E-002;9.220950887538493E-004;5.699589964933693E-004;
2.410166666666667E+009;1.839047670364380E-001;2.472051419317722E-002;8.105018059723079E-004;5.643249023705721E-004;
2.410333333333334E+009;1.830260455608368E-001;2.301315404474735E-002;7.648485479876399E-004;4.648783360607922E-004;
2.410500000000000E+009;1.818943917751312E-001;2.109750546514988E-002;6.688918801955879E-004;4.191974294371903E-004;
2.410666666666667E+009;1.810783743858337E-001;1.892816461622715E-002;7.038610638119280E-004;4.748705250676721E-004;
2.410833333333334E+009;1.805429607629776E-001;1.660801470279694E-002;7.995084743015468E-004;3.709206357598305E-004;
2.411000000000000E+009;1.796594411134720E-001;1.453891769051552E-002;7.253261283040047E-004;4.951177979819477E-004;
2.411166666666667E+009;1.790841221809387E-001;1.229772344231606E-002;6.255105254240334E-004;4.566433199215680E-004;
2.411333333333334E+009;1.784885227680206E-001;9.794018231332302E-003;6.741192773915827E-004;3.279439115431160E-004;
2.411500000000000E+009;1.780343204736710E-001;7.287691812962294E-003;7.447749958373606E-004;2.005053538596258E-004;
2.411666666666667E+009;1.778388768434525E-001;5.089934449642897E-003;6.683475221507251E-004;3.852085210382938E-004;
2.411833333333334E+009;1.775466203689575E-001;2.768863458186388E-003;6.729660090059042E-004;2.089468471240252E-004;
2.412000000000000E+009;1.776605248451233E-001;9.485715418122709E-005;6.483716424554586E-004;2.507641620468348E-004;
2.412166666666667E+009;1.777365058660507E-001;-2.212090184912086E-003;6.362206768244505E-004;1.109160075429827E-004;
2.412333333333334E+009;1.779878139495850E-001;-4.858714062720537E-003;6.506405188702047E-004;6.215745088411495E-005;
2.412500000000000E+009;1.784906536340714E-001;-7.132641039788723E-003;3.209217102266848E-004;6.610390119021758E-005;
2.412666666666667E+009;1.789553612470627E-001;-9.563296101987362E-003;2.544909366406500E-004;4.732530942419544E-005;
2.412833333333334E+009;1.797902882099152E-001;-1.203906815499067E-002;3.549137327354401E-004;1.181807328975992E-005;
2.413000000000000E+009;1.803383082151413E-001;-1.436641719192267E-002;3.385486779734492E-004;8.173131936928257E-005;
2.413166666666667E+009;1.812532246112824E-001;-1.656569913029671E-002;2.681847836356610E-004;1.162879270850681E-004;
2.413333333333334E+009;1.823931336402893E-001;-1.886374317109585E-002;1.461582141928375E-004;2.302473585586995E-004;
2.413500000000000E+009;1.832692474126816E-001;-2.109869383275509E-002;3.017216222360730E-004;4.417946620378643E-004;
2.413666666666667E+009;1.843661367893219E-001;-2.333714999258518E-002;1.454052544431761E-004;4.026012902613729E-004;
2.413833333333334E+009;1.855443567037582E-001;-2.516223676502705E-002;2.774449239950627E-004;5.567247862927616E-004;
2.414000000000000E+009;1.867718994617462E-001;-2.719086594879627E-002;3.362376592122018E-004;5.036033107899129E-004;
2.414166666666667E+009;1.881361901760101E-001;-2.911297976970673E-002;2.094671363011003E-004;5.748030962422490E-004;
2.414333333333334E+009;1.891376525163651E-001;-3.096197172999382E-002;4.599614767357707E-004;7.503769011236727E-004;
2.414500000000000E+009;1.904557049274445E-001;-3.235149756073952E-002;4.652081988751888E-004;6.771523621864617E-004;
2.414666666666667E+009;1.916240900754929E-001;-3.394912928342819E-002;3.039834555238485E-004;5.659086746163666E-004;
2.414833333333334E+009;1.928683072328568E-001;-3.533764556050301E-002;4.612258635461330E-004;6.394777446985245E-004;
2.415000000000000E+009;1.939234137535095E-001;-3.657237067818642E-002;4.373799019958824E-004;6.194625748321414E-004;
2.415166666666667E+009;1.951668113470078E-001;-3.756915777921677E-002;5.553764058277011E-004;4.985223640687764E-004;
2.415333333333334E+009;1.963590532541275E-001;-3.865249827504158E-002;5.426098359748721E-004;5.203656619414687E-004;
2.415500000000000E+009;1.974429041147232E-001;-3.926116600632668E-002;3.889910876750946E-004;4.488171252887696E-004;
2.415666666666667E+009;1.986685544252396E-001;-4.006055742502213E-002;5.267589003778994E-004;5.270013934932649E-004;
2.415833333333334E+009;1.994853913784027E-001;-4.064444452524185E-002;5.696412408724427E-004;6.792268832214177E-004;
2.416000000000000E+009;2.002267092466354E-001;-4.127297177910805E-002;5.431122262962163E-004;6.180977215990424E-004;
2.416166666666667E+009;2.008788287639618E-001;-4.186422377824783E-002;6.817890098318458E-004;6.217237096279860E-004;
2.416333333333334E+009;2.015806585550308E-001;-4.199736565351486E-002;6.173462024889886E-004;8.909381576813757E-004;
2.416500000000000E+009;2.020588368177414E-001;-4.235916584730148E-002;8.157393313013017E-004;7.403665804304183E-004;
2.416666666666667E+009;2.023881226778030E-001;-4.264011979103088E-002;7.872179266996682E-004;7.711029029451311E-004;
2.416833333333334E+009;2.025538235902786E-001;-4.255922511219978E-002;9.437477565370500E-004;6.811852217651904E-004;
2.417000000000000E+009;2.026147246360779E-001;-4.266992583870888E-002;9.966716170310974E-004;6.462119054049254E-004;
2.417166666666667E+009;2.024166136980057E-001;-4.248289763927460E-002;1.138020772486925E-003;6.791580235585570E-004;
2.417333333333334E+009;2.021832615137100E-001;-4.226134717464447E-002;1.200348604470491E-003;5.582218291237950E-004;
2.417500000000000E+009;2.018534243106842E-001;-4.227541387081146E-002;1.413332298398018E-003;6.607082905247808E-004;
2.417666666666667E+009;2.014063894748688E-001;-4.194878414273262E-002;1.539170509204269E-003;5.333491717465222E-004;
2.417833333333334E+009;2.009515017271042E-001;-4.190792888402939E-002;1.483279629610479E-003;5.543055594898760E-004;
2.418000000000000E+009;2.003071308135986E-001;-4.156463220715523E-002;1.668702345341444E-003;2.916915982495993E-004;
2.418166666666667E+009;1.995197087526321E-001;-4.142368584871292E-002;1.416850602254272E-003;2.540344721637666E-004;
2.418333333333334E+009;1.986029148101807E-001;-4.120315983891487E-002;1.611983054317534E-003;1.436583261238411E-004;
2.418500000000000E+009;1.976127475500107E-001;-4.120469093322754E-002;1.689997385255992E-003;3.624259989010170E-005;
2.418666666666667E+009;1.967644840478897E-001;-4.121195524930954E-002;1.672707265242934E-003;-2.240945905214176E-004;
2.418833333333334E+009;1.955538988113403E-001;-4.133306816220284E-002;1.720791682600975E-003;-2.579168940428644E-004;
2.419000000000000E+009;1.941762715578079E-001;-4.156558215618134E-002;1.544436090625823E-003;-3.247218846809119E-004;
2.419166666666667E+009;1.929374039173126E-001;-4.181699454784393E-002;1.649594283662736E-003;-4.854790458921343E-004;
2.419333333333334E+009;1.916113644838333E-001;-4.242006316781044E-002;1.655370113439858E-003;-4.939723876304925E-004;
2.419500000000000E+009;1.900405138731003E-001;-4.283655434846878E-002;1.471267547458410E-003;-6.076238350942731E-004;
2.419666666666667E+009;1.885066330432892E-001;-4.367995634675026E-002;1.401310088112950E-003;-5.145012983120978E-004;
2.419833333333334E+009;1.869729161262512E-001;-4.435805603861809E-002;1.405036775395274E-003;-7.403088966384530E-004;
2.420000000000000E+009;1.853757053613663E-001;-4.537676647305489E-002;1.441881177015603E-003;-7.841980550438166E-004;
2.420166666666667E+009;1.837380230426788E-001;-4.624447599053383E-002;1.377976383082569E-003;-7.664029253646731E-004;
2.420333333333334E+009;1.820683628320694E-001;-4.744905978441238E-002;1.358970883302391E-003;-7.500771316699684E-004;
2.420500000000000E+009;1.803116649389267E-001;-4.876965656876564E-002;1.176004530861974E-003;-7.772648823447526E-004;
2.420666666666667E+009;1.788330525159836E-001;-4.981080815196037E-002;1.380146131850779E-003;-7.805930799804628E-004;
2.420833333333334E+009;1.771553009748459E-001;-5.137168616056442E-002;1.242319005541503E-003;-8.916127262637019E-004;
2.421000000000000E+009;1.758135408163071E-001;-5.303649976849556E-002;1.296172034926713E-003;-1.073237624950707E-003;
2.421166666666667E+009;1.743288040161133E-001;-5.481345579028130E-002;1.423287554644048E-003;-1.121946843340993E-003;
2.421333333333334E+009;1.727108210325241E-001;-5.629619210958481E-002;1.373807783238590E-003;-1.172015909105539E-003;
2.421500000000000E+009;1.713936179876328E-001;-5.833679437637329E-002;1.414739410392940E-003;-1.221993472427130E-003;
2.421666666666667E+009;1.700981408357620E-001;-6.012289971113205E-002;1.249288907274604E-003;-1.470597344450653E-003;
2.421833333333334E+009;1.690054386854172E-001;-6.205370649695396E-002;1.282450510188937E-003;-1.546835643239319E-003;
2.422000000000000E+009;1.680366396903992E-001;-6.386707723140717E-002;1.323357108049095E-003;-1.568538486026228E-003;
2.422166666666667E+009;1.670686453580856E-001;-6.607238948345184E-002;1.073189079761505E-003;-1.855977345257998E-003;
2.422333333333334E+009;1.662378162145615E-001;-6.808636337518692E-002;1.093553844839335E-003;-1.908366917632520E-003;
2.422500000000000E+009;1.654078960418701E-001;-7.026766985654831E-002;8.147903135977686E-004;-2.010268159210682E-003;
2.422666666666667E+009;1.647544354200363E-001;-7.216384261846542E-002;7.518841885030270E-004;-2.174896420910955E-003;
2.422833333333334E+009;1.642318814992905E-001;-7.425875216722488E-002;5.070656770840287E-004;-2.305339556187391E-003;
2.423000000000000E+009;1.637701690196991E-001;-7.640122622251511E-002;2.694339491426945E-004;-2.275694860145450E-003;
2.423166666666667E+009;1.633719205856323E-001;-7.843799144029617E-002;1.738815044518560E-004;-2.266564639285207E-003;
2.423333333333334E+009;1.634522974491119E-001;-8.044164627790451E-002;3.743782144738361E-005;-2.300791442394257E-003;
2.423500000000000E+009;1.632585674524307E-001;-8.232552558183670E-002;-3.285153070464730E-004;-2.323972061276436E-003;
2.423666666666667E+009;1.633414328098297E-001;-8.432050049304962E-002;-3.806800232268870E-004;-2.312502358108759E-003;
2.423833333333334E+009;1.632631719112396E-001;-8.605003356933594E-002;-6.665111286565661E-004;-2.264060545712709E-003;
2.424000000000000E+009;1.633520424365997E-001;-8.794842660427094E-002;-8.018482476472855E-004;-2.037582453340292E-003;
2.424166666666667E+009;1.634591668844223E-001;-8.959832787513733E-002;-9.574200958013535E-004;-1.830238848924637E-003;
2.424333333333334E+009;1.637887954711914E-001;-9.118077903985977E-002;-9.572017006576061E-004;-1.811959897167981E-003;
2.424500000000000E+009;1.640430837869644E-001;-9.299340099096298E-002;-1.067539211362600E-003;-1.956329913809896E-003;
2.424666666666667E+009;1.643866300582886E-001;-9.434616565704346E-002;-1.127821742556989E-003;-1.524058752693236E-003;
2.424833333333334E+009;1.648817360401154E-001;-9.569046646356583E-002;-1.255729235708714E-003;-1.677925582043827E-003;
2.425000000000000E+009;1.652479916810989E-001;-9.686600416898727E-002;-1.519348123110831E-003;-1.431932672858238E-003;
2.425166666666667E+009;1.656026840209961E-001;-9.793785214424133E-002;-1.330711063928902E-003;-1.335289911366999E-003;
2.425333333333334E+009;1.659469157457352E-001;-9.890361130237579E-002;-1.493080751970410E-003;-1.104550086893141E-003;
2.425500000000000E+009;1.664084941148758E-001;-9.980913996696472E-002;-1.457360689528287E-003;-1.228479202836752E-003;
2.425666666666667E+009;1.667445302009583E-001;-1.005758494138718E-001;-1.611118437722325E-003;-1.161963096819818E-003;
2.425833333333334E+009;1.670929044485092E-001;-1.014304384589195E-001;-1.756610115990043E-003;-9.091342799365521E-004;
2.426000000000000E+009;1.675813496112824E-001;-1.017255261540413E-001;-1.623247168026865E-003;-8.023474947549403E-004;
2.426166666666667E+009;1.679447740316391E-001;-1.023132055997849E-001;-1.632519182749093E-003;-6.717338110320270E-004;
2.426333333333334E+009;1.680366694927216E-001;-1.029044166207314E-001;-1.864327467046678E-003;-6.333172204904258E-004;
2.426500000000000E+009;1.683875620365143E-001;-1.030934900045395E-001;-1.754478202201426E-003;-4.104230320081115E-004;
2.426666666666667E+009;1.685425043106079E-001;-1.034855768084526E-001;-1.804317929781973E-003;-4.001010966021568E-004;
2.426833333333334E+009;1.688527166843414E-001;-1.036751940846443E-001;-1.672736252658069E-003;-2.356679760850966E-004;
2.427000000000000E+009;1.687208414077759E-001;-1.039183959364891E-001;-1.591075677424669E-003;-8.218373113777489E-005;
2.427166666666667E+009;1.687544733285904E-001;-1.039672270417213E-001;-1.591748325154185E-003;8.351610449608415E-005;
2.427333333333334E+009;1.685856133699417E-001;-1.043390110135078E-001;-1.584394602105022E-003;6.193805893417448E-005;
2.427500000000000E+009;1.683896183967590E-001;-1.043575480580330E-001;-1.596517977304757E-003;1.286931365029886E-004;
2.427666666666667E+009;1.679901480674744E-001;-1.043923348188400E-001;-1.615503919310868E-003;3.945727949030697E-004;
2.427833333333334E+009;1.677122265100479E-001;-1.045490354299545E-001;-1.460354775190353E-003;4.586018039844930E-004;
