# Version 1.00
#
freq[Hz];re:Trc1_S11;im:Trc1_S11;re:Trc2_S21;im:Trc2_S21;
2.400000000000000E+009;1.557473987340927E-001;1.063235700130463E-001;-8.972436189651489E-004;-7.487466791644692E-004;
2.400166666666667E+009;1.553208380937576E-001;1.039056554436684E-001;-1.118250656872988E-003;-8.083812426775694E-004;
2.400333333333334E+009;1.554285436868668E-001;1.014681607484818E-001;-1.138933585025370E-003;-8.695396827533841E-004;
2.400500000000000E+009;1.553976982831955E-001;9.872646629810333E-002;-1.314355758950114E-003;-8.331040153279901E-004;
2.400666666666667E+009;1.553440839052200E-001;9.617663919925690E-002;-1.300165778957307E-003;-9.435646934434772E-004;
2.400833333333334E+009;1.552737057209015E-001;9.334291517734528E-002;-1.451487769372761E-003;-8.469134918414056E-004;
2.401000000000000E+009;1.554631292819977E-001;9.053807705640793E-002;-1.499408506788313E-003;-8.265422657132149E-004;
2.401166666666667E+009;1.555355191230774E-001;8.759839087724686E-002;-1.822034479118884E-003;-7.330568041652441E-004;
2.401333333333334E+009;1.556994169950485E-001;8.485168218612671E-002;-1.783190527930856E-003;-7.916324539110065E-004;
2.401500000000000E+009;1.562501341104507E-001;8.207040280103684E-002;-2.091131638735533E-003;-8.165054023265839E-004;
2.401666666666667E+009;1.562932729721069E-001;7.908666133880615E-002;-2.046464243903756E-003;-5.983940209262073E-004;
2.401833333333334E+009;1.569835841655731E-001;7.637449353933334E-002;-2.206013305112720E-003;-4.889884730800986E-004;
2.402000000000000E+009;1.576391309499741E-001;7.345741987228394E-002;-2.269178628921509E-003;-2.297769970027730E-004;
2.402166666666667E+009;1.584588140249252E-001;7.101590186357498E-002;-2.425708575174213E-003;-2.479431277606636E-004;
2.402333333333334E+009;1.593382358551025E-001;6.827495992183685E-002;-2.545485971495509E-003;1.083403039956465E-004;
2.402500000000000E+009;1.605409830808640E-001;6.571351736783981E-002;-2.442886587232351E-003;2.663148334249854E-004;
2.402666666666667E+009;1.616705358028412E-001;6.331150233745575E-002;-2.516690408810973E-003;6.213464657776058E-004;
2.402833333333334E+009;1.628381609916687E-001;6.082589924335480E-002;-2.530053956434131E-003;6.532503757625818E-004;
2.403000000000000E+009;1.643207669258118E-001;5.853292346000671E-002;-2.573002362623811E-003;7.570820744149387E-004;
2.403166666666667E+009;1.661353707313538E-001;5.645500496029854E-002;-2.379219513386488E-003;1.160468556918204E-003;
2.403333333333334E+009;1.675057560205460E-001;5.422730743885040E-002;-2.477618400007486E-003;1.475509139709175E-003;
2.403500000000000E+009;1.691338568925858E-001;5.220093578100205E-002;-2.099885605275631E-003;1.560337725095451E-003;
2.403666666666667E+009;1.709754317998886E-001;5.037628859281540E-002;-2.070385264232755E-003;1.598088070750237E-003;
2.403833333333334E+009;1.727290004491806E-001;4.833710566163063E-002;-1.953806728124619E-003;1.954395789653063E-003;
2.404000000000000E+009;1.738269031047821E-001;4.661470279097557E-002;-1.718027051538229E-003;2.137208823114634E-003;
2.404166666666667E+009;1.761646419763565E-001;4.508539289236069E-002;-1.496584387496114E-003;2.088227542117238E-003;
2.404333333333334E+009;1.772450208663940E-001;4.386504366993904E-002;-1.225930522195995E-003;2.167044905945659E-003;
2.404500000000000E+009;1.791950613260269E-001;4.251217469573021E-002;-1.108297496102750E-003;2.089208923280239E-003;
2.404666666666667E+009;1.809850484132767E-001;4.101867601275444E-002;-9.926933562383056E-004;2.138281939551234E-003;
2.404833333333334E+009;1.822077333927155E-001;4.016585648059845E-002;-8.132342481985688E-004;2.029005903750658E-003;
2.405000000000000E+009;1.840472370386124E-001;3.979913145303726E-002;-6.899250438436866E-004;2.150412648916245E-003;
2.405166666666667E+009;1.851244717836380E-001;3.901532292366028E-002;-5.256545264273882E-004;2.145424718037248E-003;
2.405333333333334E+009;1.866206228733063E-001;3.839331865310669E-002;-5.957358516752720E-004;2.045172732323408E-003;
2.405500000000000E+009;1.879750043153763E-001;3.795104473829269E-002;-4.514702304732055E-004;2.087083179503679E-003;
2.405666666666667E+009;1.892209798097611E-001;3.757004067301750E-002;-4.913258599117398E-004;2.079176483675838E-003;
2.405833333333334E+009;1.904054135084152E-001;3.740058466792107E-002;-1.639876572880894E-004;2.116589806973934E-003;
2.406000000000000E+009;1.914737671613693E-001;3.706409782171249E-002;-2.648601657710969E-004;1.935604494065046E-003;
2.406166666666667E+009;1.924282312393189E-001;3.707142546772957E-002;-1.913401356432587E-004;2.077009994536638E-003;
2.406333333333334E+009;1.933859139680862E-001;3.708186745643616E-002;-9.363822027808055E-005;2.132175024598837E-003;
2.406500000000000E+009;1.940551549196243E-001;3.713855892419815E-002;-5.936324669164605E-006;2.054832875728607E-003;
2.406666666666667E+009;1.946621686220169E-001;3.715591132640839E-002;1.436943566659465E-004;2.095011062920094E-003;
2.406833333333334E+009;1.953097283840179E-001;3.721893206238747E-002;3.513891715556383E-004;2.043917076662183E-003;
2.407000000000000E+009;1.955569088459015E-001;3.756053373217583E-002;4.212622588966042E-004;2.011410426348448E-003;
2.407166666666667E+009;1.958398818969727E-001;3.748165071010590E-002;4.966470296494663E-004;1.829983200877905E-003;
2.407333333333334E+009;1.958024203777313E-001;3.764710575342178E-002;6.637023761868477E-004;1.885245903395116E-003;
2.407500000000000E+009;1.958221793174744E-001;3.780229389667511E-002;8.168526110239327E-004;1.769232098013163E-003;
2.407666666666667E+009;1.958363801240921E-001;3.764034807682037E-002;1.022680196911097E-003;1.632128143683076E-003;
2.407833333333334E+009;1.952891349792481E-001;3.753747045993805E-002;1.082713948562741E-003;1.606770441867411E-003;
2.408000000000000E+009;1.951417475938797E-001;3.739806264638901E-002;1.181336934678257E-003;1.537509029731154E-003;
2.408166666666667E+009;1.945504844188690E-001;3.727386146783829E-002;1.182115753181279E-003;1.351135317236185E-003;
2.408333333333334E+009;1.942239403724670E-001;3.669487312436104E-002;1.104660099372268E-003;1.200838014483452E-003;
2.408500000000000E+009;1.935445219278336E-001;3.645810112357140E-002;1.109577831812203E-003;9.961705654859543E-004;
2.408666666666667E+009;1.927994042634964E-001;3.588163480162621E-002;1.068609068170190E-003;9.276276687160134E-004;
2.408833333333334E+009;1.920366138219833E-001;3.524132445454598E-002;1.052399631589651E-003;8.074445067904890E-004;
2.409000000000000E+009;1.910967379808426E-001;3.421069309115410E-002;1.063424628227949E-003;7.392439292743802E-004;
2.409166666666667E+009;1.901948899030685E-001;3.336637467145920E-002;1.001170021481812E-003;6.424114690162242E-004;
2.409333333333334E+009;1.893145442008972E-001;3.226841241121292E-002;8.783423108980060E-004;5.114567466080189E-004;
2.409500000000000E+009;1.881853789091110E-001;3.106234036386013E-002;9.488660143688321E-004;4.897967446595430E-004;
2.409666666666667E+009;1.872124820947647E-001;2.935342490673065E-002;1.123394002206624E-003;-2.050754847005010E-004;
2.409833333333334E+009;1.860280036926270E-001;2.832580544054508E-002;4.280846624169499E-004;5.884682177565992E-004;
2.410000000000000E+009;1.852134168148041E-001;2.652959153056145E-002;9.032703819684684E-004;5.278028547763825E-004;
2.410166666666667E+009;1.839772760868073E-001;2.474977448582649E-002;4.860901972278953E-004;4.390829999465495E-004;
2.410333333333334E+009;1.830814629793167E-001;2.296132780611515E-002;7.529337890446186E-004;4.911944270133972E-004;
2.410500000000000E+009;1.821803748607636E-001;2.101748064160347E-002;7.154302438721061E-004;6.729802116751671E-004;
2.410666666666667E+009;1.811994910240173E-001;1.882156357169151E-002;6.078474689275026E-004;6.726573919877410E-004;
2.410833333333334E+009;1.806833297014237E-001;1.655939780175686E-002;6.058873841539025E-004;3.766630252357572E-004;
2.411000000000000E+009;1.798060536384583E-001;1.437673624604940E-002;7.075942703522742E-004;2.799358626361936E-004;
2.411166666666667E+009;1.791547834873200E-001;1.210635062307119E-002;6.300701643340290E-004;3.295793139841408E-004;
2.411333333333334E+009;1.784961968660355E-001;9.598126634955406E-003;9.354680660180748E-004;2.791316655930132E-004;
2.411500000000000E+009;1.782792806625366E-001;7.265704683959484E-003;6.974524585530162E-004;2.300455962540582E-004;
2.411666666666667E+009;1.778552085161209E-001;4.881207365542650E-003;5.661780014634132E-004;1.528742286609486E-004;
2.411833333333334E+009;1.775536388158798E-001;2.572484314441681E-003;6.716852658428252E-004;8.974892989499494E-005;
2.412000000000000E+009;1.776941120624542E-001;-1.090033129003132E-005;6.678409990854561E-004;1.486102701164782E-004;
2.412166666666667E+009;1.779738515615463E-001;-2.487838501110673E-003;5.659086164087057E-004;1.662863069213927E-004;
2.412333333333334E+009;1.780592203140259E-001;-4.858525935560465E-003;5.270175752229989E-004;1.303005265071988E-004;
2.412500000000000E+009;1.784270256757736E-001;-7.273725699633360E-003;6.038043648004532E-004;8.329503179993480E-005;
2.412666666666667E+009;1.791452765464783E-001;-9.746038354933262E-003;3.721489338204265E-004;-7.981769158504903E-005;
2.412833333333334E+009;1.797658652067184E-001;-1.211749017238617E-002;2.643598127178848E-004;1.367217919323593E-004;
2.413000000000000E+009;1.805337816476822E-001;-1.446879375725985E-002;3.171856515109539E-004;6.141391349956393E-005;
2.413166666666667E+009;1.812941730022430E-001;-1.664177514612675E-002;3.094288404099643E-004;8.461291872663423E-005;
2.413333333333334E+009;1.823961138725281E-001;-1.911152713000774E-002;1.666715252213180E-004;2.532584185246378E-004;
2.413500000000000E+009;1.833194494247437E-001;-2.116782963275909E-002;8.541644638171420E-005;3.770319162867963E-004;
2.413666666666667E+009;1.844852119684219E-001;-2.347987703979015E-002;9.724244591780007E-005;2.587601775303483E-004;
2.413833333333334E+009;1.855477690696716E-001;-2.544805780053139E-002;1.587584556546062E-004;3.568809770513326E-004;
2.414000000000000E+009;1.866700202226639E-001;-2.736134640872479E-002;2.555479295551777E-004;3.738082596100867E-004;
2.414166666666667E+009;1.880344301462174E-001;-2.924956940114498E-002;3.093606792390347E-004;6.333866622298956E-004;
2.414333333333334E+009;1.890015304088593E-001;-3.120299801230431E-002;2.320474013686180E-004;5.937650566920638E-004;
2.414500000000000E+009;1.903534680604935E-001;-3.264957666397095E-002;3.425257746130228E-004;6.726163555867970E-004;
2.414666666666667E+009;1.915480643510819E-001;-3.389922901988030E-002;4.496152396313846E-004;5.696823936887085E-004;
2.414833333333334E+009;1.928067654371262E-001;-3.533256426453590E-002;4.588940646499395E-004;6.017694831825793E-004;
2.415000000000000E+009;1.938023120164871E-001;-3.674086183309555E-002;3.952737606596202E-004;6.953118136152625E-004;
2.415166666666667E+009;1.952043324708939E-001;-3.786410763859749E-002;5.863655824214220E-004;4.813105915673077E-004;
2.415333333333334E+009;1.964062452316284E-001;-3.879942744970322E-002;5.048412713222206E-004;7.644370780326426E-004;
2.415500000000000E+009;1.973676979541779E-001;-3.946343809366226E-002;5.125583847984672E-004;7.314545800909400E-004;
2.415666666666667E+009;1.984387785196304E-001;-4.026849567890167E-002;5.231800605542958E-004;6.373428041115403E-004;
2.415833333333334E+009;1.993075609207153E-001;-4.080027714371681E-002;4.087573906872422E-004;6.532834377139807E-004;
2.416000000000000E+009;2.000320404767990E-001;-4.138268530368805E-002;4.903618828393519E-004;6.914979312568903E-004;
2.416166666666667E+009;2.009954750537872E-001;-4.193837195634842E-002;5.840762169100344E-004;7.476780447177589E-004;
2.416333333333334E+009;2.014142125844955E-001;-4.209905117750168E-002;7.955445908010006E-004;7.062794757075608E-004;
2.416500000000000E+009;2.019628733396530E-001;-4.237658157944679E-002;7.004522485658526E-004;7.403641357086599E-004;
2.416666666666667E+009;2.022760659456253E-001;-4.269696399569511E-002;8.115392993204296E-004;8.128377376124263E-004;
2.416833333333334E+009;2.024551481008530E-001;-4.255661740899086E-002;8.897880907170475E-004;7.721549482084811E-004;
2.417000000000000E+009;2.025640755891800E-001;-4.276401549577713E-002;9.004020248539746E-004;7.382498006336391E-004;
2.417166666666667E+009;2.022690623998642E-001;-4.261722415685654E-002;1.204242114908993E-003;7.142598624341190E-004;
2.417333333333334E+009;2.021000087261200E-001;-4.237913712859154E-002;1.177925616502762E-003;6.460563745349646E-004;
2.417500000000000E+009;2.018437087535858E-001;-4.234285280108452E-002;1.422616071067751E-003;6.279834778979421E-004;
2.417666666666667E+009;2.012521475553513E-001;-4.212383553385735E-002;1.435591955669224E-003;4.850426048506051E-004;
2.417833333333334E+009;2.009193599224091E-001;-4.190935939550400E-002;1.432665041647852E-003;5.557201220653951E-004;
2.418000000000000E+009;2.002544999122620E-001;-4.158243909478188E-002;1.599073293618858E-003;3.453756216913462E-004;
2.418166666666667E+009;1.994614750146866E-001;-4.154660552740097E-002;1.594386529177427E-003;2.241705369669944E-004;
2.418333333333334E+009;1.985232532024384E-001;-4.136606678366661E-002;1.602449105121195E-003;1.011639833450317E-004;
2.418500000000000E+009;1.975245773792267E-001;-4.146973416209221E-002;1.465743989683688E-003;7.122273382265121E-005;
2.418666666666667E+009;1.966135650873184E-001;-4.130716249346733E-002;1.537252101115882E-003;-2.235254760307726E-005;
2.418833333333334E+009;1.953885555267334E-001;-4.134830459952354E-002;1.600045827217400E-003;-2.012039913097397E-004;
2.419000000000000E+009;1.940885931253433E-001;-4.170907288789749E-002;1.614208682440221E-003;-2.769302518572658E-004;
2.419166666666667E+009;1.928001642227173E-001;-4.195111244916916E-002;1.571964123286307E-003;-4.470650455914438E-004;
2.419333333333334E+009;1.914394348859787E-001;-4.255568608641625E-002;1.475538592785597E-003;-4.968179855495691E-004;
2.419500000000000E+009;1.899690330028534E-001;-4.296209290623665E-002;1.381089212372899E-003;-5.625833291560412E-004;
2.419666666666667E+009;1.883051544427872E-001;-4.368762299418449E-002;1.432750257663429E-003;-6.890813820064068E-004;
2.419833333333334E+009;1.867589354515076E-001;-4.439462348818779E-002;1.451940857805312E-003;-5.290605477057397E-004;
2.420000000000000E+009;1.851747632026672E-001;-4.519609734416008E-002;1.270649954676628E-003;-7.628135499544442E-004;
2.420166666666667E+009;1.836068183183670E-001;-4.620589315891266E-002;1.338096451945603E-003;-7.579606026411057E-004;
2.420333333333334E+009;1.820409595966339E-001;-4.747712612152100E-002;1.197363249957562E-003;-8.364160894416273E-004;
2.420500000000000E+009;1.802354902029038E-001;-4.870532825589180E-002;1.397653133608401E-003;-7.235651137307286E-004;
2.420666666666667E+009;1.786068677902222E-001;-4.990861564874649E-002;1.285038189962506E-003;-7.895673043094575E-004;
2.420833333333334E+009;1.770744323730469E-001;-5.154149234294891E-002;1.319896546192467E-003;-8.906136499717832E-004;
2.421000000000000E+009;1.754797697067261E-001;-5.309360474348068E-002;1.466290326789022E-003;-8.803026867099106E-004;
2.421166666666667E+009;1.742211878299713E-001;-5.475685000419617E-002;1.396672916598618E-003;-8.524199365638197E-004;
2.421333333333334E+009;1.725468337535858E-001;-5.627205967903137E-002;1.401409623213112E-003;-1.072942046448588E-003;
2.421500000000000E+009;1.711524426937103E-001;-5.822737514972687E-002;1.590844593010843E-003;-1.170135568827391E-003;
2.421666666666667E+009;1.700666993856430E-001;-6.022570654749870E-002;1.389744691550732E-003;-1.330383238382638E-003;
2.421833333333334E+009;1.687937527894974E-001;-6.199645623564720E-002;1.319785369560123E-003;-1.484599779359996E-003;
2.422000000000000E+009;1.677705198526382E-001;-6.389947980642319E-002;1.253443537279964E-003;-1.574024092406035E-003;
2.422166666666667E+009;1.669711470603943E-001;-6.601991504430771E-002;1.121069886721671E-003;-1.912687788717449E-003;
2.422333333333334E+009;1.661825031042099E-001;-6.823167949914932E-002;9.568668901920319E-004;-1.948365359567106E-003;
2.422500000000000E+009;1.654306799173355E-001;-7.020403444766998E-002;8.241147734224796E-004;-2.069249050691724E-003;
2.422666666666667E+009;1.645251661539078E-001;-7.213384658098221E-002;7.796763093210757E-004;-2.272266894578934E-003;
2.422833333333334E+009;1.642662733793259E-001;-7.442322373390198E-002;5.020273383706808E-004;-2.197931753471494E-003;
2.423000000000000E+009;1.636673957109451E-001;-7.644829899072647E-002;2.572338853497058E-004;-2.305264351889491E-003;
2.423166666666667E+009;1.632602214813232E-001;-7.833790779113770E-002;2.142455632565543E-004;-2.387620741501451E-003;
2.423333333333334E+009;1.631753742694855E-001;-8.034705370664597E-002;-7.505384564865381E-005;-2.259233267977834E-003;
2.423500000000000E+009;1.630636602640152E-001;-8.223096281290054E-002;-3.819067787844688E-004;-2.419306198135018E-003;
2.423666666666667E+009;1.631586700677872E-001;-8.430944383144379E-002;-4.590186872519553E-004;-2.354650525376201E-003;
2.423833333333334E+009;1.631387472152710E-001;-8.596842736005783E-002;-6.054314435459673E-004;-2.000199630856514E-003;
2.424000000000000E+009;1.634152978658676E-001;-8.788173645734787E-002;-7.511727162636817E-004;-2.211133018136025E-003;
2.424166666666667E+009;1.634151041507721E-001;-8.960611373186112E-002;-8.798771305009723E-004;-2.042253036051989E-003;
2.424333333333334E+009;1.636446863412857E-001;-9.113530814647675E-002;-9.245817200280726E-004;-1.798390643671155E-003;
2.424500000000000E+009;1.640758216381073E-001;-9.280394762754440E-002;-1.168365008197725E-003;-1.814373419620097E-003;
2.424666666666667E+009;1.643507182598114E-001;-9.436336159706116E-002;-1.070223865099251E-003;-1.654365798458457E-003;
2.424833333333334E+009;1.647682487964630E-001;-9.550951421260834E-002;-1.305012498050928E-003;-1.649663783609867E-003;
2.425000000000000E+009;1.652696430683136E-001;-9.676969051361084E-002;-1.378214452415705E-003;-1.560361590236425E-003;
2.425166666666667E+009;1.655833870172501E-001;-9.794323146343231E-002;-1.361895934678614E-003;-1.335615641437471E-003;
2.425333333333334E+009;1.659411638975143E-001;-9.886901080608368E-002;-1.565186888910830E-003;-1.279337098821998E-003;
2.425500000000000E+009;1.663707494735718E-001;-9.979802370071411E-002;-1.568262232467532E-003;-1.162722823210061E-003;
2.425666666666667E+009;1.668588668107987E-001;-1.005913168191910E-001;-1.567686675116420E-003;-1.094240578822792E-003;
2.425833333333334E+009;1.671151518821716E-001;-1.014193743467331E-001;-1.595536945387721E-003;-8.924510329961777E-004;
2.426000000000000E+009;1.674720793962479E-001;-1.018440946936607E-001;-1.621285686269403E-003;-7.739281863905489E-004;
2.426166666666667E+009;1.678867042064667E-001;-1.023053601384163E-001;-1.595231820829213E-003;-6.009506760165095E-004;
2.426333333333334E+009;1.678905338048935E-001;-1.028377935290337E-001;-1.677254214882851E-003;-4.868754476774484E-004;
2.426500000000000E+009;1.684429347515106E-001;-1.030048578977585E-001;-1.714102225378156E-003;-4.876143066212535E-004;
2.426666666666667E+009;1.685479730367661E-001;-1.034142822027206E-001;-1.658460125327110E-003;-2.966126485262066E-004;
2.426833333333334E+009;1.688364446163178E-001;-1.036581993103027E-001;-1.594169181771576E-003;-2.782343945000321E-004;
2.427000000000000E+009;1.688479632139206E-001;-1.037847995758057E-001;-1.619838061742485E-003;-7.969105354277417E-005;
2.427166666666667E+009;1.687350422143936E-001;-1.038429662585259E-001;-1.520950114354491E-003;-4.951283335685730E-005;
2.427333333333334E+009;1.686550080776215E-001;-1.042259782552719E-001;-1.476891571655870E-003;2.134984679287300E-004;
2.427500000000000E+009;1.684102565050125E-001;-1.042759642004967E-001;-1.566621358506382E-003;1.145451969932765E-004;
2.427666666666667E+009;1.680583506822586E-001;-1.042944416403770E-001;-1.446047332137823E-003;2.515094238333404E-004;
2.427833333333334E+009;1.676211059093475E-001;-1.044641137123108E-001;-1.228034147061408E-003;3.664547984953970E-004;
