# Version 1.00
#
freq[Hz];re:Trc1_S11;im:Trc1_S11;re:Trc2_S21;im:Trc2_S21;
2.400000000000000E+009;1.557327806949616E-001;1.062601506710053E-001;-1.543611870147288E-003;-1.232798909768462E-003;
2.400166666666667E+009;1.548497527837753E-001;1.039986982941628E-001;-4.735566617455334E-004;-1.262022648006678E-003;
2.400333333333334E+009;1.551253348588944E-001;1.016464531421661E-001;-6.135312723927200E-004;-1.138761756010354E-003;
2.400500000000000E+009;1.549976766109467E-001;9.857595711946487E-002;-1.241483842022717E-003;-8.115370292216539E-004;
2.400666666666667E+009;1.551508456468582E-001;9.614098817110062E-002;-1.333264866843820E-003;-9.295738418586552E-004;
2.400833333333334E+009;1.550299078226090E-001;9.318331629037857E-002;-1.549799693748355E-003;-9.444549214094877E-004;
2.401000000000000E+009;1.549882143735886E-001;9.028840065002441E-002;-1.611535204574466E-003;-8.949678158387542E-004;
2.401166666666667E+009;1.552510112524033E-001;8.759403228759766E-002;-1.781712984666228E-003;-6.918499129824340E-004;
2.401333333333334E+009;1.555449217557907E-001;8.477438986301422E-002;-1.663981121964753E-003;-8.143039885908365E-004;
2.401500000000000E+009;1.558424383401871E-001;8.180853724479675E-002;-2.025082940235734E-003;-7.385687204077840E-004;
2.401666666666667E+009;1.561582982540131E-001;7.889732718467712E-002;-2.174057299271226E-003;-6.369005423039198E-004;
2.401833333333334E+009;1.568357050418854E-001;7.630017399787903E-002;-2.201228868216276E-003;-3.864761674776673E-004;
2.402000000000000E+009;1.575422585010529E-001;7.352412492036820E-002;-2.487855032086372E-003;-3.997573803644627E-004;
2.402166666666667E+009;1.583269834518433E-001;7.076170295476914E-002;-2.476460300385952E-003;-9.781611879589036E-005;
2.402333333333334E+009;1.593231111764908E-001;6.824053823947907E-002;-2.483103657141328E-003;-6.143111386336386E-005;
2.402500000000000E+009;1.605408042669296E-001;6.567888706922531E-002;-2.641685307025909E-003;2.122320729540661E-004;
2.402666666666667E+009;1.615225672721863E-001;6.324020028114319E-002;-2.596824197098613E-003;3.766831359826028E-004;
2.402833333333334E+009;1.626556515693665E-001;6.088105589151382E-002;-2.616371726617217E-003;8.060932741500437E-004;
2.403000000000000E+009;1.641556173563004E-001;5.845471844077110E-002;-2.581730717793107E-003;1.005381345748901E-003;
2.403166666666667E+009;1.659633666276932E-001;5.624581500887871E-002;-2.483624732121825E-003;1.142119639553130E-003;
2.403333333333334E+009;1.672820746898651E-001;5.429586768150330E-002;-2.372157992795110E-003;1.406290102750063E-003;
2.403500000000000E+009;1.689985841512680E-001;5.195862054824829E-002;-2.261350164189935E-003;1.415324746631086E-003;
2.403666666666667E+009;1.707960665225983E-001;5.017739161849022E-002;-2.104981336742640E-003;1.728837261907756E-003;
2.403833333333334E+009;1.724199354648590E-001;4.832197725772858E-002;-2.004478359594941E-003;1.951311249285936E-003;
2.404000000000000E+009;1.738670766353607E-001;4.669826477766037E-002;-1.866298844106495E-003;2.067334251478314E-003;
2.404166666666667E+009;1.757788211107254E-001;4.518712684512138E-002;-1.668545184656978E-003;2.034207573160529E-003;
2.404333333333334E+009;1.772593408823013E-001;4.368638247251511E-002;-1.251522451639175E-003;2.186009194701910E-003;
2.404500000000000E+009;1.789596527814865E-001;4.222550615668297E-002;-1.315693603828549E-003;2.259742701426148E-003;
2.404666666666667E+009;1.805737465620041E-001;4.125709086656570E-002;-9.526908397674561E-004;2.093092538416386E-003;
2.404833333333334E+009;1.821969151496887E-001;4.028853401541710E-002;-7.734618266113102E-004;2.140282187610865E-003;
2.405000000000000E+009;1.834550499916077E-001;3.954917937517166E-002;-6.967564113438129E-004;2.165466081351042E-003;
2.405166666666667E+009;1.850759685039520E-001;3.884116187691689E-002;-6.499689188785851E-004;2.064601983875036E-003;
2.405333333333334E+009;1.864810585975647E-001;3.826862201094627E-002;-4.887214745394886E-004;2.146981656551361E-003;
2.405500000000000E+009;1.877674609422684E-001;3.786269575357437E-002;-4.021868808194995E-004;2.235526219010353E-003;
2.405666666666667E+009;1.891300827264786E-001;3.754897415637970E-002;-4.072281881235540E-004;2.112306188791990E-003;
2.405833333333334E+009;1.902398020029068E-001;3.725259751081467E-002;-3.404228482395411E-004;2.125175204128027E-003;
2.406000000000000E+009;1.914070099592209E-001;3.717231005430222E-002;-3.644627286121249E-004;2.192394807934761E-003;
2.406166666666667E+009;1.923676282167435E-001;3.697762638330460E-002;-1.540989178465679E-004;2.190289320424199E-003;
2.406333333333334E+009;1.933234632015228E-001;3.711444139480591E-002;-1.791923859855160E-004;2.096201526001096E-003;
2.406500000000000E+009;1.939482092857361E-001;3.717441111803055E-002;-2.695842340472154E-005;2.316497499123216E-003;
2.406666666666667E+009;1.946116983890533E-001;3.728140145540237E-002;1.439454936189577E-004;2.169711748138070E-003;
2.406833333333334E+009;1.951585263013840E-001;3.725533559918404E-002;3.452303062658757E-004;2.143726684153080E-003;
2.407000000000000E+009;1.954896152019501E-001;3.746299818158150E-002;4.037890757899731E-004;2.155776834115386E-003;
2.407166666666667E+009;1.958062201738358E-001;3.731336444616318E-002;4.474898159969598E-004;2.090302761644125E-003;
2.407333333333334E+009;1.956719458103180E-001;3.758244216442108E-002;7.562300306744874E-004;1.915397238917649E-003;
2.407500000000000E+009;1.956340521574020E-001;3.761785849928856E-002;7.706172764301300E-004;1.957224681973457E-003;
2.407666666666667E+009;1.956194937229157E-001;3.766210749745369E-002;9.320257231593132E-004;1.638999790884554E-003;
2.407833333333334E+009;1.952001601457596E-001;3.748941794037819E-002;1.020397990942001E-003;1.565447892062366E-003;
2.408000000000000E+009;1.951148509979248E-001;3.754399344325066E-002;1.052942126989365E-003;1.493830117397010E-003;
2.408166666666667E+009;1.944139152765274E-001;3.724081441760063E-002;1.162169734016061E-003;1.278501003980637E-003;
2.408333333333334E+009;1.940862089395523E-001;3.669749200344086E-002;1.113039674237371E-003;1.159974490292370E-003;
2.408500000000000E+009;1.932556182146072E-001;3.644326701760292E-002;1.202876796014607E-003;1.062456867657602E-003;
2.408666666666667E+009;1.927043646574020E-001;3.592134267091751E-002;1.222928985953331E-003;1.115618622861803E-003;
2.408833333333334E+009;1.920371353626251E-001;3.506544232368469E-002;1.197398756630719E-003;9.981873445212841E-004;
2.409000000000000E+009;1.910174489021301E-001;3.445750847458839E-002;1.156978076323867E-003;7.767096976749599E-004;
2.409166666666667E+009;1.900005191564560E-001;3.331805020570755E-002;1.051444560289383E-003;6.681391387246549E-004;
2.409333333333334E+009;1.890680193901062E-001;3.236328810453415E-002;1.009450177662075E-003;7.117729983292520E-004;
2.409500000000000E+009;1.880058944225311E-001;3.110216744244099E-002;1.020854921080172E-003;5.760323838330805E-004;
2.409666666666667E+009;1.870951354503632E-001;2.958529070019722E-002;8.884234703145921E-004;5.663448246195912E-004;
2.409833333333334E+009;1.859047561883926E-001;2.822326868772507E-002;8.166958577930927E-004;4.081592196598649E-004;
2.410000000000000E+009;1.849192529916763E-001;2.672547474503517E-002;7.234310032799840E-004;4.361542232800275E-004;
2.410166666666667E+009;1.839530318975449E-001;2.467195875942707E-002;8.109020418487489E-004;4.650662885978818E-004;
2.410333333333334E+009;1.829572468996048E-001;2.300247922539711E-002;8.025426068343222E-004;4.756865964736790E-004;
2.410500000000000E+009;1.819933354854584E-001;2.104684710502625E-002;7.765690679661930E-004;5.316839087754488E-004;
2.410666666666667E+009;1.810452193021774E-001;1.879103481769562E-002;7.696487591601908E-004;5.159981665201485E-004;
2.410833333333334E+009;1.804706305265427E-001;1.670306734740734E-002;8.535204688087106E-004;3.878784773405641E-004;
2.411000000000000E+009;1.795882582664490E-001;1.436252612620592E-002;7.210876210592687E-004;4.016604216303676E-004;
2.411166666666667E+009;1.789597570896149E-001;1.236769650131464E-002;8.325437083840370E-004;4.819586756639183E-004;
2.411333333333334E+009;1.785560399293900E-001;9.771283715963364E-003;8.562249131500721E-004;3.324428398627788E-004;
2.411500000000000E+009;1.780396252870560E-001;7.288306951522827E-003;7.097137859091163E-004;2.507916651666164E-004;
2.411666666666667E+009;1.776608228683472E-001;5.080947652459145E-003;8.276273147203028E-004;1.711497752694413E-004;
2.411833333333334E+009;1.775591224431992E-001;2.701267600059509E-003;7.167800213210285E-004;2.518564870115370E-004;
2.412000000000000E+009;1.776438057422638E-001;4.927948248223402E-005;6.785448058508337E-004;8.422468090429902E-005;
2.412166666666667E+009;1.777031719684601E-001;-2.165570622310042E-003;8.188858046196401E-004;1.143010231317021E-004;
2.412333333333334E+009;1.780939996242523E-001;-4.907956812530756E-003;5.698417662642896E-004;-2.198452057200484E-005;
2.412500000000000E+009;1.783698946237564E-001;-7.222603075206280E-003;5.309109692461789E-004;1.294033427257091E-004;
2.412666666666667E+009;1.787652224302292E-001;-9.691527113318443E-003;3.535993455443531E-004;-6.451331864809617E-005;
2.412833333333334E+009;1.797182559967041E-001;-1.211829297244549E-002;2.837121428456157E-004;1.387272350257263E-004;
2.413000000000000E+009;1.804023534059525E-001;-1.435690186917782E-002;2.620381128508598E-004;1.749706862028688E-004;
2.413166666666667E+009;1.811535060405731E-001;-1.652393862605095E-002;2.989461645483971E-004;2.235811116406694E-004;
2.413333333333334E+009;1.822304427623749E-001;-1.895904354751110E-002;6.804655276937410E-005;1.662678841967136E-004;
2.413500000000000E+009;1.831311434507370E-001;-2.118552476167679E-002;1.613802887732163E-004;2.624860499054194E-004;
2.413666666666667E+009;1.843605637550354E-001;-2.335376292467117E-002;1.564567937748507E-004;4.642444837372750E-004;
2.413833333333334E+009;1.854856610298157E-001;-2.545105852186680E-002;3.722400870174170E-004;3.631669387686998E-004;
2.414000000000000E+009;1.864992380142212E-001;-2.730699814856052E-002;2.672348928172141E-004;6.541607435792685E-004;
2.414166666666667E+009;1.879139840602875E-001;-2.902181260287762E-002;2.021398104261607E-004;4.932910669595003E-004;
2.414333333333334E+009;1.889786422252655E-001;-3.110328875482082E-002;3.927355573978275E-004;4.923017695546150E-004;
2.414500000000000E+009;1.903334408998489E-001;-3.234865143895149E-002;3.270572342444211E-004;5.713779828511179E-004;
2.414666666666667E+009;1.914475560188294E-001;-3.388494625687599E-002;5.669854581356049E-004;5.794504540972412E-004;
2.414833333333334E+009;1.926964819431305E-001;-3.525256738066673E-002;4.429440305102617E-004;5.068671307526529E-004;
2.415000000000000E+009;1.937110275030136E-001;-3.652628138661385E-002;4.997092182748020E-004;4.001442575827241E-004;
2.415166666666667E+009;1.950769424438477E-001;-3.767286613583565E-002;6.249375292100012E-004;5.441693356260657E-004;
2.415333333333334E+009;1.963122934103012E-001;-3.856176137924194E-002;4.789859813172370E-004;4.881990025751293E-004;
2.415500000000000E+009;1.972894668579102E-001;-3.925614804029465E-002;5.414119223132730E-004;4.777140566147864E-004;
2.415666666666667E+009;1.983248591423035E-001;-4.012744873762131E-002;6.325995782390237E-004;5.519067053683102E-004;
2.415833333333334E+009;1.992692053318024E-001;-4.065440595149994E-002;7.347106584347785E-004;4.962020902894437E-004;
2.416000000000000E+009;2.000207006931305E-001;-4.135360568761826E-002;5.815856275148690E-004;5.495841614902020E-004;
2.416166666666667E+009;2.007506340742111E-001;-4.171559214591980E-002;6.462964811362326E-004;6.684929248876870E-004;
2.416333333333334E+009;2.014324814081192E-001;-4.194651916623116E-002;6.744567072018981E-004;6.959598395042121E-004;
2.416500000000000E+009;2.019815891981125E-001;-4.221339896321297E-002;6.397735560312867E-004;6.546879885718226E-004;
2.416666666666667E+009;2.021325230598450E-001;-4.251597076654434E-002;8.051788900047541E-004;7.175484788604081E-004;
2.416833333333334E+009;2.024055123329163E-001;-4.248385876417160E-002;7.801310857757926E-004;7.161390385590494E-004;
2.417000000000000E+009;2.024439573287964E-001;-4.250960424542427E-002;9.906048653647304E-004;7.166219293139875E-004;
2.417166666666667E+009;2.022432982921600E-001;-4.233236983418465E-002;1.176003948785365E-003;7.631533080711961E-004;
2.417333333333334E+009;2.021214962005615E-001;-4.226785898208618E-002;1.269426895305514E-003;6.484855548478663E-004;
2.417500000000000E+009;2.018407434225082E-001;-4.220432415604591E-002;1.378905260935426E-003;5.760989151895046E-004;
2.417666666666667E+009;2.014183849096298E-001;-4.190773889422417E-002;1.351144863292575E-003;5.254199495539069E-004;
2.417833333333334E+009;2.009470462799072E-001;-4.174721986055374E-002;1.505882944911718E-003;3.272902686148882E-004;
2.418000000000000E+009;2.002827376127243E-001;-4.130732268095017E-002;1.502974773757160E-003;3.279779048170894E-004;
2.418166666666667E+009;1.994321942329407E-001;-4.127174988389015E-002;1.450231764465570E-003;2.711264532990754E-004;
2.418333333333334E+009;1.987077593803406E-001;-4.115499928593636E-002;1.553121721372008E-003;-3.006571932928637E-005;
2.418500000000000E+009;1.975723952054977E-001;-4.122206196188927E-002;1.673890859819949E-003;-3.598724288167432E-005;
2.418666666666667E+009;1.966834813356400E-001;-4.112921282649040E-002;1.605437952093780E-003;-1.490624854341149E-004;
2.418833333333334E+009;1.954636722803116E-001;-4.128852114081383E-002;1.634899061173201E-003;-2.842499525286257E-004;
2.419000000000000E+009;1.941474527120590E-001;-4.151162505149841E-002;1.500524813309312E-003;-3.400638815946877E-004;
2.419166666666667E+009;1.928784549236298E-001;-4.174804687500000E-002;1.655526924878359E-003;-3.905328921973705E-004;
2.419333333333334E+009;1.916321069002152E-001;-4.236916825175285E-002;1.562455086968839E-003;-4.688114568125457E-004;
2.419500000000000E+009;1.901117414236069E-001;-4.271882399916649E-002;1.284623635001481E-003;-6.065992638468742E-004;
2.419666666666667E+009;1.884293109178543E-001;-4.352341592311859E-002;1.388435368426144E-003;-6.597822648473084E-004;
2.419833333333334E+009;1.868495345115662E-001;-4.428949952125549E-002;1.246933941729367E-003;-7.544639520347118E-004;
2.420000000000000E+009;1.852429360151291E-001;-4.501428082585335E-002;1.222738763317466E-003;-8.069509640336037E-004;
2.420166666666667E+009;1.837394982576370E-001;-4.619884490966797E-002;1.275676651857793E-003;-8.050117176026106E-004;
2.420333333333334E+009;1.820792555809021E-001;-4.729055613279343E-002;1.265486818738282E-003;-8.700913749635220E-004;
2.420500000000000E+009;1.803830564022064E-001;-4.868484660983086E-002;1.328923390246928E-003;-8.155081304721534E-004;
2.420666666666667E+009;1.787582486867905E-001;-4.972449317574501E-002;1.281858538277447E-003;-8.509427425451577E-004;
2.420833333333334E+009;1.771605014801025E-001;-5.137909948825836E-002;1.358755747787654E-003;-9.652096196077764E-004;
2.421000000000000E+009;1.757799237966538E-001;-5.302958935499191E-002;1.340844202786684E-003;-9.863744489848614E-004;
2.421166666666667E+009;1.743042320013046E-001;-5.461107939481735E-002;1.218195306137204E-003;-1.154033700004220E-003;
2.421333333333334E+009;1.727911829948425E-001;-5.622825771570206E-002;1.382175832986832E-003;-1.230150694027543E-003;
2.421500000000000E+009;1.714660227298737E-001;-5.818796902894974E-002;1.413605059497058E-003;-1.404175884090364E-003;
2.421666666666667E+009;1.701408028602600E-001;-6.011718139052391E-002;1.441537169739604E-003;-1.522365724667907E-003;
2.421833333333334E+009;1.691105067729950E-001;-6.203255802392960E-002;1.266244449652731E-003;-1.540245953947306E-003;
2.422000000000000E+009;1.678603142499924E-001;-6.387470662593842E-002;1.254204893484712E-003;-1.705452916212380E-003;
2.422166666666667E+009;1.672367155551910E-001;-6.592664867639542E-002;1.170601230114698E-003;-1.827632193453610E-003;
2.422333333333334E+009;1.661967635154724E-001;-6.814241409301758E-002;1.044475589878857E-003;-1.894905581139028E-003;
2.422500000000000E+009;1.653578728437424E-001;-7.012892514467239E-002;9.525466593913734E-004;-2.011665375903249E-003;
2.422666666666667E+009;1.647423207759857E-001;-7.212855666875839E-002;7.276142132468522E-004;-2.201666356995702E-003;
2.422833333333334E+009;1.643081307411194E-001;-7.419951260089874E-002;5.661821342073381E-004;-2.352708019316196E-003;
2.423000000000000E+009;1.639245897531509E-001;-7.632131874561310E-002;3.317030787002295E-004;-2.397424774244428E-003;
2.423166666666667E+009;1.634494513273239E-001;-7.835935056209564E-002;2.238875022158027E-004;-2.348271897062659E-003;
2.423333333333334E+009;1.632471233606339E-001;-8.045049756765366E-002;-1.413408026564866E-004;-2.440465614199638E-003;
2.423500000000000E+009;1.633385419845581E-001;-8.224249631166458E-002;-1.863501092884690E-004;-2.336048055440188E-003;
2.423666666666667E+009;1.633798629045487E-001;-8.412923663854599E-002;-5.119545385241509E-004;-2.235745545476675E-003;
2.423833333333334E+009;1.632537990808487E-001;-8.600785583257675E-002;-5.000201053917408E-004;-2.205234253779054E-003;
2.424000000000000E+009;1.634446978569031E-001;-8.799646049737930E-002;-8.468092419207096E-004;-2.174698747694492E-003;
2.424166666666667E+009;1.635953485965729E-001;-8.964647352695465E-002;-9.508325601927936E-004;-2.028293209150434E-003;
2.424333333333334E+009;1.638766825199127E-001;-9.111271798610687E-002;-1.113767386414111E-003;-1.854696893133223E-003;
2.424500000000000E+009;1.641803532838821E-001;-9.281671792268753E-002;-1.263323123566806E-003;-1.768308342434466E-003;
2.424666666666667E+009;1.643054336309433E-001;-9.427922219038010E-002;-1.223639468662441E-003;-1.645311480388045E-003;
2.424833333333334E+009;1.649206876754761E-001;-9.557119011878967E-002;-1.398943248204887E-003;-1.634761109016836E-003;
2.425000000000000E+009;1.653332263231278E-001;-9.669573605060577E-002;-1.326893689110875E-003;-1.564729609526694E-003;
2.425166666666667E+009;1.655944734811783E-001;-9.798377007246018E-002;-1.385000534355640E-003;-1.359841553494334E-003;
2.425333333333334E+009;1.660026758909226E-001;-9.880381077528000E-002;-1.592599204741418E-003;-1.233589486218989E-003;
2.425500000000000E+009;1.663634777069092E-001;-9.991329908370972E-002;-1.650658552534878E-003;-1.085170777514577E-003;
2.425666666666667E+009;1.668299287557602E-001;-1.004700362682343E-001;-1.741958782076836E-003;-9.241279913112521E-004;
2.425833333333334E+009;1.672411262989044E-001;-1.014082878828049E-001;-1.639176858589053E-003;-8.258105372078717E-004;
2.426000000000000E+009;1.676217466592789E-001;-1.018542796373367E-001;-1.685269991867244E-003;-6.366765592247248E-004;
2.426166666666667E+009;1.679572463035584E-001;-1.023067981004715E-001;-1.738491584546864E-003;-6.848918274044991E-004;
2.426333333333334E+009;1.680560261011124E-001;-1.029073596000671E-001;-1.772035262547433E-003;-4.024082736577839E-004;
2.426500000000000E+009;1.684554368257523E-001;-1.031334623694420E-001;-1.808599103242159E-003;-3.994714061263949E-004;
2.426666666666667E+009;1.686391383409500E-001;-1.034066006541252E-001;-1.770597882568836E-003;-2.560506982263178E-004;
2.426833333333334E+009;1.688891202211380E-001;-1.037250235676765E-001;-1.661548041738570E-003;-1.344505144516006E-004;
2.427000000000000E+009;1.688911318778992E-001;-1.038279533386231E-001;-1.714907120913267E-003;-2.066572778858244E-005;
2.427166666666667E+009;1.688808202743530E-001;-1.040359511971474E-001;-1.700491528026760E-003;1.167329610325396E-004;
2.427333333333334E+009;1.686813086271286E-001;-1.042380928993225E-001;-1.585407066158950E-003;1.986736897379160E-004;
2.427500000000000E+009;1.685052067041397E-001;-1.043569669127464E-001;-1.640664180740714E-003;2.860698150470853E-004;
2.427666666666667E+009;1.681611686944962E-001;-1.043132767081261E-001;-1.536539406515658E-003;3.823009319603443E-004;
2.427833333333334E+009;1.677296906709671E-001;-1.044633984565735E-001;-1.374279614537954E-003;4.256971878930926E-004;
