# Version 1.00
#
freq[Hz];re:Trc1_S11;im:Trc1_S11;re:Trc2_S21;im:Trc2_S21;
2.400000000000000E+009;1.688221096992493E-001;4.586709663271904E-002;-4.992720205336809E-003;1.618919923203066E-004;
2.400166666666667E+009;1.698611378669739E-001;4.488255828619003E-002;-4.973690025508404E-003;2.740831987466663E-004;
2.400333333333334E+009;1.706894189119339E-001;4.358336329460144E-002;-5.041431169956923E-003;5.501967971213162E-004;
2.400500000000000E+009;1.718421876430512E-001;4.262446239590645E-002;-5.147298797965050E-003;6.094216951169074E-004;
2.400666666666667E+009;1.725986301898956E-001;4.173661395907402E-002;-4.947530571371317E-003;5.966147873550654E-004;
2.400833333333334E+009;1.735898703336716E-001;4.099677875638008E-002;-4.895588383078575E-003;8.442437392659485E-004;
2.401000000000000E+009;1.742964088916779E-001;4.017883539199829E-002;-5.089179147034884E-003;1.009076950140297E-003;
2.401166666666667E+009;1.751604825258255E-001;3.942053765058518E-002;-5.024156067520380E-003;1.055153436027467E-003;
2.401333333333334E+009;1.757786870002747E-001;3.885089978575707E-002;-4.973227158188820E-003;1.317824237048626E-003;
2.401500000000000E+009;1.765879392623901E-001;3.799387067556381E-002;-5.059244576841593E-003;1.554160378873348E-003;
2.401666666666667E+009;1.771963238716126E-001;3.775653615593910E-002;-4.947277717292309E-003;1.782887848094106E-003;
2.401833333333334E+009;1.777822524309158E-001;3.682802990078926E-002;-5.058698356151581E-003;2.018660539761186E-003;
2.402000000000000E+009;1.781180202960968E-001;3.648556023836136E-002;-4.861934576183558E-003;2.097640186548233E-003;
2.402166666666667E+009;1.786775290966034E-001;3.573634102940559E-002;-4.976806696504355E-003;2.330004703253508E-003;
2.402333333333334E+009;1.790083497762680E-001;3.512500971555710E-002;-4.656747449189425E-003;2.662274520844221E-003;
2.402500000000000E+009;1.794224530458450E-001;3.464285656809807E-002;-4.823343362659216E-003;2.960536628961563E-003;
2.402666666666667E+009;1.795601695775986E-001;3.411732241511345E-002;-4.863173700869083E-003;2.998700132593513E-003;
2.402833333333334E+009;1.796346008777618E-001;3.355100005865097E-002;-4.516027867794037E-003;3.416226711124182E-003;
2.403000000000000E+009;1.797533929347992E-001;3.273380920290947E-002;-4.397984128445387E-003;3.395345062017441E-003;
2.403166666666667E+009;1.796688437461853E-001;3.215237334370613E-002;-4.326792899519205E-003;3.778486279770732E-003;
2.403333333333334E+009;1.797198206186295E-001;3.112336248159409E-002;-4.154080990701914E-003;3.850221168249846E-003;
2.403500000000000E+009;1.794479787349701E-001;3.040141053497791E-002;-3.880684264004231E-003;4.226165357977152E-003;
2.403666666666667E+009;1.793413609266281E-001;2.929505705833435E-002;-3.745830152183771E-003;4.408416338264942E-003;
2.403833333333334E+009;1.791836023330689E-001;2.825838886201382E-002;-3.439990337938070E-003;4.441340453922749E-003;
2.404000000000000E+009;1.787161231040955E-001;2.712309546768665E-002;-3.333112457767129E-003;4.705417435616255E-003;
2.404166666666667E+009;1.783201098442078E-001;2.598916180431843E-002;-3.179073100909591E-003;4.657719284296036E-003;
2.404333333333334E+009;1.781281083822250E-001;2.483077161014080E-002;-2.884368877857924E-003;4.860759712755680E-003;
2.404500000000000E+009;1.774350553750992E-001;2.334731630980969E-002;-2.528389450162649E-003;4.985050298273563E-003;
2.404666666666667E+009;1.769714504480362E-001;2.211649529635906E-002;-2.242024755105376E-003;5.126017611473799E-003;
2.404833333333334E+009;1.764830946922302E-001;2.087987586855888E-002;-2.209844533354044E-003;5.225058645009995E-003;
2.405000000000000E+009;1.760839074850082E-001;1.922917552292347E-002;-1.851951703429222E-003;5.085331853479147E-003;
2.405166666666667E+009;1.754991561174393E-001;1.750575378537178E-002;-1.423736568540335E-003;5.137644708156586E-003;
2.405333333333334E+009;1.752785295248032E-001;1.592515595257282E-002;-1.470298506319523E-003;5.117900669574738E-003;
2.405500000000000E+009;1.748066991567612E-001;1.435596030205488E-002;-9.274916374124587E-004;5.310448352247477E-003;
2.405666666666667E+009;1.742953211069107E-001;1.266416534781456E-002;-7.019835175015032E-004;5.196447018533945E-003;
2.405833333333334E+009;1.739065200090408E-001;1.089147385209799E-002;-4.530511796474457E-004;4.997286479920149E-003;
2.406000000000000E+009;1.737221330404282E-001;8.893204852938652E-003;-2.915225049946457E-004;4.983944818377495E-003;
2.406166666666667E+009;1.733345389366150E-001;7.134836632758379E-003;-1.900612005556468E-005;5.006368272006512E-003;
2.406333333333334E+009;1.733348965644836E-001;5.104955285787582E-003;1.607086160220206E-004;4.694709088653326E-003;
2.406500000000000E+009;1.731587648391724E-001;2.995298011228442E-003;2.095887466566637E-004;4.594406113028526E-003;
2.406666666666667E+009;1.727430671453476E-001;9.250302100554109E-004;3.536419826559722E-004;4.525517579168081E-003;
2.406833333333334E+009;1.728859990835190E-001;-1.124996575526893E-003;6.266163545660675E-004;4.399076104164124E-003;
2.407000000000000E+009;1.730898618698120E-001;-3.248213091865182E-003;6.716823554597795E-004;4.254583269357681E-003;
2.407166666666667E+009;1.732445061206818E-001;-5.207459442317486E-003;7.602585828863084E-004;4.127032123506069E-003;
2.407333333333334E+009;1.732102930545807E-001;-7.539187092334032E-003;9.552328847348690E-004;3.968859557062388E-003;
2.407500000000000E+009;1.732897907495499E-001;-9.485261514782906E-003;1.073928666301072E-003;3.887962549924851E-003;
2.407666666666667E+009;1.738376915454865E-001;-1.151628140360117E-002;1.126512419432402E-003;3.813574323430657E-003;
2.407833333333334E+009;1.738951355218887E-001;-1.373811624944210E-002;1.099676243029535E-003;3.736414248123765E-003;
2.408000000000000E+009;1.743348836898804E-001;-1.585397496819496E-002;1.247824751771987E-003;3.546859836205840E-003;
2.408166666666667E+009;1.746972054243088E-001;-1.801215298473835E-002;1.286580692976713E-003;3.513370174914599E-003;
2.408333333333334E+009;1.752903014421463E-001;-1.989286579191685E-002;1.344318035990000E-003;3.338478039950132E-003;
2.408500000000000E+009;1.754341572523117E-001;-2.194492518901825E-002;1.273503759875894E-003;3.388155484572053E-003;
2.408666666666667E+009;1.760343611240387E-001;-2.386825904250145E-002;1.478717080317438E-003;3.235616022720933E-003;
2.408833333333334E+009;1.760870516300201E-001;-2.566467411816120E-002;1.389627926982939E-003;3.151571378111839E-003;
2.409000000000000E+009;1.764383614063263E-001;-2.720697782933712E-002;1.385290990583599E-003;3.103763097897172E-003;
2.409166666666667E+009;1.769843399524689E-001;-2.880944684147835E-002;1.563963829539716E-003;3.006762592121959E-003;
2.409333333333334E+009;1.774425208568573E-001;-3.031964041292667E-002;1.571484841406345E-003;3.059661714360118E-003;
2.409500000000000E+009;1.777891814708710E-001;-3.171573206782341E-002;1.671060570515692E-003;2.941835206001997E-003;
2.409666666666667E+009;1.782013326883316E-001;-3.285600617527962E-002;1.579431816935539E-003;2.746367827057838E-003;
2.409833333333334E+009;1.785554885864258E-001;-3.399624675512314E-002;1.609290018677712E-003;2.802616450935602E-003;
2.410000000000000E+009;1.791128516197205E-001;-3.502450883388519E-002;1.704999827779830E-003;2.755559282377362E-003;
2.410166666666667E+009;1.795520186424255E-001;-3.574347496032715E-002;1.639285124838352E-003;2.732282504439354E-003;
2.410333333333334E+009;1.799198389053345E-001;-3.663345053792000E-002;1.789507688954473E-003;2.787998411804438E-003;
2.410500000000000E+009;1.804334670305252E-001;-3.759702667593956E-002;1.733355573378503E-003;2.601258223876357E-003;
2.410666666666667E+009;1.807084083557129E-001;-3.837286680936813E-002;1.802767161279917E-003;2.697405638173223E-003;
2.410833333333334E+009;1.810145676136017E-001;-3.868480399250984E-002;1.866667182184756E-003;2.606994938105345E-003;
2.411000000000000E+009;1.813338845968247E-001;-3.921934962272644E-002;1.883871271274984E-003;2.554191276431084E-003;
2.411166666666667E+009;1.814452260732651E-001;-3.989671915769577E-002;1.937152817845345E-003;2.545795403420925E-003;
2.411333333333334E+009;1.817238628864288E-001;-4.042718932032585E-002;2.003025962039828E-003;2.465210156515241E-003;
2.411500000000000E+009;1.817834377288818E-001;-4.106048867106438E-002;1.978355692699552E-003;2.469172235578299E-003;
2.411666666666667E+009;1.818727999925613E-001;-4.129767790436745E-002;2.006594557315111E-003;2.520787529647350E-003;
2.411833333333334E+009;1.818635016679764E-001;-4.161389172077179E-002;2.223776420578361E-003;2.364696236327291E-003;
2.412000000000000E+009;1.816972941160202E-001;-4.201797768473625E-002;2.239032415673137E-003;2.524687908589840E-003;
2.412166666666667E+009;1.812432706356049E-001;-4.244704544544220E-002;2.305025467649102E-003;2.509124809876084E-003;
2.412333333333334E+009;1.812746375799179E-001;-4.275951534509659E-002;2.299431245774031E-003;2.600264037027955E-003;
2.412500000000000E+009;1.805081516504288E-001;-4.316182807087898E-002;2.238136250525713E-003;2.543021924793720E-003;
2.412666666666667E+009;1.800465881824493E-001;-4.371583089232445E-002;2.572841709479690E-003;2.582059707492590E-003;
2.412833333333334E+009;1.793717294931412E-001;-4.394406825304031E-002;2.537285676226020E-003;2.446380211040378E-003;
2.413000000000000E+009;1.785403490066528E-001;-4.440311342477799E-002;2.703848760575056E-003;2.234537620097399E-003;
2.413166666666667E+009;1.775640994310379E-001;-4.476667568087578E-002;2.891898388043046E-003;2.519794972613454E-003;
2.413333333333334E+009;1.766892373561859E-001;-4.523728787899017E-002;3.134271828457713E-003;2.285162685438991E-003;
2.413500000000000E+009;1.757558137178421E-001;-4.555488377809525E-002;3.218945814296603E-003;2.318952698260546E-003;
2.413666666666667E+009;1.749247908592224E-001;-4.620427638292313E-002;3.368221223354340E-003;2.305795438587666E-003;
2.413833333333334E+009;1.736931055784226E-001;-4.671938344836235E-002;3.333844477310777E-003;2.113715978339315E-003;
2.414000000000000E+009;1.725449413061142E-001;-4.746379330754280E-002;3.647733014076948E-003;2.096973592415452E-003;
2.414166666666667E+009;1.715304702520371E-001;-4.810616374015808E-002;3.667749930173159E-003;1.960339723154903E-003;
2.414333333333334E+009;1.701829433441162E-001;-4.884712025523186E-002;3.983933478593826E-003;1.816862262785435E-003;
2.414500000000000E+009;1.691058278083801E-001;-4.968848451972008E-002;3.961262293159962E-003;1.597392139956355E-003;
2.414666666666667E+009;1.677853018045425E-001;-5.051962286233902E-002;4.045675974339247E-003;1.481011509895325E-003;
2.414833333333334E+009;1.665922999382019E-001;-5.158716067671776E-002;4.200648516416550E-003;1.426388975232840E-003;
2.415000000000000E+009;1.653801500797272E-001;-5.274236202239990E-002;4.367126151919365E-003;1.036047004163265E-003;
2.415166666666667E+009;1.642263233661652E-001;-5.386313423514366E-002;4.321305546909571E-003;9.204500238411129E-004;
2.415333333333334E+009;1.630600243806839E-001;-5.524944514036179E-002;4.417775198817253E-003;6.721665849909186E-004;
2.415500000000000E+009;1.619956642389298E-001;-5.652009323239327E-002;4.517320077866316E-003;6.292107282206416E-004;
2.415666666666667E+009;1.607629954814911E-001;-5.792783200740814E-002;4.484275355935097E-003;3.066189528908581E-004;
2.415833333333334E+009;1.598205566406250E-001;-5.955169722437859E-002;4.534141626209021E-003;-1.270470093004406E-004;
2.416000000000000E+009;1.585805565118790E-001;-6.112881004810333E-002;4.532002843916416E-003;-2.181922318413854E-004;
2.416166666666667E+009;1.577935516834259E-001;-6.287011504173279E-002;4.473433364182711E-003;-4.009828553535044E-004;
2.416333333333334E+009;1.565710306167603E-001;-6.458383798599243E-002;4.530239850282669E-003;-7.256644894368947E-004;
2.416500000000000E+009;1.558404415845871E-001;-6.628932058811188E-002;4.262475762516260E-003;-8.337319013662636E-004;
2.416666666666667E+009;1.548446714878082E-001;-6.825572252273560E-002;4.351559095084667E-003;-1.069069723598659E-003;
2.416833333333334E+009;1.541284173727036E-001;-7.024370878934860E-002;4.217713605612516E-003;-1.355140702798963E-003;
2.417000000000000E+009;1.531623899936676E-001;-7.224846631288528E-002;4.308088682591915E-003;-1.317799557000399E-003;
2.417166666666667E+009;1.526455581188202E-001;-7.399062067270279E-002;3.926311153918505E-003;-1.545296632684767E-003;
2.417333333333334E+009;1.520648002624512E-001;-7.582388818264008E-002;3.755082376301289E-003;-1.767553854733706E-003;
2.417500000000000E+009;1.515141278505325E-001;-7.794829457998276E-002;3.654406405985355E-003;-1.969877630472183E-003;
2.417666666666667E+009;1.510629802942276E-001;-7.957246154546738E-002;3.668009769171476E-003;-2.114262431859970E-003;
2.417833333333334E+009;1.506312638521195E-001;-8.153366297483444E-002;3.505653701722622E-003;-2.049347152933478E-003;
2.418000000000000E+009;1.502214670181274E-001;-8.335184305906296E-002;3.268174827098846E-003;-2.336255740374327E-003;
2.418166666666667E+009;1.498630940914154E-001;-8.494725823402405E-002;3.013156354427338E-003;-2.409689826890826E-003;
2.418333333333334E+009;1.500502377748489E-001;-8.675494045019150E-002;2.946677384898067E-003;-2.527291886508465E-003;
2.418500000000000E+009;1.496684253215790E-001;-8.834670484066010E-002;2.794541418552399E-003;-2.687493106350303E-003;
2.418666666666667E+009;1.497376561164856E-001;-8.990078419446945E-002;2.547418931499124E-003;-2.702140947803855E-003;
2.418833333333334E+009;1.494990289211273E-001;-9.135614335536957E-002;2.452952554449439E-003;-2.780052134767175E-003;
2.419000000000000E+009;1.494780778884888E-001;-9.272951632738113E-002;2.130128210410476E-003;-2.823567017912865E-003;
2.419166666666667E+009;1.495669186115265E-001;-9.398391842842102E-002;2.031185431405902E-003;-2.814713167026639E-003;
2.419333333333334E+009;1.496123671531677E-001;-9.493073076009750E-002;1.860549440607429E-003;-2.845693612471223E-003;
2.419500000000000E+009;1.497723758220673E-001;-9.611175954341888E-002;1.535937190055847E-003;-2.804584335535765E-003;
2.419666666666667E+009;1.501462310552597E-001;-9.714764356613159E-002;1.294497167691588E-003;-2.821980742737651E-003;
2.419833333333334E+009;1.501103490591049E-001;-9.790498763322830E-002;1.359376357868314E-003;-2.705174963921309E-003;
2.420000000000000E+009;1.506313234567642E-001;-9.856263548135757E-002;1.108181895688176E-003;-2.703262260183692E-003;
2.420166666666667E+009;1.507792770862579E-001;-9.904272854328156E-002;1.042382791638374E-003;-2.536426298320293E-003;
2.420333333333334E+009;1.510169953107834E-001;-9.943644702434540E-002;7.153688929975033E-004;-2.428135601803660E-003;
2.420500000000000E+009;1.513711661100388E-001;-9.980995953083038E-002;6.782228592783213E-004;-2.387392800301313E-003;
2.420666666666667E+009;1.516223251819611E-001;-9.998573362827301E-002;7.383559131994844E-004;-2.251995494589210E-003;
2.420833333333334E+009;1.517483890056610E-001;-1.002858951687813E-001;7.389473030343652E-004;-2.146348590031266E-003;
2.421000000000000E+009;1.519157439470291E-001;-1.003768369555473E-001;6.929328083060682E-004;-2.005548914894462E-003;
2.421166666666667E+009;1.522218436002731E-001;-1.004015356302261E-001;6.148660904727876E-004;-1.828177715651691E-003;
2.421333333333334E+009;1.524704843759537E-001;-1.004429161548615E-001;5.588311469182372E-004;-1.756934914737940E-003;
2.421500000000000E+009;1.524178981781006E-001;-1.002186164259911E-001;7.255361415445805E-004;-1.627107500098646E-003;
2.421666666666667E+009;1.524890363216400E-001;-1.000964492559433E-001;6.450985674746335E-004;-1.571569941006601E-003;
2.421833333333334E+009;1.523829400539398E-001;-9.986215084791184E-002;7.966925040818751E-004;-1.548329135403037E-003;
2.422000000000000E+009;1.522801071405411E-001;-9.979313611984253E-002;7.036324823275209E-004;-1.451168325729668E-003;
2.422166666666667E+009;1.519351899623871E-001;-9.971065819263458E-002;9.160639019683003E-004;-1.507613924331963E-003;
2.422333333333334E+009;1.516516357660294E-001;-9.917096793651581E-002;7.808386581018567E-004;-1.640464062802494E-003;
2.422500000000000E+009;1.511342674493790E-001;-9.894856065511704E-002;9.183781221508980E-004;-1.532844034954906E-003;
2.422666666666667E+009;1.505925655364990E-001;-9.875401854515076E-002;8.666816866025329E-004;-1.599464798346162E-003;
2.422833333333334E+009;1.498853415250778E-001;-9.850231558084488E-002;1.026912708766758E-003;-1.763024600222707E-003;
2.423000000000000E+009;1.489064246416092E-001;-9.814172983169556E-002;1.129082753323019E-003;-1.651972532272339E-003;
2.423166666666667E+009;1.482763141393662E-001;-9.799531847238541E-002;9.601921774446964E-004;-1.551223336718977E-003;
2.423333333333334E+009;1.470978558063507E-001;-9.724104404449463E-002;1.094547100365162E-003;-1.805759617127478E-003;
2.423500000000000E+009;1.460735052824020E-001;-9.692458808422089E-002;9.716183412820101E-004;-1.800293568521738E-003;
2.423666666666667E+009;1.448127329349518E-001;-9.689711034297943E-002;1.093583414331079E-003;-1.789248082786799E-003;
2.423833333333334E+009;1.438103020191193E-001;-9.660121798515320E-002;1.130270538851619E-003;-1.914782682433724E-003;
2.424000000000000E+009;1.424056291580200E-001;-9.633814543485642E-002;1.049215672537684E-003;-1.931927748955786E-003;
2.424166666666667E+009;1.410369426012039E-001;-9.619992971420288E-002;1.104467664845288E-003;-2.191439038142562E-003;
2.424333333333334E+009;1.397618800401688E-001;-9.595149755477905E-002;9.151622653007507E-004;-2.210733480751514E-003;
2.424500000000000E+009;1.384713351726532E-001;-9.612640738487244E-002;9.594337316229940E-004;-2.294033067300916E-003;
2.424666666666667E+009;1.370581388473511E-001;-9.600742906332016E-002;8.467524312436581E-004;-2.369405468925834E-003;
2.424833333333334E+009;1.353258788585663E-001;-9.626400470733643E-002;8.311548735946417E-004;-2.540143206715584E-003;
2.425000000000000E+009;1.340242028236389E-001;-9.658065438270569E-002;8.942176355049014E-004;-2.521266229450703E-003;
2.425166666666667E+009;1.323425322771072E-001;-9.703309834003449E-002;7.305959588848054E-004;-2.603742759674788E-003;
2.425333333333334E+009;1.309666782617569E-001;-9.745359420776367E-002;6.665731780230999E-004;-2.596916863694787E-003;
2.425500000000000E+009;1.296139508485794E-001;-9.820291399955750E-002;5.881161778233945E-004;-2.674377290531993E-003;
2.425666666666667E+009;1.279152184724808E-001;-9.899167716503143E-002;3.218854253645986E-004;-2.647381508722901E-003;
2.425833333333334E+009;1.267149597406387E-001;-9.972681850194931E-002;3.408883931115270E-004;-2.805517986416817E-003;
2.426000000000000E+009;1.252666860818863E-001;-1.007478088140488E-001;2.261578338220716E-004;-2.705033402889967E-003;
2.426166666666667E+009;1.241389289498329E-001;-1.018325164914131E-001;2.113820664817467E-005;-2.790444996207953E-003;
2.426333333333334E+009;1.226723268628120E-001;-1.030611693859100E-001;-5.141029396327213E-005;-2.825125819072127E-003;
2.426500000000000E+009;1.215040907263756E-001;-1.043298915028572E-001;-1.924315583892167E-004;-2.674780786037445E-003;
2.426666666666667E+009;1.205211952328682E-001;-1.056011244654656E-001;-1.950855803443119E-004;-2.695223316550255E-003;
2.426833333333334E+009;1.193156018853188E-001;-1.070623844861984E-001;-2.159815194318071E-004;-2.677067415788770E-003;
2.427000000000000E+009;1.182427778840065E-001;-1.086764782667160E-001;-3.236233314964920E-004;-2.729352563619614E-003;
2.427166666666667E+009;1.172364056110382E-001;-1.101197004318237E-001;-3.058689762838185E-004;-2.652973169460893E-003;
2.427333333333334E+009;1.163867712020874E-001;-1.118144094944000E-001;-5.221350584179163E-004;-2.587788272649050E-003;
2.427500000000000E+009;1.155310347676277E-001;-1.135902106761932E-001;-4.889380652457476E-004;-2.564419992268086E-003;
2.427666666666667E+009;1.147822216153145E-001;-1.152466833591461E-001;-6.531453691422939E-004;-2.586144953966141E-003;
2.427833333333334E+009;1.141312122344971E-001;-1.169798374176025E-001;-6.184722878970206E-004;-2.635605633258820E-003;
