# Version 1.00
#
freq[Hz];re:Trc1_S11;im:Trc1_S11;re:Trc2_S21;im:Trc2_S21;
2.400000000000000E+009;1.690173447132111E-001;4.574491083621979E-002;-5.278196651488543E-003;3.009873616974801E-004;
2.400166666666667E+009;1.700287163257599E-001;4.479510709643364E-002;-5.199451930820942E-003;3.722409019246697E-004;
2.400333333333334E+009;1.709139049053192E-001;4.353192821145058E-002;-5.045346450060606E-003;5.552060902118683E-004;
2.400500000000000E+009;1.720219254493713E-001;4.258754104375839E-002;-5.194233730435371E-003;7.552182651124895E-004;
2.400666666666667E+009;1.728654503822327E-001;4.159159585833550E-002;-5.265166517347097E-003;7.696686079725623E-004;
2.400833333333334E+009;1.736718714237213E-001;4.089624807238579E-002;-5.261508747935295E-003;9.263888350687921E-004;
2.401000000000000E+009;1.745414435863495E-001;4.002597928047180E-002;-5.148599855601788E-003;1.169727300293744E-003;
2.401166666666667E+009;1.751485466957092E-001;3.942794352769852E-002;-5.327903665602207E-003;1.343609066680074E-003;
2.401333333333334E+009;1.758025437593460E-001;3.871899470686913E-002;-5.181837361305952E-003;1.591696985997260E-003;
2.401500000000000E+009;1.768007725477219E-001;3.810022026300430E-002;-5.279543809592724E-003;1.642894116230309E-003;
2.401666666666667E+009;1.773540824651718E-001;3.743244707584381E-002;-5.077295005321503E-003;1.950631616637111E-003;
2.401833333333334E+009;1.778218001127243E-001;3.688180446624756E-002;-5.226160865277052E-003;2.171176252886653E-003;
2.402000000000000E+009;1.780663579702377E-001;3.620611131191254E-002;-5.168084986507893E-003;2.336313948035240E-003;
2.402166666666667E+009;1.785191446542740E-001;3.579007461667061E-002;-5.111557897180319E-003;2.532769693061709E-003;
2.402333333333334E+009;1.789414584636688E-001;3.528846800327301E-002;-4.954146686941385E-003;2.625232795253396E-003;
2.402500000000000E+009;1.794697344303131E-001;3.457184508442879E-002;-4.820838104933500E-003;3.086223267018795E-003;
2.402666666666667E+009;1.794963628053665E-001;3.394224494695664E-002;-4.794100765138865E-003;3.280856413766742E-003;
2.402833333333334E+009;1.798245161771774E-001;3.326716646552086E-002;-4.608095623552799E-003;3.419084008783102E-003;
2.403000000000000E+009;1.796730756759644E-001;3.256169706583023E-002;-4.377014469355345E-003;3.650415921583772E-003;
2.403166666666667E+009;1.799038648605347E-001;3.183288499712944E-002;-4.339601844549179E-003;3.847633954137564E-003;
2.403333333333334E+009;1.797276586294174E-001;3.116505593061447E-002;-4.089040681719780E-003;3.906501922756434E-003;
2.403500000000000E+009;1.794287264347076E-001;3.020802512764931E-002;-4.135620780289173E-003;4.140936769545078E-003;
2.403666666666667E+009;1.790791451931000E-001;2.922102995216847E-002;-3.970257472246885E-003;4.340063780546188E-003;
2.403833333333334E+009;1.790466308593750E-001;2.817680500447750E-002;-3.513557370752096E-003;4.553013481199741E-003;
2.404000000000000E+009;1.787240803241730E-001;2.715679258108139E-002;-3.317562164738774E-003;4.571538884192705E-003;
2.404166666666667E+009;1.783521920442581E-001;2.598374336957932E-002;-3.313750959932804E-003;4.918008111417294E-003;
2.404333333333334E+009;1.779368370771408E-001;2.483545802533627E-002;-3.034125082194805E-003;5.029781255871058E-003;
2.404500000000000E+009;1.773868352174759E-001;2.348491363227367E-002;-2.778384601697326E-003;5.164936650544405E-003;
2.404666666666667E+009;1.770015507936478E-001;2.211454696953297E-002;-2.570203738287091E-003;5.139712709933519E-003;
2.404833333333334E+009;1.764523237943649E-001;2.067781984806061E-002;-2.287452109158039E-003;5.117032676935196E-003;
2.405000000000000E+009;1.760674864053726E-001;1.906727626919746E-002;-1.897141686640680E-003;5.252599250525236E-003;
2.405166666666667E+009;1.755454540252686E-001;1.765328459441662E-002;-1.597868627868593E-003;5.371482111513615E-003;
2.405333333333334E+009;1.752624213695526E-001;1.585859246551991E-002;-1.359416171908379E-003;5.187321919947863E-003;
2.405500000000000E+009;1.747053414583206E-001;1.429709326475859E-002;-1.044316450133920E-003;5.365426186472178E-003;
2.405666666666667E+009;1.743377298116684E-001;1.262761652469635E-002;-6.885065231472254E-004;5.333220586180687E-003;
2.405833333333334E+009;1.738909035921097E-001;1.085539162158966E-002;-4.721912555396557E-004;5.269411951303482E-003;
2.406000000000000E+009;1.737385988235474E-001;8.786207064986229E-003;-4.629949398804456E-004;5.114480387419462E-003;
2.406166666666667E+009;1.733518540859222E-001;7.045026402920485E-003;-2.320612693438307E-004;4.989284090697765E-003;
2.406333333333334E+009;1.733132004737854E-001;5.064919125288725E-003;5.110684287501499E-005;4.871883429586887E-003;
2.406500000000000E+009;1.730833053588867E-001;2.954448107630014E-003;1.554650370962918E-004;4.831922706216574E-003;
2.406666666666667E+009;1.729103475809097E-001;1.034932443872094E-003;3.793919458985329E-004;4.653709940612316E-003;
2.406833333333334E+009;1.730375140905380E-001;-1.160155283287168E-003;4.205058503430337E-004;4.361394327133894E-003;
2.407000000000000E+009;1.730069369077683E-001;-3.207530127838254E-003;7.074176101014018E-004;4.565531853586435E-003;
2.407166666666667E+009;1.730840504169464E-001;-5.306445527821779E-003;7.540985243394971E-004;4.307896830141544E-003;
2.407333333333334E+009;1.733192503452301E-001;-7.506432011723518E-003;8.672871044836938E-004;4.210262093693018E-003;
2.407500000000000E+009;1.734615117311478E-001;-9.567830711603165E-003;9.862594306468964E-004;4.147862549871206E-003;
2.407666666666667E+009;1.737475693225861E-001;-1.157353259623051E-002;1.032461645081639E-003;4.043227061629295E-003;
2.407833333333334E+009;1.739648133516312E-001;-1.379913277924061E-002;1.145391375757754E-003;3.891709260642529E-003;
2.408000000000000E+009;1.742571145296097E-001;-1.589802652597427E-002;1.131013734266162E-003;3.943658899515867E-003;
2.408166666666667E+009;1.746155023574829E-001;-1.789233461022377E-002;1.285638660192490E-003;3.675307380035520E-003;
2.408333333333334E+009;1.752762943506241E-001;-1.998080685734749E-002;1.262710196897388E-003;3.501649247482419E-003;
2.408500000000000E+009;1.754962503910065E-001;-2.200889401137829E-002;1.386981923133135E-003;3.620327915996313E-003;
2.408666666666667E+009;1.758023053407669E-001;-2.395065315067768E-002;1.439000014215708E-003;3.438121872022748E-003;
2.408833333333334E+009;1.762004792690277E-001;-2.564051561057568E-002;1.547306543216109E-003;3.456535283476114E-003;
2.409000000000000E+009;1.765510439872742E-001;-2.721264585852623E-002;1.487025409005582E-003;3.354418557137251E-003;
2.409166666666667E+009;1.770338267087936E-001;-2.881980314850807E-002;1.577449031174183E-003;3.243364859372377E-003;
2.409333333333334E+009;1.773976832628250E-001;-3.031339123845100E-002;1.429684692993760E-003;3.075209679082036E-003;
2.409500000000000E+009;1.778033673763275E-001;-3.179110586643219E-002;1.650026417337358E-003;3.104008967056871E-003;
2.409666666666667E+009;1.781778931617737E-001;-3.283555060625076E-002;1.553809503093362E-003;3.118268446996808E-003;
2.409833333333334E+009;1.784509271383286E-001;-3.390170261263847E-002;1.732432632707059E-003;2.955507021397352E-003;
2.410000000000000E+009;1.792039871215820E-001;-3.491777181625366E-002;1.610128791071475E-003;3.069451544433832E-003;
2.410166666666667E+009;1.795824766159058E-001;-3.601423650979996E-002;1.686778268776834E-003;2.982623875141144E-003;
2.410333333333334E+009;1.799702942371368E-001;-3.680820763111115E-002;1.790911890566349E-003;2.859120490029454E-003;
2.410500000000000E+009;1.803907901048660E-001;-3.740970790386200E-002;1.911292783915997E-003;2.871150150895119E-003;
2.410666666666667E+009;1.807056516408920E-001;-3.810328617691994E-002;1.897932495921850E-003;2.793735824525356E-003;
2.410833333333334E+009;1.811346858739853E-001;-3.876968100667000E-002;1.785274129360914E-003;2.781212795525789E-003;
2.411000000000000E+009;1.814142018556595E-001;-3.943922743201256E-002;1.953948754817247E-003;2.705289749428630E-003;
2.411166666666667E+009;1.817459464073181E-001;-3.987043723464012E-002;2.018752740696073E-003;2.646140521392226E-003;
2.411333333333334E+009;1.818832010030747E-001;-4.048262163996697E-002;1.966654555872083E-003;2.663689898326993E-003;
2.411500000000000E+009;1.817704141139984E-001;-4.095745831727982E-002;2.104450250044465E-003;2.776480745524168E-003;
2.411666666666667E+009;1.819471567869186E-001;-4.139297083020210E-002;2.217121655121446E-003;2.705296967178583E-003;
2.411833333333334E+009;1.818076819181442E-001;-4.179608076810837E-002;2.304403809830546E-003;2.699134871363640E-003;
2.412000000000000E+009;1.816686391830444E-001;-4.219565168023109E-002;2.238756744191051E-003;2.650979207828641E-003;
2.412166666666667E+009;1.814012378454208E-001;-4.242879524827004E-002;2.376442542299628E-003;2.700623357668519E-003;
2.412333333333334E+009;1.810267120599747E-001;-4.282004013657570E-002;2.598505700007081E-003;2.637794241309166E-003;
2.412500000000000E+009;1.805297732353210E-001;-4.322136566042900E-002;2.604622161015868E-003;2.560740336775780E-003;
2.412666666666667E+009;1.800105869770050E-001;-4.369949549436569E-002;2.619620179757476E-003;2.587240887805820E-003;
2.412833333333334E+009;1.793540120124817E-001;-4.399381205439568E-002;2.639423357322812E-003;2.681036479771137E-003;
2.413000000000000E+009;1.785797178745270E-001;-4.430401697754860E-002;2.923510270193219E-003;2.517234068363905E-003;
2.413166666666667E+009;1.777682155370712E-001;-4.481608420610428E-002;2.961401361972094E-003;2.569361822679639E-003;
2.413333333333334E+009;1.766579449176788E-001;-4.512014985084534E-002;3.112535923719406E-003;2.423419617116451E-003;
2.413500000000000E+009;1.758529394865036E-001;-4.557867720723152E-002;3.398021683096886E-003;2.297390252351761E-003;
2.413666666666667E+009;1.746841669082642E-001;-4.627000167965889E-002;3.417067462578416E-003;2.325180685147643E-003;
2.413833333333334E+009;1.736056953668594E-001;-4.672976583242416E-002;3.546959022060037E-003;2.182231750339270E-003;
2.414000000000000E+009;1.724710911512375E-001;-4.743948951363564E-002;3.767875256016851E-003;2.017431193962693E-003;
2.414166666666667E+009;1.713825464248657E-001;-4.800037667155266E-002;3.779796184971929E-003;2.000223845243454E-003;
2.414333333333334E+009;1.700443178415299E-001;-4.883053526282311E-002;4.035540856420994E-003;1.809051958844066E-003;
2.414500000000000E+009;1.690846234560013E-001;-4.966466501355171E-002;4.056491423398256E-003;1.672270358540118E-003;
2.414666666666667E+009;1.677996665239334E-001;-5.065597593784332E-002;4.185180645436049E-003;1.600194256752729E-003;
2.414833333333334E+009;1.665513515472412E-001;-5.162049084901810E-002;4.358329344540834E-003;1.122524379752576E-003;
2.415000000000000E+009;1.652455329895020E-001;-5.264044553041458E-002;4.429677966982126E-003;1.198392244987190E-003;
2.415166666666667E+009;1.641399562358856E-001;-5.388344824314117E-002;4.500811453908682E-003;7.196068763732910E-004;
2.415333333333334E+009;1.630544960498810E-001;-5.518099293112755E-002;4.587349947541952E-003;7.342679891735315E-004;
2.415500000000000E+009;1.619381755590439E-001;-5.649098008871079E-002;4.756371024996042E-003;5.158511339686811E-004;
2.415666666666667E+009;1.607339233160019E-001;-5.803613364696503E-002;4.783217329531908E-003;3.225451509933919E-004;
2.415833333333334E+009;1.595373302698135E-001;-5.959257110953331E-002;4.644938278943300E-003;-6.746401049895212E-005;
2.416000000000000E+009;1.584368348121643E-001;-6.107573583722115E-002;4.547858610749245E-003;-2.516554668545723E-004;
2.416166666666667E+009;1.576908528804779E-001;-6.285834312438965E-002;4.610947333276272E-003;-3.829615889117122E-004;
2.416333333333334E+009;1.565962880849838E-001;-6.452435255050659E-002;4.510657396167517E-003;-7.559650694020093E-004;
2.416500000000000E+009;1.556054353713989E-001;-6.640514731407166E-002;4.445943515747786E-003;-8.458988158963621E-004;
2.416666666666667E+009;1.546867191791534E-001;-6.818814575672150E-002;4.414252936840057E-003;-1.092175371013582E-003;
2.416833333333334E+009;1.540449559688568E-001;-7.024015486240387E-002;4.442453384399414E-003;-1.313701272010803E-003;
2.417000000000000E+009;1.530837565660477E-001;-7.199329882860184E-002;4.310902208089829E-003;-1.511177280917764E-003;
2.417166666666667E+009;1.525153368711472E-001;-7.390459626913071E-002;4.023665096610785E-003;-1.659762812778354E-003;
2.417333333333334E+009;1.519861370325089E-001;-7.571114599704742E-002;3.940285649150610E-003;-1.979331485927105E-003;
2.417500000000000E+009;1.513030827045441E-001;-7.780694216489792E-002;3.970302175730467E-003;-2.034103497862816E-003;
2.417666666666667E+009;1.509686112403870E-001;-7.957544922828674E-002;3.907566890120506E-003;-2.021741820499301E-003;
2.417833333333334E+009;1.505472660064697E-001;-8.132567256689072E-002;3.686987562105060E-003;-2.169901970773935E-003;
2.418000000000000E+009;1.501129716634750E-001;-8.326245844364166E-002;3.518587676808238E-003;-2.361399820074439E-003;
2.418166666666667E+009;1.499372869729996E-001;-8.481313288211823E-002;3.155102021992207E-003;-2.458159578964114E-003;
2.418333333333334E+009;1.500076502561569E-001;-8.660709857940674E-002;3.197439713403583E-003;-2.570820041000843E-003;
2.418500000000000E+009;1.496624946594238E-001;-8.818706125020981E-002;3.012805944308639E-003;-2.723104087635875E-003;
2.418666666666667E+009;1.497333943843842E-001;-8.981271088123322E-002;2.733150962740183E-003;-2.777921734377742E-003;
2.418833333333334E+009;1.495157480239868E-001;-9.121499955654144E-002;2.544357208535075E-003;-2.900530118495226E-003;
2.419000000000000E+009;1.494942903518677E-001;-9.255566447973251E-002;2.238311339169741E-003;-2.944185631349683E-003;
2.419166666666667E+009;1.496257483959198E-001;-9.376320242881775E-002;1.998076215386391E-003;-2.894101897254586E-003;
2.419333333333334E+009;1.497060060501099E-001;-9.470089524984360E-002;1.982760848477483E-003;-2.986682811751962E-003;
2.419500000000000E+009;1.498478055000305E-001;-9.612055867910385E-002;1.759016886353493E-003;-3.057167166844010E-003;
2.419666666666667E+009;1.500824391841888E-001;-9.682319313287735E-002;1.498910947702825E-003;-2.959756646305323E-003;
2.419833333333334E+009;1.502537131309509E-001;-9.762492775917053E-002;1.278132898733020E-003;-2.936769509688020E-003;
2.420000000000000E+009;1.506454497575760E-001;-9.820930659770966E-002;1.220273319631815E-003;-2.826469950377941E-003;
2.420166666666667E+009;1.507501900196075E-001;-9.901743382215500E-002;1.057897112332285E-003;-2.765214536339045E-003;
2.420333333333334E+009;1.511435210704804E-001;-9.941019117832184E-002;9.547626832500100E-004;-2.641274360939860E-003;
2.420500000000000E+009;1.514895111322403E-001;-9.966817498207092E-002;7.635406800545752E-004;-2.451939275488257E-003;
2.420666666666667E+009;1.517072767019272E-001;-9.987261146306992E-002;6.864811293780804E-004;-2.454322529956698E-003;
2.420833333333334E+009;1.519920378923416E-001;-1.002002432942390E-001;6.641637301072478E-004;-2.193963387981057E-003;
2.421000000000000E+009;1.520381718873978E-001;-1.002630740404129E-001;6.863331072963774E-004;-2.041470957919955E-003;
2.421166666666667E+009;1.525617837905884E-001;-1.003752127289772E-001;5.672137485817075E-004;-2.005797810852528E-003;
2.421333333333334E+009;1.526933610439301E-001;-1.004351153969765E-001;5.819840007461608E-004;-1.936109503731132E-003;
2.421500000000000E+009;1.526648998260498E-001;-1.002094298601151E-001;6.917528808116913E-004;-1.778825069777668E-003;
2.421666666666667E+009;1.526068150997162E-001;-9.997233003377914E-002;6.725014536641538E-004;-1.691478071734309E-003;
2.421833333333334E+009;1.527159363031387E-001;-1.000201627612114E-001;6.649993010796607E-004;-1.763903885148466E-003;
2.422000000000000E+009;1.523254662752152E-001;-9.965778142213821E-002;6.700447411276400E-004;-1.765313791111112E-003;
2.422166666666667E+009;1.523571461439133E-001;-9.966579824686050E-002;6.830120692029595E-004;-1.838953699916601E-003;
2.422333333333334E+009;1.519012749195099E-001;-9.923522174358368E-002;8.340287604369223E-004;-1.658128807321191E-003;
2.422500000000000E+009;1.514258235692978E-001;-9.875417500734329E-002;9.259873186238110E-004;-1.642948598600924E-003;
2.422666666666667E+009;1.507463008165360E-001;-9.869603812694550E-002;7.856084848754108E-004;-1.767984475009143E-003;
2.422833333333334E+009;1.502167880535126E-001;-9.834472835063934E-002;7.737272535450757E-004;-1.667625620029867E-003;
2.423000000000000E+009;1.493366658687592E-001;-9.810869395732880E-002;8.612896199338138E-004;-1.771301962435246E-003;
2.423166666666667E+009;1.485560387372971E-001;-9.775623679161072E-002;1.066863769665361E-003;-1.738944789394736E-003;
2.423333333333334E+009;1.475258320569992E-001;-9.723944216966629E-002;9.515698766335845E-004;-1.980463508516550E-003;
2.423500000000000E+009;1.463057547807694E-001;-9.698962420225143E-002;9.769523749127984E-004;-2.024413319304586E-003;
2.423666666666667E+009;1.450128853321075E-001;-9.694884717464447E-002;9.490320808254182E-004;-2.141301287338138E-003;
2.423833333333334E+009;1.439039111137390E-001;-9.674426913261414E-002;1.063802279531956E-003;-2.086457097902894E-003;
2.424000000000000E+009;1.425404101610184E-001;-9.630362689495087E-002;1.068860525265336E-003;-2.216219436377287E-003;
2.424166666666667E+009;1.412861198186874E-001;-9.617803245782852E-002;9.611505083739758E-004;-2.232628641650081E-003;
2.424333333333334E+009;1.399055272340775E-001;-9.617517143487930E-002;8.210035739466548E-004;-2.435497473925352E-003;
2.424500000000000E+009;1.385864317417145E-001;-9.630666673183441E-002;8.346725953742862E-004;-2.285868860781193E-003;
2.424666666666667E+009;1.371286362409592E-001;-9.616456925868988E-002;9.042557794600725E-004;-2.440205309540033E-003;
2.424833333333334E+009;1.354481726884842E-001;-9.635291993618012E-002;8.013100596144795E-004;-2.607905073091388E-003;
2.425000000000000E+009;1.341227889060974E-001;-9.669383615255356E-002;7.682385621592403E-004;-2.725476166233420E-003;
2.425166666666667E+009;1.323860287666321E-001;-9.715624898672104E-002;5.883961566723883E-004;-2.726368140429258E-003;
2.425333333333334E+009;1.310628354549408E-001;-9.763266891241074E-002;4.280017165001482E-004;-2.699510194361210E-003;
2.425500000000000E+009;1.297951787710190E-001;-9.836944937705994E-002;3.888507490046322E-004;-2.833813428878784E-003;
2.425666666666667E+009;1.281352341175079E-001;-9.904155135154724E-002;3.293215995654464E-004;-2.832713304087520E-003;
2.425833333333334E+009;1.267930120229721E-001;-9.984712302684784E-002;2.684319333638996E-004;-3.011194989085197E-003;
2.426000000000000E+009;1.254142820835114E-001;-1.009887158870697E-001;1.876698370324448E-004;-2.735835267230868E-003;
2.426166666666667E+009;1.241511330008507E-001;-1.021077930927277E-001;6.899141590110958E-005;-2.987477928400040E-003;
2.426333333333334E+009;1.226577386260033E-001;-1.032551079988480E-001;5.980712012387812E-005;-3.035543719306588E-003;
2.426500000000000E+009;1.215043142437935E-001;-1.045316979289055E-001;-2.393247705185786E-004;-2.851759083569050E-003;
2.426666666666667E+009;1.204986199736595E-001;-1.057596132159233E-001;-4.005176306236535E-004;-2.870344324037433E-003;
2.426833333333334E+009;1.193030029535294E-001;-1.072703376412392E-001;-4.234246443957090E-004;-2.724710153415799E-003;
2.427000000000000E+009;1.182024329900742E-001;-1.088748574256897E-001;-4.891626304015517E-004;-2.715721027925611E-003;
2.427166666666667E+009;1.172006875276566E-001;-1.104321330785751E-001;-5.496508674696088E-004;-2.837536856532097E-003;
2.427333333333334E+009;1.162880063056946E-001;-1.121262609958649E-001;-6.696870550513268E-004;-2.708587795495987E-003;
2.427500000000000E+009;1.156298890709877E-001;-1.138511300086975E-001;-4.501713556237519E-004;-2.693309448659420E-003;
2.427666666666667E+009;1.148781329393387E-001;-1.154388189315796E-001;-7.432011771015823E-004;-2.547036623582244E-003;
2.427833333333334E+009;1.141014695167542E-001;-1.171740740537643E-001;-7.262448780238628E-004;-2.591304481029511E-003;
