# Version 1.00
#
freq[Hz];re:Trc1_S11;im:Trc1_S11;re:Trc2_S21;im:Trc2_S21;
2.400000000000000E+009;1.548399627208710E-001;1.066374033689499E-001;-8.304051123559475E-003;-3.492064133752137E-004;
2.400166666666667E+009;1.549542546272278E-001;1.044675558805466E-001;-8.494494482874870E-003;6.087195652071387E-005;
2.400333333333334E+009;1.548288464546204E-001;1.016844287514687E-001;-8.803842589259148E-003;4.141138051636517E-004;
2.400500000000000E+009;1.545044481754303E-001;9.930419921875000E-002;-8.721694350242615E-003;9.075136040337384E-004;
2.400666666666667E+009;1.545958369970322E-001;9.682232886552811E-002;-8.860281668603420E-003;1.385245937854052E-003;
2.400833333333334E+009;1.547748446464539E-001;9.375616163015366E-002;-8.825735189020634E-003;1.779383164830506E-003;
2.401000000000000E+009;1.555428206920624E-001;9.175159037113190E-002;-8.542843163013458E-003;2.239297609776259E-003;
2.401166666666667E+009;1.555097252130508E-001;8.839232474565506E-002;-8.477691560983658E-003;2.854813821613789E-003;
2.401333333333334E+009;1.556341499090195E-001;8.505888283252716E-002;-8.358118124306202E-003;3.212743904441595E-003;
2.401500000000000E+009;1.560350060462952E-001;8.252987265586853E-002;-8.080901578068733E-003;3.658486297354102E-003;
2.401666666666667E+009;1.563697457313538E-001;7.968933880329132E-002;-7.851589471101761E-003;4.035390913486481E-003;
2.401833333333334E+009;1.568397134542465E-001;7.707510143518448E-002;-7.695884443819523E-003;4.351654555648565E-003;
2.402000000000000E+009;1.578229218721390E-001;7.430218160152435E-002;-7.167301140725613E-003;4.666997119784355E-003;
2.402166666666667E+009;1.585847735404968E-001;7.157687097787857E-002;-6.927856244146824E-003;4.707643296569586E-003;
2.402333333333334E+009;1.594632118940353E-001;6.878466904163361E-002;-6.495865993201733E-003;5.059732124209404E-003;
2.402500000000000E+009;1.607350260019302E-001;6.621608138084412E-002;-6.315633188933134E-003;5.184821318835020E-003;
2.402666666666667E+009;1.618632823228836E-001;6.364698708057404E-002;-6.142154335975647E-003;5.319162271916866E-003;
2.402833333333334E+009;1.630554497241974E-001;6.116443127393723E-002;-5.678433459252119E-003;5.478250328451395E-003;
2.403000000000000E+009;1.642949283123016E-001;5.907418951392174E-002;-5.505439825356007E-003;5.456844810396433E-003;
2.403166666666667E+009;1.661580204963684E-001;5.684499442577362E-002;-5.340632516890764E-003;5.674703512340784E-003;
2.403333333333334E+009;1.674598455429077E-001;5.446660518646240E-002;-4.923827480524778E-003;5.781222600489855E-003;
2.403500000000000E+009;1.693499833345413E-001;5.249952152371407E-002;-4.796821624040604E-003;5.748032126575708E-003;
2.403666666666667E+009;1.710007190704346E-001;5.056894198060036E-002;-4.616322461515665E-003;5.881660617887974E-003;
2.403833333333334E+009;1.727132499217987E-001;4.870057851076126E-002;-4.177618771791458E-003;6.050916388630867E-003;
2.404000000000000E+009;1.741300970315933E-001;4.689572006464005E-002;-4.085615277290344E-003;6.062248256057501E-003;
2.404166666666667E+009;1.759365051984787E-001;4.542931541800499E-002;-3.983455244451761E-003;6.273098755627871E-003;
2.404333333333334E+009;1.775103211402893E-001;4.398195818066597E-002;-3.763909451663494E-003;6.336274556815624E-003;
2.404500000000000E+009;1.792238503694534E-001;4.249014705419540E-002;-3.315493697300553E-003;6.381026469171047E-003;
2.404666666666667E+009;1.808378547430039E-001;4.138788953423500E-002;-2.957772463560104E-003;6.616406608372927E-003;
2.404833333333334E+009;1.826013624668121E-001;4.044125974178314E-002;-2.747479593381286E-003;6.516479421406984E-003;
2.405000000000000E+009;1.839494556188583E-001;3.969351947307587E-002;-2.456750487908721E-003;6.763588637113571E-003;
2.405166666666667E+009;1.853716969490051E-001;3.910732641816139E-002;-2.141534583643079E-003;6.691828835755587E-003;
2.405333333333334E+009;1.869492530822754E-001;3.823709860444069E-002;-2.029963303357363E-003;6.119380705058575E-003;
2.405500000000000E+009;1.882460117340088E-001;3.789651393890381E-002;-1.930396654643118E-003;6.467951461672783E-003;
2.405666666666667E+009;1.893919855356216E-001;3.763656690716744E-002;-1.440931693650782E-003;6.401738617569208E-003;
2.405833333333334E+009;1.907354742288590E-001;3.744126111268997E-002;-1.268040970899165E-003;6.414853036403656E-003;
2.406000000000000E+009;1.917055696249008E-001;3.724631667137146E-002;-1.027820049785078E-003;6.434317678213120E-003;
2.406166666666667E+009;1.927429139614105E-001;3.720248863101006E-002;-7.406372460536659E-004;6.308702751994133E-003;
2.406333333333334E+009;1.936313360929489E-001;3.711149096488953E-002;-6.219433271326125E-004;6.203331053256989E-003;
2.406500000000000E+009;1.942339092493057E-001;3.725082427263260E-002;-3.268124710302800E-004;6.109225098043680E-003;
2.406666666666667E+009;1.948746144771576E-001;3.715487942099571E-002;-1.379507884848863E-004;6.032681558281183E-003;
2.406833333333334E+009;1.954996585845947E-001;3.726966306567192E-002;1.819355929910671E-005;5.936875473707914E-003;
2.407000000000000E+009;1.952831149101257E-001;3.735659271478653E-002;-6.307322764769197E-004;5.909138824790716E-003;
2.407166666666667E+009;1.962476521730423E-001;3.712143748998642E-002;3.454792895354331E-004;5.230328068137169E-003;
2.407333333333334E+009;1.957895606756210E-001;3.736611828207970E-002;2.713585126912221E-005;5.725524853914976E-003;
2.407500000000000E+009;1.959552019834518E-001;3.762401267886162E-002;3.943756746593863E-004;5.284073296934366E-003;
2.407666666666667E+009;1.961362659931183E-001;3.772899881005287E-002;1.002097502350807E-003;5.258166231215000E-003;
2.407833333333334E+009;1.954220384359360E-001;3.755801916122437E-002;8.182139135897160E-004;5.147111136466265E-003;
2.408000000000000E+009;1.955491453409195E-001;3.728227317333221E-002;9.733787737786770E-004;4.654813092201948E-003;
2.408166666666667E+009;1.946544945240021E-001;3.714771941304207E-002;5.533898947760463E-004;4.842158406972885E-003;
2.408333333333334E+009;1.942467093467712E-001;3.673326224088669E-002;8.420163649134338E-004;4.551372025161982E-003;
2.408500000000000E+009;1.935550570487976E-001;3.642809763550758E-002;8.342838264070451E-004;4.520189482718706E-003;
2.408666666666667E+009;1.929364651441574E-001;3.602261096239090E-002;9.014192037284374E-004;4.305450245738030E-003;
2.408833333333334E+009;1.921477466821671E-001;3.505561873316765E-002;8.089319453574717E-004;4.435522947460413E-003;
2.409000000000000E+009;1.912942230701447E-001;3.428690880537033E-002;7.403152412734926E-004;4.245846532285214E-003;
2.409166666666667E+009;1.903847157955170E-001;3.327989205718041E-002;7.960720686241984E-004;4.330526106059551E-003;
2.409333333333334E+009;1.895003318786621E-001;3.241578489542007E-002;6.886203191243112E-004;4.032114986330271E-003;
2.409500000000000E+009;1.883046329021454E-001;3.101270459592342E-002;1.197187957586721E-004;3.917603287845850E-003;
2.409666666666667E+009;1.874335706233978E-001;2.969597466289997E-002;6.420212448574603E-004;4.280222114175558E-003;
2.409833333333334E+009;1.865472346544266E-001;2.828638069331646E-002;7.845036452636123E-004;4.208102356642485E-003;
2.410000000000000E+009;1.853151172399521E-001;2.668587490916252E-002;2.969194028992206E-004;4.598113242536783E-003;
2.410166666666667E+009;1.844693124294281E-001;2.482061460614204E-002;8.381457882933319E-004;4.599600564688444E-003;
2.410333333333334E+009;1.834699660539627E-001;2.317294105887413E-002;7.888797554187477E-004;4.977252800017595E-003;
2.410500000000000E+009;1.825126558542252E-001;2.108518034219742E-002;7.798482547514141E-004;4.600731190294027E-003;
2.410666666666667E+009;1.816487014293671E-001;1.859085634350777E-002;9.189329575747252E-004;5.104422569274902E-003;
2.410833333333334E+009;1.808151304721832E-001;1.665651798248291E-002;1.008462277241051E-003;5.185783840715885E-003;
2.411000000000000E+009;1.801231354475021E-001;1.426851470023394E-002;1.043239957652986E-003;5.231747869402170E-003;
2.411166666666667E+009;1.795154362916946E-001;1.214851718395948E-002;1.273885602131486E-003;5.393583327531815E-003;
2.411333333333334E+009;1.788738071918488E-001;9.653649292886257E-003;1.555967144668102E-003;5.252418573945761E-003;
2.411500000000000E+009;1.786709278821945E-001;7.207140792161226E-003;1.723489374853671E-003;5.329784005880356E-003;
2.411666666666667E+009;1.782714128494263E-001;4.900892730802298E-003;1.840319368056953E-003;5.360059905797243E-003;
2.411833333333334E+009;1.779966056346893E-001;2.506557386368513E-003;2.155438531190157E-003;5.325526930391789E-003;
2.412000000000000E+009;1.781779825687408E-001;-7.337142596952617E-005;2.278375905007124E-003;5.301948171108961E-003;
2.412166666666667E+009;1.782031208276749E-001;-2.506832592189312E-003;2.461933996528387E-003;5.036351270973682E-003;
2.412333333333334E+009;1.783481836318970E-001;-5.005656741559506E-003;2.703359350562096E-003;5.137756466865540E-003;
2.412500000000000E+009;1.788218915462494E-001;-7.397667970508337E-003;2.843603957444429E-003;4.993355832993984E-003;
2.412666666666667E+009;1.793653070926666E-001;-9.849050082266331E-003;2.836233237758279E-003;4.788971040397883E-003;
2.412833333333334E+009;1.799576282501221E-001;-1.229353249073029E-002;2.993690315634012E-003;4.695551935583353E-003;
2.413000000000000E+009;1.809098720550537E-001;-1.460927631705999E-002;3.036995185539126E-003;4.721867851912975E-003;
2.413166666666667E+009;1.815406531095505E-001;-1.687127165496349E-002;3.023865399882197E-003;4.456387367099524E-003;
2.413333333333334E+009;1.825477033853531E-001;-1.939345896244049E-002;3.217476652935147E-003;4.481384530663490E-003;
2.413500000000000E+009;1.834914833307266E-001;-2.157025411725044E-002;3.262364538386464E-003;4.486071877181530E-003;
2.413666666666667E+009;1.846989393234253E-001;-2.363612130284309E-002;3.450101707130671E-003;4.411176778376102E-003;
2.413833333333334E+009;1.857224404811859E-001;-2.582416683435440E-002;3.466220805421472E-003;4.558075219392777E-003;
2.414000000000000E+009;1.867645233869553E-001;-2.779770083725452E-002;3.619250375777483E-003;4.579937551170588E-003;
2.414166666666667E+009;1.882535070180893E-001;-2.960550598800182E-002;3.670376725494862E-003;4.641426261514425E-003;
2.414333333333334E+009;1.893845796585083E-001;-3.148738667368889E-002;3.861725330352783E-003;4.597616847604513E-003;
2.414500000000000E+009;1.906725019216538E-001;-3.290577232837677E-002;4.068288020789623E-003;4.611666314303875E-003;
2.414666666666667E+009;1.917206496000290E-001;-3.444699943065643E-002;4.333636723458767E-003;4.635112825781107E-003;
2.414833333333334E+009;1.930446922779083E-001;-3.580735251307488E-002;4.702035803347826E-003;4.670761059969664E-003;
2.415000000000000E+009;1.940852105617523E-001;-3.709724172949791E-002;4.918771795928478E-003;4.518559202551842E-003;
2.415166666666667E+009;1.952195018529892E-001;-3.823104873299599E-002;5.347029771655798E-003;4.536252468824387E-003;
2.415333333333334E+009;1.964535415172577E-001;-3.910167142748833E-002;5.450636148452759E-003;4.306185524910688E-003;
2.415500000000000E+009;1.975163221359253E-001;-4.007640108466148E-002;5.639745853841305E-003;4.142701625823975E-003;
2.415666666666667E+009;1.985901445150375E-001;-4.066369682550430E-002;5.991069599986076E-003;3.932180814445019E-003;
2.415833333333334E+009;1.994170546531677E-001;-4.134846106171608E-002;6.430061534047127E-003;3.683611517772079E-003;
2.416000000000000E+009;2.000772207975388E-001;-4.183072969317436E-002;6.540300790220499E-003;3.526125103235245E-003;
2.416166666666667E+009;2.008701115846634E-001;-4.237816482782364E-002;6.776425056159496E-003;3.175394842401147E-003;
2.416333333333334E+009;2.015409171581268E-001;-4.263395816087723E-002;6.913748104125261E-003;2.869735006242991E-003;
2.416500000000000E+009;2.020334005355835E-001;-4.291843622922897E-002;7.057495880872011E-003;2.561920322477818E-003;
2.416666666666667E+009;2.024123817682266E-001;-4.314116761088371E-002;7.173728663474321E-003;2.156033646315336E-003;
2.416833333333334E+009;2.023640573024750E-001;-4.310580715537071E-002;7.470112759619951E-003;1.890229177661240E-003;
2.417000000000000E+009;2.026057094335556E-001;-4.321078211069107E-002;7.476349361240864E-003;1.471924013458192E-003;
2.417166666666667E+009;2.022266089916229E-001;-4.312592372298241E-002;7.516115903854370E-003;1.059504109434784E-003;
2.417333333333334E+009;2.020022869110107E-001;-4.293049499392510E-002;7.475179620087147E-003;8.213292458094657E-004;
2.417500000000000E+009;2.018350958824158E-001;-4.289925470948219E-002;7.579230703413487E-003;5.325896199792624E-004;
2.417666666666667E+009;2.013701796531677E-001;-4.261153563857079E-002;7.461062632501125E-003;2.215575368609279E-004;
2.417833333333334E+009;2.008532285690308E-001;-4.233837500214577E-002;7.544337771832943E-003;-1.523484970675781E-004;
2.418000000000000E+009;2.001452296972275E-001;-4.203354567289352E-002;7.493164390325546E-003;-5.500136176124215E-004;
2.418166666666667E+009;1.993737071752548E-001;-4.198173806071281E-002;7.244375068694353E-003;-7.025230443105102E-004;
2.418333333333334E+009;1.984444558620453E-001;-4.183337464928627E-002;7.265862077474594E-003;-8.360915235243738E-004;
2.418500000000000E+009;1.973601728677750E-001;-4.182923957705498E-002;7.204603869467974E-003;-1.246553263626993E-003;
2.418666666666667E+009;1.965832412242889E-001;-4.175323620438576E-002;7.172964047640562E-003;-1.432080054655671E-003;
2.418833333333334E+009;1.951994746923447E-001;-4.183010011911392E-002;7.132162339985371E-003;-1.788527588360012E-003;
2.419000000000000E+009;1.939996182918549E-001;-4.203177616000176E-002;6.944565568119288E-003;-2.135347109287977E-003;
2.419166666666667E+009;1.926651895046234E-001;-4.228987917304039E-002;6.941525265574455E-003;-2.449196297675371E-003;
2.419333333333334E+009;1.913188248872757E-001;-4.278442263603210E-002;6.924846209585667E-003;-2.533288905397058E-003;
2.419500000000000E+009;1.897830069065094E-001;-4.323629662394524E-002;6.828512530773878E-003;-2.678338903933764E-003;
2.419666666666667E+009;1.882825195789337E-001;-4.405612871050835E-002;6.546367891132832E-003;-3.022862598299980E-003;
2.419833333333334E+009;1.865455806255341E-001;-4.468294978141785E-002;6.590101867914200E-003;-3.288933075964451E-003;
2.420000000000000E+009;1.849719882011414E-001;-4.561074823141098E-002;6.418935954570770E-003;-3.516554366797209E-003;
2.420166666666667E+009;1.833304017782211E-001;-4.658556729555130E-002;6.202197633683682E-003;-3.835488110780716E-003;
2.420333333333334E+009;1.818684786558151E-001;-4.775751009583473E-002;5.939458962529898E-003;-3.938705194741488E-003;
2.420500000000000E+009;1.801228970289230E-001;-4.909588769078255E-002;5.679599009454250E-003;-4.117394797503948E-003;
2.420666666666667E+009;1.785861998796463E-001;-5.016740411520004E-002;5.407637450844050E-003;-4.641865845769644E-003;
2.420833333333334E+009;1.769800335168839E-001;-5.174920707941055E-002;5.301736295223236E-003;-4.664407111704350E-003;
2.421000000000000E+009;1.755356192588806E-001;-5.333353206515312E-002;4.945151507854462E-003;-4.887785296887159E-003;
2.421166666666667E+009;1.741331219673157E-001;-5.512164905667305E-002;4.642495885491371E-003;-5.101757124066353E-003;
2.421333333333334E+009;1.724443882703781E-001;-5.662314966320992E-002;4.390690941363573E-003;-5.050361622124910E-003;
2.421500000000000E+009;1.711239516735077E-001;-5.863048136234283E-002;4.062375519424677E-003;-5.305735394358635E-003;
2.421666666666667E+009;1.699498742818832E-001;-6.071711704134941E-002;3.852247493341565E-003;-5.373369436711073E-003;
2.421833333333334E+009;1.687539815902710E-001;-6.247311457991600E-002;3.384621813893318E-003;-5.304292310029268E-003;
2.422000000000000E+009;1.675906479358673E-001;-6.426710635423660E-002;3.171881893649697E-003;-5.318433512002230E-003;
2.422166666666667E+009;1.668038964271545E-001;-6.657294183969498E-002;2.913409145548940E-003;-5.331816151738167E-003;
2.422333333333334E+009;1.656882911920548E-001;-6.852617859840393E-002;2.671665744856000E-003;-5.218591075390577E-003;
2.422500000000000E+009;1.649669259786606E-001;-7.042180001735687E-002;2.418741350993514E-003;-5.050004925578833E-003;
2.422666666666667E+009;1.641932427883148E-001;-7.248400151729584E-002;2.304367022588849E-003;-5.057586822658777E-003;
2.422833333333334E+009;1.637504547834396E-001;-7.465791702270508E-002;2.039626240730286E-003;-5.086249671876431E-003;
2.423000000000000E+009;1.631669104099274E-001;-7.675993442535400E-002;1.890846528112888E-003;-4.750647116452456E-003;
2.423166666666667E+009;1.628300696611404E-001;-7.879997044801712E-002;1.712940284051001E-003;-4.911637865006924E-003;
2.423333333333334E+009;1.626380831003189E-001;-8.078147470951080E-002;1.630937564186752E-003;-4.860853310674429E-003;
2.423500000000000E+009;1.626100242137909E-001;-8.233448863029480E-002;1.338973757810891E-003;-4.689567256718874E-003;
2.423666666666667E+009;1.625538170337677E-001;-8.449870347976685E-002;1.309999497607350E-003;-4.654174670577049E-003;
2.423833333333334E+009;1.624218672513962E-001;-8.620492368936539E-002;1.088848104700446E-003;-4.652407020330429E-003;
2.424000000000000E+009;1.624917089939117E-001;-8.798840641975403E-002;1.016740687191486E-003;-4.578392487019301E-003;
2.424166666666667E+009;1.626889854669571E-001;-8.951319754123688E-002;9.988257661461830E-004;-4.523416515439749E-003;
2.424333333333334E+009;1.630080789327622E-001;-9.108025580644608E-002;7.415260188281536E-004;-4.393446259200573E-003;
2.424500000000000E+009;1.634140312671661E-001;-9.291519224643707E-002;6.693887989968061E-004;-4.271860234439373E-003;
2.424666666666667E+009;1.635860055685043E-001;-9.416893124580383E-002;5.365096731111407E-004;-4.033711738884449E-003;
2.424833333333334E+009;1.641985625028610E-001;-9.551104158163071E-002;3.798828984145075E-004;-4.074500873684883E-003;
2.425000000000000E+009;1.646429896354675E-001;-9.678808599710465E-002;5.573186208494008E-004;-3.968587610870600E-003;
2.425166666666667E+009;1.647857129573822E-001;-9.776173532009125E-002;3.635954053606838E-004;-3.764996305108070E-003;
2.425333333333334E+009;1.652828305959702E-001;-9.863745421171188E-002;3.640373761299998E-004;-3.773222444579005E-003;
2.425500000000000E+009;1.656400412321091E-001;-9.962872415781021E-002;3.893446992151439E-004;-3.802956547588110E-003;
2.425666666666667E+009;1.662182807922363E-001;-1.002534925937653E-001;6.287095602601767E-004;-3.489233320578933E-003;
2.425833333333334E+009;1.665409803390503E-001;-1.010505408048630E-001;4.827304510399699E-004;-3.631551750004292E-003;
2.426000000000000E+009;1.668658256530762E-001;-1.015409827232361E-001;5.058909882791340E-004;-3.661386435851455E-003;
2.426166666666667E+009;1.673148870468140E-001;-1.020464375615120E-001;6.356906378641725E-004;-3.455360652878881E-003;
2.426333333333334E+009;1.674787253141403E-001;-1.026412025094032E-001;5.164876347407699E-004;-3.753186436370015E-003;
2.426500000000000E+009;1.678486913442612E-001;-1.028179600834847E-001;6.175385206006467E-004;-3.572841407731175E-003;
2.426666666666667E+009;1.681359559297562E-001;-1.030727177858353E-001;5.127016920596361E-004;-3.669471247121692E-003;
2.426833333333334E+009;1.684702932834625E-001;-1.032559275627136E-001;4.798310983460397E-004;-3.855418646708131E-003;
2.427000000000000E+009;1.684589534997940E-001;-1.034880131483078E-001;3.707071882672608E-004;-3.906635567545891E-003;
2.427166666666667E+009;1.684371083974838E-001;-1.035139933228493E-001;3.198941412847489E-004;-3.844836261123419E-003;
2.427333333333334E+009;1.683224290609360E-001;-1.038244813680649E-001;2.870463649742305E-004;-3.872748697176576E-003;
2.427500000000000E+009;1.681026071310043E-001;-1.039417982101440E-001;1.380910834996030E-004;-3.920460119843483E-003;
2.427666666666667E+009;1.677410900592804E-001;-1.039488539099693E-001;1.356592838419601E-004;-4.052968695759773E-003;
2.427833333333334E+009;1.673782020807266E-001;-1.041074469685555E-001;-4.686385727836750E-005;-3.910906147211790E-003;
