# Version 1.00
#
freq[Hz];re:Trc1_S11;im:Trc1_S11;re:Trc2_S21;im:Trc2_S21;
2.400000000000000E+009;1.553441882133484E-001;1.068577244877815E-001;-8.413859643042088E-003;-2.710705448407680E-004;
2.400166666666667E+009;1.550807952880859E-001;1.046686023473740E-001;-8.421408012509346E-003;-1.166276160802227E-005;
2.400333333333334E+009;1.551861763000488E-001;1.023758351802826E-001;-8.580897934734821E-003;3.541663754731417E-004;
2.400500000000000E+009;1.552323400974274E-001;9.958077222108841E-002;-8.685309439897537E-003;9.844022570177913E-004;
2.400666666666667E+009;1.552844494581223E-001;9.721677750349045E-002;-8.749204687774181E-003;1.300602569244802E-003;
2.400833333333334E+009;1.553351879119873E-001;9.418324381113052E-002;-8.798553608357906E-003;1.871703076176345E-003;
2.401000000000000E+009;1.555452644824982E-001;9.127052128314972E-002;-8.563264273107052E-003;2.252590376883745E-003;
2.401166666666667E+009;1.557042598724365E-001;8.854851871728897E-002;-8.332354016602039E-003;2.762985648587346E-003;
2.401333333333334E+009;1.561272740364075E-001;8.569531887769699E-002;-8.154152892529964E-003;3.177006030455232E-003;
2.401500000000000E+009;1.566458642482758E-001;8.274184167385101E-002;-8.067036978900433E-003;3.527478082105517E-003;
2.401666666666667E+009;1.569354832172394E-001;7.994029670953751E-002;-7.715234532952309E-003;3.892455250024796E-003;
2.401833333333334E+009;1.574738174676895E-001;7.692781835794449E-002;-7.496797479689121E-003;4.231280181556940E-003;
2.402000000000000E+009;1.583174169063568E-001;7.404363900423050E-002;-7.080607116222382E-003;4.576734267175198E-003;
2.402166666666667E+009;1.590861082077026E-001;7.163964956998825E-002;-6.792702712118626E-003;4.863515030592680E-003;
2.402333333333334E+009;1.600826978683472E-001;6.882462650537491E-002;-6.476440001279116E-003;5.047383252531290E-003;
2.402500000000000E+009;1.611841171979904E-001;6.617484986782074E-002;-6.060720887035132E-003;5.160211119800806E-003;
2.402666666666667E+009;1.623067557811737E-001;6.367109715938568E-002;-5.923178978264332E-003;5.184799898415804E-003;
2.402833333333334E+009;1.635051965713501E-001;6.135018542408943E-002;-5.720897112041712E-003;5.379004869610071E-003;
2.403000000000000E+009;1.649289727210999E-001;5.892426148056984E-002;-5.338321439921856E-003;5.459852982312441E-003;
2.403166666666667E+009;1.665426939725876E-001;5.664961785078049E-002;-5.055294837802649E-003;5.554195027798414E-003;
2.403333333333334E+009;1.678838133811951E-001;5.437497794628143E-002;-4.971024114638567E-003;5.743680056184530E-003;
2.403500000000000E+009;1.697134822607040E-001;5.223571136593819E-002;-4.847131669521332E-003;5.684693343937397E-003;
2.403666666666667E+009;1.712493598461151E-001;5.066713690757752E-002;-4.186484962701798E-003;6.179455667734146E-003;
2.403833333333334E+009;1.728558242321014E-001;4.857023060321808E-002;-4.435244482010603E-003;5.996123887598515E-003;
2.404000000000000E+009;1.747207790613174E-001;4.661120474338532E-002;-4.124128725379705E-003;5.524905398488045E-003;
2.404166666666667E+009;1.763476580381393E-001;4.547319561243057E-002;-3.651661798357964E-003;6.382851395756006E-003;
2.404333333333334E+009;1.777623444795609E-001;4.354423657059670E-002;-4.003539681434631E-003;6.222659721970558E-003;
2.404500000000000E+009;1.796558797359467E-001;4.237609729170799E-002;-3.192305332049727E-003;6.232034880667925E-003;
2.404666666666667E+009;1.812384277582169E-001;4.211754351854324E-002;-2.407817868515849E-003;7.710152771323919E-003;
2.404833333333334E+009;1.826473623514175E-001;4.058183357119560E-002;-2.658915240317583E-003;7.443642709404230E-003;
2.405000000000000E+009;1.843351423740387E-001;3.931153565645218E-002;-2.592492382973433E-003;6.306125782430172E-003;
2.405166666666667E+009;1.861412525177002E-001;3.858856484293938E-002;-1.888039289042354E-003;5.937636364251375E-003;
2.405333333333334E+009;1.871771663427353E-001;3.832218423485756E-002;-1.978634390980005E-003;6.545459851622582E-003;
2.405500000000000E+009;1.885264813899994E-001;3.782287612557411E-002;-1.519272336736321E-003;6.327086128294468E-003;
2.405666666666667E+009;1.897727400064468E-001;3.749671950936317E-002;-1.369128702208400E-003;6.330401636660099E-003;
2.405833333333334E+009;1.910395771265030E-001;3.719796985387802E-002;-1.218369579873979E-003;6.413264665752649E-003;
2.406000000000000E+009;1.920576393604279E-001;3.687752410769463E-002;-9.597958996891975E-004;6.219372618943453E-003;
2.406166666666667E+009;1.931034326553345E-001;3.687430918216705E-002;-7.357168942689896E-004;6.202568765729666E-003;
2.406333333333334E+009;1.938447803258896E-001;3.678229451179504E-002;-5.250045796856284E-004;6.221111398190260E-003;
2.406500000000000E+009;1.945364922285080E-001;3.690769895911217E-002;-3.263994876760989E-004;5.960833746939898E-003;
2.406666666666667E+009;1.952209174633026E-001;3.693239390850067E-002;-1.711194781819359E-004;5.905747413635254E-003;
2.406833333333334E+009;1.956948786973953E-001;3.698214143514633E-002;-2.224506351922173E-005;5.837130825966597E-003;
2.407000000000000E+009;1.959629356861115E-001;3.723547607660294E-002;6.182701781654032E-006;5.573822651058435E-003;
2.407166666666667E+009;1.963421106338501E-001;3.708434477448463E-002;1.547722640680149E-004;5.465299822390080E-003;
2.407333333333334E+009;1.961901187896729E-001;3.728229552507401E-002;3.488901711534709E-004;5.412600003182888E-003;
2.407500000000000E+009;1.961323469877243E-001;3.743512183427811E-002;7.818124140612781E-004;5.224300082772970E-003;
2.407666666666667E+009;1.961648762226105E-001;3.734716773033142E-002;1.141045358963311E-003;5.422119051218033E-003;
2.407833333333334E+009;1.956001818180084E-001;3.741702809929848E-002;7.492591394111514E-004;5.100901704281569E-003;
2.408000000000000E+009;1.954807639122009E-001;3.713107854127884E-002;7.111188606359065E-004;4.808077588677406E-003;
2.408166666666667E+009;1.946467757225037E-001;3.685317561030388E-002;5.938293761573732E-004;4.987759049981833E-003;
2.408333333333334E+009;1.942634433507919E-001;3.656973317265511E-002;9.131440310738981E-004;5.316864699125290E-003;
2.408500000000000E+009;1.936665773391724E-001;3.603577241301537E-002;7.510217255912721E-004;3.888316918164492E-003;
2.408666666666667E+009;1.930112838745117E-001;3.581661358475685E-002;6.671642186120153E-004;4.902741406112909E-003;
2.408833333333334E+009;1.922848075628281E-001;3.513877093791962E-002;5.943743162788451E-004;4.716105293482542E-003;
2.409000000000000E+009;1.914411783218384E-001;3.428435698151588E-002;9.005640167742968E-004;4.920355975627899E-003;
2.409166666666667E+009;1.904126703739166E-001;3.327107056975365E-002;6.102609331719577E-004;4.183479584753513E-003;
2.409333333333334E+009;1.896411925554276E-001;3.227113559842110E-002;6.016552215442061E-004;4.324117209762335E-003;
2.409500000000000E+009;1.885094046592712E-001;3.089562430977821E-002;4.633200587704778E-004;4.256521817296743E-003;
2.409666666666667E+009;1.874150037765503E-001;2.951496653258801E-002;4.742548044305295E-004;4.441716242581606E-003;
2.409833333333334E+009;1.863557547330856E-001;2.810860425233841E-002;4.295413091313094E-004;4.556909669190645E-003;
2.410000000000000E+009;1.853591352701187E-001;2.642660774290562E-002;4.112672468181700E-004;4.564320668578148E-003;
2.410166666666667E+009;1.844344735145569E-001;2.463770285248756E-002;3.142598143313080E-004;4.643272142857313E-003;
2.410333333333334E+009;1.833560913801193E-001;2.288047783076763E-002;4.955660551786423E-004;4.734154324978590E-003;
2.410500000000000E+009;1.823873817920685E-001;2.101880125701428E-002;6.739782402291894E-004;4.845567047595978E-003;
2.410666666666667E+009;1.816813796758652E-001;1.862014457583427E-002;8.329328265972436E-004;5.040696822106838E-003;
2.410833333333334E+009;1.808487325906754E-001;1.632793620228767E-002;1.010505366139114E-003;5.217647179961205E-003;
2.411000000000000E+009;1.799809634685516E-001;1.429501548409462E-002;1.104743219912052E-003;5.194172728806734E-003;
2.411166666666667E+009;1.794813126325607E-001;1.194760855287314E-002;1.225057989358902E-003;5.288822110742331E-003;
2.411333333333334E+009;1.789350360631943E-001;9.532496333122253E-003;1.544680679216981E-003;5.413553211838007E-003;
2.411500000000000E+009;1.784974485635757E-001;7.054352667182684E-003;1.646885066293180E-003;5.363251082599163E-003;
2.411666666666667E+009;1.782920807600021E-001;4.565625917166472E-003;1.921950723044574E-003;5.420163739472628E-003;
2.411833333333334E+009;1.780824512243271E-001;2.308350987732410E-003;2.066318877041340E-003;5.158830899745226E-003;
2.412000000000000E+009;1.781195551156998E-001;-3.265955019742250E-004;2.206711564213038E-003;5.254215095192194E-003;
2.412166666666667E+009;1.783118546009064E-001;-2.685475628823042E-003;2.432276029139757E-003;5.113702267408371E-003;
2.412333333333334E+009;1.783130764961243E-001;-5.126697011291981E-003;2.628588583320379E-003;5.069782026112080E-003;
2.412500000000000E+009;1.788491606712341E-001;-7.613371592015028E-003;2.765425946563482E-003;5.017248913645744E-003;
2.412666666666667E+009;1.793186366558075E-001;-1.003823988139629E-002;2.852167934179306E-003;4.756819922477007E-003;
2.412833333333334E+009;1.799208670854569E-001;-1.245354395359755E-002;2.941056853160262E-003;4.708593711256981E-003;
2.413000000000000E+009;1.807397902011871E-001;-1.468269247561693E-002;3.001277567818761E-003;4.557849373668432E-003;
2.413166666666667E+009;1.815464496612549E-001;-1.705962605774403E-002;3.198931924998760E-003;4.490190185606480E-003;
2.413333333333334E+009;1.826813071966171E-001;-1.937273144721985E-002;3.126131603494287E-003;4.729311913251877E-003;
2.413500000000000E+009;1.833078861236572E-001;-2.174423076212406E-002;3.174225799739361E-003;4.358678590506315E-003;
2.413666666666667E+009;1.846198439598084E-001;-2.383868210017681E-002;3.302163211628795E-003;4.572045989334583E-003;
2.413833333333334E+009;1.858412027359009E-001;-2.585872076451778E-002;3.297689603641629E-003;4.530354868620634E-003;
2.414000000000000E+009;1.868450641632080E-001;-2.781720086932182E-002;3.474945900961757E-003;4.628593567758799E-003;
2.414166666666667E+009;1.881726086139679E-001;-2.967029996216297E-002;3.627408528700471E-003;4.721980541944504E-003;
2.414333333333334E+009;1.892574429512024E-001;-3.154720366001129E-002;3.928743768483400E-003;4.790946375578642E-003;
2.414500000000000E+009;1.906443536281586E-001;-3.301415592432022E-002;4.032311961054802E-003;4.677463788539171E-003;
2.414666666666667E+009;1.917440295219421E-001;-3.450217097997665E-002;4.354099743068218E-003;4.619864746928215E-003;
2.414833333333334E+009;1.928485631942749E-001;-3.592681512236595E-002;4.467905499041081E-003;4.778211470693350E-003;
2.415000000000000E+009;1.941162794828415E-001;-3.719699382781982E-002;4.901672713458538E-003;4.553961101919413E-003;
2.415166666666667E+009;1.953099966049194E-001;-3.833149373531342E-002;5.232095252722502E-003;4.477328620851040E-003;
2.415333333333334E+009;1.963720619678497E-001;-3.907495364546776E-002;5.478839855641127E-003;4.392590373754501E-003;
2.415500000000000E+009;1.974998563528061E-001;-3.986168652772903E-002;5.797717254608870E-003;4.141169600188732E-003;
2.415666666666667E+009;1.986063867807388E-001;-4.076986759901047E-002;6.142835598438978E-003;3.937141504138708E-003;
2.415833333333334E+009;1.993601024150848E-001;-4.126813635230064E-002;6.321778055280447E-003;3.582222387194634E-003;
2.416000000000000E+009;2.002059966325760E-001;-4.194419831037521E-002;6.595885381102562E-003;3.430502954870462E-003;
2.416166666666667E+009;2.009217739105225E-001;-4.251416027545929E-002;6.631763651967049E-003;3.201314946636558E-003;
2.416333333333334E+009;2.015431523323059E-001;-4.266508668661118E-002;7.034634705632925E-003;2.837409498170018E-003;
2.416500000000000E+009;2.019401639699936E-001;-4.296149685978890E-002;7.047194987535477E-003;2.535522915422916E-003;
2.416666666666667E+009;2.022323012351990E-001;-4.324073344469070E-002;7.250825408846140E-003;2.120291115716100E-003;
2.416833333333334E+009;2.023704797029495E-001;-4.318550229072571E-002;7.458996493369341E-003;1.976172905415297E-003;
2.417000000000000E+009;2.025228291749954E-001;-4.323017224669457E-002;7.600829936563969E-003;1.519144512712956E-003;
2.417166666666667E+009;2.021959275007248E-001;-4.324677959084511E-002;7.497875951230526E-003;1.212461618706584E-003;
2.417333333333334E+009;2.020002305507660E-001;-4.286188632249832E-002;7.538910489529371E-003;7.389619713649154E-004;
2.417500000000000E+009;2.017828375101090E-001;-4.290385544300079E-002;7.496479433029890E-003;4.604442219715565E-004;
2.417666666666667E+009;2.012803405523300E-001;-4.256865009665489E-002;7.519455626606941E-003;1.311890518991277E-004;
2.417833333333334E+009;2.006989121437073E-001;-4.232851043343544E-002;7.514440454542637E-003;-9.900785516947508E-005;
2.418000000000000E+009;2.000282257795334E-001;-4.212212190032005E-002;7.669289596378803E-003;-3.966930671595037E-004;
2.418166666666667E+009;1.993013322353363E-001;-4.201631993055344E-002;7.279407698661089E-003;-7.607071893289685E-004;
2.418333333333334E+009;1.984113752841950E-001;-4.179611057043076E-002;7.504028733819723E-003;-1.038264716044068E-003;
2.418500000000000E+009;1.973280012607575E-001;-4.185589402914047E-002;7.291071582585573E-003;-1.140237553045154E-003;
2.418666666666667E+009;1.965695321559906E-001;-4.173856228590012E-002;7.341185119003058E-003;-1.471398398280144E-003;
2.418833333333334E+009;1.952078193426132E-001;-4.192070290446281E-002;7.113055326044560E-003;-1.758046331815422E-003;
2.419000000000000E+009;1.939494609832764E-001;-4.207111150026321E-002;7.027143146842718E-003;-2.051718765869737E-003;
2.419166666666667E+009;1.926279366016388E-001;-4.234015569090843E-002;6.974241696298122E-003;-2.299425657838583E-003;
2.419333333333334E+009;1.913621276617050E-001;-4.290982335805893E-002;6.854876875877380E-003;-2.525750314816833E-003;
2.419500000000000E+009;1.897770762443543E-001;-4.339280724525452E-002;6.819753441959620E-003;-2.799900248646736E-003;
2.419666666666667E+009;1.884000301361084E-001;-4.394083097577095E-002;6.751583889126778E-003;-3.001965582370758E-003;
2.419833333333334E+009;1.867000162601471E-001;-4.470962285995483E-002;6.425517145544291E-003;-3.338305512443185E-003;
2.420000000000000E+009;1.849342882633209E-001;-4.556243494153023E-002;6.322574336081743E-003;-3.460593288764358E-003;
2.420166666666667E+009;1.834738552570343E-001;-4.649424552917481E-002;6.155405659228563E-003;-3.722525900229812E-003;
2.420333333333334E+009;1.817492693662643E-001;-4.772683605551720E-002;5.896064452826977E-003;-4.051685798913240E-003;
2.420500000000000E+009;1.801093965768814E-001;-4.905437305569649E-002;5.815549753606319E-003;-4.269286524504423E-003;
2.420666666666667E+009;1.785988658666611E-001;-5.046219006180763E-002;5.722890142351389E-003;-4.427410662174225E-003;
2.420833333333334E+009;1.768708378076553E-001;-5.178849771618843E-002;5.180742591619492E-003;-4.535871092230082E-003;
2.421000000000000E+009;1.754627078771591E-001;-5.343045666813850E-002;5.087173078209162E-003;-4.819003865122795E-003;
2.421166666666667E+009;1.741567105054855E-001;-5.512392893433571E-002;4.754590336233378E-003;-4.978472366929054E-003;
2.421333333333334E+009;1.723062396049500E-001;-5.664263293147087E-002;4.406346008181572E-003;-5.132563412189484E-003;
2.421500000000000E+009;1.710619479417801E-001;-5.875057727098465E-002;4.103584680706263E-003;-5.025486461818218E-003;
2.421666666666667E+009;1.698805391788483E-001;-6.047610566020012E-002;3.793827025219798E-003;-5.110283382236958E-003;
2.421833333333334E+009;1.687463074922562E-001;-6.250606477260590E-002;3.475332865491509E-003;-5.228683352470398E-003;
2.422000000000000E+009;1.675179600715637E-001;-6.435887515544891E-002;3.246477572247386E-003;-5.219868384301662E-003;
2.422166666666667E+009;1.665684878826141E-001;-6.639536470174789E-002;3.157749539241195E-003;-5.307131446897984E-003;
2.422333333333334E+009;1.657705008983612E-001;-6.845940649509430E-002;2.754793735221028E-003;-5.162062123417854E-003;
2.422500000000000E+009;1.649921983480454E-001;-7.050795108079910E-002;2.535418374463916E-003;-5.108226556330919E-003;
2.422666666666667E+009;1.643175184726715E-001;-7.251100242137909E-002;2.320155501365662E-003;-5.046650301665068E-003;
2.422833333333334E+009;1.638451218605042E-001;-7.466828823089600E-002;2.161373617127538E-003;-4.933841992169619E-003;
2.423000000000000E+009;1.632929146289825E-001;-7.671196758747101E-002;1.939219422638416E-003;-4.879619926214218E-003;
2.423166666666667E+009;1.629724800586700E-001;-7.879067212343216E-002;1.762812491506338E-003;-4.964216612279415E-003;
2.423333333333334E+009;1.628067046403885E-001;-8.069288730621338E-002;1.756984740495682E-003;-4.842358641326428E-003;
2.423500000000000E+009;1.627361923456192E-001;-8.246898651123047E-002;1.437920611351728E-003;-4.792606458067894E-003;
2.423666666666667E+009;1.627185046672821E-001;-8.449061214923859E-002;1.298806047998369E-003;-4.625975154340267E-003;
2.423833333333334E+009;1.624513566493988E-001;-8.614192903041840E-002;1.142464694567025E-003;-4.878635052591562E-003;
2.424000000000000E+009;1.627766042947769E-001;-8.806923031806946E-002;1.068307552486658E-003;-4.616295453161001E-003;
2.424166666666667E+009;1.627581715583801E-001;-8.958048373460770E-002;9.139484609477222E-004;-4.439287353307009E-003;
2.424333333333334E+009;1.630911976099014E-001;-9.109764546155930E-002;7.294123061001301E-004;-4.416266456246376E-003;
2.424500000000000E+009;1.635370850563049E-001;-9.296648204326630E-002;6.589802796952426E-004;-4.305373411625624E-003;
2.424666666666667E+009;1.637650281190872E-001;-9.419665485620499E-002;6.602965877391398E-004;-4.238081630319357E-003;
2.424833333333334E+009;1.642790883779526E-001;-9.549095481634140E-002;5.313201108947396E-004;-4.016195889562368E-003;
2.425000000000000E+009;1.647374480962753E-001;-9.665762633085251E-002;5.742121138609946E-004;-3.886763239279389E-003;
2.425166666666667E+009;1.650907099246979E-001;-9.776122123003006E-002;3.436381521169096E-004;-3.762938315048814E-003;
2.425333333333334E+009;1.654032617807388E-001;-9.875205159187317E-002;4.679213452618569E-004;-3.754789009690285E-003;
2.425500000000000E+009;1.658993363380432E-001;-9.970730543136597E-002;4.101320810150355E-004;-3.597341710701585E-003;
2.425666666666667E+009;1.663476228713989E-001;-1.004101410508156E-001;4.579426022246480E-004;-3.669520374387503E-003;
2.425833333333334E+009;1.666138619184494E-001;-1.011322364211083E-001;5.434928461909294E-004;-3.777898149564862E-003;
2.426000000000000E+009;1.671015024185181E-001;-1.016919910907745E-001;5.275021540001035E-004;-3.712898818776012E-003;
2.426166666666667E+009;1.674845218658447E-001;-1.021373644471169E-001;5.833310424350202E-004;-3.738568164408207E-003;
2.426333333333334E+009;1.676275283098221E-001;-1.026012226939201E-001;5.677174194715917E-004;-3.627861151471734E-003;
2.426500000000000E+009;1.679947823286057E-001;-1.028709709644318E-001;5.619280273094773E-004;-3.785114036872983E-003;
2.426666666666667E+009;1.682900041341782E-001;-1.032226458191872E-001;4.180536489002407E-004;-3.873754991218448E-003;
2.426833333333334E+009;1.684929281473160E-001;-1.034720987081528E-001;4.179439565632492E-004;-3.779787104576826E-003;
2.427000000000000E+009;1.685236543416977E-001;-1.036634072661400E-001;3.671478480100632E-004;-3.943275660276413E-003;
2.427166666666667E+009;1.685269176959992E-001;-1.037695705890656E-001;3.313463530503213E-004;-4.047641530632973E-003;
2.427333333333334E+009;1.685265153646469E-001;-1.039263755083084E-001;2.418661460978910E-004;-3.981726244091988E-003;
2.427500000000000E+009;1.681762486696243E-001;-1.041779369115830E-001;1.318971917498857E-004;-3.971319645643234E-003;
2.427666666666667E+009;1.679909825325012E-001;-1.041963547468185E-001;2.327448455616832E-004;-3.979575354605913E-003;
2.427833333333334E+009;1.675290316343308E-001;-1.042426228523254E-001;5.747890099883080E-006;-4.115051124244928E-003;
