# Version 1.00
#
freq[Hz];re:Trc1_S11;im:Trc1_S11;re:Trc2_S21;im:Trc2_S21;
2.400000000000000E+009;1.547311693429947E-001;1.053569689393044E-001;-1.920978887937963E-003;-3.677575616165996E-003;
2.400166666666667E+009;1.544819325208664E-001;1.029927805066109E-001;-1.984872389584780E-003;-3.770632669329643E-003;
2.400333333333334E+009;1.544308960437775E-001;1.006285548210144E-001;-2.179088769480586E-003;-3.762347390875220E-003;
2.400500000000000E+009;1.544049084186554E-001;9.788046777248383E-002;-2.212923951447010E-003;-3.950105048716068E-003;
2.400666666666667E+009;1.544922143220902E-001;9.545732289552689E-002;-2.441192045807838E-003;-3.996034618467093E-003;
2.400833333333334E+009;1.543683856725693E-001;9.245344996452332E-002;-2.517424058169127E-003;-4.247584380209446E-003;
2.401000000000000E+009;1.544779092073441E-001;8.973430097103119E-002;-2.853173995390534E-003;-4.073912277817726E-003;
2.401166666666667E+009;1.544534713029862E-001;8.694919198751450E-002;-3.123539267107844E-003;-4.116954747587442E-003;
2.401333333333334E+009;1.548212468624115E-001;8.417014777660370E-002;-3.350058803334832E-003;-4.124208353459835E-003;
2.401500000000000E+009;1.552407294511795E-001;8.145862072706223E-002;-3.617999143898487E-003;-4.214620683342218E-003;
2.401666666666667E+009;1.553581953048706E-001;7.845769822597504E-002;-3.842598292976618E-003;-4.042831715196371E-003;
2.401833333333334E+009;1.561288982629776E-001;7.577975839376450E-002;-4.010050091892481E-003;-3.971846308559179E-003;
2.402000000000000E+009;1.566507965326309E-001;7.283223420381546E-002;-4.308346193283796E-003;-3.925173077732325E-003;
2.402166666666667E+009;1.575409621000290E-001;7.038769870996475E-002;-4.518072586506605E-003;-3.710827557370067E-003;
2.402333333333334E+009;1.582920253276825E-001;6.767760217189789E-002;-4.721879959106445E-003;-3.561322344467044E-003;
2.402500000000000E+009;1.593824028968811E-001;6.517543643712997E-002;-5.047998391091824E-003;-3.398313885554671E-003;
2.402666666666667E+009;1.606368422508240E-001;6.310345232486725E-002;-5.008924286812544E-003;-3.219926729798317E-003;
2.402833333333334E+009;1.618346422910690E-001;6.053889542818070E-002;-5.203094333410263E-003;-2.992419758811593E-003;
2.403000000000000E+009;1.632934510707855E-001;5.822379887104034E-002;-5.473745521157980E-003;-2.782956231385469E-003;
2.403166666666667E+009;1.649543195962906E-001;5.615770071744919E-002;-5.625547375530005E-003;-2.585423178970814E-003;
2.403333333333334E+009;1.664017736911774E-001;5.402068048715591E-002;-5.807212088257074E-003;-2.192896790802479E-003;
2.403500000000000E+009;1.679329276084900E-001;5.206330120563507E-002;-5.712804384529591E-003;-2.090040594339371E-003;
2.403666666666667E+009;1.698507666587830E-001;5.018369853496552E-002;-5.854133050888777E-003;-1.933353720232844E-003;
2.403833333333334E+009;1.714055538177490E-001;4.834262281656265E-002;-5.768960341811180E-003;-1.513955066911876E-003;
2.404000000000000E+009;1.730087399482727E-001;4.646447300910950E-002;-5.747157149016857E-003;-1.238306402228773E-003;
2.404166666666667E+009;1.746376305818558E-001;4.519174247980118E-002;-5.901876837015152E-003;-1.176867517642677E-003;
2.404333333333334E+009;1.763880550861359E-001;4.375953972339630E-002;-6.029394455254078E-003;-9.571867994964123E-004;
2.404500000000000E+009;1.781056970357895E-001;4.225578531622887E-002;-5.814583506435156E-003;-7.542079547420144E-004;
2.404666666666667E+009;1.796912848949432E-001;4.136243462562561E-002;-6.015429738909006E-003;-4.900919157080352E-004;
2.404833333333334E+009;1.812690943479538E-001;4.034452885389328E-002;-6.118878256529570E-003;-2.950753259938210E-004;
2.405000000000000E+009;1.828084886074066E-001;3.976489603519440E-002;-6.008921656757593E-003;-2.872744807973504E-004;
2.405166666666667E+009;1.842963844537735E-001;3.916928544640541E-002;-6.228907965123653E-003;1.898853224702179E-004;
2.405333333333334E+009;1.855912059545517E-001;3.863732144236565E-002;-6.096390541642904E-003;3.973982820753008E-004;
2.405500000000000E+009;1.870552152395248E-001;3.839053586125374E-002;-6.106461863964796E-003;5.738745676353574E-004;
2.405666666666667E+009;1.883290112018585E-001;3.792030736804009E-002;-6.009591743350029E-003;6.267951102927327E-004;
2.405833333333334E+009;1.895625442266464E-001;3.773340582847595E-002;-5.967020057141781E-003;8.378935744985938E-004;
2.406000000000000E+009;1.906220316886902E-001;3.755545243620873E-002;-6.103599444031715E-003;9.843562729656696E-004;
2.406166666666667E+009;1.915573328733444E-001;3.764195740222931E-002;-5.974921397864819E-003;1.392522244714201E-003;
2.406333333333334E+009;1.924385875463486E-001;3.754979744553566E-002;-5.960770882666111E-003;1.460058148950338E-003;
2.406500000000000E+009;1.932150125503540E-001;3.766573593020439E-002;-5.814945325255394E-003;1.989010954275727E-003;
2.406666666666667E+009;1.939586699008942E-001;3.779011964797974E-002;-5.703435279428959E-003;2.190477214753628E-003;
2.406833333333334E+009;1.943812668323517E-001;3.794371336698532E-002;-5.586173851042986E-003;2.298234496265650E-003;
2.407000000000000E+009;1.947337239980698E-001;3.818703815340996E-002;-5.552490707486868E-003;2.583402208983898E-003;
2.407166666666667E+009;1.951070278882980E-001;3.801674768328667E-002;-5.374824162572622E-003;2.765054116025567E-003;
2.407333333333334E+009;1.951264888048172E-001;3.830499947071075E-002;-5.293213762342930E-003;2.936476375907660E-003;
2.407500000000000E+009;1.950742155313492E-001;3.837481141090393E-002;-5.086527671664953E-003;3.188530448824167E-003;
2.407666666666667E+009;1.951033324003220E-001;3.844393417239189E-002;-4.804703872650862E-003;3.324925433844328E-003;
2.407833333333334E+009;1.946579813957214E-001;3.825659677386284E-002;-4.645906854420900E-003;3.445936599746347E-003;
2.408000000000000E+009;1.946851164102554E-001;3.834751248359680E-002;-4.548377823084593E-003;3.549792570993304E-003;
2.408166666666667E+009;1.940291374921799E-001;3.811416402459145E-002;-4.315428901463747E-003;3.553628455847502E-003;
2.408333333333334E+009;1.936012208461762E-001;3.757309168577194E-002;-4.199390765279532E-003;3.726009046658874E-003;
2.408500000000000E+009;1.929133385419846E-001;3.733528405427933E-002;-4.129817243665457E-003;3.880698233842850E-003;
2.408666666666667E+009;1.922990083694458E-001;3.685029223561287E-002;-3.870011307299137E-003;3.869799198582768E-003;
2.408833333333334E+009;1.917413026094437E-001;3.610496968030930E-002;-3.637802321463823E-003;4.012006800621748E-003;
2.409000000000000E+009;1.908199042081833E-001;3.517976030707359E-002;-3.627481637522578E-003;3.969399258494377E-003;
2.409166666666667E+009;1.898658275604248E-001;3.427971899509430E-002;-3.298016497865319E-003;4.144324455410242E-003;
2.409333333333334E+009;1.890594065189362E-001;3.333105519413948E-002;-3.206756431609392E-003;4.038619343191385E-003;
2.409500000000000E+009;1.879445761442184E-001;3.211372345685959E-002;-3.032927168533206E-003;4.126131534576416E-003;
2.409666666666667E+009;1.868544667959213E-001;3.079008124768734E-002;-2.956002950668335E-003;4.085506778210402E-003;
2.409833333333334E+009;1.858819276094437E-001;2.917261049151421E-002;-2.792419632896781E-003;4.102245438843966E-003;
2.410000000000000E+009;1.849614679813385E-001;2.749785594642162E-002;-2.675943775102496E-003;4.205391742289066E-003;
2.410166666666667E+009;1.840570122003555E-001;2.556785568594933E-002;-2.562927780672908E-003;4.200471565127373E-003;
2.410333333333334E+009;1.829881817102432E-001;2.391887642443180E-002;-2.337423618882895E-003;4.252303391695023E-003;
2.410500000000000E+009;1.821863502264023E-001;2.193015255033970E-002;-2.257880521938205E-003;4.292130004614592E-003;
2.410666666666667E+009;1.813079863786697E-001;1.966714113950729E-002;-1.920649898238480E-003;4.258085973560810E-003;
2.410833333333334E+009;1.805523931980133E-001;1.744794845581055E-002;-1.948511344380677E-003;4.179730545729399E-003;
2.411000000000000E+009;1.797809302806854E-001;1.535453554242849E-002;-1.888504368253052E-003;4.303400870412588E-003;
2.411166666666667E+009;1.793317198753357E-001;1.308659557253122E-002;-1.781440223567188E-003;4.253709688782692E-003;
2.411333333333334E+009;1.788267046213150E-001;1.044299732893705E-002;-1.656180131249130E-003;4.233045969158411E-003;
2.411500000000000E+009;1.782965809106827E-001;8.046757429838181E-003;-1.393094426020980E-003;4.238878842443228E-003;
2.411666666666667E+009;1.783227324485779E-001;5.679325666278601E-003;-1.279418938793242E-003;4.137984476983547E-003;
2.411833333333334E+009;1.779205501079559E-001;3.213230986148119E-003;-1.283548539504409E-003;3.897703718394041E-003;
2.412000000000000E+009;1.782224178314209E-001;8.604706963524222E-004;-1.112120458856225E-003;3.854144131764770E-003;
2.412166666666667E+009;1.782116740942001E-001;-1.554869231767952E-003;-1.095436629839242E-003;3.946028649806976E-003;
2.412333333333334E+009;1.784148067235947E-001;-4.198446404188871E-003;-9.194827289320529E-004;3.770738374441862E-003;
2.412500000000000E+009;1.789581179618835E-001;-6.642139982432127E-003;-1.123666181229055E-003;3.778586862608790E-003;
2.412666666666667E+009;1.794864386320114E-001;-9.011046029627323E-003;-8.915790822356939E-004;3.768045920878649E-003;
2.412833333333334E+009;1.801779717206955E-001;-1.152000669389963E-002;-8.581466972827911E-004;3.669537603855133E-003;
2.413000000000000E+009;1.810872107744217E-001;-1.398837380111218E-002;-7.453527068719268E-004;3.635914996266365E-003;
2.413166666666667E+009;1.819194257259369E-001;-1.627789251506329E-002;-9.063662146218121E-004;3.850470064207912E-003;
2.413333333333334E+009;1.830599009990692E-001;-1.851280964910984E-002;-9.312315960414708E-004;3.710642922669649E-003;
2.413500000000000E+009;1.837605088949204E-001;-2.075181528925896E-002;-1.059694914147258E-003;3.826945787295699E-003;
2.413666666666667E+009;1.850837171077728E-001;-2.296921610832214E-002;-8.795401663519442E-004;3.930366132408381E-003;
2.413833333333334E+009;1.861639469861984E-001;-2.492963895201683E-002;-7.912596338428557E-004;4.027864430099726E-003;
2.414000000000000E+009;1.874144971370697E-001;-2.699104696512222E-002;-8.080783300101757E-004;3.998579923063517E-003;
2.414166666666667E+009;1.887378245592117E-001;-2.874385192990303E-002;-7.283619488589466E-004;3.987923264503479E-003;
2.414333333333334E+009;1.898818016052246E-001;-3.087813593447208E-002;-5.224617198109627E-004;4.089986905455589E-003;
2.414500000000000E+009;1.910983473062515E-001;-3.219457343220711E-002;-4.233391373418272E-004;4.172426182776690E-003;
2.414666666666667E+009;1.923745870590210E-001;-3.373229503631592E-002;-2.440785465296358E-004;4.052123520523310E-003;
2.414833333333334E+009;1.935049742460251E-001;-3.533824160695076E-002;-2.506116288714111E-004;4.040082916617394E-003;
2.415000000000000E+009;1.946952939033508E-001;-3.653221949934959E-002;-1.590796455275267E-004;4.066572524607182E-003;
2.415166666666667E+009;1.957757174968720E-001;-3.751914575695992E-002;-1.949021097971126E-004;3.944554366171360E-003;
2.415333333333334E+009;1.970948874950409E-001;-3.855433315038681E-002;-5.554522795137018E-005;4.059740807861090E-003;
2.415500000000000E+009;1.981034129858017E-001;-3.942739218473434E-002;2.033973578363657E-005;4.121128004044294E-003;
2.415666666666667E+009;1.991505622863770E-001;-4.019347950816155E-002;8.780477219261229E-005;4.095189739018679E-003;
2.415833333333334E+009;2.000133842229843E-001;-4.078139737248421E-002;7.587688014609739E-005;4.122341517359018E-003;
2.416000000000000E+009;2.008657753467560E-001;-4.130256175994873E-002;1.235988893313333E-004;4.142609890550375E-003;
2.416166666666667E+009;2.015984505414963E-001;-4.194283485412598E-002;2.417159703327343E-004;4.203781019896269E-003;
2.416333333333334E+009;2.022963017225266E-001;-4.209936782717705E-002;2.683104830794036E-004;4.227667115628719E-003;
2.416500000000000E+009;2.027349025011063E-001;-4.243938252329826E-002;3.437285486143082E-004;4.463944584131241E-003;
2.416666666666667E+009;2.029006630182266E-001;-4.278248175978661E-002;4.487240512389690E-004;4.523935727775097E-003;
2.416833333333334E+009;2.031803578138351E-001;-4.274395108222961E-002;5.328131373971701E-004;4.677392076700926E-003;
2.417000000000000E+009;2.033758312463760E-001;-4.284286499023438E-002;7.111359154805541E-004;4.531404003500938E-003;
2.417166666666667E+009;2.030521184206009E-001;-4.286691918969154E-002;9.035146213136613E-004;4.651830997318029E-003;
2.417333333333334E+009;2.028050273656845E-001;-4.257213324308395E-002;1.188872498460114E-003;4.789876751601696E-003;
2.417500000000000E+009;2.025557756423950E-001;-4.263067245483398E-002;1.247543725185096E-003;4.664726089686155E-003;
2.417666666666667E+009;2.019765228033066E-001;-4.238832741975784E-002;1.546649029478431E-003;4.694835748523474E-003;
2.417833333333334E+009;2.016112804412842E-001;-4.219895973801613E-002;1.678862026892602E-003;4.679954145103693E-003;
2.418000000000000E+009;2.008259296417236E-001;-4.207543656229973E-002;1.899960800074041E-003;4.750681109726429E-003;
2.418166666666667E+009;2.001143097877502E-001;-4.196111857891083E-002;2.115523908287287E-003;4.645294509828091E-003;
2.418333333333334E+009;1.990870386362076E-001;-4.179253801703453E-002;2.333860378712416E-003;4.584826063364744E-003;
2.418500000000000E+009;1.981365680694580E-001;-4.185743257403374E-002;2.541102934628725E-003;4.533152095973492E-003;
2.418666666666667E+009;1.972011625766754E-001;-4.173977673053742E-002;2.513085491955280E-003;4.551128018647432E-003;
2.418833333333334E+009;1.958821862936020E-001;-4.197119921445847E-002;2.753187203779817E-003;4.361079074442387E-003;
2.419000000000000E+009;1.944719851016998E-001;-4.212126880884171E-002;2.867209259420633E-003;4.423109814524651E-003;
2.419166666666667E+009;1.932984292507172E-001;-4.248804226517677E-002;3.004096914082766E-003;4.179320763796568E-003;
2.419333333333334E+009;1.917831152677536E-001;-4.297919198870659E-002;3.149637486785650E-003;4.076192621141672E-003;
2.419500000000000E+009;1.902746707201004E-001;-4.339841008186340E-002;3.342119511216879E-003;4.007493145763874E-003;
2.419666666666667E+009;1.887656897306442E-001;-4.420945420861244E-002;3.583174198865891E-003;3.800756530836225E-003;
2.419833333333334E+009;1.870504170656204E-001;-4.491949453949928E-002;3.595522604882717E-003;3.785440931096673E-003;
2.420000000000000E+009;1.854144185781479E-001;-4.580524191260338E-002;3.632966894656420E-003;3.696960629895330E-003;
2.420166666666667E+009;1.837991327047348E-001;-4.673459008336067E-002;3.824179759249091E-003;3.661192720755935E-003;
2.420333333333334E+009;1.821918189525604E-001;-4.804698750376701E-002;3.880998352542520E-003;3.586296224966645E-003;
2.420500000000000E+009;1.805125027894974E-001;-4.923455044627190E-002;4.094372503459454E-003;3.378419671207666E-003;
2.420666666666667E+009;1.788638085126877E-001;-5.045305937528610E-002;4.231373779475689E-003;3.337303875014186E-003;
2.420833333333334E+009;1.772770434617996E-001;-5.213223025202751E-002;4.372150171548128E-003;3.109568962827325E-003;
2.421000000000000E+009;1.757910549640656E-001;-5.348093435168266E-002;4.527175799012184E-003;3.080721246078610E-003;
2.421166666666667E+009;1.744387745857239E-001;-5.537225306034088E-002;4.763467237353325E-003;2.675840165466070E-003;
2.421333333333334E+009;1.727390289306641E-001;-5.686517059803009E-002;4.764186684042215E-003;2.383872633799911E-003;
2.421500000000000E+009;1.712141335010529E-001;-5.887848138809204E-002;4.734588786959648E-003;2.432225737720728E-003;
2.421666666666667E+009;1.701888591051102E-001;-6.073284894227982E-002;4.981678910553455E-003;2.115052891895175E-003;
2.421833333333334E+009;1.689181029796600E-001;-6.266465783119202E-002;5.214401986449957E-003;1.824984094128013E-003;
2.422000000000000E+009;1.678393483161926E-001;-6.459326297044754E-002;5.097654648125172E-003;1.532847527414560E-003;
2.422166666666667E+009;1.671023368835449E-001;-6.675777584314346E-002;5.020613316446543E-003;1.269629341550171E-003;
2.422333333333334E+009;1.660344004631043E-001;-6.868545711040497E-002;4.910664632916451E-003;1.042985823005438E-003;
2.422500000000000E+009;1.653635054826737E-001;-7.065192610025406E-002;5.012119188904762E-003;8.878147345967591E-004;
2.422666666666667E+009;1.646025180816650E-001;-7.254806160926819E-002;4.909009207040072E-003;6.221329094842076E-004;
2.422833333333334E+009;1.642234921455383E-001;-7.483239471912384E-002;4.818522371351719E-003;5.421212408691645E-004;
2.423000000000000E+009;1.636596173048019E-001;-7.701951265335083E-002;4.740774631500244E-003;2.865433343686163E-004;
2.423166666666667E+009;1.631540954113007E-001;-7.903911173343658E-002;4.643335938453674E-003;5.171564771444537E-005;
2.423333333333334E+009;1.630912572145462E-001;-8.109954744577408E-002;4.477395676076412E-003;-1.857254537753761E-004;
2.423500000000000E+009;1.630416661500931E-001;-8.303180336952210E-002;4.402323625981808E-003;-1.093041719286703E-004;
2.423666666666667E+009;1.630814224481583E-001;-8.473099768161774E-002;4.252969752997160E-003;-3.334810025990009E-004;
2.423833333333334E+009;1.629088521003723E-001;-8.658536523580551E-002;4.063442815095186E-003;-3.427143965382129E-004;
2.424000000000000E+009;1.629915982484818E-001;-8.846322447061539E-002;4.106928128749132E-003;-4.357063444331288E-004;
2.424166666666667E+009;1.632299423217773E-001;-8.989515155553818E-002;3.999556880444288E-003;-4.938865895383060E-004;
2.424333333333334E+009;1.635557562112808E-001;-9.154529124498367E-002;3.857277799397707E-003;-5.798084312118590E-004;
2.424500000000000E+009;1.637813150882721E-001;-9.327080845832825E-002;3.894044086337090E-003;-6.549545796588063E-004;
2.424666666666667E+009;1.640958338975906E-001;-9.470865130424500E-002;3.724882379174233E-003;-7.468616240657866E-004;
2.424833333333334E+009;1.645044833421707E-001;-9.595035761594772E-002;3.547838656231761E-003;-8.056436199694872E-004;
2.425000000000000E+009;1.649075150489807E-001;-9.710096567869186E-002;3.574208822101355E-003;-9.793782373890281E-004;
2.425166666666667E+009;1.650968492031097E-001;-9.821391850709915E-002;3.343383315950632E-003;-9.781153639778495E-004;
2.425333333333334E+009;1.654610484838486E-001;-9.930233657360077E-002;3.303876845166087E-003;-8.748181862756610E-004;
2.425500000000000E+009;1.660345941781998E-001;-1.001357659697533E-001;3.192057600244880E-003;-8.045077556744218E-004;
2.425666666666667E+009;1.664157658815384E-001;-1.008366197347641E-001;3.318741451948881E-003;-9.293271577917039E-004;
2.425833333333334E+009;1.666265577077866E-001;-1.017715856432915E-001;3.145908471196890E-003;-1.041897339746356E-003;
2.426000000000000E+009;1.670955568552017E-001;-1.020993515849114E-001;3.040904644876719E-003;-1.019554911181331E-003;
2.426166666666667E+009;1.674824208021164E-001;-1.026226803660393E-001;2.925463719293475E-003;-1.080285175703466E-003;
2.426333333333334E+009;1.675251573324204E-001;-1.031014919281006E-001;2.887570997700095E-003;-1.054895110428333E-003;
2.426500000000000E+009;1.679629534482956E-001;-1.033274903893471E-001;2.867372008040547E-003;-9.290741872973740E-004;
2.426666666666667E+009;1.681040376424789E-001;-1.035745888948441E-001;2.811673097312450E-003;-9.681779192760587E-004;
2.426833333333334E+009;1.683261990547180E-001;-1.037863865494728E-001;2.813371829688549E-003;-1.049558981321752E-003;
2.427000000000000E+009;1.683087050914764E-001;-1.040057688951492E-001;2.676558215171099E-003;-1.010121777653694E-003;
2.427166666666667E+009;1.683635711669922E-001;-1.041247844696045E-001;2.660902915522456E-003;-9.714019251987338E-004;
2.427333333333334E+009;1.681900173425674E-001;-1.042069271206856E-001;2.759211696684361E-003;-9.265678818337619E-004;
2.427500000000000E+009;1.679201871156693E-001;-1.044056117534638E-001;2.644389169290662E-003;-8.618208812549710E-004;
2.427666666666667E+009;1.675269305706024E-001;-1.043482869863510E-001;2.742755459621549E-003;-8.670364622958005E-004;
2.427833333333334E+009;1.671628803014755E-001;-1.044793874025345E-001;2.835348481312394E-003;-1.104497117921710E-003;
