# Version 1.00
#
freq[Hz];re:Trc1_S11;im:Trc1_S11;re:Trc2_S21;im:Trc2_S21;
2.400000000000000E+009;1.561142802238464E-001;1.072047874331474E-001;-1.683812588453293E-003;-3.220818238332868E-003;
2.400166666666667E+009;1.559106260538101E-001;1.046582981944084E-001;-1.872262335382402E-003;-3.407168202102184E-003;
2.400333333333334E+009;1.560137420892716E-001;1.022675707936287E-001;-1.906453981064260E-003;-3.293875604867935E-003;
2.400500000000000E+009;1.559033095836639E-001;9.950667619705200E-002;-2.068449975922704E-003;-3.491245443001390E-003;
2.400666666666667E+009;1.559317708015442E-001;9.696399420499802E-002;-2.213481813669205E-003;-3.519701771438122E-003;
2.400833333333334E+009;1.560606211423874E-001;9.393603354692459E-002;-2.443975070491433E-003;-3.566280938684940E-003;
2.401000000000000E+009;1.562552601099014E-001;9.110779315233231E-002;-2.650089794769883E-003;-3.643203061074019E-003;
2.401166666666667E+009;1.563028097152710E-001;8.836562186479569E-002;-2.804327988997102E-003;-3.536081872880459E-003;
2.401333333333334E+009;1.565582007169724E-001;8.548619598150253E-002;-2.981456695124507E-003;-3.565445309504867E-003;
2.401500000000000E+009;1.571371257305145E-001;8.240345120429993E-002;-3.279299475252628E-003;-3.524668747559190E-003;
2.401666666666667E+009;1.574412286281586E-001;7.960900664329529E-002;-3.579456359148026E-003;-3.564327023923397E-003;
2.401833333333334E+009;1.578437536954880E-001;7.681351155042648E-002;-3.715040627866983E-003;-3.550765570253134E-003;
2.402000000000000E+009;1.588334888219833E-001;7.412215322256088E-002;-3.990233875811100E-003;-3.386466298252344E-003;
2.402166666666667E+009;1.594223380088806E-001;7.140498608350754E-002;-4.075090866535902E-003;-3.195519326254726E-003;
2.402333333333334E+009;1.602485328912735E-001;6.856299936771393E-002;-4.295086488127708E-003;-3.150533651933074E-003;
2.402500000000000E+009;1.615185439586639E-001;6.606475263834000E-002;-4.458977840840817E-003;-3.042106749489904E-003;
2.402666666666667E+009;1.626189500093460E-001;6.370598822832108E-002;-4.732146859169006E-003;-2.798812696710229E-003;
2.402833333333334E+009;1.640551686286926E-001;6.118091940879822E-002;-4.669150803238154E-003;-2.482331590726972E-003;
2.403000000000000E+009;1.655048429965973E-001;5.891806259751320E-002;-5.027711391448975E-003;-2.430265536531806E-003;
2.403166666666667E+009;1.671708822250366E-001;5.667742341756821E-002;-5.100323818624020E-003;-2.274796133860946E-003;
2.403333333333334E+009;1.686592549085617E-001;5.445755273103714E-002;-5.032525397837162E-003;-2.168069593608379E-003;
2.403500000000000E+009;1.702184379100800E-001;5.217200145125389E-002;-5.158289801329374E-003;-1.921479124575853E-003;
2.403666666666667E+009;1.719376891851425E-001;5.008661001920700E-002;-5.258705466985703E-003;-1.584777492098510E-003;
2.403833333333334E+009;1.737194359302521E-001;4.850644245743752E-002;-5.290437024086714E-003;-1.496155629865825E-003;
2.404000000000000E+009;1.751240193843842E-001;4.661468788981438E-002;-5.142758600413799E-003;-1.097305212169886E-003;
2.404166666666667E+009;1.769940555095673E-001;4.498484358191490E-002;-5.252169445157051E-003;-8.923016721382737E-004;
2.404333333333334E+009;1.786011457443237E-001;4.361625760793686E-002;-5.376318003982306E-003;-6.867896881885827E-004;
2.404500000000000E+009;1.801742017269135E-001;4.220265522599220E-002;-5.366782192140818E-003;-7.597149233333767E-004;
2.404666666666667E+009;1.818399131298065E-001;4.099999368190765E-002;-5.333554465323687E-003;-5.077742389403284E-004;
2.404833333333334E+009;1.834189891815186E-001;4.000785201787949E-002;-5.323110613971949E-003;-3.920748713426292E-004;
2.405000000000000E+009;1.848551779985428E-001;3.922939300537109E-002;-5.161884706467390E-003;-2.251640980830416E-004;
2.405166666666667E+009;1.861311048269272E-001;3.844243288040161E-002;-5.372686777263880E-003;-5.435228376882151E-005;
2.405333333333334E+009;1.876783072948456E-001;3.803389891982079E-002;-5.472074262797833E-003;8.950314622779843E-006;
2.405500000000000E+009;1.888379156589508E-001;3.738802671432495E-002;-5.318989511579275E-003;2.300191990798339E-004;
2.405666666666667E+009;1.901740878820419E-001;3.706758841872215E-002;-5.231640301644802E-003;4.779651062563062E-004;
2.405833333333334E+009;1.913691908121109E-001;3.676404058933258E-002;-5.270146299153566E-003;6.231408333405852E-004;
2.406000000000000E+009;1.923425942659378E-001;3.679563105106354E-002;-5.460735410451889E-003;8.712514536455274E-004;
2.406166666666667E+009;1.932425051927567E-001;3.645351901650429E-002;-5.298412404954433E-003;1.060469192452729E-003;
2.406333333333334E+009;1.941131055355072E-001;3.662338852882385E-002;-5.260255187749863E-003;1.228566979989409E-003;
2.406500000000000E+009;1.948469281196594E-001;3.661198914051056E-002;-5.169486161321402E-003;1.411692937836051E-003;
2.406666666666667E+009;1.953761130571365E-001;3.655474632978439E-002;-5.169758107513189E-003;1.600185409188271E-003;
2.406833333333334E+009;1.958219408988953E-001;3.674879670143127E-002;-5.265410058200359E-003;1.849257852882147E-003;
2.407000000000000E+009;1.961394101381302E-001;3.694092482328415E-002;-5.088356323540211E-003;1.963543239980936E-003;
2.407166666666667E+009;1.964506357908249E-001;3.699582815170288E-002;-5.003860685974360E-003;2.195443026721478E-003;
2.407333333333334E+009;1.964023858308792E-001;3.700497001409531E-002;-4.733848385512829E-003;2.386214677244425E-003;
2.407500000000000E+009;1.961688399314880E-001;3.715284168720245E-002;-4.677174612879753E-003;2.420981647446752E-003;
2.407666666666667E+009;1.964392811059952E-001;3.710418939590454E-002;-4.579212982207537E-003;2.412766916677356E-003;
2.407833333333334E+009;1.957795470952988E-001;3.699561581015587E-002;-4.365311935544014E-003;2.666946733370423E-003;
2.408000000000000E+009;1.956734061241150E-001;3.690146282315254E-002;-4.383096937090159E-003;2.625554334372282E-003;
2.408166666666667E+009;1.950822770595551E-001;3.660837188363075E-002;-4.139420576393604E-003;2.846597461029887E-003;
2.408333333333334E+009;1.947282105684280E-001;3.619076684117317E-002;-3.873090958222747E-003;2.882573520764709E-003;
2.408500000000000E+009;1.937567591667175E-001;3.590478375554085E-002;-3.819087054580450E-003;2.902609994634986E-003;
2.408666666666667E+009;1.932868212461472E-001;3.539952635765076E-002;-3.844096558168531E-003;3.049139864742756E-003;
2.408833333333334E+009;1.925036907196045E-001;3.479028120636940E-002;-3.767511108890176E-003;3.050269093364477E-003;
2.409000000000000E+009;1.914852708578110E-001;3.380484506487846E-002;-3.657040651887655E-003;3.190422663465142E-003;
2.409166666666667E+009;1.905531436204910E-001;3.299235925078392E-002;-3.276495495811105E-003;3.120635636150837E-003;
2.409333333333334E+009;1.897696107625961E-001;3.205050900578499E-002;-3.357749199494720E-003;3.229808527976275E-003;
2.409500000000000E+009;1.886583864688873E-001;3.069370426237583E-002;-3.122998634353280E-003;3.226732136681676E-003;
2.409666666666667E+009;1.876355856657028E-001;2.932725474238396E-002;-3.249410074204207E-003;3.350153099745512E-003;
2.409833333333334E+009;1.866021454334259E-001;2.779022231698036E-002;-3.009744454175234E-003;3.425584873184562E-003;
2.410000000000000E+009;1.856047064065933E-001;2.603794820606709E-002;-3.007443621754646E-003;3.443964524194598E-003;
2.410166666666667E+009;1.846291273832321E-001;2.427669987082481E-002;-2.861751010641456E-003;3.432739060372114E-003;
2.410333333333334E+009;1.836020946502686E-001;2.252653427422047E-002;-2.770194550976157E-003;3.615814726799727E-003;
2.410500000000000E+009;1.826928555965424E-001;2.038984559476376E-002;-2.493545180186629E-003;3.533910494297743E-003;
2.410666666666667E+009;1.817227452993393E-001;1.809997111558914E-002;-2.517733024433255E-003;3.552682697772980E-003;
2.410833333333334E+009;1.811776310205460E-001;1.604381576180458E-002;-2.422761172056198E-003;3.558434313163161E-003;
2.411000000000000E+009;1.802940517663956E-001;1.372995134443045E-002;-2.550807781517506E-003;3.614017739892006E-003;
2.411166666666667E+009;1.794694066047669E-001;1.148597337305546E-002;-2.321780193597078E-003;3.574588801711798E-003;
2.411333333333334E+009;1.791156530380249E-001;9.022495709359646E-003;-2.079725498333573E-003;3.743503475561738E-003;
2.411500000000000E+009;1.785665154457092E-001;6.520487833768129E-003;-2.091076225042343E-003;3.598336363211274E-003;
2.411666666666667E+009;1.781468093395233E-001;4.307693801820278E-003;-1.951503334566951E-003;3.707583528012037E-003;
2.411833333333334E+009;1.780084073543549E-001;1.869582454673946E-003;-1.959519926458597E-003;3.599888877943158E-003;
2.412000000000000E+009;1.782429814338684E-001;-8.850013255141676E-004;-1.912507344968617E-003;3.596697468310595E-003;
2.412166666666667E+009;1.781992763280869E-001;-3.166053444147110E-003;-1.821571378968656E-003;3.521197242662311E-003;
2.412333333333334E+009;1.784670203924179E-001;-5.700703244656324E-003;-1.741397660225630E-003;3.507586428895593E-003;
2.412500000000000E+009;1.789263486862183E-001;-8.015811443328857E-003;-1.688314368948340E-003;3.572547109797597E-003;
2.412666666666667E+009;1.793465763330460E-001;-1.063002087175846E-002;-1.745253684930503E-003;3.426542039960623E-003;
2.412833333333334E+009;1.801490038633347E-001;-1.293444354087114E-002;-1.747961156070232E-003;3.478346858173609E-003;
2.413000000000000E+009;1.807281076908112E-001;-1.535224914550781E-002;-1.756413839757443E-003;3.549629589542747E-003;
2.413166666666667E+009;1.816088706254959E-001;-1.755192317068577E-002;-1.694646780379117E-003;3.793461946770549E-003;
2.413333333333334E+009;1.827302426099777E-001;-1.987475343048573E-002;-1.683828653767705E-003;3.633425338193774E-003;
2.413500000000000E+009;1.834982037544251E-001;-2.214859612286091E-002;-1.613270025700331E-003;3.839300712570548E-003;
2.413666666666667E+009;1.846199929714203E-001;-2.434468083083630E-002;-1.647791010327637E-003;3.883430268615484E-003;
2.413833333333334E+009;1.858546137809753E-001;-2.637420035898686E-002;-1.631606137380004E-003;4.064385313540697E-003;
2.414000000000000E+009;1.869060099124908E-001;-2.827492728829384E-002;-1.462198561057448E-003;4.130927380174398E-003;
2.414166666666667E+009;1.881282627582550E-001;-3.013883903622627E-002;-1.413137419149280E-003;4.179070238023996E-003;
2.414333333333334E+009;1.893483549356461E-001;-3.212771192193031E-002;-1.160293468274176E-003;4.230329301208258E-003;
2.414500000000000E+009;1.906286031007767E-001;-3.354434296488762E-002;-1.145493355579674E-003;4.539164714515209E-003;
2.414666666666667E+009;1.918356120586395E-001;-3.507408127188683E-002;-1.053489279001951E-003;4.380770027637482E-003;
2.414833333333334E+009;1.928266286849976E-001;-3.652306646108627E-002;-9.129296522587538E-004;4.451028071343899E-003;
2.415000000000000E+009;1.939668506383896E-001;-3.771967440843582E-002;-7.292066002264619E-004;4.458858631551266E-003;
2.415166666666667E+009;1.952103376388550E-001;-3.893108665943146E-002;-7.575361523777247E-004;4.450405016541481E-003;
2.415333333333334E+009;1.963564008474350E-001;-3.988882899284363E-002;-5.899655516259372E-004;4.476499278098345E-003;
2.415500000000000E+009;1.974282413721085E-001;-4.053008183836937E-002;-6.654499447904527E-004;4.349808674305677E-003;
2.415666666666667E+009;1.984841525554657E-001;-4.139510914683342E-002;-4.445831000339240E-004;4.541717469692230E-003;
2.415833333333334E+009;1.992740482091904E-001;-4.204372316598892E-002;-4.379059537313879E-004;4.724315833300352E-003;
2.416000000000000E+009;1.999776959419251E-001;-4.258194938302040E-002;-4.062943335156888E-004;4.513969644904137E-003;
2.416166666666667E+009;2.007323503494263E-001;-4.301387816667557E-002;-1.929139252752066E-004;4.720596596598625E-003;
2.416333333333334E+009;2.013180106878281E-001;-4.334922507405281E-002;-2.270361583214253E-004;4.922219086438417E-003;
2.416500000000000E+009;2.016738653182983E-001;-4.349406436085701E-002;-7.149218436097726E-005;4.994466900825501E-003;
2.416666666666667E+009;2.018894404172897E-001;-4.377733543515205E-002;6.890042277518660E-005;5.124968942254782E-003;
2.416833333333334E+009;2.021188735961914E-001;-4.384430870413780E-002;2.749376872088760E-004;5.115540698170662E-003;
2.417000000000000E+009;2.021071910858154E-001;-4.395186528563500E-002;3.437156847212464E-004;5.413968116044998E-003;
2.417166666666667E+009;2.018858641386032E-001;-4.371837899088860E-002;7.443659123964608E-004;5.321457982063294E-003;
2.417333333333334E+009;2.014593333005905E-001;-4.357802495360375E-002;9.218236664310098E-004;5.240979138761759E-003;
2.417500000000000E+009;2.011940032243729E-001;-4.347784444689751E-002;1.196785597130656E-003;5.334134679287672E-003;
2.417666666666667E+009;2.006047368049622E-001;-4.329209402203560E-002;1.436796388588846E-003;5.432385951280594E-003;
2.417833333333334E+009;2.001184374094009E-001;-4.300622642040253E-002;1.622647745534778E-003;5.340161267668009E-003;
2.418000000000000E+009;1.995154470205307E-001;-4.267908260226250E-002;1.890596002340317E-003;5.269663874059916E-003;
2.418166666666667E+009;1.986298412084580E-001;-4.251948371529579E-002;2.041854895651341E-003;5.211131647229195E-003;
2.418333333333334E+009;1.976577490568161E-001;-4.242350906133652E-002;2.253958024084568E-003;5.217416677623987E-003;
2.418500000000000E+009;1.966683119535446E-001;-4.234667122364044E-002;2.414416288957000E-003;5.171129480004311E-003;
2.418666666666667E+009;1.956904530525208E-001;-4.222796112298966E-002;2.579712308943272E-003;5.160948261618614E-003;
2.418833333333334E+009;1.944914758205414E-001;-4.238680005073547E-002;2.859456930309534E-003;4.909140989184380E-003;
2.419000000000000E+009;1.930597126483917E-001;-4.253523796796799E-002;2.999510383233428E-003;4.888830240815878E-003;
2.419166666666667E+009;1.916371434926987E-001;-4.273154586553574E-002;3.061274765059352E-003;4.716849885880947E-003;
2.419333333333334E+009;1.903269290924072E-001;-4.320574551820755E-002;3.198109567165375E-003;4.636837169528008E-003;
2.419500000000000E+009;1.887716352939606E-001;-4.352789372205734E-002;3.439946798607707E-003;4.451515153050423E-003;
2.419666666666667E+009;1.871211528778076E-001;-4.441096261143684E-002;3.553087124601007E-003;4.333805292844772E-003;
2.419833333333334E+009;1.856151968240738E-001;-4.499245807528496E-002;3.764400957152247E-003;4.289304371923208E-003;
2.420000000000000E+009;1.839570850133896E-001;-4.570930451154709E-002;3.794943913817406E-003;4.183881916105747E-003;
2.420166666666667E+009;1.823868453502655E-001;-4.680735990405083E-002;4.076771903783083E-003;4.095161799341440E-003;
2.420333333333334E+009;1.808605790138245E-001;-4.804738983511925E-002;4.196388181298971E-003;4.103691782802343E-003;
2.420500000000000E+009;1.790029853582382E-001;-4.916367307305336E-002;4.373597446829081E-003;3.920316696166992E-003;
2.420666666666667E+009;1.774453818798065E-001;-5.045167356729507E-002;4.621416330337524E-003;3.783228807151318E-003;
2.420833333333334E+009;1.757229268550873E-001;-5.189955979585648E-002;4.766879603266716E-003;3.474842058494687E-003;
2.421000000000000E+009;1.743949651718140E-001;-5.344326049089432E-002;4.732750356197357E-003;3.285428276285529E-003;
2.421166666666667E+009;1.730149537324905E-001;-5.511400476098061E-002;5.100386682897806E-003;3.151108045130968E-003;
2.421333333333334E+009;1.713098883628845E-001;-5.647062882781029E-002;5.033214576542378E-003;2.848134608939290E-003;
2.421500000000000E+009;1.699921190738678E-001;-5.852080136537552E-002;5.105974152684212E-003;2.634961158037186E-003;
2.421666666666667E+009;1.686945855617523E-001;-6.018411368131638E-002;5.309066735208035E-003;2.446281956508756E-003;
2.421833333333334E+009;1.676460951566696E-001;-6.212452054023743E-002;5.300104152411223E-003;2.255093073472381E-003;
2.422000000000000E+009;1.665531992912293E-001;-6.402525305747986E-002;5.419448949396610E-003;2.066161716356874E-003;
2.422166666666667E+009;1.658515036106110E-001;-6.620263308286667E-002;5.286796484142542E-003;1.649922458454967E-003;
2.422333333333334E+009;1.647491157054901E-001;-6.815128028392792E-002;5.464556161314249E-003;1.491728005930781E-003;
2.422500000000000E+009;1.639986932277679E-001;-6.993754208087921E-002;5.231747403740883E-003;1.193197327665985E-003;
2.422666666666667E+009;1.633587777614594E-001;-7.200583815574646E-002;5.187673494219780E-003;1.030134502798319E-003;
2.422833333333334E+009;1.627715528011322E-001;-7.411675900220871E-002;5.356723908334971E-003;7.572373142465949E-004;
2.423000000000000E+009;1.624286323785782E-001;-7.618116587400436E-002;5.231039598584175E-003;6.593545549549162E-004;
2.423166666666667E+009;1.621595323085785E-001;-7.810741662979126E-002;5.041680764406920E-003;4.340331070125103E-004;
2.423333333333334E+009;1.619591712951660E-001;-8.008219301700592E-002;4.938217811286449E-003;2.376915945205838E-004;
2.423500000000000E+009;1.618317663669586E-001;-8.194232732057571E-002;4.874127916991711E-003;1.236536772921681E-004;
2.423666666666667E+009;1.620578914880753E-001;-8.388917148113251E-002;4.826116375625134E-003;-8.891441393643618E-005;
2.423833333333334E+009;1.620075404644013E-001;-8.576279133558273E-002;4.647579975426197E-003;-3.738812301889993E-005;
2.424000000000000E+009;1.623048186302185E-001;-8.738375455141068E-002;4.656036850064993E-003;-3.363884170539677E-004;
2.424166666666667E+009;1.623811572790146E-001;-8.892278373241425E-002;4.413278307765722E-003;-3.728495503310114E-004;
2.424333333333334E+009;1.627541929483414E-001;-9.047821164131165E-002;4.499621689319611E-003;-4.780222952831537E-004;
2.424500000000000E+009;1.629652529954910E-001;-9.219344705343247E-002;4.280894063413143E-003;-5.354240420274437E-004;
2.424666666666667E+009;1.633033305406570E-001;-9.356670826673508E-002;4.272508900612593E-003;-5.503796273842454E-004;
2.424833333333334E+009;1.639182269573212E-001;-9.480909258127213E-002;4.156142938882113E-003;-6.934410193935037E-004;
2.425000000000000E+009;1.642859131097794E-001;-9.607145190238953E-002;4.091633949428797E-003;-8.494796347804368E-004;
2.425166666666667E+009;1.647554486989975E-001;-9.716388583183289E-002;3.940451890230179E-003;-9.654096211306751E-004;
2.425333333333334E+009;1.650604158639908E-001;-9.807890653610230E-002;4.065675195306540E-003;-9.220485808327794E-004;
2.425500000000000E+009;1.655567586421967E-001;-9.903737902641296E-002;3.875562921166420E-003;-1.005821395665407E-003;
2.425666666666667E+009;1.660113632678986E-001;-9.962153434753418E-002;3.783900523558259E-003;-1.115935505367816E-003;
2.425833333333334E+009;1.662497073411942E-001;-1.005777344107628E-001;3.608479164540768E-003;-1.172268996015191E-003;
2.426000000000000E+009;1.667081415653229E-001;-1.008810326457024E-001;3.673874773085117E-003;-1.195171731524169E-003;
2.426166666666667E+009;1.672085374593735E-001;-1.014216542243958E-001;3.491793991997838E-003;-1.207430846989155E-003;
2.426333333333334E+009;1.673999726772308E-001;-1.019308194518089E-001;3.524445928633213E-003;-1.362611772492528E-003;
2.426500000000000E+009;1.677861362695694E-001;-1.022100225090981E-001;3.301769262179732E-003;-1.252969843335450E-003;
2.426666666666667E+009;1.680246591567993E-001;-1.024163737893105E-001;3.296746639534831E-003;-1.316254376433790E-003;
2.426833333333334E+009;1.682164371013641E-001;-1.027825698256493E-001;3.372684819623828E-003;-1.331582898274064E-003;
2.427000000000000E+009;1.682721078395844E-001;-1.028397083282471E-001;3.300877986475825E-003;-1.297238981351256E-003;
2.427166666666667E+009;1.682972908020020E-001;-1.029384434223175E-001;3.179738065227866E-003;-1.273659174330533E-003;
2.427333333333334E+009;1.682795435190201E-001;-1.031209006905556E-001;2.994081005454063E-003;-1.402154448442161E-003;
2.427500000000000E+009;1.680877059698105E-001;-1.031380370259285E-001;3.183382796123624E-003;-1.299055875279009E-003;
2.427666666666667E+009;1.677218526601791E-001;-1.033499464392662E-001;3.074948675930500E-003;-1.485940068960190E-003;
2.427833333333334E+009;1.674008667469025E-001;-1.034289374947548E-001;3.131585661321878E-003;-1.349172322079539E-003;
