# Version 1.00
#
freq[Hz];re:Trc1_S11;im:Trc1_S11;re:Trc2_S21;im:Trc2_S21;
2.400000000000000E+009;1.549830734729767E-001;1.054043769836426E-001;-1.841047080233693E-003;-3.596497932448983E-003;
2.400166666666667E+009;1.544946730136871E-001;1.030171439051628E-001;-2.059594960883260E-003;-3.708764677867293E-003;
2.400333333333334E+009;1.545252948999405E-001;1.006004363298416E-001;-2.068595960736275E-003;-3.842785255983472E-003;
2.400500000000000E+009;1.543876081705093E-001;9.792014211416245E-002;-2.177166054025292E-003;-4.023517947643995E-003;
2.400666666666667E+009;1.545463353395462E-001;9.538145363330841E-002;-2.334152814000845E-003;-3.932525403797627E-003;
2.400833333333334E+009;1.543407738208771E-001;9.256580471992493E-002;-2.505650045350194E-003;-3.963650669902563E-003;
2.401000000000000E+009;1.545156091451645E-001;8.967659622430801E-002;-2.705686492845416E-003;-4.099207464605570E-003;
2.401166666666667E+009;1.543413549661636E-001;8.686345070600510E-002;-3.010957734659314E-003;-4.040465224534273E-003;
2.401333333333334E+009;1.548418253660202E-001;8.411359786987305E-002;-3.135116538032889E-003;-4.150723107159138E-003;
2.401500000000000E+009;1.550425738096237E-001;8.132376521825790E-002;-3.380687208846211E-003;-4.189087543636560E-003;
2.401666666666667E+009;1.555206179618835E-001;7.836871594190598E-002;-3.858057083562017E-003;-3.979226574301720E-003;
2.401833333333334E+009;1.558452695608139E-001;7.589148730039597E-002;-4.007894080132246E-003;-3.968081437051296E-003;
2.402000000000000E+009;1.566433906555176E-001;7.274112850427628E-002;-4.103418439626694E-003;-3.754882141947746E-003;
2.402166666666667E+009;1.574800610542297E-001;7.051336765289307E-002;-4.399138037115336E-003;-3.745929570868611E-003;
2.402333333333334E+009;1.583866029977799E-001;6.776062399148941E-002;-4.592548124492168E-003;-3.572894027456641E-003;
2.402500000000000E+009;1.593291908502579E-001;6.523909419775009E-002;-4.895250312983990E-003;-3.410813398659229E-003;
2.402666666666667E+009;1.607115417718887E-001;6.304106116294861E-002;-5.176032427698374E-003;-3.164801513776183E-003;
2.402833333333334E+009;1.617919653654099E-001;6.062778457999229E-002;-5.058729555457830E-003;-3.066560951992869E-003;
2.403000000000000E+009;1.631969660520554E-001;5.824729055166245E-002;-5.454298108816147E-003;-2.718425355851650E-003;
2.403166666666667E+009;1.648324877023697E-001;5.622356384992600E-002;-5.404209252446890E-003;-2.536474494263530E-003;
2.403333333333334E+009;1.663513481616974E-001;5.406150221824646E-002;-5.530465394258499E-003;-2.215867396444082E-003;
2.403500000000000E+009;1.679686456918716E-001;5.209488421678543E-002;-5.735650658607483E-003;-2.059640595689416E-003;
2.403666666666667E+009;1.696770191192627E-001;5.027703568339348E-002;-5.761726293712854E-003;-1.749979681335390E-003;
2.403833333333334E+009;1.713382452726364E-001;4.862017557024956E-002;-5.846195388585329E-003;-1.391080906614661E-003;
2.404000000000000E+009;1.730396300554276E-001;4.691626504063606E-002;-5.731672048568726E-003;-1.319924369454384E-003;
2.404166666666667E+009;1.746701002120972E-001;4.529066011309624E-002;-5.787929054349661E-003;-1.166692236438394E-003;
2.404333333333334E+009;1.764078885316849E-001;4.401069134473801E-002;-5.865001585334539E-003;-8.847515564411879E-004;
2.404500000000000E+009;1.780063360929489E-001;4.238678514957428E-002;-5.922837182879448E-003;-5.691762780770659E-004;
2.404666666666667E+009;1.797154396772385E-001;4.139600321650505E-002;-5.959516391158104E-003;-4.640083352569491E-004;
2.404833333333334E+009;1.815522462129593E-001;4.056437313556671E-002;-5.791767500340939E-003;-4.329500370658934E-004;
2.405000000000000E+009;1.828230470418930E-001;3.985582292079926E-002;-5.991005338728428E-003;-1.810225512599573E-004;
2.405166666666667E+009;1.842854470014572E-001;3.906512632966042E-002;-5.820819642394781E-003;-9.584946383256465E-005;
2.405333333333334E+009;1.856521964073181E-001;3.882678970694542E-002;-6.016455125063658E-003;1.365516363875940E-004;
2.405500000000000E+009;1.871452629566193E-001;3.850454837083817E-002;-6.063139531761408E-003;3.711864410433918E-004;
2.405666666666667E+009;1.883888244628906E-001;3.808839619159699E-002;-6.062811240553856E-003;6.146399537101388E-004;
2.405833333333334E+009;1.897073686122894E-001;3.785847872495651E-002;-6.091489922255278E-003;9.472311940044165E-004;
2.406000000000000E+009;1.906481236219406E-001;3.778403997421265E-002;-6.049129180610180E-003;1.136223901994526E-003;
2.406166666666667E+009;1.916129887104034E-001;3.769981116056442E-002;-5.950068123638630E-003;1.367581076920033E-003;
2.406333333333334E+009;1.925684809684753E-001;3.766321018338203E-002;-5.920425523072481E-003;1.726493821479380E-003;
2.406500000000000E+009;1.932886838912964E-001;3.776950016617775E-002;-5.917016882449389E-003;1.809390378184617E-003;
2.406666666666667E+009;1.938702315092087E-001;3.796588256955147E-002;-5.745904985815287E-003;2.148673171177506E-003;
2.406833333333334E+009;1.944613754749298E-001;3.797761723399162E-002;-5.797098390758038E-003;2.421754645183682E-003;
2.407000000000000E+009;1.947920769453049E-001;3.818210586905479E-002;-5.424488801509142E-003;2.485123695805669E-003;
2.407166666666667E+009;1.952559947967529E-001;3.816895931959152E-002;-5.380179733037949E-003;2.631196985021234E-003;
2.407333333333334E+009;1.952279657125473E-001;3.840881213545799E-002;-5.176050122827292E-003;2.909136470407248E-003;
2.407500000000000E+009;1.950995326042175E-001;3.859970718622208E-002;-5.182123277336359E-003;3.170017385855317E-003;
2.407666666666667E+009;1.951985806226730E-001;3.857650235295296E-002;-4.970267880707979E-003;3.185968147590756E-003;
2.407833333333334E+009;1.947894841432571E-001;3.843680024147034E-002;-4.652033094316721E-003;3.289728658273816E-003;
2.408000000000000E+009;1.946845948696137E-001;3.834598138928413E-002;-4.461115691810846E-003;3.455793252214789E-003;
2.408166666666667E+009;1.940739601850510E-001;3.803119063377380E-002;-4.428832326084375E-003;3.704276634380221E-003;
2.408333333333334E+009;1.937583237886429E-001;3.773835301399231E-002;-4.123476799577475E-003;3.604558529332280E-003;
2.408500000000000E+009;1.931376010179520E-001;3.741796687245369E-002;-3.871894907206297E-003;3.827359993010759E-003;
2.408666666666667E+009;1.923171579837799E-001;3.699344769120216E-002;-3.793301060795784E-003;3.944049123674631E-003;
2.408833333333334E+009;1.917662918567658E-001;3.610642626881599E-002;-3.619685070589185E-003;3.829561872407794E-003;
2.409000000000000E+009;1.908780038356781E-001;3.536487370729446E-002;-3.332290798425674E-003;3.958780318498612E-003;
2.409166666666667E+009;1.899185180664063E-001;3.437756747007370E-002;-3.353961976245046E-003;3.842287231236696E-003;
2.409333333333334E+009;1.890401244163513E-001;3.338114172220230E-002;-3.172940341755748E-003;3.986324183642864E-003;
2.409500000000000E+009;1.879741102457047E-001;3.214119374752045E-002;-2.993892412632704E-003;4.029545933008194E-003;
2.409666666666667E+009;1.870608776807785E-001;3.078127279877663E-002;-2.886891365051270E-003;4.097282886505127E-003;
2.409833333333334E+009;1.860580444335938E-001;2.917104028165340E-002;-2.686761785298586E-003;4.077162127941847E-003;
2.410000000000000E+009;1.849375516176224E-001;2.750916406512260E-002;-2.778374124318361E-003;4.091561771929264E-003;
2.410166666666667E+009;1.841375678777695E-001;2.566133998334408E-002;-2.463245764374733E-003;4.069678485393524E-003;
2.410333333333334E+009;1.832442730665207E-001;2.397211454808712E-002;-2.434465335682035E-003;4.228929989039898E-003;
2.410500000000000E+009;1.823743730783463E-001;2.203715965151787E-002;-2.169627230614424E-003;4.068287089467049E-003;
2.410666666666667E+009;1.813797652721405E-001;1.980955898761749E-002;-2.160111209377646E-003;4.256270825862885E-003;
2.410833333333334E+009;1.808944791555405E-001;1.759322360157967E-002;-1.785176689736545E-003;4.022004082798958E-003;
2.411000000000000E+009;1.800496131181717E-001;1.536469068378210E-002;-1.696839230135083E-003;4.178321454674006E-003;
2.411166666666667E+009;1.794334799051285E-001;1.306954212486744E-002;-1.695377286523581E-003;4.141048062592745E-003;
2.411333333333334E+009;1.788125187158585E-001;1.056682970374823E-002;-1.527090789750218E-003;4.157887771725655E-003;
2.411500000000000E+009;1.784496605396271E-001;8.077335543930531E-003;-1.399340690113604E-003;4.059236031025648E-003;
2.411666666666667E+009;1.782031655311585E-001;5.793486721813679E-003;-1.255103619769216E-003;4.036017693579197E-003;
2.411833333333334E+009;1.780448257923126E-001;3.192983102053404E-003;-1.186543726362288E-003;3.880375297740102E-003;
2.412000000000000E+009;1.781767159700394E-001;7.996537024155259E-004;-1.185221248306334E-003;3.861196106299758E-003;
2.412166666666667E+009;1.783272773027420E-001;-1.629372942261398E-003;-1.000704593025148E-003;3.880688454955816E-003;
2.412333333333334E+009;1.784118115901947E-001;-4.302253015339375E-003;-9.592229616828263E-004;3.828592831268907E-003;
2.412500000000000E+009;1.790710687637329E-001;-6.429418921470642E-003;-9.985555661842227E-004;3.790119895711541E-003;
2.412666666666667E+009;1.796277761459351E-001;-9.159392677247524E-003;-9.361047996208072E-004;3.732469864189625E-003;
2.412833333333334E+009;1.803980171680450E-001;-1.154530420899391E-002;-1.003607525490224E-003;3.621517214924097E-003;
2.413000000000000E+009;1.810778975486755E-001;-1.385978702455759E-002;-1.009746221825481E-003;3.725617891177535E-003;
2.413166666666667E+009;1.817859113216400E-001;-1.617235504090786E-002;-1.098514068871737E-003;3.739813575521112E-003;
2.413333333333334E+009;1.829665899276733E-001;-1.843331567943096E-002;-9.019722347147763E-004;3.605946898460388E-003;
2.413500000000000E+009;1.840291023254395E-001;-2.083031088113785E-002;-9.269092115573585E-004;3.782440442591906E-003;
2.413666666666667E+009;1.850906163454056E-001;-2.297361567616463E-002;-8.351558935828507E-004;3.681322559714317E-003;
2.413833333333334E+009;1.861760914325714E-001;-2.491565980017185E-002;-7.963185780681670E-004;3.927122335880995E-003;
2.414000000000000E+009;1.874713003635407E-001;-2.692724578082562E-002;-7.639135583303869E-004;3.970494493842125E-003;
2.414166666666667E+009;1.887614876031876E-001;-2.874642238020897E-002;-6.520749884657562E-004;3.866067156195641E-003;
2.414333333333334E+009;1.897948086261749E-001;-3.076478652656078E-002;-5.890152533538640E-004;4.155878908932209E-003;
2.414500000000000E+009;1.910313218832016E-001;-3.230525925755501E-002;-3.287302679382265E-004;4.190171137452126E-003;
2.414666666666667E+009;1.922968924045563E-001;-3.390470519661903E-002;-3.289525338914245E-004;4.016755148768425E-003;
2.414833333333334E+009;1.934575587511063E-001;-3.519081696867943E-002;-3.134492435492575E-004;4.050881601870060E-003;
2.415000000000000E+009;1.945718824863434E-001;-3.650910034775734E-002;-2.006268186960369E-004;4.196647088974714E-003;
2.415166666666667E+009;1.957784891128540E-001;-3.761932253837585E-002;-3.781633495236747E-005;3.845531726256013E-003;
2.415333333333334E+009;1.970207244157791E-001;-3.846796229481697E-002;2.137353112630080E-005;3.939679823815823E-003;
2.415500000000000E+009;1.982757002115250E-001;-3.935929015278816E-002;1.110821017391572E-006;3.918846603482962E-003;
2.415666666666667E+009;1.992445290088654E-001;-4.007945954799652E-002;-5.426395728136413E-005;4.001162946224213E-003;
2.415833333333334E+009;2.000401467084885E-001;-4.075239226222038E-002;8.444586683253874E-007;3.986218478530645E-003;
2.416000000000000E+009;2.009383291006088E-001;-4.130468517541885E-002;7.199152605608106E-005;4.055872093886137E-003;
2.416166666666667E+009;2.016768157482147E-001;-4.183426499366760E-002;9.765759023139253E-005;4.199366085231304E-003;
2.416333333333334E+009;2.022042572498322E-001;-4.207290336489677E-002;1.441520289517939E-004;4.294768441468477E-003;
2.416500000000000E+009;2.026616781949997E-001;-4.242820665240288E-002;2.179611037718132E-004;4.328593146055937E-003;
2.416666666666667E+009;2.030769735574722E-001;-4.273813217878342E-002;2.324265369679779E-004;4.409933462738991E-003;
2.416833333333334E+009;2.032653093338013E-001;-4.271629825234413E-002;4.378829908091575E-004;4.564194008708000E-003;
2.417000000000000E+009;2.033537626266480E-001;-4.290603473782539E-002;7.961480878293514E-004;4.604635760188103E-003;
2.417166666666667E+009;2.031947970390320E-001;-4.279084131121635E-002;8.380235522054136E-004;4.531467333436012E-003;
2.417333333333334E+009;2.028410285711289E-001;-4.259001463651657E-002;1.108855707570911E-003;4.683369770646095E-003;
2.417500000000000E+009;2.025242447853088E-001;-4.263410344719887E-002;1.088882796466351E-003;4.795433487743139E-003;
2.417666666666667E+009;2.021024078130722E-001;-4.232490807771683E-002;1.420539338141680E-003;4.714572802186012E-003;
2.417833333333334E+009;2.016191035509110E-001;-4.215273261070252E-002;1.662956085056067E-003;4.693623166531324E-003;
2.418000000000000E+009;2.009809613227844E-001;-4.196636751294136E-002;1.731245080009103E-003;4.754273686558008E-003;
2.418166666666667E+009;2.001767605543137E-001;-4.182121157646179E-002;1.862063887529075E-003;4.705817904323340E-003;
2.418333333333334E+009;1.992091387510300E-001;-4.172163084149361E-002;2.092881593853235E-003;4.729641601443291E-003;
2.418500000000000E+009;1.981322318315506E-001;-4.173946008086205E-002;2.437004353851080E-003;4.595580045133829E-003;
2.418666666666667E+009;1.972422152757645E-001;-4.165233299136162E-002;2.518649445846677E-003;4.564064089208841E-003;
2.418833333333334E+009;1.959969103336334E-001;-4.180587828159332E-002;2.638526028022170E-003;4.409711342304945E-003;
2.419000000000000E+009;1.947933435440064E-001;-4.190790653228760E-002;2.798070432618260E-003;4.408408887684345E-003;
2.419166666666667E+009;1.934347748756409E-001;-4.243094474077225E-002;2.917043631896377E-003;4.258428700268269E-003;
2.419333333333334E+009;1.920192688703537E-001;-4.282562807202339E-002;3.206501714885235E-003;4.044732078909874E-003;
2.419500000000000E+009;1.904997527599335E-001;-4.328690469264984E-002;3.335813991725445E-003;4.223031923174858E-003;
2.419666666666667E+009;1.890023201704025E-001;-4.415752366185188E-002;3.384359180927277E-003;4.041288513690233E-003;
2.419833333333334E+009;1.871802806854248E-001;-4.484231397509575E-002;3.492954187095165E-003;3.905243240296841E-003;
2.420000000000000E+009;1.856913268566132E-001;-4.589840397238731E-002;3.492929041385651E-003;3.782498184591532E-003;
2.420166666666667E+009;1.839538216590881E-001;-4.662125930190086E-002;3.754604840651155E-003;3.635407891124487E-003;
2.420333333333334E+009;1.822880804538727E-001;-4.784657433629036E-002;3.848748514428735E-003;3.515611402690411E-003;
2.420500000000000E+009;1.806468218564987E-001;-4.924717172980309E-002;4.198157694190741E-003;3.442971035838127E-003;
2.420666666666667E+009;1.791006922721863E-001;-5.044470727443695E-002;4.229362122714520E-003;3.217997727915645E-003;
2.420833333333334E+009;1.774203628301621E-001;-5.196586623787880E-002;4.379083402454853E-003;3.077663015574217E-003;
2.421000000000000E+009;1.758583486080170E-001;-5.353986099362373E-002;4.517135210335255E-003;2.984428545460105E-003;
2.421166666666667E+009;1.744544208049774E-001;-5.529909208416939E-002;4.702184814959765E-003;2.949971240013838E-003;
2.421333333333334E+009;1.728563308715820E-001;-5.678240209817886E-002;4.700981546193361E-003;2.532500540837646E-003;
2.421500000000000E+009;1.715720742940903E-001;-5.883825197815895E-002;4.978728946298361E-003;2.385413972660899E-003;
2.421666666666667E+009;1.703142225742340E-001;-6.071623787283897E-002;5.091703496873379E-003;2.264027483761311E-003;
2.421833333333334E+009;1.692530661821365E-001;-6.255847215652466E-002;4.935843870043755E-003;1.877657370641828E-003;
2.422000000000000E+009;1.681415885686874E-001;-6.451159715652466E-002;5.110912490636110E-003;1.561707700602710E-003;
2.422166666666667E+009;1.672661751508713E-001;-6.661464273929596E-002;5.087947938591242E-003;1.471032621338964E-003;
2.422333333333334E+009;1.662791967391968E-001;-6.871463358402252E-002;5.039630923420191E-003;1.110381563194096E-003;
2.422500000000000E+009;1.654004305601120E-001;-7.065306603908539E-002;4.957044497132301E-003;9.739646920934320E-004;
2.422666666666667E+009;1.647084206342697E-001;-7.278647273778915E-002;4.928321111947298E-003;7.938250200822949E-004;
2.422833333333334E+009;1.643445193767548E-001;-7.487412542104721E-002;4.792257212102413E-003;5.139984423294663E-004;
2.423000000000000E+009;1.638141721487045E-001;-7.701122760772705E-002;4.730649292469025E-003;2.895852667279542E-004;
2.423166666666667E+009;1.635528802871704E-001;-7.902982831001282E-002;4.821196664124727E-003;1.984710979741067E-005;
2.423333333333334E+009;1.633288562297821E-001;-8.106136322021484E-002;4.486652556806803E-003;8.284616342280060E-005;
2.423500000000000E+009;1.631604731082916E-001;-8.280929923057556E-002;4.244649782776833E-003;-2.621492603793740E-004;
2.423666666666667E+009;1.632611751556397E-001;-8.485233038663864E-002;4.269781056791544E-003;-1.832027337513864E-004;
2.423833333333334E+009;1.632520258426666E-001;-8.654634654521942E-002;4.172534216195345E-003;-4.683996085077524E-004;
2.424000000000000E+009;1.633231639862061E-001;-8.843953907489777E-002;3.987045027315617E-003;-3.921592142432928E-004;
2.424166666666667E+009;1.632940769195557E-001;-8.995717763900757E-002;3.852754598483443E-003;-7.032470311969519E-004;
2.424333333333334E+009;1.636166572570801E-001;-9.156760573387146E-002;3.865153528749943E-003;-5.527993198484182E-004;
2.424500000000000E+009;1.638551950454712E-001;-9.347121417522430E-002;3.725952003151178E-003;-5.644829943776131E-004;
2.424666666666667E+009;1.640907227993012E-001;-9.476988762617111E-002;3.601182019338012E-003;-5.544380983337760E-004;
2.424833333333334E+009;1.646255701780319E-001;-9.607375413179398E-002;3.428964409977198E-003;-8.891329052858055E-004;
2.425000000000000E+009;1.650681346654892E-001;-9.732094407081604E-002;3.548276843503118E-003;-8.327581454068422E-004;
2.425166666666667E+009;1.653110980987549E-001;-9.846059978008270E-002;3.434269456192851E-003;-9.492591489106417E-004;
2.425333333333334E+009;1.656497120857239E-001;-9.944078326225281E-002;3.327876329421997E-003;-8.898201631382108E-004;
2.425500000000000E+009;1.660441756248474E-001;-1.003539785742760E-001;3.179088467732072E-003;-1.004106830805540E-003;
2.425666666666667E+009;1.664696782827377E-001;-1.009621024131775E-001;3.109029028564692E-003;-8.024494745768607E-004;
2.425833333333334E+009;1.666994839906693E-001;-1.017839685082436E-001;3.041318384930491E-003;-8.360351785086095E-004;
2.426000000000000E+009;1.671311706304550E-001;-1.022515892982483E-001;2.911836840212345E-003;-9.195394814014435E-004;
2.426166666666667E+009;1.676905751228333E-001;-1.027531847357750E-001;3.006999380886555E-003;-1.040167873725295E-003;
2.426333333333334E+009;1.675804704427719E-001;-1.032616272568703E-001;2.825926756486297E-003;-8.864356204867363E-004;
2.426500000000000E+009;1.679920703172684E-001;-1.035562753677368E-001;2.871898468583822E-003;-9.264963446184993E-004;
2.426666666666667E+009;1.683111786842346E-001;-1.037283167243004E-001;2.850822871550918E-003;-7.587251602672041E-004;
2.426833333333334E+009;1.683803051710129E-001;-1.039626076817513E-001;2.668117405846715E-003;-9.257594356313348E-004;
2.427000000000000E+009;1.682469248771668E-001;-1.041310504078865E-001;2.788922749459744E-003;-8.985028835013509E-004;
2.427166666666667E+009;1.683838516473770E-001;-1.042957305908203E-001;2.719420008361340E-003;-9.323329431936145E-004;
2.427333333333334E+009;1.682845056056976E-001;-1.044331863522530E-001;2.702607540413737E-003;-1.065943739376962E-003;
2.427500000000000E+009;1.679240763187408E-001;-1.044677048921585E-001;2.790624275803566E-003;-9.738929220475256E-004;
2.427666666666667E+009;1.676094084978104E-001;-1.045961380004883E-001;2.729444997385144E-003;-1.007637591101229E-003;
2.427833333333334E+009;1.673473715782166E-001;-1.045758500695229E-001;2.915370743721724E-003;-8.702228660695255E-004;
