# Version 1.00
#
freq[Hz];re:Trc1_S11;im:Trc1_S11;re:Trc2_S21;im:Trc2_S21;
2.400000000000000E+009;1.545113474130631E-001;1.054910570383072E-001;-1.957779051735997E-003;-3.617905080318451E-003;
2.400166666666667E+009;1.542491465806961E-001;1.029851138591766E-001;-2.067233435809612E-003;-3.783961990848184E-003;
2.400333333333334E+009;1.542263329029083E-001;1.009035483002663E-001;-2.177683170884848E-003;-3.782748477533460E-003;
2.400500000000000E+009;1.541229486465454E-001;9.807939827442169E-002;-2.254998311400414E-003;-3.947406075894833E-003;
2.400666666666667E+009;1.542243361473084E-001;9.568300843238831E-002;-2.490368438884616E-003;-4.040768370032311E-003;
2.400833333333334E+009;1.540151834487915E-001;9.261034429073334E-002;-2.817393280565739E-003;-4.004654940217733E-003;
2.401000000000000E+009;1.541146486997604E-001;8.988012373447418E-002;-3.106799907982349E-003;-4.068331792950630E-003;
2.401166666666667E+009;1.542016267776489E-001;8.724553138017654E-002;-3.232741262763739E-003;-3.938720561563969E-003;
2.401333333333334E+009;1.546327620744705E-001;8.428748697042465E-002;-3.557472256943584E-003;-3.944929689168930E-003;
2.401500000000000E+009;1.550014466047287E-001;8.141912519931793E-002;-3.758315928280354E-003;-4.097858909517527E-003;
2.401666666666667E+009;1.550828963518143E-001;7.867369800806046E-002;-3.895982634276152E-003;-3.926094621419907E-003;
2.401833333333334E+009;1.556733995676041E-001;7.596526294946671E-002;-4.190634004771709E-003;-3.837060416117311E-003;
2.402000000000000E+009;1.563394516706467E-001;7.324070483446121E-002;-4.434663802385330E-003;-3.639104310423136E-003;
2.402166666666667E+009;1.570760160684586E-001;7.071031630039215E-002;-4.419330507516861E-003;-3.523940686136484E-003;
2.402333333333334E+009;1.580765545368195E-001;6.790338456630707E-002;-4.711037967354059E-003;-3.306588623672724E-003;
2.402500000000000E+009;1.592884361743927E-001;6.555188447237015E-002;-5.048112478107214E-003;-3.191195195540786E-003;
2.402666666666667E+009;1.602690815925598E-001;6.339082866907120E-002;-5.303031299263239E-003;-2.957168733701110E-003;
2.402833333333334E+009;1.615851074457169E-001;6.099156662821770E-002;-5.202816799283028E-003;-2.775525907054544E-003;
2.403000000000000E+009;1.628923565149307E-001;5.866637080907822E-002;-5.556092597544193E-003;-2.504602307453752E-003;
2.403166666666667E+009;1.647064983844757E-001;5.651259422302246E-002;-5.743943620473146E-003;-2.196177141740918E-003;
2.403333333333334E+009;1.660983562469482E-001;5.448277294635773E-002;-5.749833770096302E-003;-2.102529862895608E-003;
2.403500000000000E+009;1.677631288766861E-001;5.256413295865059E-002;-5.801748950034380E-003;-1.778092584572732E-003;
2.403666666666667E+009;1.695606261491776E-001;5.064444243907929E-002;-5.834810901433229E-003;-1.507075619883835E-003;
2.403833333333334E+009;1.713210344314575E-001;4.891280829906464E-002;-5.761640612035990E-003;-1.300196163356304E-003;
2.404000000000000E+009;1.728175282478333E-001;4.702639207243919E-002;-5.832533817738295E-003;-1.051296130754054E-003;
2.404166666666667E+009;1.746993958950043E-001;4.592249915003777E-002;-5.962742958217859E-003;-8.665891946293414E-004;
2.404333333333334E+009;1.762932389974594E-001;4.420860856771469E-002;-5.911782849580050E-003;-8.633855031803250E-004;
2.404500000000000E+009;1.779126822948456E-001;4.293664172291756E-002;-5.892029032111168E-003;-4.931213334202766E-004;
2.404666666666667E+009;1.795832514762878E-001;4.189804196357727E-002;-5.822320468723774E-003;-4.449656116776168E-004;
2.404833333333334E+009;1.813554167747498E-001;4.095946997404099E-002;-5.866431631147862E-003;-1.050914070219733E-004;
2.405000000000000E+009;1.827835440635681E-001;4.023157060146332E-002;-5.959092173725367E-003;-5.889603198738769E-005;
2.405166666666667E+009;1.844019144773483E-001;3.969996050000191E-002;-5.955739412456751E-003;2.993018424604088E-004;
2.405333333333334E+009;1.856570243835449E-001;3.902743756771088E-002;-5.828514695167542E-003;3.651319129858166E-004;
2.405500000000000E+009;1.871770620346069E-001;3.871955722570419E-002;-5.905803758651018E-003;7.784730405546725E-004;
2.405666666666667E+009;1.884995102882385E-001;3.832727298140526E-002;-6.059207953512669E-003;7.803992484696209E-004;
2.405833333333334E+009;1.896748691797257E-001;3.818516805768013E-002;-6.068504415452480E-003;1.113264239393175E-003;
2.406000000000000E+009;1.907111704349518E-001;3.813005238771439E-002;-5.917277187108994E-003;1.258406206034124E-003;
2.406166666666667E+009;1.917930841445923E-001;3.794545307755470E-002;-5.881939548999071E-003;1.608791644684970E-003;
2.406333333333334E+009;1.927238553762436E-001;3.813695535063744E-002;-5.958521272987127E-003;1.705691101960838E-003;
2.406500000000000E+009;1.933701485395432E-001;3.821380436420441E-002;-5.695340689271689E-003;1.956394407898188E-003;
2.406666666666667E+009;1.940314918756485E-001;3.830660507082939E-002;-5.673153791576624E-003;2.210028702393174E-003;
2.406833333333334E+009;1.946362853050232E-001;3.836586698889732E-002;-5.548499058932066E-003;2.521870192140341E-003;
2.407000000000000E+009;1.950290948152542E-001;3.863540664315224E-002;-5.366730038076639E-003;2.704197773709893E-003;
2.407166666666667E+009;1.954052746295929E-001;3.849258273839951E-002;-5.332680419087410E-003;3.015961265191436E-003;
2.407333333333334E+009;1.953074634075165E-001;3.876871243119240E-002;-5.191548261791468E-003;2.994564594700933E-003;
2.407500000000000E+009;1.953533291816711E-001;3.892452642321587E-002;-4.768677987158299E-003;3.399322275072336E-003;
2.407666666666667E+009;1.953517496585846E-001;3.870860487222672E-002;-4.663249477744103E-003;3.403349313884974E-003;
2.407833333333334E+009;1.949226707220078E-001;3.883779793977737E-002;-4.411415662616491E-003;3.573581110686064E-003;
2.408000000000000E+009;1.948904246091843E-001;3.863741457462311E-002;-4.265451338142157E-003;3.617914859205484E-003;
2.408166666666667E+009;1.943761706352234E-001;3.833390027284622E-002;-4.101970698684454E-003;3.801738843321800E-003;
2.408333333333334E+009;1.938520073890686E-001;3.788000345230103E-002;-4.004264250397682E-003;3.598745912313461E-003;
2.408500000000000E+009;1.932388842105866E-001;3.762413561344147E-002;-3.872135886922479E-003;3.837987082079053E-003;
2.408666666666667E+009;1.926207244396210E-001;3.712351992726326E-002;-3.492454066872597E-003;3.872775007039309E-003;
2.408833333333334E+009;1.920030564069748E-001;3.638446703553200E-002;-3.319901181384921E-003;3.914703615009785E-003;
2.409000000000000E+009;1.911175101995468E-001;3.543353453278542E-002;-3.352167550474405E-003;3.947169519960880E-003;
2.409166666666667E+009;1.902346760034561E-001;3.456822410225868E-002;-3.164270427078009E-003;4.051052499562502E-003;
2.409333333333334E+009;1.893576383590698E-001;3.336741030216217E-002;-3.039214061573148E-003;4.088068846613169E-003;
2.409500000000000E+009;1.881878823041916E-001;3.221415355801582E-002;-2.760904375463724E-003;4.150590859353542E-003;
2.409666666666667E+009;1.872674077749252E-001;3.083920665085316E-002;-2.711242763325572E-003;4.004102665930986E-003;
2.409833333333334E+009;1.861857026815414E-001;2.938453666865826E-002;-2.493693027645350E-003;3.954294137656689E-003;
2.410000000000000E+009;1.853580772876740E-001;2.776130847632885E-002;-2.525825286284089E-003;4.094807896763086E-003;
2.410166666666667E+009;1.843286156654358E-001;2.584518119692802E-002;-2.296423772349954E-003;4.211297258734703E-003;
2.410333333333334E+009;1.833630055189133E-001;2.407481893897057E-002;-2.038759877905250E-003;4.124553874135017E-003;
2.410500000000000E+009;1.825830340385437E-001;2.220915257930756E-002;-1.991325290873647E-003;4.201380070298910E-003;
2.410666666666667E+009;1.815806180238724E-001;1.972120441496372E-002;-1.888202736154199E-003;4.155983682721853E-003;
2.410833333333334E+009;1.809889227151871E-001;1.759985648095608E-002;-1.679070643149316E-003;4.191827494651079E-003;
2.411000000000000E+009;1.801051199436188E-001;1.531895808875561E-002;-1.595248118974268E-003;4.227386787533760E-003;
2.411166666666667E+009;1.795950382947922E-001;1.316489093005657E-002;-1.573960646055639E-003;3.974398132413626E-003;
2.411333333333334E+009;1.790651828050613E-001;1.060200296342373E-002;-1.438265549950302E-003;4.124004393815994E-003;
2.411500000000000E+009;1.786019802093506E-001;8.270929567515850E-003;-1.254189759492874E-003;3.944954834878445E-003;
2.411666666666667E+009;1.787118017673492E-001;5.693209357559681E-003;-1.209034700877965E-003;3.952381201088429E-003;
2.411833333333334E+009;1.781663894653320E-001;3.561499528586865E-003;-1.172151067294180E-003;3.831448964774609E-003;
2.412000000000000E+009;1.784687489271164E-001;7.861191988922656E-004;-9.584106155671179E-004;3.808720968663693E-003;
2.412166666666667E+009;1.784704923629761E-001;-1.677974360063672E-003;-9.145063813775778E-004;3.607766004279256E-003;
2.412333333333334E+009;1.788057237863541E-001;-4.008902702480555E-003;-9.212394943460822E-004;3.604686120525003E-003;
2.412500000000000E+009;1.792743802070618E-001;-6.562298629432917E-003;-8.910449687391520E-004;3.435351653024554E-003;
2.412666666666667E+009;1.797080188989639E-001;-9.086113423109055E-003;-8.868543663993478E-004;3.584892256185412E-003;
2.412833333333334E+009;1.805235594511032E-001;-1.146487984806299E-002;-8.042834815569222E-004;3.287159372121096E-003;
2.413000000000000E+009;1.811849921941757E-001;-1.383073721081018E-002;-7.272474467754364E-004;3.468562150374055E-003;
2.413166666666667E+009;1.821891665458679E-001;-1.620542630553246E-002;-9.525623172521591E-004;3.279665019363165E-003;
2.413333333333334E+009;1.830832809209824E-001;-1.857205852866173E-002;-9.099598391912878E-004;3.475010860711336E-003;
2.413500000000000E+009;1.840660125017166E-001;-2.075369283556938E-002;-8.146220934577286E-004;3.503911430016160E-003;
2.413666666666667E+009;1.853204071521759E-001;-2.314859256148338E-002;-9.729316225275397E-004;3.690090030431747E-003;
2.413833333333334E+009;1.865684390068054E-001;-2.514438703656197E-002;-8.010055753402412E-004;3.804032690823078E-003;
2.414000000000000E+009;1.876082420349121E-001;-2.713504992425442E-002;-6.581458728760481E-004;3.767951391637325E-003;
2.414166666666667E+009;1.888612955808640E-001;-2.879814431071281E-002;-6.379807600751519E-004;3.796404926106334E-003;
2.414333333333334E+009;1.899739652872086E-001;-3.083934076130390E-002;-6.106041255407035E-004;3.712147939950228E-003;
2.414500000000000E+009;1.914414912462235E-001;-3.238856792449951E-002;-5.126500618644059E-004;3.869925625622273E-003;
2.414666666666667E+009;1.926973015069962E-001;-3.382663056254387E-002;-2.821076486725360E-004;3.753165481612086E-003;
2.414833333333334E+009;1.937120407819748E-001;-3.532630577683449E-002;-2.481584670022130E-004;3.848814172670245E-003;
2.415000000000000E+009;1.949115395545960E-001;-3.662458434700966E-002;-2.110704226652160E-004;3.884903620928526E-003;
2.415166666666667E+009;1.961001008749008E-001;-3.765886649489403E-002;-1.281420700252056E-004;3.805738873779774E-003;
2.415333333333334E+009;1.971373260021210E-001;-3.860608488321304E-002;-7.384500349871814E-005;3.775541204959154E-003;
2.415500000000000E+009;1.983755826950073E-001;-3.934563696384430E-002;-3.736482540261932E-005;3.659411799162626E-003;
2.415666666666667E+009;1.995086222887039E-001;-4.018939658999443E-002;-1.994869307964109E-005;3.836431773379445E-003;
2.415833333333334E+009;2.002365589141846E-001;-4.089432209730148E-002;-7.320605072891340E-005;3.810818307101727E-003;
2.416000000000000E+009;2.011034041643143E-001;-4.138091206550598E-002;5.864872946403921E-005;3.904294688254595E-003;
2.416166666666667E+009;2.018251568078995E-001;-4.201835021376610E-002;-4.413018905324861E-005;3.885143203660846E-003;
2.416333333333334E+009;2.024602293968201E-001;-4.236760735511780E-002;1.154299752670340E-005;4.153995309025049E-003;
2.416500000000000E+009;2.030266076326370E-001;-4.254867881536484E-002;2.774916647467762E-004;4.334315191954374E-003;
2.416666666666667E+009;2.032511532306671E-001;-4.291956126689911E-002;2.777043846435845E-004;4.368837922811508E-003;
2.416833333333334E+009;2.034492939710617E-001;-4.292764142155647E-002;4.820838221348822E-004;4.430889617651701E-003;
2.417000000000000E+009;2.034714221954346E-001;-4.306662455201149E-002;5.346845136955380E-004;4.451691638678312E-003;
2.417166666666667E+009;2.032743692398071E-001;-4.300871118903160E-002;5.355600733309984E-004;4.515029955655336E-003;
2.417333333333334E+009;2.030538469552994E-001;-4.276261106133461E-002;1.006565522402525E-003;4.632120952010155E-003;
2.417500000000000E+009;2.027690261602402E-001;-4.281311482191086E-002;9.058064315468073E-004;4.676191136240959E-003;
2.417666666666667E+009;2.022031247615814E-001;-4.253758117556572E-002;1.123654772527516E-003;4.623035434633493E-003;
2.417833333333334E+009;2.016266137361527E-001;-4.234564304351807E-002;1.330356928519905E-003;4.614440724253655E-003;
2.418000000000000E+009;2.011392116546631E-001;-4.215164855122566E-002;1.552746049128473E-003;4.773061256855726E-003;
2.418166666666667E+009;2.002148479223251E-001;-4.221400246024132E-002;1.759513863362372E-003;4.568647593259811E-003;
2.418333333333334E+009;1.994048655033112E-001;-4.207518324255943E-002;1.997038722038269E-003;4.659602418541908E-003;
2.418500000000000E+009;1.982975006103516E-001;-4.200863465666771E-002;2.216340042650700E-003;4.554327111691237E-003;
2.418666666666667E+009;1.973514258861542E-001;-4.182329028844833E-002;2.242646645754576E-003;4.470597486943007E-003;
2.418833333333334E+009;1.961014717817307E-001;-4.213417321443558E-002;2.484694356098771E-003;4.466083832085133E-003;
2.419000000000000E+009;1.947182565927506E-001;-4.233368486166000E-002;2.546085976064205E-003;4.249921068549156E-003;
2.419166666666667E+009;1.933732777833939E-001;-4.267235100269318E-002;2.864544279873371E-003;4.334323573857546E-003;
2.419333333333334E+009;1.920209974050522E-001;-4.307565093040466E-002;2.920274389907718E-003;4.317299928516150E-003;
2.419500000000000E+009;1.903967410326004E-001;-4.360533505678177E-002;3.095324849709868E-003;4.220754839479923E-003;
2.419666666666667E+009;1.889638453722000E-001;-4.442580044269562E-002;3.237409284338355E-003;4.108433611690998E-003;
2.419833333333334E+009;1.872000396251679E-001;-4.503258317708969E-002;3.439893014729023E-003;3.943728283047676E-003;
2.420000000000000E+009;1.856801360845566E-001;-4.597432538866997E-002;3.487082896754146E-003;3.680429421365261E-003;
2.420166666666667E+009;1.840428262948990E-001;-4.698744043707848E-002;3.543606493622065E-003;3.783208085224032E-003;
2.420333333333334E+009;1.824394911527634E-001;-4.806735739111900E-002;3.744166810065508E-003;3.820905229076743E-003;
2.420500000000000E+009;1.806950867176056E-001;-4.955418780446053E-002;3.907403908669949E-003;3.494812874123454E-003;
2.420666666666667E+009;1.789674758911133E-001;-5.073383077979088E-002;4.030355252325535E-003;3.327447222545743E-003;
2.420833333333334E+009;1.774876713752747E-001;-5.224318057298660E-002;4.278491251170635E-003;3.167847404256463E-003;
2.421000000000000E+009;1.759577095508575E-001;-5.385635048151016E-002;4.356199875473976E-003;3.095863386988640E-003;
2.421166666666667E+009;1.744395047426224E-001;-5.549822375178337E-002;4.580800421535969E-003;2.942736493423581E-003;
2.421333333333334E+009;1.727913767099381E-001;-5.711674690246582E-002;4.605251830071211E-003;2.701758639886975E-003;
2.421500000000000E+009;1.715976744890213E-001;-5.911305919289589E-002;4.713206551969051E-003;2.361511345952749E-003;
2.421666666666667E+009;1.702022850513458E-001;-6.095269694924355E-002;4.708677995949984E-003;2.243722090497613E-003;
2.421833333333334E+009;1.691852658987045E-001;-6.280993670225143E-002;4.854460712522268E-003;1.974822720512748E-003;
2.422000000000000E+009;1.680444329977036E-001;-6.482527405023575E-002;4.906410817056894E-003;1.827188069000840E-003;
2.422166666666667E+009;1.672337651252747E-001;-6.681326776742935E-002;4.878006409853697E-003;1.476687612012029E-003;
2.422333333333334E+009;1.661907732486725E-001;-6.895824521780014E-002;4.890759009867907E-003;1.278344774618745E-003;
2.422500000000000E+009;1.655121743679047E-001;-7.100052386522293E-002;4.906640853732824E-003;1.094980048947036E-003;
2.422666666666667E+009;1.646753698587418E-001;-7.296279817819595E-002;4.744877573102713E-003;1.046945573762059E-003;
2.422833333333334E+009;1.643513739109039E-001;-7.511469721794128E-002;4.690506029874086E-003;5.824841791763902E-004;
2.423000000000000E+009;1.636424511671066E-001;-7.729476690292358E-002;4.523896612226963E-003;5.087694153189659E-004;
2.423166666666667E+009;1.634168326854706E-001;-7.923541218042374E-002;4.511108156293631E-003;2.962103171739727E-004;
2.423333333333334E+009;1.632639765739441E-001;-8.122412860393524E-002;4.490471910685301E-003;2.110502391587943E-004;
2.423500000000000E+009;1.630020439624786E-001;-8.317092806100845E-002;4.246560856699944E-003;-5.741735003539361E-005;
2.423666666666667E+009;1.631017178297043E-001;-8.489333093166351E-002;4.295305348932743E-003;-7.755784463370219E-005;
2.423833333333334E+009;1.629511415958405E-001;-8.703988045454025E-002;4.122622776776552E-003;-1.563480036566034E-004;
2.424000000000000E+009;1.631070226430893E-001;-8.862689137458801E-002;3.947229590266943E-003;-1.775403652573004E-004;
2.424166666666667E+009;1.632117480039597E-001;-9.017395973205566E-002;4.014837555587292E-003;-3.750734031200409E-004;
2.424333333333334E+009;1.633116006851196E-001;-9.189496189355850E-002;3.900181967765093E-003;-4.759705916512758E-004;
2.424500000000000E+009;1.638021469116211E-001;-9.354659914970398E-002;3.745398251339793E-003;-5.027750739827752E-004;
2.424666666666667E+009;1.640074253082275E-001;-9.488533437252045E-002;3.671461949124932E-003;-4.569909942802042E-004;
2.424833333333334E+009;1.644627302885056E-001;-9.620843827724457E-002;3.590305568650365E-003;-6.084999768063426E-004;
2.425000000000000E+009;1.648454368114471E-001;-9.743864834308624E-002;3.626870922744274E-003;-6.924415356479585E-004;
2.425166666666667E+009;1.651827991008759E-001;-9.858965873718262E-002;3.410453209653497E-003;-5.889005842618644E-004;
2.425333333333334E+009;1.654770225286484E-001;-9.943358600139618E-002;3.390448167920113E-003;-7.484492962248623E-004;
2.425500000000000E+009;1.659088283777237E-001;-1.004113107919693E-001;3.342391224578023E-003;-8.027282892726362E-004;
2.425666666666667E+009;1.663320958614349E-001;-1.009765937924385E-001;3.336180932819843E-003;-7.434816216118634E-004;
2.425833333333334E+009;1.665427386760712E-001;-1.019623950123787E-001;3.172097261995077E-003;-7.946332916617394E-004;
2.426000000000000E+009;1.669813841581345E-001;-1.023113504052162E-001;3.121541813015938E-003;-9.413981460966170E-004;
2.426166666666667E+009;1.672342717647553E-001;-1.029505878686905E-001;2.968391403555870E-003;-8.557971450500190E-004;
2.426333333333334E+009;1.674471050500870E-001;-1.033706516027451E-001;3.164713270962238E-003;-8.384092943742871E-004;
2.426500000000000E+009;1.677782833576202E-001;-1.036129668354988E-001;2.947816625237465E-003;-9.294495102949441E-004;
2.426666666666667E+009;1.679159253835678E-001;-1.037647128105164E-001;2.967487089335918E-003;-8.505187579430640E-004;
2.426833333333334E+009;1.681593507528305E-001;-1.040570065379143E-001;3.013922832906246E-003;-8.611624944023788E-004;
2.427000000000000E+009;1.681049168109894E-001;-1.042407229542732E-001;3.037029178813100E-003;-8.235180866904557E-004;
2.427166666666667E+009;1.681997925043106E-001;-1.043051481246948E-001;2.992990892380476E-003;-8.406167617067695E-004;
2.427333333333334E+009;1.680197566747665E-001;-1.044399961829186E-001;2.965194871649146E-003;-9.267254499718547E-004;
2.427500000000000E+009;1.677721887826920E-001;-1.046217605471611E-001;2.889864146709442E-003;-8.572239312343299E-004;
2.427666666666667E+009;1.673350334167481E-001;-1.045575663447380E-001;2.844298724085093E-003;-8.802369120530784E-004;
2.427833333333334E+009;1.670078337192535E-001;-1.046471223235130E-001;2.922949614003301E-003;-8.137814584188163E-004;
