# Version 1.00
#
freq[Hz];re:Trc1_S11;im:Trc1_S11;re:Trc2_S21;im:Trc2_S21;
2.400000000000000E+009;1.547384113073349E-001;1.066191196441650E-001;-1.685630646534264E-003;-3.503135405480862E-003;
2.400166666666667E+009;1.545510888099670E-001;1.042776107788086E-001;-1.779406797140837E-003;-3.705536946654320E-003;
2.400333333333334E+009;1.546819657087326E-001;1.019727215170860E-001;-1.872085500508547E-003;-3.714893013238907E-003;
2.400500000000000E+009;1.546045243740082E-001;9.918312728404999E-002;-2.074750605970621E-003;-3.884710371494293E-003;
2.400666666666667E+009;1.546310931444168E-001;9.678617119789124E-002;-2.270460827276111E-003;-3.943232819437981E-003;
2.400833333333334E+009;1.546659171581268E-001;9.388472884893417E-002;-2.282831352204084E-003;-4.015027079731226E-003;
2.401000000000000E+009;1.548883020877838E-001;9.106457233428955E-002;-2.747954335063696E-003;-4.022170789539814E-003;
2.401166666666667E+009;1.549593210220337E-001;8.830068260431290E-002;-2.885647816583514E-003;-4.149654880166054E-003;
2.401333333333334E+009;1.553603410720825E-001;8.543457090854645E-002;-3.107807366177440E-003;-4.115855321288109E-003;
2.401500000000000E+009;1.558412313461304E-001;8.254177868366242E-002;-3.436036640778184E-003;-4.105053842067719E-003;
2.401666666666667E+009;1.562149822711945E-001;7.979559153318405E-002;-3.784401575103402E-003;-4.042768385261297E-003;
2.401833333333334E+009;1.567858010530472E-001;7.710587233304977E-002;-3.954054322093725E-003;-3.989527933299542E-003;
2.402000000000000E+009;1.576043963432312E-001;7.410120964050293E-002;-4.202439915388823E-003;-3.845840925350785E-003;
2.402166666666667E+009;1.583928912878037E-001;7.158124446868897E-002;-4.259753506630659E-003;-3.694901708513498E-003;
2.402333333333334E+009;1.594089865684509E-001;6.889273971319199E-002;-4.593940451741219E-003;-3.643081523478031E-003;
2.402500000000000E+009;1.605610102415085E-001;6.652066856622696E-002;-4.687451757490635E-003;-3.428507596254349E-003;
2.402666666666667E+009;1.617500185966492E-001;6.412718445062637E-002;-4.931654315441847E-003;-3.293682122603059E-003;
2.402833333333334E+009;1.630827784538269E-001;6.163737922906876E-002;-5.134728737175465E-003;-2.942899009212852E-003;
2.403000000000000E+009;1.645753383636475E-001;5.940555781126022E-002;-5.392669700086117E-003;-2.961001591756940E-003;
2.403166666666667E+009;1.663042455911636E-001;5.712337419390678E-002;-5.516947247087956E-003;-2.521478570997715E-003;
2.403333333333334E+009;1.677558124065399E-001;5.486565083265305E-002;-5.656945053488016E-003;-2.377176657319069E-003;
2.403500000000000E+009;1.695442944765091E-001;5.292342230677605E-002;-5.808653775602579E-003;-2.048150170594454E-003;
2.403666666666667E+009;1.713109165430069E-001;5.102418735623360E-002;-5.624910816550255E-003;-1.747221453115344E-003;
2.403833333333334E+009;1.729532033205032E-001;4.901950061321259E-002;-5.647260230034590E-003;-1.655976986512542E-003;
2.404000000000000E+009;1.744251251220703E-001;4.728940501809120E-002;-5.752724129706621E-003;-1.394475111737847E-003;
2.404166666666667E+009;1.764350533485413E-001;4.583866894245148E-002;-5.913651548326016E-003;-1.316502923145890E-003;
2.404333333333334E+009;1.780058592557907E-001;4.407129436731339E-002;-5.868183448910713E-003;-7.543044048361480E-004;
2.404500000000000E+009;1.794975250959396E-001;4.279934614896774E-002;-5.753582809120417E-003;-7.737548439763486E-004;
2.404666666666667E+009;1.813210844993591E-001;4.172784090042114E-002;-5.777324549853802E-003;-5.269440589472652E-004;
2.404833333333334E+009;1.830308139324188E-001;4.066661000251770E-002;-5.821533966809511E-003;-4.179777752142400E-004;
2.405000000000000E+009;1.842488497495651E-001;3.988576307892799E-002;-6.026899442076683E-003;-2.122036967193708E-004;
2.405166666666667E+009;1.857479363679886E-001;3.907672315835953E-002;-5.861446261405945E-003;-6.479492731159553E-005;
2.405333333333334E+009;1.872409284114838E-001;3.857471421360970E-002;-5.785850808024406E-003;8.269988757092506E-005;
2.405500000000000E+009;1.886057704687119E-001;3.804972395300865E-002;-5.993026308715344E-003;2.949208719655871E-004;
2.405666666666667E+009;1.898165643215179E-001;3.786823153495789E-002;-5.934725049883127E-003;6.361707928590477E-004;
2.405833333333334E+009;1.911423206329346E-001;3.747721388936043E-002;-6.030077580362558E-003;8.649803930893540E-004;
2.406000000000000E+009;1.921007186174393E-001;3.734146803617477E-002;-5.919841583818197E-003;9.427990298718214E-004;
2.406166666666667E+009;1.929619461297989E-001;3.711628913879395E-002;-5.876869428902865E-003;1.180140650831163E-003;
2.406333333333334E+009;1.939519494771957E-001;3.729570657014847E-002;-5.884784273803234E-003;1.633666921406984E-003;
2.406500000000000E+009;1.946525275707245E-001;3.718252480030060E-002;-5.696744658052921E-003;1.716819708235562E-003;
2.406666666666667E+009;1.952221542596817E-001;3.728118911385536E-002;-5.632383283227682E-003;2.051446354016662E-003;
2.406833333333334E+009;1.958191692829132E-001;3.723564371466637E-002;-5.596672650426626E-003;2.270358148962259E-003;
2.407000000000000E+009;1.960804313421249E-001;3.752273693680763E-002;-5.420582834631205E-003;2.406034152954817E-003;
2.407166666666667E+009;1.964766830205917E-001;3.728509321808815E-002;-5.208490416407585E-003;2.542146248742938E-003;
2.407333333333334E+009;1.962890625000000E-001;3.754328191280365E-002;-5.088754463940859E-003;2.829859266057611E-003;
2.407500000000000E+009;1.962851583957672E-001;3.770746290683746E-002;-4.702355246990919E-003;3.156502498313785E-003;
2.407666666666667E+009;1.963849663734436E-001;3.763863816857338E-002;-4.806174430996180E-003;3.079858142882586E-003;
2.407833333333334E+009;1.957588493824005E-001;3.745728731155396E-002;-4.552342463284731E-003;3.275560913607478E-003;
2.408000000000000E+009;1.957228779792786E-001;3.721900284290314E-002;-4.499317146837711E-003;3.286754712462425E-003;
2.408166666666667E+009;1.950403749942780E-001;3.695375844836235E-002;-4.359201528131962E-003;3.561918390914798E-003;
2.408333333333334E+009;1.946441680192947E-001;3.647572919726372E-002;-4.183057229965925E-003;3.623965429142118E-003;
2.408500000000000E+009;1.938418149948120E-001;3.614442050457001E-002;-3.912185784429312E-003;3.551641013473272E-003;
2.408666666666667E+009;1.932956874370575E-001;3.570913523435593E-002;-3.748060204088688E-003;3.778116311877966E-003;
2.408833333333334E+009;1.924745738506317E-001;3.487494960427284E-002;-3.675140207633376E-003;3.714487655088306E-003;
2.409000000000000E+009;1.915571838617325E-001;3.398962691426277E-002;-3.547715954482555E-003;3.873179899528623E-003;
2.409166666666667E+009;1.905700117349625E-001;3.309578076004982E-002;-3.359654219821096E-003;3.877840470522642E-003;
2.409333333333334E+009;1.894998401403427E-001;3.198070451617241E-002;-3.043847158551216E-003;3.817992983385921E-003;
2.409500000000000E+009;1.883257776498795E-001;3.071339055895805E-002;-2.963969716802239E-003;3.926483448594809E-003;
2.409666666666667E+009;1.873835623264313E-001;2.931638434529305E-002;-2.991412999108434E-003;3.879478666931391E-003;
2.409833333333334E+009;1.863429695367813E-001;2.793560363352299E-002;-2.512991428375244E-003;3.844886552542448E-003;
2.410000000000000E+009;1.853091567754746E-001;2.627060748636723E-002;-2.593271667137742E-003;3.872388973832130E-003;
2.410166666666667E+009;1.842785924673080E-001;2.443278394639492E-002;-2.522264607250691E-003;3.861639648675919E-003;
2.410333333333334E+009;1.832784116268158E-001;2.257543429732323E-002;-2.294928301125765E-003;3.836688585579395E-003;
2.410500000000000E+009;1.823023706674576E-001;2.080893330276012E-002;-2.387470798566937E-003;3.865442005917430E-003;
2.410666666666667E+009;1.814038157463074E-001;1.843444630503655E-002;-2.129994332790375E-003;3.886131569743156E-003;
2.410833333333334E+009;1.807940006256104E-001;1.628239080309868E-002;-2.048879629001021E-003;4.014472942799330E-003;
2.411000000000000E+009;1.800900697708130E-001;1.412443816661835E-002;-1.894232118502259E-003;3.940995316952467E-003;
2.411166666666667E+009;1.793458163738251E-001;1.189714949578047E-002;-1.713205245323479E-003;3.909549675881863E-003;
2.411333333333334E+009;1.787429600954056E-001;9.260388091206551E-003;-1.743669738061726E-003;3.895305795595050E-003;
2.411500000000000E+009;1.782288849353790E-001;6.928044371306896E-003;-1.534096780233085E-003;3.784253029152751E-003;
2.411666666666667E+009;1.782306283712387E-001;4.610029049217701E-003;-1.573304645717144E-003;3.847260959446430E-003;
2.411833333333334E+009;1.776866912841797E-001;2.246879041194916E-003;-1.495193457230926E-003;3.798788180574775E-003;
2.412000000000000E+009;1.780238598585129E-001;-2.258170716231689E-004;-1.335144275799394E-003;3.630132647231221E-003;
2.412166666666667E+009;1.779518425464630E-001;-2.524047158658505E-003;-1.371610793285072E-003;3.605958539992571E-003;
2.412333333333334E+009;1.783098280429840E-001;-5.176636390388012E-003;-1.298022922128439E-003;3.510748501867056E-003;
2.412500000000000E+009;1.787196844816208E-001;-7.630335632711649E-003;-1.258570118807256E-003;3.573501715436578E-003;
2.412666666666667E+009;1.792790889739990E-001;-1.018435042351484E-002;-1.126702642068267E-003;3.504842519760132E-003;
2.412833333333334E+009;1.798915565013886E-001;-1.246271561831236E-002;-1.264403341338038E-003;3.485600696876645E-003;
2.413000000000000E+009;1.807265430688858E-001;-1.479017827659845E-002;-1.235187286511064E-003;3.408914199098945E-003;
2.413166666666667E+009;1.813739240169525E-001;-1.699087768793106E-002;-1.405850751325488E-003;3.479955019429326E-003;
2.413333333333334E+009;1.825112402439117E-001;-1.927287504076958E-002;-1.245042192749679E-003;3.546621417626739E-003;
2.413500000000000E+009;1.833271533250809E-001;-2.162435464560986E-002;-1.326044322922826E-003;3.633172949776053E-003;
2.413666666666667E+009;1.845886111259460E-001;-2.374553680419922E-002;-1.277149654924870E-003;3.709909506142139E-003;
2.413833333333334E+009;1.856763958930969E-001;-2.575572393834591E-002;-1.064179814420641E-003;3.786090295761824E-003;
2.414000000000000E+009;1.867959648370743E-001;-2.781753055751324E-002;-1.149065443314612E-003;3.846732201054692E-003;
2.414166666666667E+009;1.880179047584534E-001;-2.949875220656395E-002;-9.762842673808336E-004;3.855431918054819E-003;
2.414333333333334E+009;1.892101168632507E-001;-3.142997995018959E-002;-1.044202945195139E-003;3.888527164235711E-003;
2.414500000000000E+009;1.904373317956924E-001;-3.295262157917023E-002;-7.661394774913788E-004;4.040723666548729E-003;
2.414666666666667E+009;1.916927695274353E-001;-3.433540835976601E-002;-7.145794807001948E-004;4.046204499900341E-003;
2.414833333333334E+009;1.927622854709625E-001;-3.575454279780388E-002;-6.944817141629756E-004;4.095781594514847E-003;
2.415000000000000E+009;1.939877569675446E-001;-3.709523752331734E-002;-6.833567749708891E-004;3.943316172808409E-003;
2.415166666666667E+009;1.952348053455353E-001;-3.802578896284103E-002;-6.026445189490914E-004;4.034977871924639E-003;
2.415333333333334E+009;1.963236182928085E-001;-3.908733651041985E-002;-5.157020059414208E-004;4.057450685650110E-003;
2.415500000000000E+009;1.976042985916138E-001;-3.968557342886925E-002;-4.852964193560183E-004;4.201508592814207E-003;
2.415666666666667E+009;1.985608488321304E-001;-4.053592309355736E-002;-3.993485588580370E-004;4.269313067197800E-003;
2.415833333333334E+009;1.995136290788651E-001;-4.106337204575539E-002;-3.085088683292270E-004;4.288247320801020E-003;
2.416000000000000E+009;2.002629935741425E-001;-4.167147725820541E-002;-3.357417008373886E-004;4.456512164324522E-003;
2.416166666666667E+009;2.008274346590042E-001;-4.211068153381348E-002;-1.827096421038732E-004;4.434491973370314E-003;
2.416333333333334E+009;2.015767842531204E-001;-4.243759065866470E-002;-1.664895244175568E-004;4.679589532315731E-003;
2.416500000000000E+009;2.020552605390549E-001;-4.256424680352211E-002;-5.613731991616078E-005;4.597688093781471E-003;
2.416666666666667E+009;2.023918330669403E-001;-4.287396371364594E-002;1.135927377617918E-004;4.828577861189842E-003;
2.416833333333334E+009;2.024825811386108E-001;-4.295055195689201E-002;4.282158624846488E-004;4.914353135973215E-003;
2.417000000000000E+009;2.027305811643601E-001;-4.308814555406570E-002;4.944224492646754E-004;4.913807846605778E-003;
2.417166666666667E+009;2.023742496967316E-001;-4.294062778353691E-002;6.533738342113793E-004;5.057979375123978E-003;
2.417333333333334E+009;2.022438347339630E-001;-4.272204264998436E-002;9.253199095837772E-004;5.069363396614790E-003;
2.417500000000000E+009;2.018489688634872E-001;-4.274920001626015E-002;1.106821815483272E-003;5.123288370668888E-003;
2.417666666666667E+009;2.013215422630310E-001;-4.252317547798157E-002;1.321877585723996E-003;5.065625533461571E-003;
2.417833333333334E+009;2.009867876768112E-001;-4.232260212302208E-002;1.492704730480909E-003;5.139633547514677E-003;
2.418000000000000E+009;2.003618776798248E-001;-4.206194728612900E-002;1.669286401011050E-003;5.092022009193897E-003;
2.418166666666667E+009;1.995604187250137E-001;-4.194697365164757E-002;1.922278432175517E-003;5.182697437703610E-003;
2.418333333333334E+009;1.984859406948090E-001;-4.180793836712837E-002;1.981428824365139E-003;4.937506280839443E-003;
2.418500000000000E+009;1.975180506706238E-001;-4.186291247606278E-002;2.377239754423499E-003;5.138758569955826E-003;
2.418666666666667E+009;1.964361816644669E-001;-4.165802896022797E-002;2.463361714035273E-003;4.960168618708849E-003;
2.418833333333334E+009;1.954029798507690E-001;-4.196597263216972E-002;2.666072221472859E-003;4.744882229715586E-003;
2.419000000000000E+009;1.939795315265656E-001;-4.202075675129890E-002;2.892398741096258E-003;4.727315623313189E-003;
2.419166666666667E+009;1.927757561206818E-001;-4.229817911982536E-002;3.070482518523932E-003;4.649074282497168E-003;
2.419333333333334E+009;1.912205815315247E-001;-4.289657250046730E-002;3.194051794707775E-003;4.548324272036552E-003;
2.419500000000000E+009;1.897745430469513E-001;-4.338957741856575E-002;3.397580003365874E-003;4.452984780073166E-003;
2.419666666666667E+009;1.881631910800934E-001;-4.401155933737755E-002;3.573313588276506E-003;4.289816133677959E-003;
2.419833333333334E+009;1.866892725229263E-001;-4.486996307969093E-002;3.665709402412176E-003;4.314166028052568E-003;
2.420000000000000E+009;1.849985569715500E-001;-4.560030251741409E-002;3.825589083135128E-003;4.159948788583279E-003;
2.420166666666667E+009;1.834313571453095E-001;-4.664073511958122E-002;3.908116836100817E-003;4.050780553370714E-003;
2.420333333333334E+009;1.817269474267960E-001;-4.775663092732430E-002;4.084499552845955E-003;3.846798092126846E-003;
2.420500000000000E+009;1.800054758787155E-001;-4.906642064452171E-002;4.285834729671478E-003;3.717418294399977E-003;
2.420666666666667E+009;1.785267442464829E-001;-5.035026371479034E-002;4.541730973869562E-003;3.731570439413190E-003;
2.420833333333334E+009;1.769652962684631E-001;-5.197560787200928E-002;4.648336675018072E-003;3.345023375004530E-003;
2.421000000000000E+009;1.754964441061020E-001;-5.333824455738068E-002;4.823779221624136E-003;3.252365859225392E-003;
2.421166666666667E+009;1.739015579223633E-001;-5.533499270677567E-002;4.787972662597895E-003;3.077710047364235E-003;
2.421333333333334E+009;1.723510622978210E-001;-5.675821751356125E-002;4.946725908666849E-003;2.823327668011189E-003;
2.421500000000000E+009;1.710955351591110E-001;-5.870234966278076E-002;5.066766869276762E-003;2.635795157402754E-003;
2.421666666666667E+009;1.697868257761002E-001;-6.060294806957245E-002;5.286419764161110E-003;2.316777827218175E-003;
2.421833333333334E+009;1.685985773801804E-001;-6.254298985004425E-002;5.245829932391644E-003;2.080917358398438E-003;
2.422000000000000E+009;1.674537509679794E-001;-6.447381526231766E-002;5.222938954830170E-003;1.826272113248706E-003;
2.422166666666667E+009;1.665436178445816E-001;-6.656453013420105E-002;5.278762895613909E-003;1.450298121199012E-003;
2.422333333333334E+009;1.656977385282517E-001;-6.865546852350235E-002;5.322073120623827E-003;1.394790131598711E-003;
2.422500000000000E+009;1.648493111133575E-001;-7.058263570070267E-002;5.323262419551611E-003;9.871918009594083E-004;
2.422666666666667E+009;1.641024351119995E-001;-7.270659506320953E-002;5.211025010794401E-003;7.442654459737241E-004;
2.422833333333334E+009;1.635729223489761E-001;-7.462715357542038E-002;5.206904374063015E-003;4.003442882094532E-004;
2.423000000000000E+009;1.631616503000259E-001;-7.685481011867523E-002;5.070094019174576E-003;2.967483887914568E-004;
2.423166666666667E+009;1.626781970262528E-001;-7.872638851404190E-002;4.954160656780005E-003;1.063762101694010E-004;
2.423333333333334E+009;1.625578105449677E-001;-8.089441806077957E-002;4.954861477017403E-003;-1.228659239131957E-004;
2.423500000000000E+009;1.623852849006653E-001;-8.262353390455246E-002;4.647482186555862E-003;-1.832126727094874E-004;
2.423666666666667E+009;1.625578254461289E-001;-8.461146801710129E-002;4.528165794909000E-003;-5.122080328874290E-004;
2.423833333333334E+009;1.624334454536438E-001;-8.624447882175446E-002;4.527372773736715E-003;-4.918702179566026E-004;
2.424000000000000E+009;1.626198589801788E-001;-8.805134892463684E-002;4.368135705590248E-003;-5.595399416051805E-004;
2.424166666666667E+009;1.625243127346039E-001;-8.955370634794235E-002;4.077340941876173E-003;-7.017340976744890E-004;
2.424333333333334E+009;1.628740876913071E-001;-9.108711779117584E-002;4.071532748639584E-003;-8.440359961241484E-004;
2.424500000000000E+009;1.633253544569016E-001;-9.294675290584564E-002;4.082985222339630E-003;-8.438543882220984E-004;
2.424666666666667E+009;1.635637283325195E-001;-9.435983002185822E-002;3.921582829207182E-003;-1.015194808132947E-003;
2.424833333333334E+009;1.641188859939575E-001;-9.552381932735443E-002;3.922319505363703E-003;-1.098643522709608E-003;
2.425000000000000E+009;1.644874364137650E-001;-9.661475569009781E-002;3.743367036804557E-003;-9.130314574576914E-004;
2.425166666666667E+009;1.647109985351563E-001;-9.779343754053116E-002;3.601416945457459E-003;-1.048272824846208E-003;
2.425333333333334E+009;1.651043742895126E-001;-9.870001673698425E-002;3.281015437096357E-003;-1.151804346591234E-003;
2.425500000000000E+009;1.655364334583283E-001;-9.961292147636414E-002;3.302771132439375E-003;-1.181794330477715E-003;
2.425666666666667E+009;1.659780591726303E-001;-1.002473831176758E-001;3.216959303244948E-003;-1.196250552311540E-003;
2.425833333333334E+009;1.662849038839340E-001;-1.011148840188980E-001;3.103761933743954E-003;-1.198472687974572E-003;
2.426000000000000E+009;1.667362451553345E-001;-1.015222892165184E-001;3.008260624483228E-003;-1.269178465008736E-003;
2.426166666666667E+009;1.671702414751053E-001;-1.019777432084084E-001;2.993373665958643E-003;-1.216811127960682E-003;
2.426333333333334E+009;1.673557162284851E-001;-1.024684384465218E-001;2.932189498096705E-003;-1.277554314583540E-003;
2.426500000000000E+009;1.677360832691193E-001;-1.025742366909981E-001;2.945134183391929E-003;-1.208152505569160E-003;
2.426666666666667E+009;1.678931713104248E-001;-1.028906852006912E-001;2.717529423534870E-003;-1.191434799693525E-003;
2.426833333333334E+009;1.680488586425781E-001;-1.032309755682945E-001;2.876924816519022E-003;-1.164102577604353E-003;
2.427000000000000E+009;1.682151854038239E-001;-1.032964661717415E-001;2.737983595579863E-003;-1.219597063027322E-003;
2.427166666666667E+009;1.681782901287079E-001;-1.033639684319496E-001;2.683586440980434E-003;-1.217942452058196E-003;
2.427333333333334E+009;1.680903881788254E-001;-1.035488545894623E-001;2.768570091575384E-003;-1.083498122170568E-003;
2.427500000000000E+009;1.678770929574966E-001;-1.037717834115028E-001;2.719823736697435E-003;-1.026941230520606E-003;
2.427666666666667E+009;1.676322519779205E-001;-1.037002801895142E-001;2.771856496110559E-003;-1.089909928850830E-003;
2.427833333333334E+009;1.671589314937592E-001;-1.038355454802513E-001;2.740122377872467E-003;-1.037321984767914E-003;
