# Version 1.00
#
freq[Hz];re:Trc1_S11;im:Trc1_S11;re:Trc2_S21;im:Trc2_S21;
2.400000000000000E+009;1.551676094532013E-001;1.063675209879875E-001;9.482513996772468E-004;-1.800229074433446E-003;
2.400166666666667E+009;1.549403071403503E-001;1.039267331361771E-001;8.757986361160874E-004;-1.906306599266827E-003;
2.400333333333334E+009;1.548040658235550E-001;1.015999764204025E-001;7.550091249868274E-004;-1.877485774457455E-003;
2.400500000000000E+009;1.547373831272125E-001;9.886504709720612E-002;5.873911431990564E-004;-1.862945151515305E-003;
2.400666666666667E+009;1.548083126544952E-001;9.643814712762833E-002;4.903273074887693E-004;-2.188728656619787E-003;
2.400833333333334E+009;1.547898799180985E-001;9.345985949039459E-002;3.143032372463495E-004;-2.154452493414283E-003;
2.401000000000000E+009;1.550111919641495E-001;9.054274857044220E-002;3.412361838854849E-004;-2.180768875405192E-003;
2.401166666666667E+009;1.548050791025162E-001;8.787868171930313E-002;5.366501136450097E-005;-2.133251400664449E-003;
2.401333333333334E+009;1.550905108451843E-001;8.489684015512466E-002;-1.040429197018966E-004;-2.407927997410297E-003;
2.401500000000000E+009;1.555742323398590E-001;8.207890391349793E-002;-2.973024675156921E-004;-2.187191275879741E-003;
2.401666666666667E+009;1.557741463184357E-001;7.921572029590607E-002;-4.603745474014431E-004;-2.131327753886581E-003;
2.401833333333334E+009;1.561886817216873E-001;7.661528885364533E-002;-6.858243723399937E-004;-2.234274521470070E-003;
2.402000000000000E+009;1.572422981262207E-001;7.393222302198410E-002;-9.278760990127921E-004;-2.179766306653619E-003;
2.402166666666667E+009;1.579459011554718E-001;7.112945616245270E-002;-1.154302270151675E-003;-2.031098818406463E-003;
2.402333333333334E+009;1.588450223207474E-001;6.857552379369736E-002;-1.229472924023867E-003;-1.968318829312921E-003;
2.402500000000000E+009;1.600035578012466E-001;6.605514138936997E-002;-1.295874128118157E-003;-1.865010941401124E-003;
2.402666666666667E+009;1.610259711742401E-001;6.381665915250778E-002;-1.468071714043617E-003;-1.744441920891404E-003;
2.402833333333334E+009;1.625390201807022E-001;6.139599159359932E-002;-1.595375593751669E-003;-1.303170109167695E-003;
2.403000000000000E+009;1.638451814651489E-001;5.908096954226494E-002;-1.726459944620729E-003;-1.397217507474124E-003;
2.403166666666667E+009;1.656240671873093E-001;5.694328993558884E-002;-1.633630599826574E-003;-1.202294835820794E-003;
2.403333333333334E+009;1.667760908603668E-001;5.462540313601494E-002;-1.772939809598029E-003;-8.309315890073776E-004;
2.403500000000000E+009;1.687166988849640E-001;5.274476110935211E-002;-1.762712490744889E-003;-7.120189839042723E-004;
2.403666666666667E+009;1.705835163593292E-001;5.079195275902748E-002;-1.554842921905220E-003;-4.206205485388637E-004;
2.403833333333334E+009;1.721229553222656E-001;4.892425984144211E-002;-1.522788428701460E-003;-3.215058823116124E-004;
2.404000000000000E+009;1.736793220043182E-001;4.726254567503929E-002;-1.454545650631189E-003;-9.445592877455056E-005;
2.404166666666667E+009;1.755379438400269E-001;4.567186534404755E-002;-1.263711717911065E-003;-1.057238332577981E-004;
2.404333333333334E+009;1.771461963653565E-001;4.408291354775429E-002;-1.183332526125014E-003;-7.702717994106934E-005;
2.404500000000000E+009;1.789079457521439E-001;4.286098480224609E-002;-8.368204580619931E-004;-1.241890422534198E-004;
2.404666666666667E+009;1.805259883403778E-001;4.170323908329010E-002;-9.876638650894165E-004;-1.175488941953518E-004;
2.404833333333334E+009;1.822263598442078E-001;4.062463715672493E-002;-9.608358959667385E-004;-2.443031698931009E-004;
2.405000000000000E+009;1.834864616394043E-001;4.003604874014854E-002;-8.235242567025125E-004;-2.609771909192205E-004;
2.405166666666667E+009;1.850243359804153E-001;3.929494693875313E-002;-8.310644770972431E-004;-1.805172942113131E-004;
2.405333333333334E+009;1.865631043910980E-001;3.886190056800842E-002;-7.929833373054862E-004;-2.515305241104215E-004;
2.405500000000000E+009;1.878408193588257E-001;3.834847360849381E-002;-9.022481972351670E-004;-2.250064571853727E-004;
2.405666666666667E+009;1.891098022460938E-001;3.791269287467003E-002;-8.253263076767325E-004;-1.163948909379542E-004;
2.405833333333334E+009;1.903297752141953E-001;3.773988410830498E-002;-7.204512949101627E-004;-1.213374052895233E-004;
2.406000000000000E+009;1.913903653621674E-001;3.767150640487671E-002;-7.985150441527367E-004;-1.438138715457171E-004;
2.406166666666667E+009;1.925503313541412E-001;3.747310489416122E-002;-8.860731031745672E-004;-8.938003884395585E-005;
2.406333333333334E+009;1.933665424585342E-001;3.759403899312019E-002;-7.304371683858335E-004;-3.446381742833182E-005;
2.406500000000000E+009;1.940322369337082E-001;3.753606230020523E-002;-5.950773484073579E-004;2.314477387699299E-005;
2.406666666666667E+009;1.947414278984070E-001;3.756593540310860E-002;-7.380516617558897E-004;-3.276701681897976E-005;
2.406833333333334E+009;1.952986866235733E-001;3.766896948218346E-002;-6.364033906720579E-004;5.322541619534604E-005;
2.407000000000000E+009;1.955518573522568E-001;3.787634149193764E-002;-6.650172872468829E-004;1.148242299677804E-004;
2.407166666666667E+009;1.960256993770599E-001;3.785000368952751E-002;-4.582917317748070E-004;7.470331183867529E-005;
2.407333333333334E+009;1.958884894847870E-001;3.803526982665062E-002;-4.876952443737537E-004;4.468471161089838E-006;
2.407500000000000E+009;1.958449631929398E-001;3.815301880240440E-002;-2.764245145954192E-004;-4.030347554362379E-005;
2.407666666666667E+009;1.959117352962494E-001;3.807095438241959E-002;-2.996332186739892E-004;-2.983894592034631E-005;
2.407833333333334E+009;1.953424066305161E-001;3.804510831832886E-002;-1.085174735635519E-004;-8.239120506914333E-005;
2.408000000000000E+009;1.954123079776764E-001;3.787918388843536E-002;-2.487248275429010E-004;-1.506923581473529E-004;
2.408166666666667E+009;1.949275583028793E-001;3.770764917135239E-002;-3.245869593229145E-004;-3.428605559747666E-004;
2.408333333333334E+009;1.943988800048828E-001;3.725328668951988E-002;-2.606330090202391E-004;-3.522291372064501E-004;
2.408500000000000E+009;1.936966627836227E-001;3.688044846057892E-002;-2.323265507584438E-004;-3.957621229346842E-004;
2.408666666666667E+009;1.930989623069763E-001;3.634042292833328E-002;-9.147360105998814E-005;-4.866780072916299E-004;
2.408833333333334E+009;1.923743635416031E-001;3.563077747821808E-002;-3.194203309249133E-004;-5.507129826582968E-004;
2.409000000000000E+009;1.914806663990021E-001;3.465539216995239E-002;-3.905106859747320E-004;-7.235213997773826E-004;
2.409166666666667E+009;1.906212419271469E-001;3.384540230035782E-002;-4.363323678262532E-004;-7.416447042487562E-004;
2.409333333333334E+009;1.896933019161224E-001;3.276775404810906E-002;-5.817504716105759E-004;-7.778113940730691E-004;
2.409500000000000E+009;1.885042786598206E-001;3.135495260357857E-002;-4.650131158996373E-004;-7.571912137791514E-004;
2.409666666666667E+009;1.876243799924851E-001;3.002993017435074E-002;-6.569419638253748E-004;-6.561443442478776E-004;
2.409833333333334E+009;1.864124238491058E-001;2.855716273188591E-002;-7.312404341064394E-004;-7.590433233417571E-004;
2.410000000000000E+009;1.854655593633652E-001;2.695973031222820E-002;-7.309577194973826E-004;-6.864273454993963E-004;
2.410166666666667E+009;1.845071464776993E-001;2.510599605739117E-002;-8.776325848884881E-004;-6.066694622859359E-004;
2.410333333333334E+009;1.833441555500031E-001;2.318086475133896E-002;-8.336058817803860E-004;-6.662999512627721E-004;
2.410500000000000E+009;1.823229640722275E-001;2.114935778081417E-002;-7.790090166963637E-004;-5.839632358402014E-004;
2.410666666666667E+009;1.815547943115234E-001;1.906022615730763E-002;-8.208998478949070E-004;-6.600496708415449E-004;
2.410833333333334E+009;1.808338910341263E-001;1.685114763677120E-002;-8.314169826917350E-004;-6.056235288269818E-004;
2.411000000000000E+009;1.801965832710266E-001;1.472202315926552E-002;-9.038295247592032E-004;-5.131530924700201E-004;
2.411166666666667E+009;1.793719828128815E-001;1.238980609923601E-002;-8.714016294106841E-004;-6.237048655748367E-004;
2.411333333333334E+009;1.788364797830582E-001;9.899668395519257E-003;-9.243750828318298E-004;-5.354203749448061E-004;
2.411500000000000E+009;1.783172339200974E-001;7.484784815460444E-003;-1.038277288898826E-003;-5.888175801374018E-004;
2.411666666666667E+009;1.783605664968491E-001;5.190601572394371E-003;-1.115856342948973E-003;-6.617762264795601E-004;
2.411833333333334E+009;1.778506487607956E-001;2.783715724945068E-003;-9.820321574807167E-004;-7.027668762020767E-004;
2.412000000000000E+009;1.780829280614853E-001;1.810209505492821E-004;-1.215897034853697E-003;-6.453007226809859E-004;
2.412166666666667E+009;1.782183498144150E-001;-2.079211873933673E-003;-1.328345155343413E-003;-7.001177873462439E-004;
2.412333333333334E+009;1.784498542547226E-001;-4.609342198818922E-003;-1.439872081391513E-003;-6.032122764736414E-004;
2.412500000000000E+009;1.790362894535065E-001;-7.148066069930792E-003;-1.622522366233170E-003;-6.257368368096650E-004;
2.412666666666667E+009;1.793490797281265E-001;-9.520033374428749E-003;-1.609306666068733E-003;-4.414419527165592E-004;
2.412833333333334E+009;1.801763921976090E-001;-1.197388488799334E-002;-1.596189453266561E-003;-4.436799208633602E-004;
2.413000000000000E+009;1.810125410556793E-001;-1.419487129896879E-002;-1.814314397051930E-003;-2.539927954785526E-004;
2.413166666666667E+009;1.818218529224396E-001;-1.674353703856468E-002;-1.907563069835305E-003;-2.422851248411462E-004;
2.413333333333334E+009;1.826397031545639E-001;-1.905841380357742E-002;-1.794456737115979E-003;-7.259287667693570E-005;
2.413500000000000E+009;1.835573613643646E-001;-2.133607864379883E-002;-2.022969769313932E-003;9.555068390909582E-005;
2.413666666666667E+009;1.849023550748825E-001;-2.340207248926163E-002;-1.970891375094652E-003;5.203771797823720E-005;
2.413833333333334E+009;1.859398931264877E-001;-2.544569224119186E-002;-2.141382312402129E-003;3.138911852147430E-004;
2.414000000000000E+009;1.871196180582047E-001;-2.738406509160996E-002;-1.871545333415270E-003;4.528931458480656E-004;
2.414166666666667E+009;1.883940547704697E-001;-2.920690737664700E-002;-1.885080710053444E-003;4.452891298569739E-004;
2.414333333333334E+009;1.895381212234497E-001;-3.118256293237209E-002;-1.876634312793613E-003;5.420496454462409E-004;
2.414500000000000E+009;1.908345520496368E-001;-3.253769874572754E-002;-1.710961456410587E-003;6.719302618876100E-004;
2.414666666666667E+009;1.918267756700516E-001;-3.414515033364296E-002;-1.766524277627468E-003;7.055199821479619E-004;
2.414833333333334E+009;1.932521015405655E-001;-3.554259985685349E-002;-1.690915203653276E-003;6.864118040539324E-004;
2.415000000000000E+009;1.942487210035324E-001;-3.675450757145882E-002;-1.803118851967156E-003;8.527511381544173E-004;
2.415166666666667E+009;1.955454498529434E-001;-3.787403926253319E-002;-1.691661775112152E-003;6.788159371353686E-004;
2.415333333333334E+009;1.968144327402115E-001;-3.872596472501755E-002;-1.640994218178093E-003;8.531839121133089E-004;
2.415500000000000E+009;1.978818327188492E-001;-3.958545997738838E-002;-1.539524761028588E-003;8.930960320867598E-004;
2.415666666666667E+009;1.989805400371552E-001;-4.046499729156494E-002;-1.658103661611676E-003;1.157333143055439E-003;
2.415833333333334E+009;1.997764110565186E-001;-4.113237559795380E-002;-1.659741858020425E-003;1.319224480539560E-003;
2.416000000000000E+009;2.004667669534683E-001;-4.160233959555626E-002;-1.751088071614504E-003;1.281182630918920E-003;
2.416166666666667E+009;2.013414651155472E-001;-4.213537648320198E-002;-1.498514669947326E-003;1.526908366940916E-003;
2.416333333333334E+009;2.020525932312012E-001;-4.237321391701698E-002;-1.580804702825844E-003;1.521040336228907E-003;
2.416500000000000E+009;2.024977058172226E-001;-4.272874072194099E-002;-1.385728013701737E-003;1.671370468102396E-003;
2.416666666666667E+009;2.027822136878967E-001;-4.290809854865074E-002;-1.396800857037306E-003;1.793649164028466E-003;
2.416833333333334E+009;2.028905451297760E-001;-4.297119751572609E-002;-1.145708374679089E-003;1.882738550193608E-003;
2.417000000000000E+009;2.030488997697830E-001;-4.305985197424889E-002;-1.098687760531902E-003;1.901625422760844E-003;
2.417166666666667E+009;2.027703374624252E-001;-4.292371869087219E-002;-9.010458015836775E-004;2.003022702410817E-003;
2.417333333333334E+009;2.025385200977325E-001;-4.281898587942123E-002;-7.847738452255726E-004;1.865750993601978E-003;
2.417500000000000E+009;2.022461295127869E-001;-4.275896772742271E-002;-6.570831174030900E-004;2.144657773897052E-003;
2.417666666666667E+009;2.017528563737869E-001;-4.249157384037972E-002;-4.569358425214887E-004;2.078044693917036E-003;
2.417833333333334E+009;2.013976424932480E-001;-4.242197051644325E-002;-2.328096743440256E-004;1.964052440598607E-003;
2.418000000000000E+009;2.006597667932510E-001;-4.222143441438675E-002;-2.164908364647999E-004;2.136209979653359E-003;
2.418166666666667E+009;1.998331248760223E-001;-4.206513613462448E-002;-1.275922404602170E-004;2.037881640717387E-003;
2.418333333333334E+009;1.989566385746002E-001;-4.189491271972656E-002;-4.081294900970534E-005;1.911632949486375E-003;
2.418500000000000E+009;1.978182792663574E-001;-4.190035536885262E-002;1.224750012625009E-004;1.682044356130064E-003;
2.418666666666667E+009;1.969551146030426E-001;-4.179383441805840E-002;1.315208792220801E-004;1.576483948156238E-003;
2.418833333333334E+009;1.957164108753204E-001;-4.196245595812798E-002;1.929493591887876E-004;1.655045663937926E-003;
2.419000000000000E+009;1.942617744207382E-001;-4.219323396682739E-002;2.666616055648774E-004;1.611615647561848E-003;
2.419166666666667E+009;1.931376159191132E-001;-4.246637225151062E-002;2.885287976823747E-004;1.503322855569422E-003;
2.419333333333334E+009;1.916767358779907E-001;-4.287432506680489E-002;3.015465044882149E-004;1.410874770954251E-003;
2.419500000000000E+009;1.901649236679077E-001;-4.346288368105888E-002;1.662210270296782E-004;1.402754918672144E-003;
2.419666666666667E+009;1.886264085769653E-001;-4.434018954634666E-002;1.610789186088368E-004;1.303013414144516E-003;
2.419833333333334E+009;1.867876201868057E-001;-4.484269022941589E-002;2.754781162366271E-004;1.379319699481130E-003;
2.420000000000000E+009;1.853745430707932E-001;-4.575577378273010E-002;2.363518287893385E-004;1.367655582726002E-003;
2.420166666666667E+009;1.836495101451874E-001;-4.657631739974022E-002;3.063363255932927E-004;1.424359157681465E-003;
2.420333333333334E+009;1.820555329322815E-001;-4.804626107215881E-002;3.582223143894225E-004;1.517946249805391E-003;
2.420500000000000E+009;1.803833693265915E-001;-4.923294484615326E-002;4.576133796945214E-004;1.416729181073606E-003;
2.420666666666667E+009;1.787515580654144E-001;-5.049246922135353E-002;4.807314544450492E-004;1.449947012588382E-003;
2.420833333333334E+009;1.771351546049118E-001;-5.193080008029938E-002;4.794229753315449E-004;1.435748068615794E-003;
2.421000000000000E+009;1.756106466054916E-001;-5.340544879436493E-002;6.852990482002497E-004;1.412034966051579E-003;
2.421166666666667E+009;1.740935891866684E-001;-5.520059540867806E-002;7.368446094915271E-004;1.357987872324884E-003;
2.421333333333334E+009;1.726756691932678E-001;-5.675361678004265E-002;7.646352751180530E-004;1.266709761694074E-003;
2.421500000000000E+009;1.713509708642960E-001;-5.868304520845413E-002;9.092217078432441E-004;1.249489840120077E-003;
2.421666666666667E+009;1.701006740331650E-001;-6.049077585339546E-002;9.959109593182802E-004;1.026099082082510E-003;
2.421833333333334E+009;1.689454764127731E-001;-6.241212412714958E-002;9.548889938741922E-004;9.872027439996600E-004;
2.422000000000000E+009;1.677554994821549E-001;-6.436190754175186E-002;9.010839276015759E-004;8.585118339397013E-004;
2.422166666666667E+009;1.670186668634415E-001;-6.653178483247757E-002;9.218616178259254E-004;7.411041879095137E-004;
2.422333333333334E+009;1.658395379781723E-001;-6.852703541517258E-002;9.456474217586219E-004;5.093591171316803E-004;
2.422500000000000E+009;1.650589704513550E-001;-7.039642333984375E-002;7.623911369591951E-004;4.270688514225185E-004;
2.422666666666667E+009;1.643815785646439E-001;-7.257181406021118E-002;7.664264412596822E-004;2.105604944517836E-004;
2.422833333333334E+009;1.640074998140335E-001;-7.449062168598175E-002;7.498156628571451E-004;1.411499979440123E-004;
2.423000000000000E+009;1.635382324457169E-001;-7.686317712068558E-002;5.183390458114445E-004;4.218681715428829E-005;
2.423166666666667E+009;1.631159186363220E-001;-7.879875600337982E-002;3.275734488852322E-004;7.023387297522277E-005;
2.423333333333334E+009;1.629682481288910E-001;-8.085612207651138E-002;2.172495296690613E-004;1.224662846652791E-004;
2.423500000000000E+009;1.628139168024063E-001;-8.260191977024078E-002;1.987148134503514E-004;1.717318373266608E-004;
2.423666666666667E+009;1.629644632339478E-001;-8.450028300285339E-002;6.086190842324868E-005;1.420260814484209E-004;
2.423833333333334E+009;1.626940965652466E-001;-8.621917665004730E-002;7.734248356427997E-005;2.326711983187124E-004;
2.424000000000000E+009;1.629279404878616E-001;-8.819466829299927E-002;-7.509511488024145E-005;2.818641369231045E-004;
2.424166666666667E+009;1.630748361349106E-001;-8.979211747646332E-002;-1.181097177322954E-004;4.032680008094758E-004;
2.424333333333334E+009;1.633435040712357E-001;-9.124566614627838E-002;-1.285909966100007E-004;4.908371483907104E-004;
2.424500000000000E+009;1.636919230222702E-001;-9.301018714904785E-002;-2.463986165821552E-004;6.643192609772086E-004;
2.424666666666667E+009;1.638728231191635E-001;-9.444361925125122E-002;-1.545988779980689E-004;7.515390170738101E-004;
2.424833333333334E+009;1.645850539207459E-001;-9.571859240531921E-002;-7.527507113991305E-005;7.918217452242971E-004;
2.425000000000000E+009;1.647355109453201E-001;-9.688260406255722E-002;-9.762164700077847E-005;6.423589657060802E-004;
2.425166666666667E+009;1.652844548225403E-001;-9.797102957963944E-002;-8.698123565409333E-005;9.454372338950634E-004;
2.425333333333334E+009;1.655049920082092E-001;-9.901952743530273E-002;-2.297150349477306E-004;9.032536181621254E-004;
2.425500000000000E+009;1.659774184226990E-001;-1.000206768512726E-001;-1.119323278544471E-004;9.403092553839088E-004;
2.425666666666667E+009;1.664145439863205E-001;-1.006514728069305E-001;-1.583882112754509E-005;1.030316576361656E-003;
2.425833333333334E+009;1.666947752237320E-001;-1.014537587761879E-001;1.968873584701214E-005;9.813619544729590E-004;
2.426000000000000E+009;1.670738905668259E-001;-1.018803715705872E-001;1.225230789714260E-005;1.184087363071740E-003;
2.426166666666667E+009;1.674439609050751E-001;-1.024537906050682E-001;1.667316100792959E-004;1.191058894619346E-003;
2.426333333333334E+009;1.676423400640488E-001;-1.028714627027512E-001;1.439624757040292E-004;1.234102295711637E-003;
2.426500000000000E+009;1.680173426866531E-001;-1.031446307897568E-001;1.532526948722079E-004;1.279728487133980E-003;
2.426666666666667E+009;1.681591719388962E-001;-1.034753471612930E-001;2.995277754962444E-004;1.243596081621945E-003;
2.426833333333334E+009;1.684564799070358E-001;-1.037022024393082E-001;3.569475375115871E-004;1.283241435885429E-003;
2.427000000000000E+009;1.683877855539322E-001;-1.038174107670784E-001;4.971829475834966E-004;1.156443264335394E-003;
2.427166666666667E+009;1.684680730104446E-001;-1.039018109440804E-001;5.087951431050897E-004;1.324027776718140E-003;
2.427333333333334E+009;1.683133840560913E-001;-1.041540279984474E-001;5.299466429278255E-004;1.337863504886627E-003;
2.427500000000000E+009;1.681416034698486E-001;-1.044036597013474E-001;6.669320282526314E-004;1.294159912504256E-003;
2.427666666666667E+009;1.676740646362305E-001;-1.042846292257309E-001;8.246794459410012E-004;1.414180151186883E-003;
