# Version 1.00
#
freq[Hz];re:Trc1_S11;im:Trc1_S11;re:Trc2_S21;im:Trc2_S21;
2.400000000000000E+009;1.550343632698059E-001;1.063665673136711E-001;8.272653794847429E-004;-1.899801078252494E-003;
2.400166666666667E+009;1.549120694398880E-001;1.038724109530449E-001;8.470497559756041E-004;-1.899138092994690E-003;
2.400333333333334E+009;1.548570394515991E-001;1.016197726130486E-001;8.729288820177317E-004;-1.829475513659418E-003;
2.400500000000000E+009;1.546380817890167E-001;9.882048517465591E-002;7.579905795864761E-004;-2.014391124248505E-003;
2.400666666666667E+009;1.547989547252655E-001;9.638492763042450E-002;6.689314614050090E-004;-2.059436636045575E-003;
2.400833333333334E+009;1.547829210758209E-001;9.336055070161820E-002;4.974807379767299E-004;-1.958111068233848E-003;
2.401000000000000E+009;1.548851877450943E-001;9.075030684471130E-002;2.411842870060355E-004;-2.165224403142929E-003;
2.401166666666667E+009;1.547067463397980E-001;8.789782226085663E-002;1.106356503441930E-004;-2.268850337713957E-003;
2.401333333333334E+009;1.552895754575729E-001;8.491905033588409E-002;3.005915687026572E-006;-2.235442865639925E-003;
2.401500000000000E+009;1.557307094335556E-001;8.183372765779495E-002;-1.030951461871155E-004;-2.310982206836343E-003;
2.401666666666667E+009;1.558330208063126E-001;7.925353199243546E-002;-4.675243399105966E-004;-2.323722001165152E-003;
2.401833333333334E+009;1.564258784055710E-001;7.667297869920731E-002;-5.999628920108080E-004;-2.293360652402043E-003;
2.402000000000000E+009;1.572689116001129E-001;7.391610741615295E-002;-9.664413519203663E-004;-2.207709709182382E-003;
2.402166666666667E+009;1.577847152948380E-001;7.117143273353577E-002;-1.030346611514688E-003;-2.001663902774453E-003;
2.402333333333334E+009;1.590843349695206E-001;6.863094866275787E-002;-1.052577281370759E-003;-1.885888283140957E-003;
2.402500000000000E+009;1.602088660001755E-001;6.638552993535996E-002;-1.274081063456833E-003;-1.833306392654777E-003;
2.402666666666667E+009;1.611572653055191E-001;6.367919594049454E-002;-1.413494348526001E-003;-1.788307214155793E-003;
2.402833333333334E+009;1.623713672161102E-001;6.124396249651909E-002;-1.551529043354094E-003;-1.309295534156263E-003;
2.403000000000000E+009;1.639051288366318E-001;5.912255868315697E-002;-1.588607439771295E-003;-1.282317331060767E-003;
2.403166666666667E+009;1.653669923543930E-001;5.690197274088860E-002;-1.766522647812963E-003;-1.087647164240480E-003;
2.403333333333334E+009;1.669032275676727E-001;5.466278269886971E-002;-1.694473321549594E-003;-8.686213404871523E-004;
2.403500000000000E+009;1.686829328536987E-001;5.258391425013542E-002;-1.541440142318606E-003;-6.683587562292814E-004;
2.403666666666667E+009;1.705658733844757E-001;5.085696652531624E-002;-1.624568831175566E-003;-5.275345756672323E-004;
2.403833333333334E+009;1.721445918083191E-001;4.872008785605431E-002;-1.473756739869714E-003;-2.111987123498693E-004;
2.404000000000000E+009;1.735133081674576E-001;4.718496650457382E-002;-1.305672340095043E-003;-2.788254059851170E-004;
2.404166666666667E+009;1.754727512598038E-001;4.562711343169212E-002;-1.307378523051739E-003;-2.468706516083330E-004;
2.404333333333334E+009;1.770749241113663E-001;4.413376376032829E-002;-1.151562668383122E-003;-8.504159632138908E-005;
2.404500000000000E+009;1.787487417459488E-001;4.280448332428932E-002;-1.011058920994401E-003;-5.074304863228463E-005;
2.404666666666667E+009;1.804672777652741E-001;4.177555069327354E-002;-9.004364255815744E-004;-6.397204560926184E-005;
2.404833333333334E+009;1.822053045034409E-001;4.065501689910889E-002;-8.169041830115020E-004;-2.263305359520018E-004;
2.405000000000000E+009;1.834072470664978E-001;3.996556624770165E-002;-8.972726063802838E-004;-1.299595169257373E-004;
2.405166666666667E+009;1.849070042371750E-001;3.935803100466728E-002;-8.794056484475732E-004;-1.450927811674774E-004;
2.405333333333334E+009;1.863706409931183E-001;3.869451209902763E-002;-8.585310424678028E-004;-2.466141886543483E-004;
2.405500000000000E+009;1.877812445163727E-001;3.843648359179497E-002;-9.540304308757186E-004;-2.394014445599169E-004;
2.405666666666667E+009;1.890223771333695E-001;3.810265287756920E-002;-7.762182503938675E-004;-1.816115982364863E-004;
2.405833333333334E+009;1.902792155742645E-001;3.781862929463387E-002;-7.727806223556399E-004;-2.934614349214826E-005;
2.406000000000000E+009;1.914910376071930E-001;3.781474381685257E-002;-1.257782569155097E-003;9.641873475629836E-006;
2.406166666666667E+009;1.920409649610519E-001;3.765854984521866E-002;-1.431050710380077E-003;-4.810965037904680E-004;
2.406333333333334E+009;1.933035999536514E-001;3.723099082708359E-002;5.584038080996834E-005;-1.295331458095461E-004;
2.406500000000000E+009;1.939860731363297E-001;3.798760473728180E-002;-1.340762362815440E-003;5.720305125578307E-005;
2.406666666666667E+009;1.948363184928894E-001;3.776120766997337E-002;-6.572128040716052E-004;7.118167704902589E-004;
2.406833333333334E+009;1.954324990510941E-001;3.785085678100586E-002;-6.330194883048534E-004;6.632558070123196E-004;
2.407000000000000E+009;1.957270801067352E-001;3.809520229697228E-002;-6.110681570135057E-004;6.789740873500705E-004;
2.407166666666667E+009;1.959167122840881E-001;3.778774291276932E-002;-2.952403337985743E-005;-8.062226697802544E-005;
2.407333333333334E+009;1.959047764539719E-001;3.804270923137665E-002;-4.125337000004947E-005;1.325261982856318E-004;
2.407500000000000E+009;1.959158629179001E-001;3.802174329757690E-002;-1.674543891567737E-004;3.404653398320079E-004;
2.407666666666667E+009;1.958107948303223E-001;3.818653896450996E-002;-1.721243315842003E-004;-1.146781723946333E-004;
2.407833333333334E+009;1.952568888664246E-001;3.812696412205696E-002;-6.122580816736445E-005;-3.750380346900784E-005;
2.408000000000000E+009;1.953108757734299E-001;3.803112357854843E-002;-5.538165714824572E-005;-2.352511801291257E-004;
2.408166666666667E+009;1.947641521692276E-001;3.768239915370941E-002;-1.323406177107245E-004;-4.107729764655232E-004;
2.408333333333334E+009;1.942421793937683E-001;3.726065158843994E-002;-1.598244998604059E-004;-2.050842740572989E-004;
2.408500000000000E+009;1.935859918594360E-001;3.688911348581314E-002;-6.458847201429308E-005;-4.644350847229362E-004;
2.408666666666667E+009;1.929543912410736E-001;3.634822741150856E-002;-1.342058967566118E-004;-4.148908774368465E-004;
2.408833333333334E+009;1.923560798168182E-001;3.569371998310089E-002;-4.060357969137840E-005;-4.746256454382092E-004;
2.409000000000000E+009;1.913907080888748E-001;3.469007834792137E-002;-2.914013457484543E-004;-6.061120657250285E-004;
2.409166666666667E+009;1.904276013374329E-001;3.362864628434181E-002;-1.965572591871023E-004;-6.274619954638183E-004;
2.409333333333334E+009;1.895254105329514E-001;3.272990509867668E-002;-3.413812082726508E-004;-6.613645236939192E-004;
2.409500000000000E+009;1.884529441595078E-001;3.136630728840828E-002;-5.259244353510439E-004;-7.570119341835380E-004;
2.409666666666667E+009;1.873735040426254E-001;3.003871254622936E-002;-5.506226443685591E-004;-7.704494637437165E-004;
2.409833333333334E+009;1.865093857049942E-001;2.862681634724140E-002;-7.951291045174003E-004;-8.098630351014435E-004;
2.410000000000000E+009;1.853431314229965E-001;2.674703299999237E-002;-4.942634841427207E-004;-5.792332231067121E-004;
2.410166666666667E+009;1.844738125801086E-001;2.499014511704445E-002;-9.458372369408608E-004;-4.093808820471168E-004;
2.410333333333334E+009;1.833623200654984E-001;2.333624660968781E-002;-8.067076560109854E-004;-8.578332490287721E-004;
2.410500000000000E+009;1.824861019849777E-001;2.142065018415451E-002;-7.300340221263468E-004;-6.768064340576530E-004;
2.410666666666667E+009;1.813547164201737E-001;1.895890384912491E-002;-7.508068811148405E-004;-6.671303417533636E-004;
2.410833333333334E+009;1.810251623392105E-001;1.707037165760994E-002;-7.897975738160312E-004;-6.229351856745780E-004;
2.411000000000000E+009;1.799962818622589E-001;1.464280672371388E-002;-8.238311274908483E-004;-5.544290179386735E-004;
2.411166666666667E+009;1.793713122606278E-001;1.260821893811226E-002;-8.136588148772717E-004;-6.734859780408442E-004;
2.411333333333334E+009;1.789010763168335E-001;9.988554753363133E-003;-8.314615697599948E-004;-7.305259350687265E-004;
2.411500000000000E+009;1.783452033996582E-001;7.564757950603962E-003;-9.242151281796396E-004;-6.834957748651505E-004;
2.411666666666667E+009;1.783262491226196E-001;5.191923584789038E-003;-1.039104536175728E-003;-6.527639925479889E-004;
2.411833333333334E+009;1.779207885265350E-001;3.009280422702432E-003;-1.062126364558935E-003;-6.889654905535281E-004;
2.412000000000000E+009;1.781844496726990E-001;2.333546290174127E-004;-1.066396245732904E-003;-6.333187338896096E-004;
2.412166666666667E+009;1.782091110944748E-001;-2.001838525757194E-003;-1.351257786154747E-003;-6.883689784444869E-004;
2.412333333333334E+009;1.784718930721283E-001;-4.673479124903679E-003;-1.265699509531260E-003;-6.602368084713817E-004;
2.412500000000000E+009;1.789056658744812E-001;-7.007498294115067E-003;-1.465710462071002E-003;-6.213742890395224E-004;
2.412666666666667E+009;1.795601397752762E-001;-9.554169140756130E-003;-1.414206111803651E-003;-4.790854000020772E-004;
2.412833333333334E+009;1.803100854158402E-001;-1.190131902694702E-002;-1.603903016075492E-003;-5.497886450029910E-004;
2.413000000000000E+009;1.809261143207550E-001;-1.427363418042660E-002;-1.688429387286305E-003;-3.945307980757207E-004;
2.413166666666667E+009;1.817394644021988E-001;-1.661554910242558E-002;-1.808697124943137E-003;-3.078496956732124E-004;
2.413333333333334E+009;1.827237755060196E-001;-1.889137737452984E-002;-1.766537665389478E-003;-2.232480765087530E-004;
2.413500000000000E+009;1.837306171655655E-001;-2.113351412117481E-002;-1.926505588926375E-003;-7.048690895317122E-005;
2.413666666666667E+009;1.847906559705734E-001;-2.332521229982376E-002;-1.768655609339476E-003;1.780913880793378E-004;
2.413833333333334E+009;1.859658956527710E-001;-2.536109089851379E-002;-1.829415792599320E-003;2.022363187279552E-004;
2.414000000000000E+009;1.872392445802689E-001;-2.735934406518936E-002;-1.889301114715636E-003;3.366756136529148E-004;
2.414166666666667E+009;1.884614527225494E-001;-2.906914427876473E-002;-1.717756851576269E-003;5.675185821019113E-004;
2.414333333333334E+009;1.895750612020493E-001;-3.115026466548443E-002;-1.804725616239011E-003;6.575349834747613E-004;
2.414500000000000E+009;1.908602118492127E-001;-3.257099166512489E-002;-1.686379313468933E-003;5.902250995859504E-004;
2.414666666666667E+009;1.921077221632004E-001;-3.421057015657425E-002;-1.705586328171194E-003;6.245110416784883E-004;
2.414833333333334E+009;1.932637244462967E-001;-3.549477458000183E-002;-1.645178534090519E-003;7.358294678851962E-004;
2.415000000000000E+009;1.943260878324509E-001;-3.672986105084419E-002;-1.743776374496520E-003;7.978734793141484E-004;
2.415166666666667E+009;1.956220120191574E-001;-3.783232346177101E-002;-1.585095888003707E-003;6.305237766355276E-004;
2.415333333333334E+009;1.967415511608124E-001;-3.880999237298966E-002;-1.666426192969084E-003;8.937490638345480E-004;
2.415500000000000E+009;1.978915482759476E-001;-3.963433206081390E-002;-1.730900490656495E-003;9.031867375597358E-004;
2.415666666666667E+009;1.989684104919434E-001;-4.039667919278145E-002;-1.575228408910334E-003;9.146744268946350E-004;
2.415833333333334E+009;1.997077316045761E-001;-4.092557355761528E-002;-1.559204771183431E-003;1.177303725853562E-003;
2.416000000000000E+009;2.005786895751953E-001;-4.159465804696083E-002;-1.559708034619689E-003;1.207060180604458E-003;
2.416166666666667E+009;2.013059705495834E-001;-4.211276769638062E-002;-1.544734346680343E-003;1.441548112779856E-003;
2.416333333333334E+009;2.019376158714294E-001;-4.229375720024109E-002;-1.494335592724383E-003;1.571405678987503E-003;
2.416500000000000E+009;2.024834454059601E-001;-4.262355715036392E-002;-1.444509485736489E-003;1.687395502813160E-003;
2.416666666666667E+009;2.026713937520981E-001;-4.294892027974129E-002;-1.426976756192744E-003;1.855731708928943E-003;
2.416833333333334E+009;2.029164135456085E-001;-4.291757568717003E-002;-1.243512728251517E-003;1.826117862947285E-003;
2.417000000000000E+009;2.030508071184158E-001;-4.311459511518478E-002;-1.179220271296799E-003;1.868253690190613E-003;
2.417166666666667E+009;2.027641981840134E-001;-4.300073534250259E-002;-9.683359530754387E-004;1.943364273756743E-003;
2.417333333333334E+009;2.026515007019043E-001;-4.277434200048447E-002;-9.334456408396363E-004;2.155633177608252E-003;
2.417500000000000E+009;2.022505402565002E-001;-4.277462512254715E-002;-6.385595770552754E-004;1.926397439092398E-003;
2.417666666666667E+009;2.017567753791809E-001;-4.243271797895432E-002;-5.767083493992686E-004;2.064205938950181E-003;
2.417833333333334E+009;2.013256102800369E-001;-4.233428090810776E-002;-4.048055852763355E-004;1.826981431804597E-003;
2.418000000000000E+009;2.006677538156509E-001;-4.209991917014122E-002;-2.050054317805916E-004;1.927393139339984E-003;
2.418166666666667E+009;1.997818052768707E-001;-4.191063344478607E-002;-1.096283449442126E-004;1.837243442423642E-003;
2.418333333333334E+009;1.988817006349564E-001;-4.176361858844757E-002;-1.186039980893838E-006;1.843431964516640E-003;
2.418500000000000E+009;1.980110704898834E-001;-4.191686958074570E-002;4.201648334856145E-005;1.752559095621109E-003;
2.418666666666667E+009;1.969655752182007E-001;-4.176323115825653E-002;9.223444794770330E-005;1.755718607455492E-003;
2.418833333333334E+009;1.956999599933624E-001;-4.193224012851715E-002;1.982937683351338E-004;1.603753888048232E-003;
2.419000000000000E+009;1.943539828062058E-001;-4.213563725352287E-002;2.371132577536628E-004;1.493621268309653E-003;
2.419166666666667E+009;1.930520832538605E-001;-4.250682517886162E-002;1.593895285623148E-004;1.483409083448350E-003;
2.419333333333334E+009;1.916923224925995E-001;-4.284299165010452E-002;2.861287794075906E-004;1.365199801512063E-003;
2.419500000000000E+009;1.901555508375168E-001;-4.330601170659065E-002;1.847931853262708E-004;1.369280973449349E-003;
2.419666666666667E+009;1.884568780660629E-001;-4.406879842281342E-002;3.589238040149212E-004;1.423957059159875E-003;
2.419833333333334E+009;1.868401020765305E-001;-4.478507116436958E-002;2.889645111281425E-004;1.393975690007210E-003;
2.420000000000000E+009;1.853234469890595E-001;-4.557096213102341E-002;1.192112031276338E-004;1.305878395214677E-003;
2.420166666666667E+009;1.837173104286194E-001;-4.662447795271874E-002;2.639633603394032E-004;1.422414672560990E-003;
2.420333333333334E+009;1.820764094591141E-001;-4.792021960020065E-002;3.294322814326733E-004;1.409019459970295E-003;
2.420500000000000E+009;1.804258078336716E-001;-4.911862313747406E-002;2.961533609777689E-004;1.269688480533660E-003;
2.420666666666667E+009;1.788392812013626E-001;-5.036757513880730E-002;3.613453300204128E-004;1.367227407172322E-003;
2.420833333333334E+009;1.772566735744476E-001;-5.176705494523048E-002;5.371815059334040E-004;1.392532489262521E-003;
2.421000000000000E+009;1.756708174943924E-001;-5.352740734815598E-002;5.486784502863884E-004;1.348472200334072E-003;
2.421166666666667E+009;1.742211282253265E-001;-5.507987365126610E-002;6.727054715156555E-004;1.203238847665489E-003;
2.421333333333334E+009;1.725675016641617E-001;-5.676325410604477E-002;7.779881125316024E-004;1.219672849401832E-003;
2.421500000000000E+009;1.711942553520203E-001;-5.862173065543175E-002;9.369620238430798E-004;1.060518901795149E-003;
2.421666666666667E+009;1.699872165918350E-001;-6.043154746294022E-002;9.632230503484607E-004;9.969503153115511E-004;
2.421833333333334E+009;1.690689474344254E-001;-6.225805729627609E-002;8.311678539030254E-004;7.255722302943468E-004;
2.422000000000000E+009;1.677552163600922E-001;-6.428770720958710E-002;8.400282240472734E-004;7.954359753057361E-004;
2.422166666666667E+009;1.668737977743149E-001;-6.627108156681061E-002;1.180630060844123E-003;6.586535600945354E-004;
2.422333333333334E+009;1.659838408231735E-001;-6.849315017461777E-002;8.181027369573712E-004;4.960761289112270E-004;
2.422500000000000E+009;1.652083694934845E-001;-7.039985805749893E-002;9.236368350684643E-004;3.582139324862510E-004;
2.422666666666667E+009;1.645921468734741E-001;-7.243316620588303E-002;7.924743113107979E-004;1.585126592544839E-004;
2.422833333333334E+009;1.641071885824204E-001;-7.467047870159149E-002;6.511995452456176E-004;4.036680184071884E-005;
2.423000000000000E+009;1.635216921567917E-001;-7.663851976394653E-002;4.542355600278825E-004;-1.609477767487988E-004;
2.423166666666667E+009;1.631667017936707E-001;-7.872909307479858E-002;4.435773007571697E-004;8.211316890083253E-005;
2.423333333333334E+009;1.630554050207138E-001;-8.061893284320831E-002;2.529908379074186E-004;1.641149574425072E-004;
2.423500000000000E+009;1.629113256931305E-001;-8.244870603084564E-002;4.633194839698263E-005;5.543978477362543E-005;
2.423666666666667E+009;1.629036962985992E-001;-8.449697494506836E-002;-2.823151044140104E-005;1.317513815592974E-004;
2.423833333333334E+009;1.628851890563965E-001;-8.623747527599335E-002;-1.249257184099406E-004;2.019331877818331E-004;
2.424000000000000E+009;1.629580855369568E-001;-8.807026594877243E-002;-5.153971869731322E-005;2.628439106047154E-004;
2.424166666666667E+009;1.631129980087280E-001;-8.978158235549927E-002;-1.880228955997154E-004;4.600025422405452E-004;
2.424333333333334E+009;1.633120030164719E-001;-9.138167649507523E-002;-1.734243996907026E-004;4.577896324917674E-004;
2.424500000000000E+009;1.636505275964737E-001;-9.306017309427261E-002;-1.592340850038454E-004;6.110468530096114E-004;
2.424666666666667E+009;1.640218794345856E-001;-9.433977305889130E-002;-2.165844634873793E-004;6.292388425208628E-004;
2.424833333333334E+009;1.645215451717377E-001;-9.560733288526535E-002;-2.198157562816050E-005;6.816362729296088E-004;
2.425000000000000E+009;1.647884547710419E-001;-9.693495184183121E-002;-2.603223838377744E-004;5.730857956223190E-004;
2.425166666666667E+009;1.652114987373352E-001;-9.792529046535492E-002;-1.391606056131423E-004;7.717622211202979E-004;
2.425333333333334E+009;1.654365807771683E-001;-9.899990260601044E-002;-1.795172283891588E-005;9.080222225748003E-004;
2.425500000000000E+009;1.660131961107254E-001;-9.990916401147842E-002;-1.541374658700079E-004;1.035761786624789E-003;
2.425666666666667E+009;1.663819998502731E-001;-1.006156578660011E-001;-8.619394066045061E-005;9.909324580803514E-004;
2.425833333333334E+009;1.666910797357559E-001;-1.014330536127091E-001;-1.736305785016157E-005;1.148515613749623E-003;
2.426000000000000E+009;1.670573651790619E-001;-1.019063368439674E-001;-1.272585941478610E-004;1.131927827373147E-003;
2.426166666666667E+009;1.675315648317337E-001;-1.023724228143692E-001;-4.175477442913689E-005;1.188158290460706E-003;
2.426333333333334E+009;1.676744222640991E-001;-1.029490977525711E-001;-7.839798490749672E-005;1.279084011912346E-003;
2.426500000000000E+009;1.680598109960556E-001;-1.031124368309975E-001;-6.382085121003911E-005;1.246526488102973E-003;
2.426666666666667E+009;1.683094501495361E-001;-1.034325137734413E-001;1.972770114662126E-004;1.274321693927050E-003;
2.426833333333334E+009;1.684023290872574E-001;-1.036965399980545E-001;2.076671371469274E-004;1.170091098174453E-003;
2.427000000000000E+009;1.685275882482529E-001;-1.038886755704880E-001;3.382269060239196E-004;1.318513881415129E-003;
2.427166666666667E+009;1.685771197080612E-001;-1.038513109087944E-001;3.864231985062361E-004;1.498424331657589E-003;
2.427333333333334E+009;1.683654934167862E-001;-1.040495857596397E-001;4.717964911833406E-004;1.361064845696092E-003;
2.427500000000000E+009;1.681686192750931E-001;-1.042572334408760E-001;5.462202825583518E-004;1.440924126654863E-003;
2.427666666666667E+009;1.678077280521393E-001;-1.042937636375427E-001;5.270312540233135E-004;1.307462924160063E-003;
