# Version 1.00
#
freq[Hz];re:Trc1_S11;im:Trc1_S11;re:Trc2_S21;im:Trc2_S21;
2.400000000000000E+009;1.556103229522705E-001;1.105883046984673E-001;4.095523036085069E-004;4.415932053234428E-004;
2.400166666666667E+009;1.549186259508133E-001;1.082305312156677E-001;3.989477991126478E-004;3.469353541731834E-004;
2.400333333333334E+009;1.546672284603119E-001;1.060749068856239E-001;2.465010620653629E-004;1.892669097287580E-004;
2.400500000000000E+009;1.543463021516800E-001;1.033891364932060E-001;2.969452471006662E-004;7.203753921203315E-005;
2.400666666666667E+009;1.542113423347473E-001;1.009170934557915E-001;1.264103193534538E-004;2.437313232803717E-004;
2.400833333333334E+009;1.539228558540344E-001;9.820275008678436E-002;-1.399396860506386E-004;4.021652275696397E-004;
2.401000000000000E+009;1.538672298192978E-001;9.519523382186890E-002;-1.609966857358813E-004;3.102542832493782E-004;
2.401166666666667E+009;1.534361094236374E-001;9.235754609107971E-002;-2.680449106264859E-004;4.236630920786411E-004;
2.401333333333334E+009;1.537353694438934E-001;8.941964805126190E-002;-1.220444537466392E-004;5.441305693238974E-004;
2.401500000000000E+009;1.538164913654327E-001;8.646652847528458E-002;-1.505503169028089E-004;6.747211446054280E-004;
2.401666666666667E+009;1.539384573698044E-001;8.347044885158539E-002;-2.414026967016980E-004;8.682484622113407E-004;
2.401833333333334E+009;1.542431265115738E-001;8.050268143415451E-002;-1.413770223734900E-005;9.687705896794796E-004;
2.402000000000000E+009;1.551229953765869E-001;7.756967097520828E-002;-5.648053775075823E-005;9.709289879538119E-004;
2.402166666666667E+009;1.555761396884918E-001;7.464613020420075E-002;8.586869080318138E-005;1.007644576020539E-003;
2.402333333333334E+009;1.563788503408432E-001;7.203974574804306E-002;1.938249042723328E-004;1.084275194443762E-003;
2.402500000000000E+009;1.576238721609116E-001;6.920331716537476E-002;2.709296531975269E-004;1.153649995103478E-003;
2.402666666666667E+009;1.585168987512589E-001;6.653755903244019E-002;4.394724674057216E-004;1.177323050796986E-003;
2.402833333333334E+009;1.596855521202087E-001;6.387086212635040E-002;6.285781855694950E-004;1.147330272942781E-003;
2.403000000000000E+009;1.610842347145081E-001;6.119002401828766E-002;7.587710279040039E-004;1.261027413420379E-003;
2.403166666666667E+009;1.628514975309372E-001;5.878387391567230E-002;8.291155681945384E-004;1.164725050330162E-003;
2.403333333333334E+009;1.642652601003647E-001;5.615312978625298E-002;9.621724020689726E-004;1.141467248089612E-003;
2.403500000000000E+009;1.659788638353348E-001;5.410777032375336E-002;1.076378393918276E-003;7.498851045966148E-004;
2.403666666666667E+009;1.678187102079392E-001;5.184185877442360E-002;1.210280228406191E-003;8.095896919257939E-004;
2.403833333333334E+009;1.695803701877594E-001;4.970234632492065E-002;1.285712933167815E-003;5.516530945897102E-004;
2.404000000000000E+009;1.712063550949097E-001;4.781073331832886E-002;1.463716966100037E-003;4.392711562104523E-004;
2.404166666666667E+009;1.730674058198929E-001;4.601958394050598E-002;1.437930855900049E-003;3.447484632488340E-004;
2.404333333333334E+009;1.748253554105759E-001;4.439967125654221E-002;1.238448661752045E-003;1.792999537428841E-004;
2.404500000000000E+009;1.767522394657135E-001;4.283549264073372E-002;1.245036954060197E-003;-1.266633189516142E-004;
2.404666666666667E+009;1.785939186811447E-001;4.169498383998871E-002;1.121462322771549E-003;-1.600255054654554E-004;
2.404833333333334E+009;1.802916079759598E-001;4.052748158574104E-002;1.162105705589056E-003;-1.365415082545951E-004;
2.405000000000000E+009;1.818714588880539E-001;3.973726183176041E-002;1.029819715768099E-003;-2.001018438022584E-004;
2.405166666666667E+009;1.836764067411423E-001;3.880039602518082E-002;8.564722375012934E-004;-2.418627118458971E-004;
2.405333333333334E+009;1.851174384355545E-001;3.828236833214760E-002;9.182129288092256E-004;-2.656073193065822E-004;
2.405500000000000E+009;1.868263334035873E-001;3.782227635383606E-002;6.260047666728497E-004;-1.971598976524547E-004;
2.405666666666667E+009;1.884997934103012E-001;3.741217777132988E-002;7.203123532235622E-004;3.856177136185579E-005;
2.405833333333334E+009;1.899803876876831E-001;3.734196349978447E-002;5.946923629380763E-004;-2.741871285252273E-004;
2.406000000000000E+009;1.912959665060043E-001;3.705931827425957E-002;7.473622099496424E-004;-9.268040594179183E-005;
2.406166666666667E+009;1.925666630268097E-001;3.698217496275902E-002;7.092979503795505E-004;1.970298944797833E-005;
2.406333333333334E+009;1.937481462955475E-001;3.716797754168510E-002;5.428207805380225E-004;1.577218063175678E-005;
2.406500000000000E+009;1.946951895952225E-001;3.733096644282341E-002;5.599429714493454E-004;-3.802668288699351E-006;
2.406666666666667E+009;1.955674588680267E-001;3.763383254408836E-002;5.279034958221018E-004;3.273558104410768E-005;
2.406833333333334E+009;1.964102834463120E-001;3.787461668252945E-002;4.661581479012966E-004;-3.041061427211389E-005;
2.407000000000000E+009;1.968161612749100E-001;3.822146728634834E-002;8.932801429182291E-004;6.440932338591665E-005;
2.407166666666667E+009;1.975485235452652E-001;3.844621777534485E-002;9.480753215029836E-004;-1.011855929391459E-004;
2.407333333333334E+009;1.976649314165115E-001;3.880197927355766E-002;8.153260569088161E-004;-1.670365309109911E-004;
2.407500000000000E+009;1.977817416191101E-001;3.910480067133904E-002;8.343077497556806E-004;-2.256536827189848E-004;
2.407666666666667E+009;1.979832202196121E-001;3.926605358719826E-002;9.012921364046633E-004;-2.624857879709452E-004;
2.407833333333334E+009;1.975872069597244E-001;3.955933079123497E-002;8.316545281559229E-004;-3.953169216401875E-004;
2.408000000000000E+009;1.976202279329300E-001;3.978721424937248E-002;8.286616066470742E-004;-2.420232922304422E-004;
2.408166666666667E+009;1.971107572317123E-001;3.980011865496635E-002;6.925161578692496E-004;-3.200051723979414E-004;
2.408333333333334E+009;1.968043446540833E-001;3.954408317804337E-002;7.244239677675068E-004;-3.618991177063435E-004;
2.408500000000000E+009;1.961070150136948E-001;3.964887186884880E-002;7.449348922818899E-004;-4.100290825590491E-004;
2.408666666666667E+009;1.954795569181442E-001;3.949514776468277E-002;6.764941499568522E-004;-3.311056934762746E-004;
2.408833333333334E+009;1.946830749511719E-001;3.906913474202156E-002;7.665940211154521E-004;-3.413852537050843E-004;
2.409000000000000E+009;1.937187910079956E-001;3.852450847625732E-002;7.481088978238404E-004;-3.822188882622868E-004;
2.409166666666667E+009;1.927962452173233E-001;3.779646381735802E-002;6.285430281423032E-004;-5.099320551380515E-004;
2.409333333333334E+009;1.917206496000290E-001;3.723643347620964E-002;6.311813485808671E-004;-5.841103265993297E-004;
2.409500000000000E+009;1.904730349779129E-001;3.609992191195488E-002;5.700861802324653E-004;-4.591327742673457E-004;
2.409666666666667E+009;1.893674284219742E-001;3.499258309602737E-002;6.147361127659679E-004;-6.046674679964781E-004;
2.409833333333334E+009;1.882773935794830E-001;3.373923897743225E-002;4.960409132763743E-004;-5.314937443472445E-004;
2.410000000000000E+009;1.871128082275391E-001;3.238921612501144E-002;5.797416088171303E-004;-6.980156758800149E-004;
2.410166666666667E+009;1.859299242496491E-001;3.060558252036572E-002;5.560815916396678E-004;-7.482983055524528E-004;
2.410333333333334E+009;1.847085058689117E-001;2.905305102467537E-002;5.281927296891809E-004;-8.591950754635036E-004;
2.410500000000000E+009;1.834546029567719E-001;2.724676206707954E-002;3.519985184539110E-004;-7.492073928005993E-004;
2.410666666666667E+009;1.823649108409882E-001;2.505822479724884E-002;2.501470735296607E-004;-6.860183784738183E-004;
2.410833333333334E+009;1.813956499099731E-001;2.302183769643307E-002;1.407154486514628E-004;-6.984138744883239E-004;
2.411000000000000E+009;1.804009079933167E-001;2.084328420460224E-002;1.330747618339956E-004;-7.797325961291790E-004;
2.411166666666667E+009;1.795996874570847E-001;1.869380474090576E-002;8.155278919730336E-005;-6.386224413290620E-004;
2.411333333333334E+009;1.786829829216003E-001;1.624827459454536E-002;-7.230441406136379E-005;-6.348972674459219E-004;
2.411500000000000E+009;1.781480163335800E-001;1.372492872178555E-002;-1.357627188554034E-004;-5.927279707975686E-004;
2.411666666666667E+009;1.776523739099503E-001;1.148819364607334E-002;-1.001741620711982E-004;-3.479837323538959E-004;
2.411833333333334E+009;1.772201657295227E-001;8.703337050974369E-003;-1.435122394468635E-004;-2.518382680136710E-004;
2.412000000000000E+009;1.771308183670044E-001;6.081783212721348E-003;-8.802137745078653E-005;-2.256193838547915E-004;
2.412166666666667E+009;1.770224124193192E-001;3.759687067940831E-003;-3.999277396360412E-005;-1.164059431175701E-004;
2.412333333333334E+009;1.771574914455414E-001;8.861164678819478E-004;-1.338097063126043E-004;-6.572427082573995E-005;
2.412500000000000E+009;1.774534732103348E-001;-1.520182238891721E-003;1.066146942321211E-004;8.634686673758552E-005;
2.412666666666667E+009;1.776825934648514E-001;-4.351854324340820E-003;1.240475394297391E-004;9.336607763543725E-005;
2.412833333333334E+009;1.783491522073746E-001;-6.959381047636271E-003;2.642147010192275E-004;1.684895105427131E-004;
2.413000000000000E+009;1.791135966777802E-001;-9.448188357055187E-003;3.061885363422334E-004;1.462351501686499E-004;
2.413166666666667E+009;1.797665208578110E-001;-1.198651548475027E-002;4.901397041976452E-004;-1.471794121243875E-006;
2.413333333333334E+009;1.809795349836350E-001;-1.445960719138384E-002;6.172501598484814E-004;1.347470242762938E-004;
2.413500000000000E+009;1.818242371082306E-001;-1.718300394713879E-002;6.633215234614909E-004;-1.481628441979410E-005;
2.413666666666667E+009;1.830332875251770E-001;-1.958128623664379E-002;6.009723874740303E-004;-9.493263496551663E-005;
2.413833333333334E+009;1.841871142387390E-001;-2.187843248248100E-002;7.666889578104019E-004;-2.089494228130207E-004;
2.414000000000000E+009;1.853542774915695E-001;-2.399853989481926E-002;8.435928029939532E-004;-3.773324715439230E-004;
2.414166666666667E+009;1.868655979633331E-001;-2.607777900993824E-002;8.427561842836440E-004;-3.973964485339820E-004;
2.414333333333334E+009;1.878952831029892E-001;-2.831628173589706E-002;9.683848475106061E-004;-5.650450475513935E-004;
2.414500000000000E+009;1.893810331821442E-001;-3.000814281404018E-002;8.331976132467389E-004;-7.091571460478008E-004;
2.414666666666667E+009;1.906631141901016E-001;-3.165822103619576E-002;7.280056015588343E-004;-5.999082932248712E-004;
2.414833333333334E+009;1.922045499086380E-001;-3.326087445020676E-002;6.951551767997444E-004;-8.633448742330074E-004;
2.415000000000000E+009;1.933994889259338E-001;-3.493136167526245E-002;5.571498186327517E-004;-9.083317709155381E-004;
2.415166666666667E+009;1.950756907463074E-001;-3.605166822671890E-002;6.458346033468843E-004;-9.604874067008495E-004;
2.415333333333334E+009;1.963744312524796E-001;-3.723854944109917E-002;4.772037791553885E-004;-9.892611997202039E-004;
2.415500000000000E+009;1.977709978818893E-001;-3.801960498094559E-002;4.294371465221047E-004;-9.762396221049130E-004;
2.415666666666667E+009;1.991443485021591E-001;-3.909927234053612E-002;3.219221252948046E-004;-8.859515073709190E-004;
2.415833333333334E+009;2.003561705350876E-001;-3.974964469671249E-002;4.854465660173446E-004;-9.632851579226553E-004;
2.416000000000000E+009;2.013092786073685E-001;-4.052807018160820E-002;3.618314513005316E-004;-1.068693585693836E-003;
2.416166666666667E+009;2.023133784532547E-001;-4.114359244704247E-002;2.869498275686055E-004;-9.762865956872702E-004;
2.416333333333334E+009;2.033022344112396E-001;-4.140076041221619E-002;1.830756518756971E-004;-9.140834445133805E-004;
2.416500000000000E+009;2.040186375379562E-001;-4.169249162077904E-002;3.106030053459108E-004;-9.676945628598332E-004;
2.416666666666667E+009;2.046398371458054E-001;-4.200075194239616E-002;1.528166467323899E-004;-9.852790972217917E-004;
2.416833333333334E+009;2.050191015005112E-001;-4.199519380927086E-002;3.353390275151469E-005;-1.108260126784444E-003;
2.417000000000000E+009;2.054501175880432E-001;-4.213468730449677E-002;5.416493149823509E-005;-1.124440110288560E-003;
2.417166666666667E+009;2.054553329944611E-001;-4.192200303077698E-002;-8.313317812280729E-005;-1.167323789559305E-003;
2.417333333333334E+009;2.055548578500748E-001;-4.161669313907623E-002;-1.108952710637823E-004;-1.239118399098516E-003;
2.417500000000000E+009;2.054741829633713E-001;-4.150888323783875E-002;-1.522498059784994E-004;-1.244018902070820E-003;
2.417666666666667E+009;2.050010412931442E-001;-4.112374037504196E-002;-1.533028116682544E-004;-1.051657716743648E-003;
2.417833333333334E+009;2.048802524805069E-001;-4.080674424767494E-002;-3.897686256095767E-004;-1.094948849640787E-003;
2.418000000000000E+009;2.045176625251770E-001;-4.040827229619026E-002;-4.237755201756954E-004;-1.157205086201429E-003;
2.418166666666667E+009;2.037859708070755E-001;-4.011189937591553E-002;-5.548452609218657E-004;-1.036068424582481E-003;
2.418333333333334E+009;2.030475288629532E-001;-3.978553414344788E-002;-5.937429377809167E-004;-1.042210031300783E-003;
2.418500000000000E+009;2.022200077772141E-001;-3.958504274487495E-002;-7.832237752154470E-004;-9.050737717188895E-004;
2.418666666666667E+009;2.012810856103897E-001;-3.918476030230522E-002;-7.682316354475915E-004;-8.598358253948391E-004;
2.418833333333334E+009;2.003112733364105E-001;-3.937512263655663E-002;-9.112276602536440E-004;-8.442422840744257E-004;
2.419000000000000E+009;1.988684684038162E-001;-3.921262547373772E-002;-9.524283232167363E-004;-6.353096105158329E-004;
2.419166666666667E+009;1.977938860654831E-001;-3.917429223656654E-002;-9.631116408854723E-004;-7.208868046291173E-004;
2.419333333333334E+009;1.961226016283035E-001;-3.966846317052841E-002;-9.265200933441520E-004;-4.690231289714575E-004;
2.419500000000000E+009;1.947523802518845E-001;-3.972843289375305E-002;-9.724724804982543E-004;-3.445584443397820E-004;
2.419666666666667E+009;1.930632442235947E-001;-4.042958468198776E-002;-8.323352667503059E-004;-2.560408320277929E-004;
2.419833333333334E+009;1.914558857679367E-001;-4.099695384502411E-002;-8.045574650168419E-004;-2.431376487948000E-004;
2.420000000000000E+009;1.897116750478745E-001;-4.162840172648430E-002;-8.478043600916863E-004;-2.504246367607266E-004;
2.420166666666667E+009;1.879790574312210E-001;-4.253393039107323E-002;-8.006919524632394E-004;-1.091755038942210E-004;
2.420333333333334E+009;1.862878948450089E-001;-4.352365434169769E-002;-7.211337797343731E-004;-2.616810088511556E-004;
2.420500000000000E+009;1.843741089105606E-001;-4.475975781679153E-002;-6.389164482243359E-004;-6.112171831773594E-006;
2.420666666666667E+009;1.825696229934692E-001;-4.567229747772217E-002;-7.487746188417077E-004;3.303218181827106E-005;
2.420833333333334E+009;1.807516068220139E-001;-4.719620570540428E-002;-7.575085037387908E-004;5.134505408932455E-005;
2.421000000000000E+009;1.791200190782547E-001;-4.876425117254257E-002;-5.645892233587802E-004;-7.399060905299848E-006;
2.421166666666667E+009;1.775450259447098E-001;-5.051621794700623E-002;-5.875827046111226E-004;3.436874067119788E-006;
2.421333333333334E+009;1.754025518894196E-001;-5.199473351240158E-002;-3.884429752361029E-004;1.149168165284209E-004;
2.421500000000000E+009;1.740903705358505E-001;-5.397406592965126E-002;-4.073332820553333E-004;1.245089661097154E-004;
2.421666666666667E+009;1.724530160427094E-001;-5.582871288061142E-002;-3.466684429440647E-004;4.964836261933669E-005;
2.421833333333334E+009;1.711529046297073E-001;-5.792225152254105E-002;-4.130722372792661E-004;-2.191491148550995E-005;
2.422000000000000E+009;1.698998063802719E-001;-5.998488143086433E-002;-3.793301002588123E-004;-1.420880653313361E-005;
2.422166666666667E+009;1.686355322599411E-001;-6.228249147534370E-002;-2.867747098207474E-004;-1.339855225523934E-004;
2.422333333333334E+009;1.674348860979080E-001;-6.442362815141678E-002;-4.563308320939541E-004;1.054019503499148E-005;
2.422500000000000E+009;1.664813011884689E-001;-6.652524322271347E-002;-3.221890074200928E-004;-1.298997995036189E-005;
2.422666666666667E+009;1.655508130788803E-001;-6.863722205162048E-002;-3.209726710338146E-004;-8.993069786811248E-005;
2.422833333333334E+009;1.647275984287262E-001;-7.079547643661499E-002;-3.085331118199974E-004;-3.576063318178058E-005;
2.423000000000000E+009;1.641341447830200E-001;-7.322783023118973E-002;-1.865627564257011E-004;6.054401092114858E-005;
2.423166666666667E+009;1.637188643217087E-001;-7.538901269435883E-002;-3.386387834325433E-004;1.012878637993708E-004;
2.423333333333334E+009;1.634024083614349E-001;-7.762724906206131E-002;-4.608468734659255E-004;1.201356571982615E-004;
2.423500000000000E+009;1.632724851369858E-001;-7.956683635711670E-002;-3.341595584060997E-004;6.136235606390983E-005;
2.423666666666667E+009;1.632774174213409E-001;-8.175791054964066E-002;-1.474567106924951E-004;1.502236118540168E-004;
2.423833333333334E+009;1.631546914577484E-001;-8.384985476732254E-002;-1.526318665128201E-004;1.625058939680457E-005;
2.424000000000000E+009;1.630486100912094E-001;-8.590153604745865E-002;-1.769055961631239E-004;1.912829320644960E-004;
2.424166666666667E+009;1.631769686937332E-001;-8.766895532608032E-002;7.519462087657303E-005;-4.161865581409074E-005;
2.424333333333334E+009;1.636023670434952E-001;-8.938367664813995E-002;-1.039854760165326E-005;2.102782018482685E-004;
2.424500000000000E+009;1.640622168779373E-001;-9.134892374277115E-002;1.345541240880266E-004;7.207088970062614E-007;
2.424666666666667E+009;1.643031686544418E-001;-9.300895035266876E-002;-5.101123679196462E-005;1.587632596056210E-006;
2.424833333333334E+009;1.649745106697083E-001;-9.451917558908463E-002;1.645308948354796E-004;-9.000163845485076E-005;
2.425000000000000E+009;1.655358821153641E-001;-9.595007449388504E-002;1.291544613195583E-004;-2.815922489389777E-004;
2.425166666666667E+009;1.658828556537628E-001;-9.727103263139725E-002;2.321912616025657E-004;-1.673697552178055E-004;
2.425333333333334E+009;1.664002239704132E-001;-9.834775328636169E-002;1.185552537208423E-004;-4.218815010972321E-004;
2.425500000000000E+009;1.671311408281326E-001;-9.956151247024536E-002;4.947193883708678E-005;-5.313707515597343E-004;
2.425666666666667E+009;1.675885319709778E-001;-1.003789305686951E-001;1.054533058777452E-004;-4.612235643435270E-004;
2.425833333333334E+009;1.681767702102661E-001;-1.014910414814949E-001;4.708174856205005E-006;-5.666661891154945E-004;
2.426000000000000E+009;1.688798516988754E-001;-1.018926650285721E-001;-1.131744356825948E-004;-5.583672900684178E-004;
2.426166666666667E+009;1.695173084735870E-001;-1.025190353393555E-001;-1.059659407474101E-004;-5.539522971957922E-004;
2.426333333333334E+009;1.698641479015350E-001;-1.030797585844994E-001;-2.528906043153256E-004;-5.888379528187215E-004;
2.426500000000000E+009;1.704505980014801E-001;-1.033827438950539E-001;-7.118798384908587E-005;-5.801704246550798E-004;
2.426666666666667E+009;1.709914207458496E-001;-1.037981361150742E-001;-2.993313246406615E-004;-6.374431541189551E-004;
2.426833333333334E+009;1.714073270559311E-001;-1.040039360523224E-001;-4.515343171078712E-004;-6.714009214192629E-004;
2.427000000000000E+009;1.716627478599548E-001;-1.042971014976502E-001;-5.181495798751712E-004;-6.370850605890155E-004;
2.427166666666667E+009;1.720155030488968E-001;-1.042973622679710E-001;-5.877210060134530E-004;-6.259590154513717E-004;
2.427333333333334E+009;1.720581054687500E-001;-1.045537963509560E-001;-5.302859935909510E-004;-7.372398395091295E-004;
2.427500000000000E+009;1.721242964267731E-001;-1.045639365911484E-001;-6.636379985138774E-004;-7.199333631433547E-004;
2.427666666666667E+009;1.719778031110764E-001;-1.045652627944946E-001;-7.122947135940194E-004;-5.526238237507641E-004;
