# Version 1.00
#
freq[Hz];re:Trc1_S11;im:Trc1_S11;re:Trc2_S21;im:Trc2_S21;
2.400000000000000E+009;1.554225236177445E-001;1.107669323682785E-001;5.642907344736159E-004;3.868809144478291E-004;
2.400166666666667E+009;1.548489928245544E-001;1.084526702761650E-001;3.167291870340705E-004;3.260812663938850E-004;
2.400333333333334E+009;1.547563672065735E-001;1.062920764088631E-001;3.680177615024149E-004;2.110553177772090E-004;
2.400500000000000E+009;1.542685925960541E-001;1.035607829689980E-001;3.178477636538446E-004;1.181813568109646E-004;
2.400666666666667E+009;1.542002111673355E-001;1.011632904410362E-001;1.417652383679524E-004;2.492191269993782E-004;
2.400833333333334E+009;1.539007425308228E-001;9.818598628044128E-002;7.621300755999982E-005;2.472877094987780E-004;
2.401000000000000E+009;1.538469940423966E-001;9.544160217046738E-002;3.952945189666934E-005;3.088306984864175E-004;
2.401166666666667E+009;1.536439061164856E-001;9.269329160451889E-002;-3.135754013783298E-005;5.072162603028119E-004;
2.401333333333334E+009;1.537556648254395E-001;8.955801278352737E-002;-1.390474644722417E-004;6.893558311276138E-004;
2.401500000000000E+009;1.538688689470291E-001;8.647245168685913E-002;-1.301639567827806E-004;6.507944781333208E-004;
2.401666666666667E+009;1.539535671472549E-001;8.364140242338181E-002;-1.165547510026954E-004;7.738418644294143E-004;
2.401833333333334E+009;1.543422937393189E-001;8.064106106758118E-002;-1.530800655018538E-004;9.251867886632681E-004;
2.402000000000000E+009;1.549725085496903E-001;7.771802693605423E-002;-3.642696901806630E-005;1.004679710604250E-003;
2.402166666666667E+009;1.556007862091065E-001;7.500389218330383E-002;6.018164276611060E-005;1.108633587136865E-003;
2.402333333333334E+009;1.565442085266113E-001;7.208514958620071E-002;8.346381218871102E-005;1.103803864680231E-003;
2.402500000000000E+009;1.574741899967194E-001;6.923753023147583E-002;3.416473628021777E-004;1.121275709010661E-003;
2.402666666666667E+009;1.583581417798996E-001;6.672369688749313E-002;4.414921277202666E-004;1.200066064484417E-003;
2.402833333333334E+009;1.595755219459534E-001;6.396812945604324E-002;6.209932034835219E-004;1.171973301097751E-003;
2.403000000000000E+009;1.610676795244217E-001;6.132085248827934E-002;6.734376656822860E-004;1.156738842837513E-003;
2.403166666666667E+009;1.627070754766464E-001;5.883840098977089E-002;9.659843635745347E-004;1.258580479770899E-003;
2.403333333333334E+009;1.641118228435516E-001;5.646158009767532E-002;8.913739584386349E-004;1.176479039713740E-003;
2.403500000000000E+009;1.659402847290039E-001;5.401562526822090E-002;1.230283407494426E-003;9.225697722285986E-004;
2.403666666666667E+009;1.678357422351837E-001;5.204322934150696E-002;1.404823269695044E-003;8.461451507173479E-004;
2.403833333333334E+009;1.695731431245804E-001;4.989309608936310E-002;1.324105891399086E-003;6.492303800769150E-004;
2.404000000000000E+009;1.712872982025147E-001;4.794160649180412E-002;1.377164269797504E-003;3.892754320986569E-004;
2.404166666666667E+009;1.730352342128754E-001;4.624076560139656E-002;1.483908854424954E-003;2.918165409937501E-004;
2.404333333333334E+009;1.749113053083420E-001;4.446318745613098E-002;1.343660871498287E-003;-3.121160625596531E-005;
2.404500000000000E+009;1.766925305128098E-001;4.290969297289848E-002;1.159137464128435E-003;3.449852374615148E-005;
2.404666666666667E+009;1.783748567104340E-001;4.179075360298157E-002;1.205388223752379E-003;9.077936556423083E-005;
2.404833333333334E+009;1.803167313337326E-001;4.052961990237236E-002;1.227287459187210E-003;-1.298901188420132E-004;
2.405000000000000E+009;1.818406581878662E-001;3.976073861122131E-002;9.690866572782397E-004;-1.320537121500820E-004;
2.405166666666667E+009;1.836918592453003E-001;3.900613635778427E-002;8.435341296717525E-004;-3.138437459710985E-004;
2.405333333333334E+009;1.852805763483048E-001;3.839066997170448E-002;8.491916232742369E-004;-1.788925146684051E-004;
2.405500000000000E+009;1.870774030685425E-001;3.797345235943794E-002;7.499419734813273E-004;-2.150258515030146E-004;
2.405666666666667E+009;1.884642094373703E-001;3.754520043730736E-002;7.194481440819800E-004;-1.924301905091852E-004;
2.405833333333334E+009;1.899853795766830E-001;3.741398453712463E-002;5.692263948731124E-004;-9.770221367944032E-005;
2.406000000000000E+009;1.913751959800720E-001;3.729895874857903E-002;7.345218327827752E-004;-1.766642235452309E-004;
2.406166666666667E+009;1.926311999559403E-001;3.717091307044029E-002;7.432228303514421E-004;-1.159098246716894E-004;
2.406333333333334E+009;1.938093453645706E-001;3.728811815381050E-002;7.501541986130178E-004;-2.485074510332197E-004;
2.406500000000000E+009;1.947405040264130E-001;3.746324777603149E-002;6.950302631594241E-004;7.763114990666509E-005;
2.406666666666667E+009;1.956588625907898E-001;3.773710876703262E-002;6.925201159901917E-004;-7.007080421317369E-005;
2.406833333333334E+009;1.964144110679627E-001;3.791207820177078E-002;7.875830633565784E-004;-9.549767855787650E-005;
2.407000000000000E+009;1.970678269863129E-001;3.831802681088448E-002;9.051795932464302E-004;-6.586819654330611E-005;
2.407166666666667E+009;1.976695805788040E-001;3.848510608077049E-002;6.608817493543029E-004;-4.468027327675372E-005;
2.407333333333334E+009;1.978702843189240E-001;3.891905397176743E-002;8.675990975461900E-004;-1.402179805154447E-005;
2.407500000000000E+009;1.979232579469681E-001;3.919810056686401E-002;7.980897207744420E-004;-9.875279647530988E-005;
2.407666666666667E+009;1.980909705162048E-001;3.937387466430664E-002;7.875759620219469E-004;-2.418698859401047E-004;
2.407833333333334E+009;1.978164911270142E-001;3.969657421112061E-002;9.287998545914888E-004;-3.339065297041088E-004;
2.408000000000000E+009;1.977879106998444E-001;3.973032906651497E-002;7.058374467305839E-004;-2.988878986798227E-004;
2.408166666666667E+009;1.972904652357101E-001;3.992688655853272E-002;8.305831579491496E-004;-4.169112944509834E-004;
2.408333333333334E+009;1.969135701656342E-001;3.962348774075508E-002;6.480367737822235E-004;-3.279881784692407E-004;
2.408500000000000E+009;1.962067186832428E-001;3.974845632910729E-002;6.718651275150478E-004;-4.053826560266316E-004;
2.408666666666667E+009;1.956029832363129E-001;3.952595964074135E-002;8.167279884219170E-004;-4.065452376380563E-004;
2.408833333333334E+009;1.948775947093964E-001;3.912607952952385E-002;5.423653055913746E-004;-5.636811838485301E-004;
2.409000000000000E+009;1.938746571540833E-001;3.846013918519020E-002;6.056023994460702E-004;-4.534015315584838E-004;
2.409166666666667E+009;1.928622126579285E-001;3.776858747005463E-002;6.272096652537584E-004;-5.015690694563091E-004;
2.409333333333334E+009;1.918909549713135E-001;3.720127791166306E-002;6.220544455572963E-004;-5.188478389754891E-004;
2.409500000000000E+009;1.906105130910873E-001;3.598405420780182E-002;6.685031112283468E-004;-4.854608268942684E-004;
2.409666666666667E+009;1.894846856594086E-001;3.518029302358627E-002;6.837578839622438E-004;-5.264790379442275E-004;
2.409833333333334E+009;1.883024722337723E-001;3.380591422319412E-002;5.614830297417939E-004;-6.745643913745880E-004;
2.410000000000000E+009;1.872460246086121E-001;3.228203207254410E-002;4.268417251296341E-004;-6.531614344567061E-004;
2.410166666666667E+009;1.859718561172485E-001;3.074687719345093E-002;5.601634620688856E-004;-4.754394758492708E-004;
2.410333333333334E+009;1.848681867122650E-001;2.907710336148739E-002;3.644913958851248E-004;-6.844511954113841E-004;
2.410500000000000E+009;1.836088448762894E-001;2.735785767436028E-002;2.980384451802820E-004;-7.297238917089999E-004;
2.410666666666667E+009;1.825466901063919E-001;2.518756315112114E-002;2.468587772455066E-004;-6.968725938349962E-004;
2.410833333333334E+009;1.817195713520050E-001;2.308354899287224E-002;1.513709721621126E-004;-7.148725562728941E-004;
2.411000000000000E+009;1.807162165641785E-001;2.090631052851677E-002;8.636357961222529E-005;-6.033742101863027E-004;
2.411166666666667E+009;1.797651499509811E-001;1.870026998221874E-002;-2.055709956039209E-006;-5.756184691563249E-004;
2.411333333333334E+009;1.791312694549561E-001;1.609043218195438E-002;-1.196819575852715E-004;-4.428019165061414E-004;
2.411500000000000E+009;1.784132570028305E-001;1.378705538809300E-002;-3.523418854456395E-005;-3.681034722831100E-004;
2.411666666666667E+009;1.779285371303558E-001;1.140157226473093E-002;-7.725173782091588E-005;-4.402329795993865E-004;
2.411833333333334E+009;1.773424893617630E-001;8.999733254313469E-003;-6.001857036608271E-005;-2.168682985939086E-004;
2.412000000000000E+009;1.774594932794571E-001;6.200353614985943E-003;1.660859015828464E-005;-1.007890823530033E-004;
2.412166666666667E+009;1.773785054683685E-001;3.844567574560642E-003;3.532486516633071E-005;-1.027150647132658E-004;
2.412333333333334E+009;1.771816462278366E-001;9.999725734815002E-004;1.321203399129445E-005;-3.497145735309459E-005;
2.412500000000000E+009;1.777163147926331E-001;-1.556420349515975E-003;8.213000000978354E-006;7.954346801852807E-005;
2.412666666666667E+009;1.780063211917877E-001;-4.312888719141483E-003;8.422513928962871E-005;-6.448714884754736E-006;
2.412833333333334E+009;1.784934997558594E-001;-7.043841294944286E-003;1.840334589360282E-004;1.624988799449056E-004;
2.413000000000000E+009;1.791495084762573E-001;-9.555779397487640E-003;3.479519800748676E-004;2.356457989662886E-004;
2.413166666666667E+009;1.801157146692276E-001;-1.198423653841019E-002;5.373104941099882E-004;1.245328021468595E-004;
2.413333333333334E+009;1.810810714960098E-001;-1.458139996975660E-002;5.200656014494598E-004;1.081604568753392E-004;
2.413500000000000E+009;1.819984316825867E-001;-1.714127697050571E-002;6.321254768408835E-004;1.006759266601875E-004;
2.413666666666667E+009;1.832537651062012E-001;-1.959832943975925E-002;6.662683445028961E-004;-1.568557649989089E-006;
2.413833333333334E+009;1.843985617160797E-001;-2.182913757860661E-002;9.137863526120782E-004;-2.318007755093277E-004;
2.414000000000000E+009;1.856382489204407E-001;-2.387201227247715E-002;9.203415247611702E-004;-3.669672005344182E-004;
2.414166666666667E+009;1.868810355663300E-001;-2.611478604376316E-002;8.982821018435061E-004;-4.934816970489919E-004;
2.414333333333334E+009;1.881827116012573E-001;-2.833601832389832E-002;8.775395108386874E-004;-3.893292450811714E-004;
2.414500000000000E+009;1.895663589239121E-001;-2.993709035217762E-002;7.530779694207013E-004;-6.306958384811878E-004;
2.414666666666667E+009;1.908966749906540E-001;-3.172082826495171E-002;6.034686812199652E-004;-7.184686255641282E-004;
2.414833333333334E+009;1.923244148492813E-001;-3.335553780198097E-002;7.334536639973521E-004;-7.813415722921491E-004;
2.415000000000000E+009;1.936628073453903E-001;-3.505103290081024E-002;6.308497395366430E-004;-7.445582887157798E-004;
2.415166666666667E+009;1.950649619102478E-001;-3.619096428155899E-002;5.114000523462892E-004;-8.945442386902869E-004;
2.415333333333334E+009;1.964598596096039E-001;-3.731979802250862E-002;4.074536263942719E-004;-7.801728788763285E-004;
2.415500000000000E+009;1.978020370006561E-001;-3.815270960330963E-002;4.965013940818608E-004;-8.899373351596296E-004;
2.415666666666667E+009;1.991600841283798E-001;-3.921474888920784E-002;3.497601428534836E-004;-9.149425895884633E-004;
2.415833333333334E+009;2.003412544727325E-001;-3.992690145969391E-002;3.156699531245977E-004;-9.087147191166878E-004;
2.416000000000000E+009;2.014263719320297E-001;-4.053394496440888E-002;3.469920193310827E-004;-8.250112878158689E-004;
2.416166666666667E+009;2.023814469575882E-001;-4.110525920987129E-002;3.078779845964164E-004;-8.717144955880940E-004;
2.416333333333334E+009;2.032977938652039E-001;-4.147401452064514E-002;1.736972626531497E-004;-1.063794014044106E-003;
2.416500000000000E+009;2.040837705135346E-001;-4.168870300054550E-002;3.061512834392488E-004;-1.038697781041265E-003;
2.416666666666667E+009;2.045812159776688E-001;-4.205525666475296E-002;1.238251861650497E-004;-1.059251604601741E-003;
2.416833333333334E+009;2.051207423210144E-001;-4.208498075604439E-002;1.509112626081333E-004;-8.711341070011258E-004;
2.417000000000000E+009;2.054845243692398E-001;-4.213270917534828E-002;1.125978160416707E-004;-1.112370984628797E-003;
2.417166666666667E+009;2.055136263370514E-001;-4.202431440353394E-002;-9.199232590617612E-005;-1.079789246432483E-003;
2.417333333333334E+009;2.055038362741470E-001;-4.171141237020493E-002;-1.086447955458425E-004;-1.217490294948220E-003;
2.417500000000000E+009;2.055687606334686E-001;-4.165429621934891E-002;-1.880260097095743E-004;-1.123533351346850E-003;
2.417666666666667E+009;2.052242755889893E-001;-4.120796546339989E-002;-2.414566260995343E-004;-1.105142990127206E-003;
2.417833333333334E+009;2.049642801284790E-001;-4.083847254514694E-002;-4.192108171992004E-004;-1.296339207328856E-003;
2.418000000000000E+009;2.044225484132767E-001;-4.036201909184456E-002;-4.146143037360162E-004;-1.195744029246271E-003;
2.418166666666667E+009;2.038931697607040E-001;-4.019406437873840E-002;-5.701076006516814E-004;-1.036020228639245E-003;
2.418333333333334E+009;2.031514346599579E-001;-3.986082971096039E-002;-6.489068036898971E-004;-1.025818986818194E-003;
2.418500000000000E+009;2.022604793310165E-001;-3.974889218807221E-002;-5.965339369140565E-004;-9.701681556180120E-004;
2.418666666666667E+009;2.013957202434540E-001;-3.933455795049667E-002;-8.448146400041878E-004;-8.813469321466982E-004;
2.418833333333334E+009;2.002228051424027E-001;-3.926849365234375E-002;-8.920944528654218E-004;-8.569955825805664E-004;
2.419000000000000E+009;1.988691836595535E-001;-3.920838236808777E-002;-8.567602490074933E-004;-6.670071743428707E-004;
2.419166666666667E+009;1.977087557315826E-001;-3.938378766179085E-002;-9.133405983448029E-004;-6.987720262259245E-004;
2.419333333333334E+009;1.964187771081924E-001;-3.970373421907425E-002;-1.154507976025343E-003;-4.577521176543087E-004;
2.419500000000000E+009;1.947018206119537E-001;-3.985346481204033E-002;-1.028281054459512E-003;-3.439655120018870E-004;
2.419666666666667E+009;1.930920779705048E-001;-4.056069627404213E-002;-8.417045464739204E-004;-3.672070743050426E-004;
2.419833333333334E+009;1.913001090288162E-001;-4.103859513998032E-002;-8.334777085110545E-004;-2.507754252292216E-004;
2.420000000000000E+009;1.897930502891541E-001;-4.184608906507492E-002;-9.452094091102481E-004;-2.241743641206995E-004;
2.420166666666667E+009;1.879966706037521E-001;-4.245674610137940E-002;-7.784899789839983E-004;-8.820692892186344E-005;
2.420333333333334E+009;1.862209886312485E-001;-4.369404539465904E-002;-7.757900166325271E-004;-1.600142422830686E-004;
2.420500000000000E+009;1.844342648983002E-001;-4.472640901803970E-002;-6.401420105248690E-004;-1.342373579973355E-004;
2.420666666666667E+009;1.827079653739929E-001;-4.587076231837273E-002;-6.120344623923302E-004;-2.856396008610318E-007;
2.420833333333334E+009;1.808546036481857E-001;-4.721393063664436E-002;-5.393717437982559E-004;-9.427232726011425E-005;
2.421000000000000E+009;1.789936870336533E-001;-4.877467453479767E-002;-5.206462810747325E-004;1.253218360943720E-004;
2.421166666666667E+009;1.773968189954758E-001;-5.065954104065895E-002;-4.959031939506531E-004;-2.270864206366241E-005;
2.421333333333334E+009;1.755922436714172E-001;-5.208927765488625E-002;-4.996130592189729E-004;3.021027259819675E-005;
2.421500000000000E+009;1.739759445190430E-001;-5.411738157272339E-002;-3.338184033054858E-004;1.365613911730179E-006;
2.421666666666667E+009;1.726048141717911E-001;-5.601911619305611E-002;-3.993782447651029E-004;-4.812742918147706E-005;
2.421833333333334E+009;1.712237149477005E-001;-5.786653608083725E-002;-3.031714295502752E-004;6.042246604920365E-005;
2.422000000000000E+009;1.696761101484299E-001;-5.992134660482407E-002;-3.518199955578893E-004;3.418465712456964E-005;
2.422166666666667E+009;1.685784757137299E-001;-6.219360604882240E-002;-3.527691587805748E-004;3.034445398952812E-006;
2.422333333333334E+009;1.674823611974716E-001;-6.442187726497650E-002;-2.513542422093451E-004;3.717719664564356E-005;
2.422500000000000E+009;1.664174795150757E-001;-6.635531038045883E-002;-3.376986423972994E-004;-2.216224311268888E-005;
2.422666666666667E+009;1.654681563377380E-001;-6.878751516342163E-002;-3.738502564374358E-004;-2.512651008146349E-005;
2.422833333333334E+009;1.648483425378799E-001;-7.093556225299835E-002;-3.469821240287274E-004;3.695524355862290E-005;
2.423000000000000E+009;1.643899977207184E-001;-7.337424904108048E-002;-2.203788753831759E-004;5.015436181565747E-005;
2.423166666666667E+009;1.636471599340439E-001;-7.531982660293579E-002;-2.835175255313516E-004;-7.061497308313847E-005;
2.423333333333334E+009;1.634549945592880E-001;-7.772824913263321E-002;-2.692251873668283E-004;3.816657226707321E-006;
2.423500000000000E+009;1.631339639425278E-001;-7.970845699310303E-002;-2.632108516991139E-004;9.725689778861124E-006;
2.423666666666667E+009;1.631424576044083E-001;-8.191541582345963E-002;-2.232893020845950E-004;1.915744724101387E-005;
2.423833333333334E+009;1.630765646696091E-001;-8.393559604883194E-002;-2.119895216310397E-004;3.661656228359789E-005;
2.424000000000000E+009;1.631181985139847E-001;-8.601969480514526E-002;-4.292642915970646E-005;1.418728061253205E-004;
2.424166666666667E+009;1.632985621690750E-001;-8.777792751789093E-002;-8.357503975275904E-005;8.459534001303837E-005;
2.424333333333334E+009;1.635729521512985E-001;-8.960511535406113E-002;1.575449277879670E-005;-1.135383718064986E-005;
2.424500000000000E+009;1.638125181198120E-001;-9.162008762359619E-002;6.973593553993851E-005;-2.365355248912238E-005;
2.424666666666667E+009;1.642805933952332E-001;-9.320107847452164E-002;1.139335945481435E-004;-9.750617027748376E-005;
2.424833333333334E+009;1.648918837308884E-001;-9.469091892242432E-002;1.337197754764929E-004;-5.384085307014175E-005;
2.425000000000000E+009;1.654237508773804E-001;-9.607402235269547E-002;1.409246178809553E-004;-2.258902677567676E-004;
2.425166666666667E+009;1.658298969268799E-001;-9.723345935344696E-002;8.808900747681037E-005;-3.378271940164268E-004;
2.425333333333334E+009;1.664547622203827E-001;-9.845826029777527E-002;1.736634294502437E-004;-4.628330061677843E-004;
2.425500000000000E+009;1.669485569000244E-001;-9.968475252389908E-002;7.672072388231754E-005;-4.467497928999364E-004;
2.425666666666667E+009;1.675456613302231E-001;-1.004088073968887E-001;3.464375913608819E-005;-5.205108318477869E-004;
2.425833333333334E+009;1.680901050567627E-001;-1.014374494552612E-001;-4.064209133503027E-005;-7.094561588019133E-004;
2.426000000000000E+009;1.688100844621658E-001;-1.019985750317574E-001;-4.786052159033716E-005;-6.035371334291995E-004;
2.426166666666667E+009;1.694466471672058E-001;-1.026338040828705E-001;-1.573040935909376E-004;-6.038089049980044E-004;
2.426333333333334E+009;1.696884930133820E-001;-1.031107231974602E-001;-1.416072336724028E-004;-7.053060689941049E-004;
2.426500000000000E+009;1.703684628009796E-001;-1.035663262009621E-001;-3.668328281491995E-004;-5.354458116926253E-004;
2.426666666666667E+009;1.707821786403656E-001;-1.038533449172974E-001;-3.992109268438071E-004;-7.340232259593904E-004;
2.426833333333334E+009;1.713392883539200E-001;-1.041488498449326E-001;-4.616266523953527E-004;-8.039248641580343E-004;
2.427000000000000E+009;1.716242581605911E-001;-1.043286547064781E-001;-5.346572143025696E-004;-6.643775850534439E-004;
2.427166666666667E+009;1.718788743019104E-001;-1.043880060315132E-001;-7.487456314265728E-004;-5.571134388446808E-004;
2.427333333333334E+009;1.720485836267471E-001;-1.045350655913353E-001;-6.838795961812139E-004;-5.779356579296291E-004;
2.427500000000000E+009;1.719575375318527E-001;-1.046056747436523E-001;-7.726533222012222E-004;-6.390456110239029E-004;
2.427666666666667E+009;1.718307584524155E-001;-1.045830845832825E-001;-7.945111137814820E-004;-4.363215703051537E-004;
