# Version 1.00
#
freq[Hz];re:Trc1_S11;im:Trc1_S11;re:Trc2_S21;im:Trc2_S21;
2.400000000000000E+009;1.568213403224945E-001;6.104611232876778E-002;-5.471437703818083E-003;1.765539753250778E-003;
2.400166666666667E+009;1.567568629980087E-001;5.943180248141289E-002;-5.256468430161476E-003;1.943591167218983E-003;
2.400333333333334E+009;1.568641960620880E-001;5.722205340862274E-002;-5.265002138912678E-003;1.991253346204758E-003;
2.400500000000000E+009;1.570901572704315E-001;5.555401369929314E-002;-5.072522442787886E-003;2.394275274127722E-003;
2.400666666666667E+009;1.571600586175919E-001;5.331598594784737E-002;-5.021104123443365E-003;2.479249611496925E-003;
2.400833333333334E+009;1.575789600610733E-001;5.138431861996651E-002;-4.959388170391321E-003;2.499409019947052E-003;
2.401000000000000E+009;1.579673886299133E-001;4.939169436693192E-002;-4.871591459959745E-003;2.538654720410705E-003;
2.401166666666667E+009;1.582481116056442E-001;4.699756205081940E-002;-4.899939522147179E-003;2.751528751105070E-003;
2.401333333333334E+009;1.584544181823731E-001;4.510655254125595E-002;-4.688242916017771E-003;2.807327313348651E-003;
2.401500000000000E+009;1.591720581054688E-001;4.301260411739349E-002;-4.647727124392986E-003;3.140314947813749E-003;
2.401666666666667E+009;1.596962213516235E-001;4.112761840224266E-002;-4.499004688113928E-003;3.077139612287283E-003;
2.401833333333334E+009;1.601676642894745E-001;3.926637396216393E-002;-4.296922124922276E-003;3.348462050780654E-003;
2.402000000000000E+009;1.607490926980972E-001;3.729426115751267E-002;-4.439640790224075E-003;3.467956092208624E-003;
2.402166666666667E+009;1.612946689128876E-001;3.522579744458199E-002;-4.313210956752300E-003;3.674713894724846E-003;
2.402333333333334E+009;1.619645357131958E-001;3.349899128079414E-002;-4.217725247144699E-003;3.757497528567910E-003;
2.402500000000000E+009;1.630456447601318E-001;3.186781331896782E-002;-4.218931775540113E-003;3.969041164964438E-003;
2.402666666666667E+009;1.637687385082245E-001;3.021078929305077E-002;-3.876640461385250E-003;3.911908250302076E-003;
2.402833333333334E+009;1.645994931459427E-001;2.874475903809071E-002;-3.839050186797977E-003;4.088334739208221E-003;
2.403000000000000E+009;1.655658930540085E-001;2.700296230614185E-002;-3.725666552782059E-003;4.227448254823685E-003;
2.403166666666667E+009;1.664923280477524E-001;2.565210498869419E-002;-3.496653400361538E-003;4.350877366960049E-003;
2.403333333333334E+009;1.672630161046982E-001;2.444987744092941E-002;-3.336286172270775E-003;4.439425189048052E-003;
2.403500000000000E+009;1.682845950126648E-001;2.314068377017975E-002;-3.189475275576115E-003;4.482296761125326E-003;
2.403666666666667E+009;1.693023443222046E-001;2.197360806167126E-002;-3.170169424265623E-003;4.754937719553709E-003;
2.403833333333334E+009;1.703150868415833E-001;2.095627970993519E-002;-3.014127723872662E-003;4.935130942612886E-003;
2.404000000000000E+009;1.711379736661911E-001;1.986893266439438E-002;-2.644432242959738E-003;5.064352415502071E-003;
2.404166666666667E+009;1.721153110265732E-001;1.872666552662849E-002;-2.514862455427647E-003;5.235560238361359E-003;
2.404333333333334E+009;1.728148311376572E-001;1.795735768973827E-002;-2.319982275366783E-003;5.198194179683924E-003;
2.404500000000000E+009;1.736926883459091E-001;1.707712747156620E-002;-2.145109698176384E-003;5.299734883010387E-003;
2.404666666666667E+009;1.746597886085510E-001;1.639778912067413E-002;-1.873444067314267E-003;5.270325578749180E-003;
2.404833333333334E+009;1.754676550626755E-001;1.579174958169460E-002;-1.849239226430655E-003;5.500358529388905E-003;
2.405000000000000E+009;1.762010455131531E-001;1.517337653785944E-002;-1.571629079990089E-003;5.472507793456316E-003;
2.405166666666667E+009;1.769576072692871E-001;1.471382752060890E-002;-1.389972167089582E-003;5.526287015527487E-003;
2.405333333333334E+009;1.776505857706070E-001;1.414488442242146E-002;-1.335557084530592E-003;5.579176824539900E-003;
2.405500000000000E+009;1.782427281141281E-001;1.376835722476244E-002;-1.032861997373402E-003;5.706480704247952E-003;
2.405666666666667E+009;1.787245422601700E-001;1.336879655718803E-002;-8.108398178592324E-004;5.727003328502178E-003;
2.405833333333334E+009;1.789441108703613E-001;1.308103092014790E-002;-4.730993532575667E-004;5.862675607204437E-003;
2.406000000000000E+009;1.795077025890350E-001;1.262596901506186E-002;-3.054773842450231E-004;5.733254365622997E-003;
2.406166666666667E+009;1.796433180570602E-001;1.238892693072557E-002;1.088194549083710E-004;5.694495048373938E-003;
2.406333333333334E+009;1.799832135438919E-001;1.220359373837709E-002;3.302156692370772E-004;5.758361425250769E-003;
2.406500000000000E+009;1.801447421312332E-001;1.174711436033249E-002;5.906589212827385E-004;5.551333073526621E-003;
2.406666666666667E+009;1.799267381429672E-001;1.150444243103266E-002;7.126550772227347E-004;5.621827207505703E-003;
2.406833333333334E+009;1.801392734050751E-001;1.103240717202425E-002;1.006503822281957E-003;5.388853140175343E-003;
2.407000000000000E+009;1.800764948129654E-001;1.072231400758028E-002;1.132117700763047E-003;5.342901684343815E-003;
2.407166666666667E+009;1.799680143594742E-001;1.040619798004627E-002;1.349646714515984E-003;5.264417268335819E-003;
2.407333333333334E+009;1.795071959495544E-001;9.686878882348537E-003;1.464783446863294E-003;5.069971550256014E-003;
2.407500000000000E+009;1.792387366294861E-001;9.347818791866303E-003;1.690475037321448E-003;4.957303404808044E-003;
2.407666666666667E+009;1.790337413549423E-001;8.899036794900894E-003;1.998065272346139E-003;4.882274661213160E-003;
2.407833333333334E+009;1.783134192228317E-001;8.071775548160076E-003;1.976123545318842E-003;4.684547893702984E-003;
2.408000000000000E+009;1.778645813465118E-001;7.232444360852242E-003;2.187100239098072E-003;4.562322515994310E-003;
2.408166666666667E+009;1.772982627153397E-001;6.580732297152281E-003;2.362483879551292E-003;4.438166506588459E-003;
2.408333333333334E+009;1.768755167722702E-001;5.640164948999882E-003;2.352152951061726E-003;4.366677720099688E-003;
2.408500000000000E+009;1.762845516204834E-001;4.620260093361139E-003;2.706074155867100E-003;4.075832664966583E-003;
2.408666666666667E+009;1.756167858839035E-001;3.607874969020486E-003;2.529178047552705E-003;3.884611651301384E-003;
2.408833333333334E+009;1.748781502246857E-001;2.437561284750700E-003;2.871646545827389E-003;3.757698927074671E-003;
2.409000000000000E+009;1.742260605096817E-001;1.227833447046578E-003;2.660210244357586E-003;3.663725685328245E-003;
2.409166666666667E+009;1.735147684812546E-001;6.300648237811402E-005;2.983401063829660E-003;3.423036076128483E-003;
2.409333333333334E+009;1.728617250919342E-001;-1.466870773583651E-003;2.945965155959129E-003;3.385728690773249E-003;
2.409500000000000E+009;1.722493171691895E-001;-3.041052492335439E-003;3.054521046578884E-003;3.126774681732059E-003;
2.409666666666667E+009;1.715812236070633E-001;-4.470068961381912E-003;3.090466605499387E-003;3.040800336748362E-003;
2.409833333333334E+009;1.708809733390808E-001;-5.782512947916985E-003;3.058136906474829E-003;2.934718970209360E-003;
2.410000000000000E+009;1.704281568527222E-001;-7.593923248350620E-003;3.294849069789052E-003;2.701007062569261E-003;
2.410166666666667E+009;1.698142886161804E-001;-9.201472625136375E-003;3.137559862807393E-003;2.697974909096956E-003;
2.410333333333334E+009;1.693223118782044E-001;-1.098312437534332E-002;3.315285313874483E-003;2.563999965786934E-003;
2.410500000000000E+009;1.689912080764771E-001;-1.287135016173124E-002;3.373932791873813E-003;2.400975907221437E-003;
2.410666666666667E+009;1.684934943914414E-001;-1.483476161956787E-002;3.314896486699581E-003;2.183043165132403E-003;
2.410833333333334E+009;1.682561933994293E-001;-1.649813726544380E-002;3.467445494607091E-003;2.087961416691542E-003;
2.411000000000000E+009;1.680856645107269E-001;-1.838974095880985E-002;3.311246400699019E-003;2.117313444614410E-003;
2.411166666666667E+009;1.678271889686585E-001;-2.042034082114697E-002;3.482621628791094E-003;1.983869820833206E-003;
2.411333333333334E+009;1.677444726228714E-001;-2.236316725611687E-002;3.342040581628680E-003;1.608614227734506E-003;
2.411500000000000E+009;1.676649451255798E-001;-2.438254654407501E-002;3.436901140958071E-003;1.476360601373017E-003;
2.411666666666667E+009;1.677925884723663E-001;-2.629622444510460E-002;3.323642769828439E-003;1.326679950580001E-003;
2.411833333333334E+009;1.679816842079163E-001;-2.810916490852833E-002;3.324345685541630E-003;1.191190560348332E-003;
2.412000000000000E+009;1.682283431291580E-001;-3.011633828282356E-002;3.247952787205577E-003;1.173780998215079E-003;
2.412166666666667E+009;1.682840734720230E-001;-3.191488981246948E-002;3.287239465862513E-003;8.526598103344441E-004;
2.412333333333334E+009;1.687167882919312E-001;-3.372234478592873E-002;3.285316284745932E-003;9.441414149478078E-004;
2.412500000000000E+009;1.689665168523789E-001;-3.554269298911095E-002;3.296072129160166E-003;7.780131418257952E-004;
2.412666666666667E+009;1.694332957267761E-001;-3.746898844838142E-002;3.280727425590158E-003;7.091765291988850E-004;
2.412833333333334E+009;1.700822561979294E-001;-3.912434726953507E-002;3.200951730832458E-003;5.114168161526322E-004;
2.413000000000000E+009;1.705678403377533E-001;-4.100386425852776E-002;3.007113235071302E-003;4.278938286006451E-004;
2.413166666666667E+009;1.710102409124374E-001;-4.263455048203468E-002;3.057508729398251E-003;4.961097147315741E-004;
2.413333333333334E+009;1.715470850467682E-001;-4.400157183408737E-002;2.992911031469703E-003;3.838135744445026E-004;
2.413500000000000E+009;1.722034662961960E-001;-4.562866687774658E-002;2.934898249804974E-003;5.494516881299205E-005;
2.413666666666667E+009;1.728839874267578E-001;-4.695216566324234E-002;2.813100581988692E-003;1.063463496393524E-004;
2.413833333333334E+009;1.733019202947617E-001;-4.835255816578865E-002;2.715742681175470E-003;1.402396446792409E-004;
2.414000000000000E+009;1.737884730100632E-001;-4.949792474508286E-002;2.668023575097323E-003;-6.383961590472609E-005;
2.414166666666667E+009;1.745271086692810E-001;-5.056978017091751E-002;2.730605658143759E-003;4.848606113228016E-005;
2.414333333333334E+009;1.751328259706497E-001;-5.179803445935249E-002;2.478522248566151E-003;-1.881218049675226E-004;
2.414500000000000E+009;1.758780628442764E-001;-5.280033126473427E-002;2.595852361992002E-003;-1.493141462560743E-004;
2.414666666666667E+009;1.761905252933502E-001;-5.347409471869469E-002;2.512768842279911E-003;-2.673752314876765E-004;
2.414833333333334E+009;1.765432953834534E-001;-5.447169765830040E-002;2.203730633482337E-003;-2.897573576774448E-004;
2.415000000000000E+009;1.770210564136505E-001;-5.517093464732170E-002;2.439893316477537E-003;-3.281649842392653E-004;
2.415166666666667E+009;1.772235631942749E-001;-5.572686344385147E-002;2.251765690743923E-003;-3.795417433138937E-004;
2.415333333333334E+009;1.776860356330872E-001;-5.640858411788940E-002;2.342284889891744E-003;-2.926310407929122E-004;
2.415500000000000E+009;1.781138628721237E-001;-5.684100463986397E-002;2.137621864676476E-003;-4.165992722846568E-004;
2.415666666666667E+009;1.781493574380875E-001;-5.733349174261093E-002;2.106320811435580E-003;-2.998399431817234E-004;
2.415833333333334E+009;1.782631278038025E-001;-5.768280476331711E-002;2.181260148063302E-003;-1.484270615037531E-004;
2.416000000000000E+009;1.781052947044373E-001;-5.802012979984283E-002;2.053674310445786E-003;-4.666841996368021E-004;
2.416166666666667E+009;1.783510297536850E-001;-5.835250765085220E-002;2.216227585449815E-003;-3.738460654858500E-004;
2.416333333333334E+009;1.781053990125656E-001;-5.871896073222160E-002;2.006744034588337E-003;-4.602679691743106E-004;
2.416500000000000E+009;1.778105944395065E-001;-5.890916287899017E-002;1.958523411303759E-003;-5.128163029439747E-004;
2.416666666666667E+009;1.774171143770218E-001;-5.915955081582069E-002;1.874004839919508E-003;-4.688462067861110E-004;
2.416833333333334E+009;1.771846264600754E-001;-5.942244827747345E-002;1.977787120267749E-003;-3.970123361796141E-004;
2.417000000000000E+009;1.764295846223831E-001;-5.970874056220055E-002;1.894594752229750E-003;-5.802913801744580E-004;
2.417166666666667E+009;1.758790612220764E-001;-5.980757623910904E-002;1.862093573436141E-003;-5.074482760392129E-004;
2.417333333333334E+009;1.753004044294357E-001;-5.997262150049210E-002;1.944730058312416E-003;-5.748248659074307E-004;
2.417500000000000E+009;1.744437366724014E-001;-6.044935062527657E-002;1.878770417533815E-003;-4.674748342949897E-004;
2.417666666666667E+009;1.737000197172165E-001;-6.056995317339897E-002;1.854215515777469E-003;-5.926726153120399E-004;
2.417833333333334E+009;1.726392507553101E-001;-6.090071424841881E-002;1.868027960881591E-003;-6.776891532354057E-004;
2.418000000000000E+009;1.716125607490540E-001;-6.132337078452110E-002;1.871279673650861E-003;-5.378742935135961E-004;
2.418166666666667E+009;1.705878525972366E-001;-6.157765164971352E-002;1.742669614031911E-003;-5.214580451138318E-004;
2.418333333333334E+009;1.698038876056671E-001;-6.219386309385300E-002;1.801042584702373E-003;-6.292905309237540E-004;
2.418500000000000E+009;1.684145927429199E-001;-6.261129677295685E-002;2.002988476306200E-003;-7.974255713634193E-004;
2.418666666666667E+009;1.674229949712753E-001;-6.328450888395309E-002;1.766222296282649E-003;-7.488190312869847E-004;
2.418833333333334E+009;1.660734862089157E-001;-6.394942104816437E-002;1.812309958040714E-003;-7.546177948825061E-004;
2.419000000000000E+009;1.648668795824051E-001;-6.460820883512497E-002;1.607212587259710E-003;-8.714981959201396E-004;
2.419166666666667E+009;1.635787189006805E-001;-6.546842306852341E-002;1.687640324234963E-003;-7.966169505380094E-004;
2.419333333333334E+009;1.623910814523697E-001;-6.613554805517197E-002;1.537406002171338E-003;-7.674131193198264E-004;
2.419500000000000E+009;1.611476391553879E-001;-6.731007993221283E-002;1.550037297420204E-003;-8.003310649655759E-004;
2.419666666666667E+009;1.602588146924973E-001;-6.852324306964874E-002;1.441710279323161E-003;-7.907943800091744E-004;
2.419833333333334E+009;1.588889956474304E-001;-6.945188343524933E-002;1.543857972137630E-003;-8.253325358964503E-004;
2.420000000000000E+009;1.576384007930756E-001;-7.061468809843063E-002;1.574901631101966E-003;-7.964915712364018E-004;
2.420166666666667E+009;1.566393375396729E-001;-7.187037914991379E-002;1.257878262549639E-003;-8.368461276404560E-004;
2.420333333333334E+009;1.557253599166870E-001;-7.323496043682098E-002;1.408877200447023E-003;-1.008159597404301E-003;
2.420500000000000E+009;1.548053771257401E-001;-7.454092800617218E-002;1.450405688956380E-003;-8.545237360522151E-004;
2.420666666666667E+009;1.537985652685165E-001;-7.582527399063110E-002;1.501241698861122E-003;-8.987557375803590E-004;
2.420833333333334E+009;1.530696004629135E-001;-7.730834186077118E-002;1.385724521242082E-003;-9.203324443660677E-004;
2.421000000000000E+009;1.522850245237351E-001;-7.900268584489822E-002;1.165745430625975E-003;-1.003345008939505E-003;
2.421166666666667E+009;1.515737771987915E-001;-8.053617924451828E-002;1.112530473619700E-003;-9.257738129235804E-004;
2.421333333333334E+009;1.512469202280045E-001;-8.219916373491287E-002;1.132510718889535E-003;-8.472732733935118E-004;
2.421500000000000E+009;1.505641788244247E-001;-8.383152633905411E-002;1.276309136301279E-003;-1.067037810571492E-003;
2.421666666666667E+009;1.501363664865494E-001;-8.550635725259781E-002;1.149790710769594E-003;-9.391300263814628E-004;
2.421833333333334E+009;1.497144550085068E-001;-8.717335760593414E-002;1.117913401685655E-003;-9.050591033883393E-004;
2.422000000000000E+009;1.496001034975052E-001;-8.885492384433746E-002;1.096134772524238E-003;-8.900242391973734E-004;
2.422166666666667E+009;1.493964493274689E-001;-9.072591364383698E-002;1.098615466617048E-003;-8.794796885922551E-004;
2.422333333333334E+009;1.492560952901840E-001;-9.219999611377716E-002;1.048082485795021E-003;-1.060435199178755E-003;
2.422500000000000E+009;1.492657959461212E-001;-9.382127225399017E-002;1.105788280256093E-003;-9.199993219226599E-004;
2.422666666666667E+009;1.493196338415146E-001;-9.562546759843826E-002;8.917143568396568E-004;-8.583311573602259E-004;
2.422833333333334E+009;1.496038436889648E-001;-9.721014648675919E-002;1.050213002599776E-003;-8.642331813462079E-004;
2.423000000000000E+009;1.497472226619721E-001;-9.869567304849625E-002;9.296132484450936E-004;-8.667438523843885E-004;
2.423166666666667E+009;1.501439660787582E-001;-1.002450436353684E-001;9.500766755081713E-004;-7.712046499364078E-004;
2.423333333333334E+009;1.505119055509567E-001;-1.016761884093285E-001;8.830460719764233E-004;-7.238077232614160E-004;
2.423500000000000E+009;1.509222537279129E-001;-1.032345145940781E-001;9.260217775590718E-004;-8.043648558668792E-004;
2.423666666666667E+009;1.510737538337708E-001;-1.046752482652664E-001;8.966200402937830E-004;-8.025846909731627E-004;
2.423833333333334E+009;1.517851650714874E-001;-1.059944480657578E-001;8.936827071011066E-004;-7.701856084167957E-004;
2.424000000000000E+009;1.519467532634735E-001;-1.071448773145676E-001;9.442400187253952E-004;-6.092013209126890E-004;
2.424166666666667E+009;1.525169312953949E-001;-1.084838882088661E-001;9.031192166730762E-004;-8.161321165971458E-004;
2.424333333333334E+009;1.530752629041672E-001;-1.094421893358231E-001;8.781432989053428E-004;-6.310213357210159E-004;
2.424500000000000E+009;1.535588949918747E-001;-1.105695962905884E-001;9.356798254884780E-004;-5.361370858736336E-004;
2.424666666666667E+009;1.541497707366943E-001;-1.113310977816582E-001;1.000539166852832E-003;-7.122026290744543E-004;
2.424833333333334E+009;1.545709371566773E-001;-1.122408062219620E-001;9.993198327720165E-004;-7.416805019602180E-004;
2.425000000000000E+009;1.549527496099472E-001;-1.131264343857765E-001;1.162065658718348E-003;-5.779622006230056E-004;
2.425166666666667E+009;1.552244424819946E-001;-1.136938333511353E-001;1.133776619099081E-003;-5.244996282272041E-004;
2.425333333333334E+009;1.557230651378632E-001;-1.143207848072052E-001;1.197636243887246E-003;-6.755223148502410E-004;
2.425500000000000E+009;1.561168879270554E-001;-1.151114031672478E-001;1.195290475152433E-003;-7.327759522013366E-004;
2.425666666666667E+009;1.561296284198761E-001;-1.154946833848953E-001;1.100416178815067E-003;-5.199571023695171E-004;
2.425833333333334E+009;1.563909351825714E-001;-1.159197762608528E-001;1.165334135293961E-003;-7.777936407364905E-004;
2.426000000000000E+009;1.564693450927734E-001;-1.163252517580986E-001;1.242461381480098E-003;-8.249506354331970E-004;
2.426166666666667E+009;1.567465811967850E-001;-1.166689023375511E-001;1.312340144068003E-003;-7.294049137271941E-004;
2.426333333333334E+009;1.565495580434799E-001;-1.170189529657364E-001;1.521524623967707E-003;-8.921823464334011E-004;
2.426500000000000E+009;1.564416736364365E-001;-1.170759499073029E-001;1.359186600893736E-003;-8.702153572812676E-004;
2.426666666666667E+009;1.564096063375473E-001;-1.171899139881134E-001;1.279558055102825E-003;-9.516511345282197E-004;
2.426833333333334E+009;1.560439467430115E-001;-1.173153743147850E-001;1.537808566354215E-003;-9.650030988268554E-004;
2.427000000000000E+009;1.555396169424057E-001;-1.175808459520340E-001;1.569676096551120E-003;-1.007157843559980E-003;
2.427166666666667E+009;1.550452411174774E-001;-1.175713315606117E-001;1.487056026235223E-003;-1.093380153179169E-003;
2.427333333333334E+009;1.544819325208664E-001;-1.177587509155273E-001;1.436347956769168E-003;-1.198677229695022E-003;
2.427500000000000E+009;1.539726853370667E-001;-1.178453192114830E-001;1.471279538236558E-003;-1.273850328288972E-003;
2.427666666666667E+009;1.530472040176392E-001;-1.180587112903595E-001;1.508545596152544E-003;-1.286300481297076E-003;
2.427833333333334E+009;1.522309929132462E-001;-1.182111352682114E-001;1.533908885903657E-003;-1.261396449990571E-003;
