# Version 1.00
#
freq[Hz];re:Trc1_S11;im:Trc1_S11;re:Trc2_S21;im:Trc2_S21;
2.400000000000000E+009;1.568393856287003E-001;6.094221025705338E-002;-5.342106334865093E-003;2.064549364149571E-003;
2.400166666666667E+009;1.569612026214600E-001;5.922069400548935E-002;-5.338185001164675E-003;2.157364739105105E-003;
2.400333333333334E+009;1.570075154304504E-001;5.725928023457527E-002;-5.150215234607458E-003;2.280539600178599E-003;
2.400500000000000E+009;1.572073400020599E-001;5.529561266303062E-002;-5.148729309439659E-003;2.554750302806497E-003;
2.400666666666667E+009;1.574408859014511E-001;5.312231928110123E-002;-4.903252236545086E-003;2.622258383780718E-003;
2.400833333333334E+009;1.578092873096466E-001;5.135009065270424E-002;-4.988693166524172E-003;2.864387352019548E-003;
2.401000000000000E+009;1.580238193273544E-001;4.918166622519493E-002;-5.105957388877869E-003;2.816923195496202E-003;
2.401166666666667E+009;1.582338064908981E-001;4.700113087892532E-002;-4.903781693428755E-003;2.932313131168485E-003;
2.401333333333334E+009;1.584264189004898E-001;4.514474421739578E-002;-4.905434325337410E-003;3.323591314256191E-003;
2.401500000000000E+009;1.592012792825699E-001;4.304016754031181E-002;-4.577369429171085E-003;3.291199915111065E-003;
2.401666666666667E+009;1.596524566411972E-001;4.103898257017136E-002;-4.689530469477177E-003;3.455919446423650E-003;
2.401833333333334E+009;1.602765023708344E-001;3.900313377380371E-002;-4.502393770962954E-003;3.682531416416168E-003;
2.402000000000000E+009;1.608270406723023E-001;3.721168264746666E-002;-4.315293394029141E-003;3.912063781172037E-003;
2.402166666666667E+009;1.614773124456406E-001;3.527698665857315E-002;-4.070076160132885E-003;3.812465583905578E-003;
2.402333333333334E+009;1.621417999267578E-001;3.342892229557037E-002;-4.230171442031860E-003;3.912956453859806E-003;
2.402500000000000E+009;1.631384640932083E-001;3.184173628687859E-002;-4.141921643167734E-003;4.298419691622257E-003;
2.402666666666667E+009;1.636541634798050E-001;3.003414347767830E-002;-3.950352314859629E-003;4.298365209251642E-003;
2.402833333333334E+009;1.646398603916168E-001;2.851716987788677E-002;-3.785063046962023E-003;4.362004809081554E-003;
2.403000000000000E+009;1.654289364814758E-001;2.701403945684433E-002;-3.574146423488855E-003;4.594327416270971E-003;
2.403166666666667E+009;1.664299815893173E-001;2.570278197526932E-002;-3.437298350036144E-003;4.685761407017708E-003;
2.403333333333334E+009;1.674420684576035E-001;2.438648790121079E-002;-3.276275470852852E-003;4.737001378089190E-003;
2.403500000000000E+009;1.682886630296707E-001;2.322566695511341E-002;-3.068922087550163E-003;4.906873218715191E-003;
2.403666666666667E+009;1.692682802677155E-001;2.185465395450592E-002;-2.882503438740969E-003;4.958993755280972E-003;
2.403833333333334E+009;1.702919900417328E-001;2.088489942252636E-002;-2.791260136291385E-003;5.078380927443504E-003;
2.404000000000000E+009;1.711948961019516E-001;1.974225416779518E-002;-2.586056711152196E-003;5.186768248677254E-003;
2.404166666666667E+009;1.720348298549652E-001;1.883614063262940E-002;-2.405154518783093E-003;5.566519219428301E-003;
2.404333333333334E+009;1.728954613208771E-001;1.785963959991932E-002;-2.271165372803807E-003;5.394970532506704E-003;
2.404500000000000E+009;1.738402247428894E-001;1.703153178095818E-002;-1.933936728164554E-003;5.527381785213947E-003;
2.404666666666667E+009;1.748642772436142E-001;1.636910438537598E-002;-1.804435160011053E-003;5.474332720041275E-003;
2.404833333333334E+009;1.755283623933792E-001;1.578868739306927E-002;-1.569218351505697E-003;5.525305401533842E-003;
2.405000000000000E+009;1.761792004108429E-001;1.521096099168062E-002;-1.231264555826783E-003;5.587584339082241E-003;
2.405166666666667E+009;1.767991632223129E-001;1.458689570426941E-002;-1.321097137406468E-003;5.691910162568092E-003;
2.405333333333334E+009;1.776300072669983E-001;1.405583415180445E-002;-1.021248754113913E-003;5.998866166919470E-003;
2.405500000000000E+009;1.780417114496231E-001;1.363446004688740E-002;-7.386453216895461E-004;5.848643835633993E-003;
2.405666666666667E+009;1.785535216331482E-001;1.337554398924112E-002;-5.185573827475309E-004;5.971531383693218E-003;
2.405833333333334E+009;1.790253818035126E-001;1.302988827228546E-002;-7.249131886055693E-005;5.745269823819399E-003;
2.406000000000000E+009;1.794837564229965E-001;1.266448665410280E-002;-1.193419011542574E-004;5.825345870107412E-003;
2.406166666666667E+009;1.794806718826294E-001;1.243103388696909E-002;1.285242615267634E-004;5.738319363445044E-003;
2.406333333333334E+009;1.800145804882050E-001;1.221052557229996E-002;5.747349932789803E-004;5.806403700262308E-003;
2.406500000000000E+009;1.799893230199814E-001;1.173578295856714E-002;8.151397923938930E-004;5.776511970907450E-003;
2.406666666666667E+009;1.799988150596619E-001;1.157392561435700E-002;1.044857664965093E-003;5.779031198471785E-003;
2.406833333333334E+009;1.800043135881424E-001;1.111995708197355E-002;1.191579038277268E-003;5.524276290088892E-003;
2.407000000000000E+009;1.799788326025009E-001;1.084571983665228E-002;1.323787961155176E-003;5.546904169023037E-003;
2.407166666666667E+009;1.799648106098175E-001;1.035892684012651E-002;1.761074177920818E-003;5.266528576612473E-003;
2.407333333333334E+009;1.795623898506165E-001;9.797728620469570E-003;1.877199858427048E-003;5.306942854076624E-003;
2.407500000000000E+009;1.792704910039902E-001;9.379637427628040E-003;2.084165345877409E-003;5.051914602518082E-003;
2.407666666666667E+009;1.789220124483109E-001;8.776014670729637E-003;2.274271566420794E-003;4.844838287681341E-003;
2.407833333333334E+009;1.783015280961990E-001;7.896221242845058E-003;2.253547310829163E-003;4.807435441762209E-003;
2.408000000000000E+009;1.779432296752930E-001;7.184087298810482E-003;2.534075174480677E-003;4.501158371567726E-003;
2.408166666666667E+009;1.773555576801300E-001;6.619382183998823E-003;2.662624930962920E-003;4.333334974944592E-003;
2.408333333333334E+009;1.768406033515930E-001;5.601054057478905E-003;2.765207784250379E-003;4.240718670189381E-003;
2.408500000000000E+009;1.761759668588638E-001;4.579552449285984E-003;2.804287010803819E-003;4.077486693859100E-003;
2.408666666666667E+009;1.755510568618774E-001;3.526848740875721E-003;3.126018913462758E-003;3.780451836064458E-003;
2.408833333333334E+009;1.747994124889374E-001;2.387831453233957E-003;2.996330149471760E-003;3.772167023271322E-003;
2.409000000000000E+009;1.740351617336273E-001;1.186060602776706E-003;3.079752903431654E-003;3.716790815815330E-003;
2.409166666666667E+009;1.735405474901199E-001;-3.897171700373292E-005;3.146850038319826E-003;3.450235817581415E-003;
2.409333333333334E+009;1.729524880647659E-001;-1.453788951039314E-003;3.168373834341765E-003;3.205016721040011E-003;
2.409500000000000E+009;1.721362024545670E-001;-2.954442752525210E-003;3.236799500882626E-003;3.084016265347600E-003;
2.409666666666667E+009;1.715207993984222E-001;-4.452038090676069E-003;3.275507595390081E-003;3.014052053913474E-003;
2.409833333333334E+009;1.708920747041702E-001;-5.891860928386450E-003;3.350487677380443E-003;2.762102289125323E-003;
2.410000000000000E+009;1.702959388494492E-001;-7.621742784976959E-003;3.338354406878352E-003;2.688820706680417E-003;
2.410166666666667E+009;1.698571592569351E-001;-9.233233518898487E-003;3.393652848899365E-003;2.468680264428258E-003;
2.410333333333334E+009;1.692232340574265E-001;-1.110047381371260E-002;3.373631974682212E-003;2.468931954354048E-003;
2.410500000000000E+009;1.686867028474808E-001;-1.289009861648083E-002;3.380379173904657E-003;2.377026481553912E-003;
2.410666666666667E+009;1.684111356735230E-001;-1.494395919144154E-002;3.448281902819872E-003;2.293820725753903E-003;
2.410833333333334E+009;1.683195829391480E-001;-1.661155000329018E-002;3.559594042599201E-003;2.146545797586441E-003;
2.411000000000000E+009;1.679565608501434E-001;-1.861251890659332E-002;3.547970671206713E-003;1.920156762935221E-003;
2.411166666666667E+009;1.677443981170654E-001;-2.041895315051079E-002;3.535297000780702E-003;1.685061957687140E-003;
2.411333333333334E+009;1.675574481487274E-001;-2.240227907896042E-002;3.458260791376233E-003;1.525834202766419E-003;
2.411500000000000E+009;1.675939410924912E-001;-2.433586493134499E-002;3.541599260643125E-003;1.386249205097556E-003;
2.411666666666667E+009;1.679135113954544E-001;-2.628200128674507E-002;3.602773649618030E-003;1.423145411536098E-003;
2.411833333333334E+009;1.679711192846298E-001;-2.820897474884987E-002;3.553044050931931E-003;1.123621710576117E-003;
2.412000000000000E+009;1.679962575435638E-001;-3.000196442008019E-002;3.531866706907749E-003;1.164720975793898E-003;
2.412166666666667E+009;1.681132763624191E-001;-3.201473131775856E-002;3.553376300260425E-003;8.746351813897491E-004;
2.412333333333334E+009;1.688234806060791E-001;-3.371994197368622E-002;3.549913642928004E-003;9.480813168920577E-004;
2.412500000000000E+009;1.690898835659027E-001;-3.555684909224510E-002;3.479873761534691E-003;7.960280054248869E-004;
2.412666666666667E+009;1.695848405361176E-001;-3.752937540411949E-002;3.352739848196507E-003;5.557967815548182E-004;
2.412833333333334E+009;1.699790060520172E-001;-3.929781913757324E-002;3.345339559018612E-003;3.159850020892918E-004;
2.413000000000000E+009;1.704480797052383E-001;-4.072346538305283E-002;3.278037998825312E-003;2.460244286339730E-004;
2.413166666666667E+009;1.710533052682877E-001;-4.239003360271454E-002;3.157408442348242E-003;2.124220336554572E-004;
2.413333333333334E+009;1.714635789394379E-001;-4.403428733348846E-002;3.119500121101737E-003;4.323473694967106E-005;
2.413500000000000E+009;1.721641272306442E-001;-4.556476324796677E-002;3.051964798942208E-003;8.879387314664200E-005;
2.413666666666667E+009;1.728732436895371E-001;-4.719348996877670E-002;2.902626525610685E-003;-1.912931911647320E-004;
2.413833333333334E+009;1.734263896942139E-001;-4.819108173251152E-002;2.993010915815830E-003;-2.495811495464295E-004;
2.414000000000000E+009;1.740013808012009E-001;-4.956308379769325E-002;3.014531685039401E-003;-2.116757241310552E-004;
2.414166666666667E+009;1.745552867650986E-001;-5.074682831764221E-002;2.836115891113877E-003;-2.073419163934887E-004;
2.414333333333334E+009;1.751075536012650E-001;-5.179024487733841E-002;2.734621521085501E-003;-3.401257563382387E-004;
2.414500000000000E+009;1.758943498134613E-001;-5.287244915962219E-002;2.581075532361865E-003;-3.922332834918052E-004;
2.414666666666667E+009;1.762138754129410E-001;-5.367549136281014E-002;2.716781571507454E-003;-3.485925844870508E-004;
2.414833333333334E+009;1.766419410705566E-001;-5.439644306898117E-002;2.554067177698016E-003;-5.041655967943370E-004;
2.415000000000000E+009;1.770514994859695E-001;-5.529571697115898E-002;2.346974331885576E-003;-4.692717338912189E-004;
2.415166666666667E+009;1.772889941930771E-001;-5.589927360415459E-002;2.386825159192085E-003;-4.454363370314241E-004;
2.415333333333334E+009;1.776714324951172E-001;-5.643114447593689E-002;2.239388646557927E-003;-5.302688223309815E-004;
2.415500000000000E+009;1.780092120170593E-001;-5.703518167138100E-002;2.377667464315891E-003;-4.985592095181346E-004;
2.415666666666667E+009;1.781915873289108E-001;-5.741420015692711E-002;2.183527918532491E-003;-6.779519026167691E-004;
2.415833333333334E+009;1.782889962196350E-001;-5.781519785523415E-002;2.159661846235395E-003;-6.514305714517832E-004;
2.416000000000000E+009;1.781082451343536E-001;-5.824608355760574E-002;2.049370435997844E-003;-7.337044808082283E-004;
2.416166666666667E+009;1.781983971595764E-001;-5.837556347250938E-002;2.055596327409148E-003;-6.718056392855942E-004;
2.416333333333334E+009;1.779924780130386E-001;-5.873402953147888E-002;2.092112088575959E-003;-6.491844542324543E-004;
2.416500000000000E+009;1.778464764356613E-001;-5.904250219464302E-002;2.126830164343119E-003;-7.031152490526438E-004;
2.416666666666667E+009;1.774214655160904E-001;-5.909481644630432E-002;1.871083746664226E-003;-5.493950447998941E-004;
2.416833333333334E+009;1.771512478590012E-001;-5.948968976736069E-002;2.058608923107386E-003;-7.105478434823453E-004;
2.417000000000000E+009;1.764269322156906E-001;-5.969323962926865E-002;1.912214094772935E-003;-7.480543572455645E-004;
2.417166666666667E+009;1.758773326873779E-001;-5.977464839816093E-002;1.939958194270730E-003;-8.844363619573414E-004;
2.417333333333334E+009;1.752144396305084E-001;-6.001707911491394E-002;2.077295444905758E-003;-8.852269384078682E-004;
2.417500000000000E+009;1.743250787258148E-001;-6.051619723439217E-002;1.762452069669962E-003;-8.019626839086413E-004;
2.417666666666667E+009;1.736735254526138E-001;-6.054088473320007E-002;1.890643150545657E-003;-8.205291815102100E-004;
2.417833333333334E+009;1.725714653730393E-001;-6.106046959757805E-002;1.698787556961179E-003;-8.260718896053731E-004;
2.418000000000000E+009;1.716123521327972E-001;-6.147862225770950E-002;1.797880860976875E-003;-9.931090753525496E-004;
2.418166666666667E+009;1.705756038427353E-001;-6.167330965399742E-002;1.825652434490621E-003;-8.547187317162752E-004;
2.418333333333334E+009;1.697767674922943E-001;-6.221412494778633E-002;1.725072739645839E-003;-7.957571651786566E-004;
2.418500000000000E+009;1.684818267822266E-001;-6.271486729383469E-002;1.699997810646892E-003;-8.333796868100762E-004;
2.418666666666667E+009;1.674292385578156E-001;-6.331110000610352E-002;1.580895041115582E-003;-1.039735274389386E-003;
2.418833333333334E+009;1.660835146903992E-001;-6.403655558824539E-002;1.615126500837505E-003;-1.024063676595688E-003;
2.419000000000000E+009;1.648021042346954E-001;-6.475241482257843E-002;1.543275197036564E-003;-9.638266637921333E-004;
2.419166666666667E+009;1.636560559272766E-001;-6.556852906942368E-002;1.630146056413651E-003;-9.462627349421382E-004;
2.419333333333334E+009;1.622882336378098E-001;-6.634362787008286E-002;1.484596286900342E-003;-1.190385315567255E-003;
2.419500000000000E+009;1.610921621322632E-001;-6.728459894657135E-002;1.489097601734102E-003;-1.053143409080803E-003;
2.419666666666667E+009;1.600481122732163E-001;-6.837439537048340E-002;1.510563539341092E-003;-9.711007587611675E-004;
2.419833333333334E+009;1.587193459272385E-001;-6.942418217658997E-002;1.326478901319206E-003;-1.135460799559951E-003;
2.420000000000000E+009;1.578137725591660E-001;-7.072289288043976E-002;1.291631022468209E-003;-1.056212466210127E-003;
2.420166666666667E+009;1.566802710294724E-001;-7.181458920240402E-002;1.340686110779643E-003;-1.079280278645456E-003;
2.420333333333334E+009;1.558508574962616E-001;-7.309388369321823E-002;1.239245175383985E-003;-1.081585884094238E-003;
2.420500000000000E+009;1.548559665679932E-001;-7.449492812156677E-002;1.311858533881605E-003;-1.149342046119273E-003;
2.420666666666667E+009;1.537981629371643E-001;-7.580652087926865E-002;1.195295015349984E-003;-1.033361186273396E-003;
2.420833333333334E+009;1.531273424625397E-001;-7.742956280708313E-002;1.166571746580303E-003;-1.167235197499394E-003;
2.421000000000000E+009;1.522605419158936E-001;-7.897338271141052E-002;1.080042449757457E-003;-1.146797905676067E-003;
2.421166666666667E+009;1.516448706388474E-001;-8.054126799106598E-002;1.006256556138396E-003;-9.855690877884626E-004;
2.421333333333334E+009;1.510773152112961E-001;-8.217593282461166E-002;9.888232452794910E-004;-1.171756070107222E-003;
2.421500000000000E+009;1.504423469305039E-001;-8.379615098237991E-002;9.705265983939171E-004;-1.155033474788070E-003;
2.421666666666667E+009;1.501211971044540E-001;-8.542849123477936E-002;9.205233654938638E-004;-1.075117033906281E-003;
2.421833333333334E+009;1.497808396816254E-001;-8.704891055822372E-002;8.241270552389324E-004;-1.079342910088599E-003;
2.422000000000000E+009;1.496408432722092E-001;-8.885335922241211E-002;9.082486503757536E-004;-1.082631177268922E-003;
2.422166666666667E+009;1.493037492036820E-001;-9.063313901424408E-002;7.366314530372620E-004;-1.013314235024154E-003;
2.422333333333334E+009;1.495156139135361E-001;-9.213751554489136E-002;8.889967575669289E-004;-1.081107882782817E-003;
2.422500000000000E+009;1.492570191621780E-001;-9.377127885818481E-002;7.607921725139022E-004;-1.097179716452956E-003;
2.422666666666667E+009;1.494873315095902E-001;-9.542506188154221E-002;6.743858102709055E-004;-8.283085771836340E-004;
2.422833333333334E+009;1.495692729949951E-001;-9.717319905757904E-002;6.050808005966246E-004;-1.023770309984684E-003;
2.423000000000000E+009;1.496956944465637E-001;-9.876275807619095E-002;7.242336869239807E-004;-8.568016928620637E-004;
2.423166666666667E+009;1.501042991876602E-001;-1.003227010369301E-001;6.295820348896086E-004;-9.578418103046715E-004;
2.423333333333334E+009;1.506425887346268E-001;-1.015194877982140E-001;5.803143722005189E-004;-9.911793749779463E-004;
2.423500000000000E+009;1.508610844612122E-001;-1.031826734542847E-001;5.283008213154972E-004;-7.946822443045676E-004;
2.423666666666667E+009;1.511639654636383E-001;-1.047326028347015E-001;6.289643351919949E-004;-8.570885402150452E-004;
2.423833333333334E+009;1.518721133470535E-001;-1.060457900166512E-001;6.212152657099068E-004;-8.152422378771007E-004;
2.424000000000000E+009;1.521246284246445E-001;-1.071123853325844E-001;6.119470926932991E-004;-6.603043293580413E-004;
2.424166666666667E+009;1.526618748903275E-001;-1.083630844950676E-001;5.893271882086992E-004;-6.358109530992806E-004;
2.424333333333334E+009;1.531812697649002E-001;-1.093947067856789E-001;7.283473969437182E-004;-7.138880901038647E-004;
2.424500000000000E+009;1.536667943000794E-001;-1.105309650301933E-001;6.594238220714033E-004;-6.038263672962785E-004;
2.424666666666667E+009;1.543622314929962E-001;-1.113741993904114E-001;6.463860627263784E-004;-5.812408053316176E-004;
2.424833333333334E+009;1.546552479267120E-001;-1.123302429914475E-001;8.798681665211916E-004;-4.851781413890421E-004;
2.425000000000000E+009;1.550805866718292E-001;-1.131586283445358E-001;7.650438928976655E-004;-4.712184309028089E-004;
2.425166666666667E+009;1.553830653429031E-001;-1.138034686446190E-001;9.879539720714092E-004;-4.489434650167823E-004;
2.425333333333334E+009;1.557811796665192E-001;-1.144244074821472E-001;9.576675365678966E-004;-5.724943475797772E-004;
2.425500000000000E+009;1.559941321611404E-001;-1.151418760418892E-001;9.941291064023972E-004;-5.947184399701655E-004;
2.425666666666667E+009;1.562141925096512E-001;-1.156179457902908E-001;1.068972400389612E-003;-3.728352021425962E-004;
2.425833333333334E+009;1.565313786268234E-001;-1.159378439188004E-001;1.084464718587697E-003;-5.508003523573279E-004;
2.426000000000000E+009;1.566311717033386E-001;-1.164934188127518E-001;1.135492813773453E-003;-5.201428430154920E-004;
2.426166666666667E+009;1.567167341709137E-001;-1.167090013623238E-001;1.121206791140139E-003;-4.415103467181325E-004;
2.426333333333334E+009;1.565097123384476E-001;-1.170411035418510E-001;1.335422741249204E-003;-4.921976942569017E-004;
2.426500000000000E+009;1.565206646919251E-001;-1.172272711992264E-001;1.317232730798423E-003;-6.639134371653199E-004;
2.426666666666667E+009;1.564795225858688E-001;-1.173215731978416E-001;1.209348323754966E-003;-6.456301780417562E-004;
2.426833333333334E+009;1.559842824935913E-001;-1.174930632114410E-001;1.327278325334191E-003;-7.057652110233903E-004;
2.427000000000000E+009;1.555973291397095E-001;-1.176611408591270E-001;1.396672683767974E-003;-8.054309873841703E-004;
2.427166666666667E+009;1.551063209772110E-001;-1.176587194204330E-001;1.453969627618790E-003;-7.512480951845646E-004;
2.427333333333334E+009;1.544773876667023E-001;-1.179238557815552E-001;1.475834054872394E-003;-8.652230026200414E-004;
2.427500000000000E+009;1.539432108402252E-001;-1.179271936416626E-001;1.402347232215107E-003;-9.511391399428248E-004;
2.427666666666667E+009;1.530397534370422E-001;-1.180992722511292E-001;1.679694047197700E-003;-1.029649982228875E-003;
2.427833333333334E+009;1.522206664085388E-001;-1.182729303836823E-001;1.624207710847259E-003;-1.084637828171253E-003;
