# Version 1.00
#
freq[Hz];re:Trc1_S11;im:Trc1_S11;re:Trc2_S21;im:Trc2_S21;
2.400000000000000E+009;1.568046957254410E-001;6.097077578306198E-002;-5.322850774973631E-003;1.949401688762009E-003;
2.400166666666667E+009;1.569054126739502E-001;5.927113443613052E-002;-4.959728568792343E-003;1.908242702484131E-003;
2.400333333333334E+009;1.569628119468689E-001;5.719285830855370E-002;-5.062588956207037E-003;2.312733558937907E-003;
2.400500000000000E+009;1.572173088788986E-001;5.536924675107002E-002;-4.886470269411802E-003;2.365316497161984E-003;
2.400666666666667E+009;1.572798937559128E-001;5.317253991961479E-002;-4.952714312821627E-003;2.294587437063456E-003;
2.400833333333334E+009;1.576367467641830E-001;5.123180150985718E-002;-4.888410679996014E-003;2.649589674547315E-003;
2.401000000000000E+009;1.579829156398773E-001;4.920062050223351E-002;-4.900264088064432E-003;2.771816682070494E-003;
2.401166666666667E+009;1.583739519119263E-001;4.712755978107452E-002;-4.658040124922991E-003;2.843633526936173E-003;
2.401333333333334E+009;1.587449312210083E-001;4.493760317564011E-002;-4.794023931026459E-003;3.046757308766246E-003;
2.401500000000000E+009;1.591729074716568E-001;4.310030490159988E-002;-4.684894811362028E-003;3.139941254630685E-003;
2.401666666666667E+009;1.597056388854981E-001;4.115681350231171E-002;-4.438560921698809E-003;3.209676826372743E-003;
2.401833333333334E+009;1.603367477655411E-001;3.920787572860718E-002;-4.183082375675440E-003;3.471501171588898E-003;
2.402000000000000E+009;1.607542783021927E-001;3.727235645055771E-002;-4.135042428970337E-003;3.639798844233155E-003;
2.402166666666667E+009;1.614077985286713E-001;3.530853614211083E-002;-3.970954101532698E-003;3.531138645485044E-003;
2.402333333333334E+009;1.622290909290314E-001;3.362373262643814E-002;-4.012199584394693E-003;3.811188973486424E-003;
2.402500000000000E+009;1.631632447242737E-001;3.178309649229050E-002;-3.884783014655113E-003;3.844758495688438E-003;
2.402666666666667E+009;1.637892574071884E-001;3.013206459581852E-002;-3.844114486128092E-003;4.047632683068514E-003;
2.402833333333334E+009;1.645956635475159E-001;2.844015508890152E-002;-3.616562578827143E-003;4.267154261469841E-003;
2.403000000000000E+009;1.655994206666946E-001;2.718653157353401E-002;-3.514812793582678E-003;4.323132801800966E-003;
2.403166666666667E+009;1.664745360612869E-001;2.584216184914112E-002;-3.461693879216909E-003;4.441673867404461E-003;
2.403333333333334E+009;1.674479395151138E-001;2.453812398016453E-002;-3.037913236767054E-003;4.647538531571627E-003;
2.403500000000000E+009;1.682362109422684E-001;2.322548255324364E-002;-3.158123232424259E-003;4.745738115161657E-003;
2.403666666666667E+009;1.692820191383362E-001;2.188954688608646E-002;-2.851394936442375E-003;4.721449222415686E-003;
2.403833333333334E+009;1.703525781631470E-001;2.075489051640034E-002;-2.730699721723795E-003;4.906236194074154E-003;
2.404000000000000E+009;1.712945103645325E-001;1.976937055587769E-002;-2.624161075800657E-003;4.876908846199513E-003;
2.404166666666667E+009;1.722102910280228E-001;1.885065808892250E-002;-2.216749126091600E-003;5.033668130636215E-003;
2.404333333333334E+009;1.730379164218903E-001;1.792259328067303E-002;-2.299820072948933E-003;5.254888907074928E-003;
2.404500000000000E+009;1.739655882120132E-001;1.707804016768932E-002;-1.986245159059763E-003;5.276554264128208E-003;
2.404666666666667E+009;1.748367995023727E-001;1.655380055308342E-002;-1.810184214264154E-003;5.521906539797783E-003;
2.404833333333334E+009;1.756855398416519E-001;1.579492539167404E-002;-1.629703212529421E-003;5.390044301748276E-003;
2.405000000000000E+009;1.762677580118179E-001;1.528893783688545E-002;-1.365963718853891E-003;5.490249954164028E-003;
2.405166666666667E+009;1.770598292350769E-001;1.468164660036564E-002;-1.111593446694315E-003;5.528270266950131E-003;
2.405333333333334E+009;1.776785403490067E-001;1.419011503458023E-002;-9.587815729901195E-004;5.776293110102415E-003;
2.405500000000000E+009;1.782946735620499E-001;1.380011998116970E-002;-6.336239166557789E-004;5.573225673288107E-003;
2.405666666666667E+009;1.788066625595093E-001;1.328189671039581E-002;-4.945651162415743E-004;5.736488383263350E-003;
2.405833333333334E+009;1.791855394840241E-001;1.298661995679140E-002;-1.587866281624883E-004;5.715555977076292E-003;
2.406000000000000E+009;1.796049773693085E-001;1.255954243242741E-002;-1.051986600941746E-005;5.691498517990112E-003;
2.406166666666667E+009;1.798020452260971E-001;1.243245508521795E-002;2.748263941612095E-004;5.615985020995140E-003;
2.406333333333334E+009;1.801588535308838E-001;1.205534022301436E-002;5.414827028289437E-004;5.611179862171412E-003;
2.406500000000000E+009;1.803238093852997E-001;1.181151345372200E-002;7.268899935297668E-004;5.608275998383761E-003;
2.406666666666667E+009;1.800936013460159E-001;1.147702522575855E-002;8.596738916821778E-004;5.483117885887623E-003;
2.406833333333334E+009;1.801394671201706E-001;1.103784702718258E-002;1.281479140743613E-003;5.436021834611893E-003;
2.407000000000000E+009;1.801048815250397E-001;1.057481952011585E-002;1.471049268729985E-003;5.293309222906828E-003;
2.407166666666667E+009;1.799661517143250E-001;1.029230374842882E-002;1.488093868829310E-003;5.253608338534832E-003;
2.407333333333334E+009;1.795957982540131E-001;9.573206305503845E-003;1.615068991668522E-003;5.071034189313650E-003;
2.407500000000000E+009;1.793735921382904E-001;9.368287399411202E-003;1.946033444255590E-003;4.929407965391874E-003;
2.407666666666667E+009;1.789477616548538E-001;8.743950165808201E-003;2.174998400732875E-003;4.890725947916508E-003;
2.407833333333334E+009;1.783747822046280E-001;7.923755794763565E-003;2.191949170082808E-003;4.573374520987272E-003;
2.408000000000000E+009;1.779053807258606E-001;7.174122612923384E-003;2.412279602140188E-003;4.422453697770834E-003;
2.408166666666667E+009;1.773879379034042E-001;6.530328653752804E-003;2.560249064117670E-003;4.252434708178043E-003;
2.408333333333334E+009;1.770093142986298E-001;5.555836949497461E-003;2.805536612868309E-003;4.132525529712439E-003;
2.408500000000000E+009;1.763170659542084E-001;4.540084395557642E-003;2.729197964072228E-003;3.949156962335110E-003;
2.408666666666667E+009;1.756343245506287E-001;3.473017597571015E-003;2.849732991307974E-003;3.853982547298074E-003;
2.408833333333334E+009;1.747940629720688E-001;2.389845205470920E-003;2.876869402825832E-003;3.745849709957838E-003;
2.409000000000000E+009;1.742424070835114E-001;1.271893037483096E-003;2.853416139259934E-003;3.568573854863644E-003;
2.409166666666667E+009;1.735891103744507E-001;-6.638091872446239E-005;3.043107688426971E-003;3.527158405631781E-003;
2.409333333333334E+009;1.730151474475861E-001;-1.429268508218229E-003;3.002961399033666E-003;3.236420685425401E-003;
2.409500000000000E+009;1.722197681665421E-001;-2.971799811348319E-003;3.111071186140180E-003;3.078824840486050E-003;
2.409666666666667E+009;1.715112477540970E-001;-4.565394017845392E-003;3.178586252033711E-003;2.890220843255520E-003;
2.409833333333334E+009;1.707671731710434E-001;-5.863059312105179E-003;3.252287395298481E-003;2.851229626685381E-003;
2.410000000000000E+009;1.704727411270142E-001;-7.605879567563534E-003;3.258011303842068E-003;2.741371048614383E-003;
2.410166666666667E+009;1.698677539825440E-001;-9.308932349085808E-003;3.326872596517205E-003;2.538478467613459E-003;
2.410333333333334E+009;1.692994236946106E-001;-1.092685852199793E-002;3.363355062901974E-003;2.407709136605263E-003;
2.410500000000000E+009;1.689702421426773E-001;-1.292775012552738E-002;3.395612351596355E-003;2.309493953362107E-003;
2.410666666666667E+009;1.685744524002075E-001;-1.487385667860508E-002;3.185948356986046E-003;2.186494180932641E-003;
2.410833333333334E+009;1.682955920696259E-001;-1.665094122290611E-002;3.472794545814395E-003;2.002979628741741E-003;
2.411000000000000E+009;1.679601967334747E-001;-1.856430992484093E-002;3.457145532593131E-003;1.751771196722984E-003;
2.411166666666667E+009;1.676705181598663E-001;-2.051757648587227E-002;3.469440853223205E-003;1.711157383397222E-003;
2.411333333333334E+009;1.676549017429352E-001;-2.220060862600803E-002;3.494682954624295E-003;1.528995227999985E-003;
2.411500000000000E+009;1.677246540784836E-001;-2.449509687721729E-002;3.419724060222507E-003;1.427815528586507E-003;
2.411666666666667E+009;1.677638739347458E-001;-2.629220113158226E-002;3.294843016192317E-003;1.249492284841836E-003;
2.411833333333334E+009;1.679565459489822E-001;-2.816432714462280E-002;3.470263909548521E-003;1.124670263379812E-003;
2.412000000000000E+009;1.682334393262863E-001;-3.019754961133003E-002;3.508413676172495E-003;1.020808122120798E-003;
2.412166666666667E+009;1.682807803153992E-001;-3.202265873551369E-002;3.371367929503322E-003;8.559373090974987E-004;
2.412333333333334E+009;1.689320057630539E-001;-3.376901894807816E-002;3.335912944748998E-003;8.237572037614882E-004;
2.412500000000000E+009;1.690321415662766E-001;-3.550443425774574E-002;3.244707593694329E-003;7.390594109892845E-004;
2.412666666666667E+009;1.692793518304825E-001;-3.749841451644898E-002;3.172019263729453E-003;4.827546654269099E-004;
2.412833333333334E+009;1.700606346130371E-001;-3.941308334469795E-002;3.125938121229410E-003;2.637485449668020E-004;
2.413000000000000E+009;1.705392301082611E-001;-4.095887392759323E-002;3.181832144036889E-003;2.736574970185757E-004;
2.413166666666667E+009;1.710669845342636E-001;-4.249330237507820E-002;3.107238095253706E-003;2.247032389277592E-004;
2.413333333333334E+009;1.715132147073746E-001;-4.404337331652641E-002;2.913348609581590E-003;2.132171357516199E-004;
2.413500000000000E+009;1.722518950700760E-001;-4.574692249298096E-002;2.964716404676437E-003;5.602620876743458E-005;
2.413666666666667E+009;1.729064136743546E-001;-4.702971503138542E-002;2.911062678322196E-003;-1.667817559791729E-005;
2.413833333333334E+009;1.732872128486633E-001;-4.833470657467842E-002;2.828987315297127E-003;-1.540816447231919E-004;
2.414000000000000E+009;1.738564372062683E-001;-4.964648559689522E-002;2.552791032940149E-003;-1.712119264993817E-004;
2.414166666666667E+009;1.745695322751999E-001;-5.072234198451042E-002;2.657380420714617E-003;-2.766125544440001E-004;
2.414333333333334E+009;1.750819832086563E-001;-5.192416161298752E-002;2.650743583217263E-003;-2.934546791948378E-004;
2.414500000000000E+009;1.757250428199768E-001;-5.276184901595116E-002;2.532858168706298E-003;-3.799187252297998E-004;
2.414666666666667E+009;1.763051003217697E-001;-5.363006889820099E-002;2.368754707276821E-003;-3.718285588547587E-004;
2.414833333333334E+009;1.766258478164673E-001;-5.449147894978523E-002;2.378307515755296E-003;-2.809925936162472E-004;
2.415000000000000E+009;1.770215481519699E-001;-5.526250228285790E-002;2.068711910396814E-003;-3.712038742378354E-004;
2.415166666666667E+009;1.772479861974716E-001;-5.589098110795021E-002;2.162199933081865E-003;-4.702155711129308E-004;
2.415333333333334E+009;1.777900755405426E-001;-5.660605803132057E-002;2.217208035290241E-003;-4.080126236658543E-004;
2.415500000000000E+009;1.780321151018143E-001;-5.699830129742622E-002;1.992672914639115E-003;-3.497872676234692E-004;
2.415666666666667E+009;1.780320107936859E-001;-5.730797722935677E-002;2.059994963929057E-003;-4.913039738312364E-004;
2.415833333333334E+009;1.782010048627853E-001;-5.794592574238777E-002;1.960054738447070E-003;-4.988195141777396E-004;
2.416000000000000E+009;1.782172173261643E-001;-5.817242711782455E-002;2.033433178439736E-003;-4.445417143870145E-004;
2.416166666666667E+009;1.782755106687546E-001;-5.851834639906883E-002;1.895243069157004E-003;-4.111376765649766E-004;
2.416333333333334E+009;1.780579537153244E-001;-5.865330249071121E-002;1.881829928606749E-003;-4.765717603731901E-004;
2.416500000000000E+009;1.778410524129868E-001;-5.900688096880913E-002;2.064343309029937E-003;-4.800133756361902E-004;
2.416666666666667E+009;1.774225234985352E-001;-5.921980366110802E-002;1.865675905719400E-003;-5.964619922451675E-004;
2.416833333333334E+009;1.770906299352646E-001;-5.946638807654381E-002;1.897344947792590E-003;-4.510190919972956E-004;
2.417000000000000E+009;1.763295382261276E-001;-5.973609164357185E-002;1.765878638252616E-003;-5.116134416311979E-004;
2.417166666666667E+009;1.758837401866913E-001;-5.981836840510368E-002;1.868343097157776E-003;-5.081277340650559E-004;
2.417333333333334E+009;1.751714944839478E-001;-5.997619032859802E-002;1.810358255170286E-003;-6.056043785065413E-004;
2.417500000000000E+009;1.744125187397003E-001;-6.050495058298111E-002;1.889083068817854E-003;-5.580876604653895E-004;
2.417666666666667E+009;1.736438423395157E-001;-6.062810495495796E-002;1.986379502341151E-003;-4.689605557359755E-004;
2.417833333333334E+009;1.726851910352707E-001;-6.091418117284775E-002;1.754075870849192E-003;-6.734739290550351E-004;
2.418000000000000E+009;1.715680956840515E-001;-6.135912984609604E-002;1.799270859919488E-003;-6.658048951067030E-004;
2.418166666666667E+009;1.706444770097733E-001;-6.164132431149483E-002;1.650865538977087E-003;-6.744336569681764E-004;
2.418333333333334E+009;1.697491258382797E-001;-6.222780793905258E-002;1.735984697006643E-003;-6.572201964445412E-004;
2.418500000000000E+009;1.685780286788940E-001;-6.270621716976166E-002;1.533497124910355E-003;-6.490570376627147E-004;
2.418666666666667E+009;1.674674302339554E-001;-6.327201426029205E-002;1.722738728858531E-003;-8.690081303939223E-004;
2.418833333333334E+009;1.660586744546890E-001;-6.401406228542328E-002;1.781879225745797E-003;-7.582647376693785E-004;
2.419000000000000E+009;1.647868305444717E-001;-6.474698334932327E-002;1.538175740279257E-003;-8.874257327988744E-004;
2.419166666666667E+009;1.637552827596664E-001;-6.556642800569534E-002;1.729230163618922E-003;-8.826287230476737E-004;
2.419333333333334E+009;1.622561812400818E-001;-6.618962436914444E-002;1.536789583042264E-003;-9.451388032175601E-004;
2.419500000000000E+009;1.612090915441513E-001;-6.724692136049271E-002;1.550990506075323E-003;-7.931145955808461E-004;
2.419666666666667E+009;1.600613445043564E-001;-6.848609447479248E-002;1.529420842416585E-003;-8.390648290514946E-004;
2.419833333333334E+009;1.589427292346954E-001;-6.928238272666931E-002;1.470501185394824E-003;-8.336148457601667E-004;
2.420000000000000E+009;1.577948629856110E-001;-7.063362747430801E-002;1.354220439679921E-003;-8.683321648277342E-004;
2.420166666666667E+009;1.566462665796280E-001;-7.173696905374527E-002;1.322996453382075E-003;-8.906525908969343E-004;
2.420333333333334E+009;1.557422876358032E-001;-7.318419218063355E-002;1.270956941880286E-003;-8.218836155720055E-004;
2.420500000000000E+009;1.547725349664688E-001;-7.447660714387894E-002;1.425988506525755E-003;-9.156413725577295E-004;
2.420666666666667E+009;1.538795977830887E-001;-7.585604488849640E-002;1.286513754166663E-003;-8.884323178790510E-004;
2.420833333333334E+009;1.531334668397903E-001;-7.743739336729050E-002;1.254556234925985E-003;-9.606368257664144E-004;
2.421000000000000E+009;1.521143764257431E-001;-7.901967316865921E-002;1.319678849540651E-003;-8.447956060990691E-004;
2.421166666666667E+009;1.515713483095169E-001;-8.056380599737167E-002;1.129118492826819E-003;-9.065178455784917E-004;
2.421333333333334E+009;1.512074768543243E-001;-8.220915496349335E-002;1.154088880866766E-003;-8.260114118456841E-004;
2.421500000000000E+009;1.506298780441284E-001;-8.390091359615326E-002;1.140940003097057E-003;-8.162551675923169E-004;
2.421666666666667E+009;1.502273976802826E-001;-8.557534217834473E-002;1.088341348804534E-003;-9.727682918310165E-004;
2.421833333333334E+009;1.498659849166870E-001;-8.717190474271774E-002;1.018681214191020E-003;-9.858401026576757E-004;
2.422000000000000E+009;1.495093554258347E-001;-8.877731859683991E-002;1.004444085992873E-003;-9.984555654227734E-004;
2.422166666666667E+009;1.494203656911850E-001;-9.058389067649841E-002;1.124004251323640E-003;-9.056809358298779E-004;
2.422333333333334E+009;1.493608057498932E-001;-9.227269142866135E-002;9.408046025782824E-004;-7.131476304493845E-004;
2.422500000000000E+009;1.493540257215500E-001;-9.374154359102249E-002;1.004967140033841E-003;-8.672496769577265E-004;
2.422666666666667E+009;1.494072675704956E-001;-9.552989155054092E-002;1.031105290167034E-003;-8.726958185434341E-004;
2.422833333333334E+009;1.495381444692612E-001;-9.723345935344696E-002;1.058778027072549E-003;-1.029614242725074E-003;
2.423000000000000E+009;1.496825516223908E-001;-9.884614497423172E-002;1.086400588974357E-003;-8.234967244789004E-004;
2.423166666666667E+009;1.501599103212357E-001;-1.004442498087883E-001;9.224481764249504E-004;-7.417497108690441E-004;
2.423333333333334E+009;1.505537033081055E-001;-1.017197370529175E-001;9.269753354601562E-004;-7.932501612231135E-004;
2.423500000000000E+009;1.509443968534470E-001;-1.033477336168289E-001;7.935112807899714E-004;-8.445978746749461E-004;
2.423666666666667E+009;1.511100232601166E-001;-1.047386452555656E-001;8.058975217863917E-004;-7.790944655425847E-004;
2.423833333333334E+009;1.517339944839478E-001;-1.061217635869980E-001;8.759977063164115E-004;-7.956970948725939E-004;
2.424000000000000E+009;1.521032750606537E-001;-1.072051078081131E-001;8.567620534449816E-004;-5.948425969108939E-004;
2.424166666666667E+009;1.525380164384842E-001;-1.084365248680115E-001;7.345744525082409E-004;-5.995426909066737E-004;
2.424333333333334E+009;1.531453728675842E-001;-1.094529852271080E-001;9.605923551134765E-004;-6.328788003884256E-004;
2.424500000000000E+009;1.536460667848587E-001;-1.105085238814354E-001;8.461259421892464E-004;-5.941117997281253E-004;
2.424666666666667E+009;1.542156040668488E-001;-1.113477945327759E-001;9.885327890515328E-004;-6.051277741789818E-004;
2.424833333333334E+009;1.544774621725082E-001;-1.121322438120842E-001;9.252488380298019E-004;-6.629166309721768E-004;
2.425000000000000E+009;1.548970490694046E-001;-1.130974218249321E-001;1.055893022567034E-003;-6.180598284117878E-004;
2.425166666666667E+009;1.552505940198898E-001;-1.137998700141907E-001;9.665158577263355E-004;-6.261341623030603E-004;
2.425333333333334E+009;1.558010876178742E-001;-1.143184751272202E-001;1.120350207202137E-003;-5.645664059557021E-004;
2.425500000000000E+009;1.560444682836533E-001;-1.149794384837151E-001;1.410395372658968E-003;-6.553462008014321E-004;
2.425666666666667E+009;1.561834961175919E-001;-1.154587268829346E-001;1.227764179930091E-003;-5.743689252994955E-004;
2.425833333333334E+009;1.563765704631805E-001;-1.160368323326111E-001;1.183101208880544E-003;-6.965628126636148E-004;
2.426000000000000E+009;1.563702225685120E-001;-1.163880378007889E-001;1.222699997015297E-003;-6.024790345691145E-004;
2.426166666666667E+009;1.567730456590653E-001;-1.166789233684540E-001;1.270545064471662E-003;-7.075768662616611E-004;
2.426333333333334E+009;1.565615236759186E-001;-1.169084906578064E-001;1.271436340175569E-003;-6.481942837126553E-004;
2.426500000000000E+009;1.564173996448517E-001;-1.170755699276924E-001;1.341213355772197E-003;-7.338141440413892E-004;
2.426666666666667E+009;1.564579308032990E-001;-1.171547994017601E-001;1.379085006192327E-003;-7.829566602595151E-004;
2.426833333333334E+009;1.560246795415878E-001;-1.173112541437149E-001;1.463029184378684E-003;-8.207162609323859E-004;
2.427000000000000E+009;1.556451320648193E-001;-1.175872460007668E-001;1.366441836580634E-003;-1.058841124176979E-003;
2.427166666666667E+009;1.552385240793228E-001;-1.175178438425064E-001;1.574002206325531E-003;-1.018348149955273E-003;
2.427333333333334E+009;1.545192003250122E-001;-1.177742406725884E-001;1.640775357373059E-003;-1.072797225788236E-003;
2.427500000000000E+009;1.540225744247437E-001;-1.178380399942398E-001;1.452878699637950E-003;-1.183555345050991E-003;
2.427666666666667E+009;1.531786471605301E-001;-1.180294603109360E-001;1.552105532027781E-003;-1.282255398109555E-003;
2.427833333333334E+009;1.521467566490173E-001;-1.180659756064415E-001;1.605304889380932E-003;-1.160481362603605E-003;
