# Version 1.00
#
freq[Hz];re:Trc1_S11;im:Trc1_S11;re:Trc2_S21;im:Trc2_S21;
2.400000000000000E+009;1.568248420953751E-001;6.097404286265373E-002;-5.234110634773970E-003;1.934465602971613E-003;
2.400166666666667E+009;1.568814516067505E-001;5.936299636960030E-002;-5.213821306824684E-003;1.923993928357959E-003;
2.400333333333334E+009;1.570172756910324E-001;5.723342671990395E-002;-5.133730359375477E-003;2.173090120777488E-003;
2.400500000000000E+009;1.572901010513306E-001;5.525086075067520E-002;-5.030374042689800E-003;2.279780106619000E-003;
2.400666666666667E+009;1.573638617992401E-001;5.332804471254349E-002;-4.867528565227985E-003;2.374792005866766E-003;
2.400833333333334E+009;1.577322632074356E-001;5.127894878387451E-002;-4.817969165742397E-003;2.609502989798784E-003;
2.401000000000000E+009;1.578549593687058E-001;4.914697259664536E-002;-4.665317013859749E-003;2.588130766525865E-003;
2.401166666666667E+009;1.583212167024612E-001;4.722709953784943E-002;-4.697587341070175E-003;2.831375692039728E-003;
2.401333333333334E+009;1.587256342172623E-001;4.513959586620331E-002;-4.655859898775816E-003;2.869733609259129E-003;
2.401500000000000E+009;1.593354940414429E-001;4.297672212123871E-002;-4.590054973959923E-003;2.996735740453005E-003;
2.401666666666667E+009;1.596730202436447E-001;4.111259430646896E-002;-4.453607369214296E-003;3.329637693241239E-003;
2.401833333333334E+009;1.602622121572495E-001;3.902690112590790E-002;-4.480204544961453E-003;3.525136737152934E-003;
2.402000000000000E+009;1.607534438371658E-001;3.718619421124458E-002;-4.258164670318365E-003;3.521373262628913E-003;
2.402166666666667E+009;1.616144478321075E-001;3.524137660861015E-002;-4.164695739746094E-003;3.664122661575675E-003;
2.402333333333334E+009;1.622738838195801E-001;3.350147977471352E-002;-4.293161444365978E-003;3.715802449733019E-003;
2.402500000000000E+009;1.630962789058685E-001;3.195501863956451E-002;-3.905040910467506E-003;3.915953915566206E-003;
2.402666666666667E+009;1.638933420181274E-001;3.021854162216187E-002;-3.816178301349282E-003;4.063535947352648E-003;
2.402833333333334E+009;1.646867096424103E-001;2.868969738483429E-002;-3.672723192721605E-003;4.293357487767935E-003;
2.403000000000000E+009;1.655117422342300E-001;2.712128311395645E-002;-3.627040889114142E-003;4.257999360561371E-003;
2.403166666666667E+009;1.663400083780289E-001;2.572609484195709E-002;-3.474993398413062E-003;4.421775229275227E-003;
2.403333333333334E+009;1.674160510301590E-001;2.444111928343773E-002;-3.183968365192413E-003;4.559925757348537E-003;
2.403500000000000E+009;1.683693677186966E-001;2.319776453077793E-002;-2.980463672429323E-003;4.844744689762592E-003;
2.403666666666667E+009;1.693765223026276E-001;2.202616259455681E-002;-2.822866663336754E-003;4.866851493716240E-003;
2.403833333333334E+009;1.704616397619247E-001;2.074755355715752E-002;-2.604404697194696E-003;4.868213087320328E-003;
2.404000000000000E+009;1.711978763341904E-001;1.984196342527866E-002;-2.442140132188797E-003;5.021305289119482E-003;
2.404166666666667E+009;1.722120046615601E-001;1.889392919838429E-002;-2.404805272817612E-003;5.093238316476345E-003;
2.404333333333334E+009;1.731024533510208E-001;1.814237423241139E-002;-2.131080720573664E-003;5.216142162680626E-003;
2.404500000000000E+009;1.737745553255081E-001;1.715816184878349E-002;-2.132240450009704E-003;5.129743367433548E-003;
2.404666666666667E+009;1.747435033321381E-001;1.662957854568958E-002;-1.811663853004575E-003;5.332604050636292E-003;
2.404833333333334E+009;1.755593717098236E-001;1.582420803606510E-002;-1.736232661642134E-003;5.438789725303650E-003;
2.405000000000000E+009;1.763130426406860E-001;1.527853216975927E-002;-1.319367438554764E-003;5.516930017620325E-003;
2.405166666666667E+009;1.769801527261734E-001;1.471387781202793E-002;-1.289744512178004E-003;5.585945211350918E-003;
2.405333333333334E+009;1.777657717466354E-001;1.405047811567783E-002;-9.375039371661842E-004;5.699438508599997E-003;
2.405500000000000E+009;1.782590746879578E-001;1.380188390612602E-002;-8.009891025722027E-004;5.621272604912520E-003;
2.405666666666667E+009;1.787453591823578E-001;1.337258331477642E-002;-5.662424955517054E-004;5.718142725527287E-003;
2.405833333333334E+009;1.789628267288208E-001;1.312553789466620E-002;-1.703688758425415E-004;5.606360267847776E-003;
2.406000000000000E+009;1.795573234558106E-001;1.255927514284849E-002;-1.744514302117750E-004;5.669770296663046E-003;
2.406166666666667E+009;1.796990036964417E-001;1.252603624016047E-002;1.252240181202069E-004;5.767122376710177E-003;
2.406333333333334E+009;1.801332682371140E-001;1.214198768138886E-002;5.105449235998094E-004;5.640635732561350E-003;
2.406500000000000E+009;1.802097856998444E-001;1.184270344674587E-002;6.393564399331808E-004;5.679483059793711E-003;
2.406666666666667E+009;1.800112128257752E-001;1.151798106729984E-002;8.521592244505882E-004;5.662320181727409E-003;
2.406833333333334E+009;1.802020072937012E-001;1.108948234468699E-002;9.855598909780383E-004;5.459986161440611E-003;
2.407000000000000E+009;1.799505054950714E-001;1.077135559171438E-002;1.258366042748094E-003;5.307155661284924E-003;
2.407166666666667E+009;1.800926178693771E-001;1.026500016450882E-002;1.400218461640179E-003;5.205507855862379E-003;
2.407333333333334E+009;1.795649528503418E-001;9.758984670042992E-003;1.684343675151467E-003;5.096732173115015E-003;
2.407500000000000E+009;1.793392151594162E-001;9.256442077457905E-003;1.955980202183127E-003;4.971959628164768E-003;
2.407666666666667E+009;1.789327561855316E-001;8.775332011282444E-003;2.024389570578933E-003;4.789294674992561E-003;
2.407833333333334E+009;1.783238500356674E-001;8.004264906048775E-003;2.247073454782367E-003;4.668974317610264E-003;
2.408000000000000E+009;1.778926104307175E-001;7.160827983170748E-003;2.368080196902156E-003;4.500801209360361E-003;
2.408166666666667E+009;1.774850040674210E-001;6.667659152299166E-003;2.528812270611525E-003;4.367863293737173E-003;
2.408333333333334E+009;1.769600063562393E-001;5.638372153043747E-003;2.587832277640700E-003;4.239600617438555E-003;
2.408500000000000E+009;1.762678474187851E-001;4.614538513123989E-003;2.636779565364122E-003;4.096146672964096E-003;
2.408666666666667E+009;1.756452471017838E-001;3.611896652728319E-003;2.843291498720646E-003;3.750100033357739E-003;
2.408833333333334E+009;1.748784184455872E-001;2.418969525024295E-003;2.807140117511153E-003;3.863371675834060E-003;
2.409000000000000E+009;1.742801219224930E-001;1.139526604674757E-003;2.863533096387982E-003;3.693683072924614E-003;
2.409166666666667E+009;1.735355854034424E-001;-9.540920291328803E-005;2.917524660006166E-003;3.467413596808910E-003;
2.409333333333334E+009;1.729020327329636E-001;-1.521467231214047E-003;3.094662446528673E-003;3.289996180683374E-003;
2.409500000000000E+009;1.721318811178207E-001;-2.945231506600976E-003;3.186287824064493E-003;3.161369357258081E-003;
2.409666666666667E+009;1.715569943189621E-001;-4.456259775906801E-003;3.089746693149209E-003;2.987749176099896E-003;
2.409833333333334E+009;1.708987206220627E-001;-6.039755418896675E-003;3.233392955735326E-003;2.955307485535741E-003;
2.410000000000000E+009;1.704680323600769E-001;-7.683628704398871E-003;3.434175625443459E-003;2.712603192776442E-003;
2.410166666666667E+009;1.698714643716812E-001;-9.331277571618557E-003;3.337754635140300E-003;2.533529419451952E-003;
2.410333333333334E+009;1.693162173032761E-001;-1.110007427632809E-002;3.426385112106800E-003;2.428928157314658E-003;
2.410500000000000E+009;1.690014600753784E-001;-1.283561717718840E-002;3.302206518128514E-003;2.206112956628203E-003;
2.410666666666667E+009;1.685037463903427E-001;-1.475514471530914E-002;3.340054070577025E-003;1.940430141985416E-003;
2.410833333333334E+009;1.681329905986786E-001;-1.654248498380184E-002;3.338826121762395E-003;2.170515945181251E-003;
2.411000000000000E+009;1.680515110492706E-001;-1.851703226566315E-002;3.464602166786790E-003;1.731254742480815E-003;
2.411166666666667E+009;1.677346676588059E-001;-2.053238078951836E-002;3.382717026397586E-003;1.738538383506239E-003;
2.411333333333334E+009;1.677101403474808E-001;-2.245430462062359E-002;3.475456731393933E-003;1.673356397077441E-003;
2.411500000000000E+009;1.675353646278381E-001;-2.435785159468651E-002;3.459358355030417E-003;1.477855374105275E-003;
2.411666666666667E+009;1.676809191703796E-001;-2.633783407509327E-002;3.443916793912649E-003;1.190465525723994E-003;
2.411833333333334E+009;1.679491549730301E-001;-2.808531187474728E-002;3.438446903601289E-003;1.107945106923580E-003;
2.412000000000000E+009;1.681583374738693E-001;-3.013112768530846E-002;3.363930853083730E-003;1.015682471916080E-003;
2.412166666666667E+009;1.684124767780304E-001;-3.214323148131371E-002;3.384698880836368E-003;9.519056184217334E-004;
2.412333333333334E+009;1.686746478080750E-001;-3.374878317117691E-002;3.348637372255325E-003;6.553395069204271E-004;
2.412500000000000E+009;1.690245866775513E-001;-3.562671691179276E-002;3.364987904205918E-003;6.728112930431962E-004;
2.412666666666667E+009;1.695790439844132E-001;-3.750446066260338E-002;3.197892336174846E-003;6.559993489645422E-004;
2.412833333333334E+009;1.699133217334747E-001;-3.928196802735329E-002;3.169863019138575E-003;4.272979276720434E-004;
2.413000000000000E+009;1.705628186464310E-001;-4.073798283934593E-002;3.085737582296133E-003;3.593032306525856E-004;
2.413166666666667E+009;1.710990369319916E-001;-4.239328950643539E-002;3.011066932231188E-003;2.862033434212208E-004;
2.413333333333334E+009;1.715060770511627E-001;-4.405814781785011E-002;2.993202768266201E-003;2.118887641699985E-004;
2.413500000000000E+009;1.722754538059235E-001;-4.550791904330254E-002;2.834768267348409E-003;2.518543915357441E-004;
2.413666666666667E+009;1.728771924972534E-001;-4.698937758803368E-002;2.977046649903059E-003;1.120996748795733E-004;
2.413833333333334E+009;1.733869463205338E-001;-4.833934456110001E-002;2.786092460155487E-003;-1.498198253102601E-005;
2.414000000000000E+009;1.739399880170822E-001;-4.961043223738670E-002;2.665643347427249E-003;-4.494282984524034E-005;
2.414166666666667E+009;1.744934320449829E-001;-5.054278299212456E-002;2.648008754476905E-003;-3.304030906292610E-005;
2.414333333333334E+009;1.750670224428177E-001;-5.181204155087471E-002;2.552992198616266E-003;-2.207192010246217E-004;
2.414500000000000E+009;1.758684515953064E-001;-5.283984169363976E-002;2.330959308892489E-003;-1.837223826441914E-004;
2.414666666666667E+009;1.761592179536820E-001;-5.353210121393204E-002;2.396943280473352E-003;-2.408420259598643E-004;
2.414833333333334E+009;1.766986101865768E-001;-5.444375053048134E-002;2.230271231383085E-003;-3.762670094147325E-004;
2.415000000000000E+009;1.770070195198059E-001;-5.519282817840576E-002;2.234593266621232E-003;-3.799744590651244E-004;
2.415166666666667E+009;1.773916929960251E-001;-5.586327984929085E-002;2.191781764850020E-003;-3.220844955649227E-004;
2.415333333333334E+009;1.778359860181809E-001;-5.657211318612099E-002;2.223799703642726E-003;-5.065820878371596E-004;
2.415500000000000E+009;1.779651045799255E-001;-5.694500729441643E-002;2.135504269972444E-003;-4.335878766141832E-004;
2.415666666666667E+009;1.780904680490494E-001;-5.743878334760666E-002;2.160410862416029E-003;-3.831652575172484E-004;
2.415833333333334E+009;1.781362891197205E-001;-5.785256624221802E-002;2.189133083447814E-003;-4.971131565980613E-004;
2.416000000000000E+009;1.781292408704758E-001;-5.818271264433861E-002;2.144558355212212E-003;-4.685441963374615E-004;
2.416166666666667E+009;1.782215833663940E-001;-5.846266448497772E-002;2.067037625238299E-003;-4.066142719238997E-004;
2.416333333333334E+009;1.780061125755310E-001;-5.883416160941124E-002;2.029469469562173E-003;-4.017858591396362E-004;
2.416500000000000E+009;1.778322756290436E-001;-5.895887315273285E-002;1.873852219432592E-003;-5.233582342043519E-004;
2.416666666666667E+009;1.773877143859863E-001;-5.915203317999840E-002;1.890846062451601E-003;-3.945387725252658E-004;
2.416833333333334E+009;1.771566867828369E-001;-5.950240790843964E-002;1.820455654524267E-003;-5.306477542035282E-004;
2.417000000000000E+009;1.764133721590042E-001;-5.977302044630051E-002;1.937252003699541E-003;-4.873856087215245E-004;
2.417166666666667E+009;1.758187860250473E-001;-5.983955040574074E-002;1.853681635111570E-003;-4.836850566789508E-004;
2.417333333333334E+009;1.752502471208572E-001;-6.002040579915047E-002;1.797510660253465E-003;-4.705929604824632E-004;
2.417500000000000E+009;1.742097288370132E-001;-6.046434864401817E-002;1.856721471995115E-003;-6.588715477846563E-004;
2.417666666666667E+009;1.736793667078018E-001;-6.059178709983826E-002;1.870761043392122E-003;-6.031770608387888E-004;
2.417833333333334E+009;1.727127283811569E-001;-6.092339754104614E-002;1.859200070612133E-003;-5.416307249106467E-004;
2.418000000000000E+009;1.716304123401642E-001;-6.136589497327805E-002;1.780871185474098E-003;-6.885784096084535E-004;
2.418166666666667E+009;1.706378906965256E-001;-6.155415996909142E-002;1.785497064702213E-003;-6.019299034960568E-004;
2.418333333333334E+009;1.698331534862518E-001;-6.213302910327911E-002;1.696711871773005E-003;-7.190670585259795E-004;
2.418500000000000E+009;1.685167253017426E-001;-6.266754120588303E-002;1.691887853667140E-003;-7.712505757808685E-004;
2.418666666666667E+009;1.673699319362640E-001;-6.317122280597687E-002;1.564303878694773E-003;-7.758316351100802E-004;
2.418833333333334E+009;1.659986525774002E-001;-6.399598717689514E-002;1.645861309953034E-003;-7.464112131856382E-004;
2.419000000000000E+009;1.648768037557602E-001;-6.464902311563492E-002;1.653166953474283E-003;-7.616180810146034E-004;
2.419166666666667E+009;1.637104451656342E-001;-6.560141593217850E-002;1.657636254094541E-003;-8.705441141501069E-004;
2.419333333333334E+009;1.623476147651672E-001;-6.621035188436508E-002;1.684442628175020E-003;-8.356900652870536E-004;
2.419500000000000E+009;1.612264811992645E-001;-6.727641075849533E-002;1.516568125225604E-003;-8.424101979471743E-004;
2.419666666666667E+009;1.602261066436768E-001;-6.836584210395813E-002;1.460145460441709E-003;-8.618406718596816E-004;
2.419833333333334E+009;1.588528156280518E-001;-6.938430666923523E-002;1.486528431996703E-003;-8.341440116055310E-004;
2.420000000000000E+009;1.578912138938904E-001;-7.061854004859924E-002;1.450861804187298E-003;-7.926133694127202E-004;
2.420166666666667E+009;1.567814201116562E-001;-7.192017138004303E-002;1.399290515109897E-003;-8.555196691304445E-004;
2.420333333333334E+009;1.558498889207840E-001;-7.331358641386032E-002;1.353652798570693E-003;-8.384162792935967E-004;
2.420500000000000E+009;1.548667550086975E-001;-7.439213991165161E-002;1.350154634565115E-003;-1.035065273754299E-003;
2.420666666666667E+009;1.538834869861603E-001;-7.583378255367279E-002;1.424856833182275E-003;-8.817157940939069E-004;
2.420833333333334E+009;1.531087309122086E-001;-7.745105028152466E-002;1.283905236050487E-003;-8.706504013389349E-004;
2.421000000000000E+009;1.522562354803085E-001;-7.889848202466965E-002;1.215741503983736E-003;-8.375124307349324E-004;
2.421166666666667E+009;1.516339033842087E-001;-8.056963235139847E-002;1.423324574716389E-003;-9.415774838998914E-004;
2.421333333333334E+009;1.513052582740784E-001;-8.233621716499329E-002;1.187053159810603E-003;-8.448125445283949E-004;
2.421500000000000E+009;1.504528522491455E-001;-8.374214917421341E-002;1.046035788021982E-003;-9.915016125887632E-004;
2.421666666666667E+009;1.501873284578323E-001;-8.541092276573181E-002;1.098240376450121E-003;-7.870261906646192E-004;
2.421833333333334E+009;1.500303894281387E-001;-8.710068464279175E-002;1.088969642296433E-003;-8.879615343175829E-004;
2.422000000000000E+009;1.496363133192062E-001;-8.893217891454697E-002;1.003990997560322E-003;-9.979346068575978E-004;
2.422166666666667E+009;1.494862437248230E-001;-9.064630419015884E-002;1.028180937282741E-003;-9.086009813472629E-004;
2.422333333333334E+009;1.494317203760147E-001;-9.221035242080689E-002;9.878565324470401E-004;-9.223627857863903E-004;
2.422500000000000E+009;1.493599414825440E-001;-9.385105967521668E-002;9.268622961826623E-004;-8.108809706754983E-004;
2.422666666666667E+009;1.493866145610809E-001;-9.553961455821991E-002;1.126291928812861E-003;-7.815814460627735E-004;
2.422833333333334E+009;1.496968567371368E-001;-9.723114967346191E-002;1.088925986550748E-003;-9.625444654375315E-004;
2.423000000000000E+009;1.499069929122925E-001;-9.876953065395355E-002;8.905889699235559E-004;-8.580241119489074E-004;
2.423166666666667E+009;1.501355916261673E-001;-1.003534495830536E-001;1.030034152790904E-003;-8.697891607880592E-004;
2.423333333333334E+009;1.505610793828964E-001;-1.016524359583855E-001;8.686672663316131E-004;-8.101891144178808E-004;
2.423500000000000E+009;1.507815420627594E-001;-1.031408384442329E-001;8.192016393877566E-004;-8.494502399116755E-004;
2.423666666666667E+009;1.510009020566940E-001;-1.046554669737816E-001;7.643593125976622E-004;-9.085230412892997E-004;
2.423833333333334E+009;1.516578942537308E-001;-1.060134992003441E-001;8.503976278007031E-004;-7.706212345510721E-004;
2.424000000000000E+009;1.520232707262039E-001;-1.071290820837021E-001;8.189948857761920E-004;-7.991982856765389E-004;
2.424166666666667E+009;1.524900496006012E-001;-1.084373593330383E-001;9.642117656767368E-004;-8.474184432998300E-004;
2.424333333333334E+009;1.531558930873871E-001;-1.093953922390938E-001;9.046930936165154E-004;-8.093473152257502E-004;
2.424500000000000E+009;1.536315083503723E-001;-1.103824302554131E-001;8.776549366302788E-004;-6.783220451325178E-004;
2.424666666666667E+009;1.541127860546112E-001;-1.112843155860901E-001;9.888305794447660E-004;-6.914909463375807E-004;
2.424833333333334E+009;1.544650346040726E-001;-1.122908666729927E-001;1.054126885719597E-003;-5.983330775052309E-004;
2.425000000000000E+009;1.550752967596054E-001;-1.129869595170021E-001;9.553440613672137E-004;-6.298685329966247E-004;
2.425166666666667E+009;1.552734225988388E-001;-1.136867627501488E-001;1.154767000116408E-003;-7.238829275593162E-004;
2.425333333333334E+009;1.556202769279480E-001;-1.142913773655891E-001;1.080808811821044E-003;-5.444601410999894E-004;
2.425500000000000E+009;1.561428308486939E-001;-1.150543317198753E-001;1.025659148581326E-003;-6.698600482195616E-004;
2.425666666666667E+009;1.562159210443497E-001;-1.154585778713226E-001;1.113372854888439E-003;-6.282181129790843E-004;
2.425833333333334E+009;1.564245522022247E-001;-1.158008426427841E-001;1.325193559750915E-003;-6.395829841494560E-004;
2.426000000000000E+009;1.564764529466629E-001;-1.163655146956444E-001;1.285050297155976E-003;-6.623513763770461E-004;
2.426166666666667E+009;1.567013561725617E-001;-1.167244687676430E-001;1.452113850973547E-003;-7.939583738334477E-004;
2.426333333333334E+009;1.565860807895660E-001;-1.168545037508011E-001;1.276112976484001E-003;-8.318380569107831E-004;
2.426500000000000E+009;1.565772593021393E-001;-1.171455383300781E-001;1.343024428933859E-003;-8.113080402836204E-004;
2.426666666666667E+009;1.563874483108521E-001;-1.170913130044937E-001;1.476516947150230E-003;-8.283021743409336E-004;
2.426833333333334E+009;1.560821533203125E-001;-1.173481717705727E-001;1.483046449720860E-003;-8.266752120107412E-004;
2.427000000000000E+009;1.556955575942993E-001;-1.175470203161240E-001;1.499111531302333E-003;-8.809559512883425E-004;
2.427166666666667E+009;1.552051603794098E-001;-1.176390498876572E-001;1.536610419861972E-003;-1.026175799779594E-003;
2.427333333333334E+009;1.545033603906632E-001;-1.177104935050011E-001;1.611576532013714E-003;-1.174226752482355E-003;
2.427500000000000E+009;1.540951281785965E-001;-1.178504154086113E-001;1.533283619210124E-003;-1.150867901742458E-003;
2.427666666666667E+009;1.531378775835037E-001;-1.180520132184029E-001;1.474120072089136E-003;-1.216394826769829E-003;
2.427833333333334E+009;1.521434038877487E-001;-1.181264817714691E-001;1.589148887433112E-003;-1.289712265133858E-003;
