# Version 1.00
#
freq[Hz];re:Trc1_S11;im:Trc1_S11;re:Trc2_S21;im:Trc2_S21;
2.400000000000000E+009;1.569590717554092E-001;6.094238162040710E-002;-5.227820016443729E-003;2.356001175940037E-003;
2.400166666666667E+009;1.569498628377914E-001;5.925212800502777E-002;-5.266894586384296E-003;2.507845638319850E-003;
2.400333333333334E+009;1.570465862751007E-001;5.719377472996712E-002;-5.180724896490574E-003;2.746112877503038E-003;
2.400500000000000E+009;1.572282761335373E-001;5.512015894055367E-002;-4.942225757986307E-003;2.793697407469153E-003;
2.400666666666667E+009;1.572562605142593E-001;5.317744240164757E-002;-4.829964600503445E-003;2.829913515597582E-003;
2.400833333333334E+009;1.576262712478638E-001;5.137670412659645E-002;-4.806252196431160E-003;3.127437783405185E-003;
2.401000000000000E+009;1.579750627279282E-001;4.920120164752007E-002;-4.634572658687830E-003;3.321838099509478E-003;
2.401166666666667E+009;1.584105193614960E-001;4.717995226383209E-002;-4.485507961362600E-003;3.468788927420974E-003;
2.401333333333334E+009;1.586528420448303E-001;4.515738785266876E-002;-4.464759491384029E-003;3.271969268098474E-003;
2.401500000000000E+009;1.592456251382828E-001;4.302662611007690E-002;-4.643222317099571E-003;3.636127803474665E-003;
2.401666666666667E+009;1.596923321485519E-001;4.095846042037010E-002;-4.155870061367750E-003;3.683807794004679E-003;
2.401833333333334E+009;1.602289676666260E-001;3.899988532066345E-002;-4.212480969727039E-003;3.810550551861525E-003;
2.402000000000000E+009;1.607425957918167E-001;3.718822076916695E-002;-4.051456227898598E-003;4.008501768112183E-003;
2.402166666666667E+009;1.614652127027512E-001;3.519505262374878E-002;-3.887294791638851E-003;4.037547856569290E-003;
2.402333333333334E+009;1.621427386999130E-001;3.335634246468544E-002;-3.715692320838571E-003;4.216558765619993E-003;
2.402500000000000E+009;1.630525290966034E-001;3.182858228683472E-002;-3.896558191627264E-003;4.370242357254028E-003;
2.402666666666667E+009;1.636572629213333E-001;3.017232753336430E-002;-3.551511093974114E-003;4.478992894291878E-003;
2.402833333333334E+009;1.647280752658844E-001;2.876717224717140E-002;-3.241460770368576E-003;4.524487070739269E-003;
2.403000000000000E+009;1.653944551944733E-001;2.711602859199047E-002;-3.323866520076990E-003;4.820910282433033E-003;
2.403166666666667E+009;1.663825213909149E-001;2.583689428865910E-002;-3.090887563303113E-003;4.842026624828577E-003;
2.403333333333334E+009;1.673263460397720E-001;2.455828525125980E-002;-2.939966274425387E-003;4.882257897406817E-003;
2.403500000000000E+009;1.682977527379990E-001;2.318933606147766E-002;-2.480066381394863E-003;5.093836691230536E-003;
2.403666666666667E+009;1.693117767572403E-001;2.196621336042881E-002;-2.553078811615706E-003;5.146802403032780E-003;
2.403833333333334E+009;1.702396720647812E-001;2.093729935586453E-002;-2.347374800592661E-003;5.119408946484327E-003;
2.404000000000000E+009;1.712996512651444E-001;1.989984884858131E-002;-2.166933380067349E-003;5.434050690382719E-003;
2.404166666666667E+009;1.722114086151123E-001;1.881848089396954E-002;-2.078316872939467E-003;5.558751989156008E-003;
2.404333333333334E+009;1.731365770101547E-001;1.796547323465347E-002;-1.839669188484550E-003;5.459086038172245E-003;
2.404500000000000E+009;1.738164275884628E-001;1.719246059656143E-002;-1.622700365260243E-003;5.313163157552481E-003;
2.404666666666667E+009;1.746919155120850E-001;1.644890569150448E-002;-1.540747005492449E-003;5.691790487617254E-003;
2.404833333333334E+009;1.755058467388153E-001;1.577234640717506E-002;-1.212231931276619E-003;5.734391044825316E-003;
2.405000000000000E+009;1.763051301240921E-001;1.529293879866600E-002;-8.312808931805193E-004;5.589775741100311E-003;
2.405166666666667E+009;1.769359856843948E-001;1.471283473074436E-002;-7.308645872399211E-004;5.966904107481241E-003;
2.405333333333334E+009;1.777056902647018E-001;1.409067306667566E-002;-6.038691499270499E-004;5.721540190279484E-003;
2.405500000000000E+009;1.781595647335053E-001;1.372726075351238E-002;-2.816311025526375E-004;5.669756326824427E-003;
2.405666666666667E+009;1.787652969360352E-001;1.348219066858292E-002;-2.687032747417106E-006;5.791531875729561E-003;
2.405833333333334E+009;1.790774017572403E-001;1.314726285636425E-002;6.362624117173255E-005;5.743487738072872E-003;
2.406000000000000E+009;1.794969737529755E-001;1.262469775974751E-002;2.177178685087711E-004;5.737003870308399E-003;
2.406166666666667E+009;1.796050071716309E-001;1.247130706906319E-002;7.837017183192074E-004;5.676488857716322E-003;
2.406333333333334E+009;1.800314933061600E-001;1.215743273496628E-002;7.931795553304255E-004;5.623153410851955E-003;
2.406500000000000E+009;1.801999062299728E-001;1.175581384450197E-002;1.062150346115232E-003;5.596750881522894E-003;
2.406666666666667E+009;1.799523681402206E-001;1.154312212020159E-002;1.433528377674520E-003;5.489605944603682E-003;
2.406833333333334E+009;1.799853444099426E-001;1.115656457841396E-002;1.598310889676213E-003;5.297310184687376E-003;
2.407000000000000E+009;1.799802631139755E-001;1.073075737804174E-002;1.827399362809956E-003;5.415655206888914E-003;
2.407166666666667E+009;1.799432039260864E-001;1.040543802082539E-002;1.980226952582598E-003;5.267363972961903E-003;
2.407333333333334E+009;1.795335710048676E-001;9.827617555856705E-003;2.184946788474917E-003;4.937011282891035E-003;
2.407500000000000E+009;1.791852563619614E-001;9.371072053909302E-003;2.367426641285420E-003;5.027611739933491E-003;
2.407666666666667E+009;1.789514571428299E-001;8.836706168949604E-003;2.539083361625671E-003;4.696231335401535E-003;
2.407833333333334E+009;1.783908903598785E-001;8.077918551862240E-003;2.698694355785847E-003;4.436358343809843E-003;
2.408000000000000E+009;1.778760105371475E-001;7.305966224521399E-003;2.727220999076963E-003;4.512261599302292E-003;
2.408166666666667E+009;1.773359179496765E-001;6.595433223992586E-003;2.948555862531066E-003;4.080617800354958E-003;
2.408333333333334E+009;1.769288331270218E-001;5.726288538426161E-003;2.981258323416114E-003;4.048295784741640E-003;
2.408500000000000E+009;1.761143356561661E-001;4.725871141999960E-003;3.101765410974622E-003;3.870460437610745E-003;
2.408666666666667E+009;1.755190789699554E-001;3.693499835208058E-003;3.086284501478076E-003;3.793384181335568E-003;
2.408833333333334E+009;1.748059540987015E-001;2.468017162755132E-003;3.313084831461310E-003;3.598442301154137E-003;
2.409000000000000E+009;1.741973012685776E-001;1.407087431289256E-003;3.358496585860848E-003;3.282196819782257E-003;
2.409166666666667E+009;1.735752820968628E-001;-2.484884316800162E-005;3.386331023648381E-003;3.254181705415249E-003;
2.409333333333334E+009;1.730024367570877E-001;-1.362234936095774E-003;3.431343706324697E-003;2.913951873779297E-003;
2.409500000000000E+009;1.722734868526459E-001;-2.883093897253275E-003;3.358980175107718E-003;2.762243384495378E-003;
2.409666666666667E+009;1.714606881141663E-001;-4.383635241538286E-003;3.507833462208509E-003;2.762488555163145E-003;
2.409833333333334E+009;1.709152460098267E-001;-5.761203356087208E-003;3.384097944945097E-003;2.576323691755533E-003;
2.410000000000000E+009;1.703375577926636E-001;-7.434119936078787E-003;3.554296679794788E-003;2.432407578453422E-003;
2.410166666666667E+009;1.699965596199036E-001;-9.251824580132961E-003;3.647931851446629E-003;2.223148941993713E-003;
2.410333333333334E+009;1.692135781049728E-001;-1.104865502566099E-002;3.765196073800325E-003;1.981324050575495E-003;
2.410500000000000E+009;1.691165864467621E-001;-1.278021279722452E-002;3.480157814919949E-003;1.963803544640541E-003;
2.410666666666667E+009;1.685762256383896E-001;-1.471423916518688E-002;3.607643768191338E-003;1.825302490033209E-003;
2.410833333333334E+009;1.684047877788544E-001;-1.655485294759274E-002;3.660797839984298E-003;1.744809444062412E-003;
2.411000000000000E+009;1.680683493614197E-001;-1.842666417360306E-002;3.653123276308179E-003;1.493453979492188E-003;
2.411166666666667E+009;1.679286360740662E-001;-2.037488669157028E-002;3.739697625860572E-003;1.368237426504493E-003;
2.411333333333334E+009;1.679241508245468E-001;-2.221423573791981E-002;3.629935672506690E-003;1.228572800755501E-003;
2.411500000000000E+009;1.676438301801682E-001;-2.437476441264153E-002;3.615206573158503E-003;1.109215547330678E-003;
2.411666666666667E+009;1.679660975933075E-001;-2.626739814877510E-002;3.549408400431275E-003;9.233317687176168E-004;
2.411833333333334E+009;1.680000573396683E-001;-2.799829468131065E-002;3.603368531912565E-003;6.902961758896709E-004;
2.412000000000000E+009;1.682031601667404E-001;-3.016927465796471E-002;3.520359518006444E-003;6.097129662521184E-004;
2.412166666666667E+009;1.683411449193955E-001;-3.196153789758682E-002;3.367236116901040E-003;5.313400179147720E-004;
2.412333333333334E+009;1.688754558563232E-001;-3.386293724179268E-002;3.463636152446270E-003;4.143533878959715E-004;
2.412500000000000E+009;1.691278368234634E-001;-3.550641983747482E-002;3.340370720252395E-003;2.333657321287319E-004;
2.412666666666667E+009;1.698037683963776E-001;-3.748257085680962E-002;3.226943779736757E-003;7.696155080338940E-005;
2.412833333333334E+009;1.701837629079819E-001;-3.903624042868614E-002;3.296699840575457E-003;3.385692980373278E-005;
2.413000000000000E+009;1.704918742179871E-001;-4.086646065115929E-002;3.155796090140939E-003;-6.961121835047379E-005;
2.413166666666667E+009;1.710388660430908E-001;-4.257540404796600E-002;3.176014870405197E-003;-2.203001931775361E-004;
2.413333333333334E+009;1.717256605625153E-001;-4.406818374991417E-002;3.108970588073134E-003;-2.409151638858020E-004;
2.413500000000000E+009;1.721823662519455E-001;-4.561240226030350E-002;2.925839275121689E-003;-4.039603227283806E-004;
2.413666666666667E+009;1.729335188865662E-001;-4.700719565153122E-002;2.908372553065419E-003;-4.361576575320214E-004;
2.413833333333334E+009;1.734257042407990E-001;-4.829036071896553E-002;2.688415348529816E-003;-3.997936146333814E-004;
2.414000000000000E+009;1.740242242813110E-001;-4.960932210087776E-002;2.568409312516451E-003;-5.894314963370562E-004;
2.414166666666667E+009;1.746878027915955E-001;-5.082269757986069E-002;2.678511897101998E-003;-5.714666913263500E-004;
2.414333333333334E+009;1.752312928438187E-001;-5.180367454886437E-002;2.516701817512512E-003;-5.369214341044426E-004;
2.414500000000000E+009;1.759098321199417E-001;-5.282000452280045E-002;2.379767596721649E-003;-6.538780871778727E-004;
2.414666666666667E+009;1.762249618768692E-001;-5.355142056941986E-002;2.411432797089219E-003;-7.780963787809014E-004;
2.414833333333334E+009;1.767063140869141E-001;-5.455842986702919E-002;2.267662202939391E-003;-6.798022077418864E-004;
2.415000000000000E+009;1.770221740007401E-001;-5.528056994080544E-002;2.242258051410317E-003;-6.543298368342221E-004;
2.415166666666667E+009;1.774306595325470E-001;-5.598423629999161E-002;2.209340222179890E-003;-7.692361832596362E-004;
2.415333333333334E+009;1.778166741132736E-001;-5.656073614954948E-002;2.009860007092357E-003;-5.948264733888209E-004;
2.415500000000000E+009;1.780628710985184E-001;-5.698797106742859E-002;2.057960024103522E-003;-8.365329122170806E-004;
2.415666666666667E+009;1.782495975494385E-001;-5.744610726833344E-002;2.010932657867670E-003;-7.706601754762232E-004;
2.415833333333334E+009;1.782224774360657E-001;-5.784140154719353E-002;1.800342113710940E-003;-7.698846748098731E-004;
2.416000000000000E+009;1.781090050935745E-001;-5.816423147916794E-002;1.862917677499354E-003;-7.366663776338100E-004;
2.416166666666667E+009;1.783247739076614E-001;-5.849577486515045E-002;1.801048405468464E-003;-7.949139690026641E-004;
2.416333333333334E+009;1.780494898557663E-001;-5.861985310912132E-002;1.814355491660535E-003;-8.259906899183989E-004;
2.416500000000000E+009;1.778117567300797E-001;-5.903796106576920E-002;1.893606269732118E-003;-6.502701435238123E-004;
2.416666666666667E+009;1.773807108402252E-001;-5.925166234374046E-002;1.699058222584426E-003;-9.588194079697132E-004;
2.416833333333334E+009;1.772010028362274E-001;-5.951143056154251E-002;1.788171590305865E-003;-8.898677770048380E-004;
2.417000000000000E+009;1.762868165969849E-001;-5.980229005217552E-002;1.645851181820035E-003;-8.311496349051595E-004;
2.417166666666667E+009;1.758372187614441E-001;-5.988725274801254E-002;1.634066691622138E-003;-8.126396569423378E-004;
2.417333333333334E+009;1.751150041818619E-001;-6.004374101758003E-002;1.520524732768536E-003;-8.797896443866193E-004;
2.417500000000000E+009;1.744067221879959E-001;-6.052646040916443E-002;1.580621581524611E-003;-1.021675183437765E-003;
2.417666666666667E+009;1.735644489526749E-001;-6.071154028177261E-002;1.677540712989867E-003;-8.664830238558352E-004;
2.417833333333334E+009;1.726403683423996E-001;-6.097375601530075E-002;1.371381455101073E-003;-9.902899619191885E-004;
2.418000000000000E+009;1.715843230485916E-001;-6.138282269239426E-002;1.375526539050043E-003;-8.970921044237912E-004;
2.418166666666667E+009;1.705385595560074E-001;-6.159926950931549E-002;1.368801109492779E-003;-9.524392080493271E-004;
2.418333333333334E+009;1.697364747524262E-001;-6.226241961121559E-002;1.478842459619045E-003;-9.155916050076485E-004;
2.418500000000000E+009;1.684566140174866E-001;-6.275393813848496E-002;1.377250417135656E-003;-8.625740883871913E-004;
2.418666666666667E+009;1.674501001834869E-001;-6.340990215539932E-002;1.390201156027615E-003;-9.296491043642163E-004;
2.418833333333334E+009;1.660905033349991E-001;-6.395840644836426E-002;1.346149481832981E-003;-9.701540693640709E-004;
2.419000000000000E+009;1.648849546909332E-001;-6.481666117906570E-002;1.212693052366376E-003;-1.072682207450271E-003;
2.419166666666667E+009;1.636359393596649E-001;-6.543661653995514E-002;1.190844341181219E-003;-9.925221092998982E-004;
2.419333333333334E+009;1.623252928256989E-001;-6.630266457796097E-002;1.241428661160171E-003;-1.088772900402546E-003;
2.419500000000000E+009;1.613514572381973E-001;-6.740855425596237E-002;1.084960415028036E-003;-1.142756198532879E-003;
2.419666666666667E+009;1.600383967161179E-001;-6.839718669652939E-002;9.779848624020815E-004;-1.052140607498586E-003;
2.419833333333334E+009;1.589027494192123E-001;-6.940409541130066E-002;1.094931620173156E-003;-1.063520903699100E-003;
2.420000000000000E+009;1.578295677900314E-001;-7.060011476278305E-002;1.058074645698071E-003;-9.977130685001612E-004;
2.420166666666667E+009;1.567629128694534E-001;-7.195717841386795E-002;1.004368066787720E-003;-9.748574811965227E-004;
2.420333333333334E+009;1.556736379861832E-001;-7.322606444358826E-002;1.021525473333895E-003;-1.020461553707719E-003;
2.420500000000000E+009;1.549625545740128E-001;-7.441841065883637E-002;9.077294380404055E-004;-1.012543914839625E-003;
2.420666666666667E+009;1.539224237203598E-001;-7.576307654380798E-002;9.161570342257619E-004;-1.094508916139603E-003;
2.420833333333334E+009;1.530550271272659E-001;-7.745912671089172E-002;8.587638149037957E-004;-9.503968176431954E-004;
2.421000000000000E+009;1.523604393005371E-001;-7.895614951848984E-002;8.567533222958446E-004;-1.063674339093268E-003;
2.421166666666667E+009;1.517142355442047E-001;-8.059027045965195E-002;7.573939510621131E-004;-1.150626572780311E-003;
2.421333333333334E+009;1.511149853467941E-001;-8.225618302822113E-002;6.343105924315751E-004;-9.256215998902917E-004;
2.421500000000000E+009;1.505974978208542E-001;-8.372242003679276E-002;7.245866581797600E-004;-1.100420486181974E-003;
2.421666666666667E+009;1.500884294509888E-001;-8.540874719619751E-002;7.570302113890648E-004;-7.827594527043402E-004;
2.421833333333334E+009;1.498620361089706E-001;-8.710470795631409E-002;5.809085560031235E-004;-7.591568864881992E-004;
2.422000000000000E+009;1.495762169361115E-001;-8.871544152498245E-002;4.352719697635621E-004;-9.103434276767075E-004;
2.422166666666667E+009;1.494911611080170E-001;-9.060660004615784E-002;5.199956358410418E-004;-9.086753125302494E-004;
2.422333333333334E+009;1.492992043495178E-001;-9.228516370058060E-002;6.184749072417617E-004;-8.393501630052924E-004;
2.422500000000000E+009;1.493245512247086E-001;-9.396718442440033E-002;6.261066882871091E-004;-7.392271654680371E-004;
2.422666666666667E+009;1.494654715061188E-001;-9.538845717906952E-002;5.734743317589164E-004;-7.274933159351349E-004;
2.422833333333334E+009;1.495897024869919E-001;-9.717769920825958E-002;4.354083212092519E-004;-5.340267671272159E-004;
2.423000000000000E+009;1.498713046312332E-001;-9.876111894845963E-002;3.765623550862074E-004;-7.691272767260671E-004;
2.423166666666667E+009;1.501560658216476E-001;-1.003505736589432E-001;5.249744863249362E-004;-7.041406352072954E-004;
2.423333333333334E+009;1.505218595266342E-001;-1.017139330506325E-001;3.757596423383802E-004;-6.805348093621433E-004;
2.423500000000000E+009;1.509413868188858E-001;-1.031381115317345E-001;4.319206927902997E-004;-5.963855073787272E-004;
2.423666666666667E+009;1.510252505540848E-001;-1.046827957034111E-001;3.824410378001630E-004;-6.021566223353148E-004;
2.423833333333334E+009;1.517138481140137E-001;-1.061608791351318E-001;5.153577658347786E-004;-4.982695681974292E-004;
2.424000000000000E+009;1.520907133817673E-001;-1.070443242788315E-001;4.883770016022027E-004;-3.398618719074875E-004;
2.424166666666667E+009;1.526145488023758E-001;-1.084371507167816E-001;5.543605657294393E-004;-3.107247175648809E-004;
2.424333333333334E+009;1.531558334827423E-001;-1.094508469104767E-001;5.354086169973016E-004;-3.345305740367621E-004;
2.424500000000000E+009;1.536402553319931E-001;-1.105693876743317E-001;6.845670868642628E-004;-3.745553840417415E-004;
2.424666666666667E+009;1.542726904153824E-001;-1.113253310322762E-001;5.914203939028084E-004;-2.612338576000184E-004;
2.424833333333334E+009;1.546405851840973E-001;-1.121261417865753E-001;6.507335347123444E-004;-3.549593384377658E-004;
2.425000000000000E+009;1.551243513822556E-001;-1.130234003067017E-001;5.884474376216531E-004;-2.269119286211208E-004;
2.425166666666667E+009;1.552501618862152E-001;-1.137468367815018E-001;7.423089700751007E-004;-2.091189526254311E-004;
2.425333333333334E+009;1.557916998863220E-001;-1.143523901700974E-001;8.422906976193190E-004;-2.831545716617256E-004;
2.425500000000000E+009;1.560452580451965E-001;-1.149632930755615E-001;9.550190879963338E-004;-2.450195606797934E-004;
2.425666666666667E+009;1.562298834323883E-001;-1.155164688825607E-001;1.007171114906669E-003;-2.923533902503550E-004;
2.425833333333334E+009;1.564505845308304E-001;-1.159529089927673E-001;1.065481454133987E-003;-2.445647260174155E-004;
2.426000000000000E+009;1.564983874559403E-001;-1.164090111851692E-001;1.044456614181399E-003;-4.289131320547313E-004;
2.426166666666667E+009;1.566925346851349E-001;-1.167194470763207E-001;1.116613624617457E-003;-2.086002787109464E-004;
2.426333333333334E+009;1.566059738397598E-001;-1.169409900903702E-001;1.134065794758499E-003;-1.998116640606895E-004;
2.426500000000000E+009;1.565040051937103E-001;-1.171958371996880E-001;1.213725889101625E-003;-3.664148971438408E-004;
2.426666666666667E+009;1.563926488161087E-001;-1.172421276569367E-001;1.351664308458567E-003;-5.154034006409347E-004;
2.426833333333334E+009;1.560676693916321E-001;-1.174236685037613E-001;1.349506550468504E-003;-6.555313593707979E-004;
2.427000000000000E+009;1.556994915008545E-001;-1.175871193408966E-001;1.441499567590654E-003;-6.645653629675508E-004;
2.427166666666667E+009;1.551824510097504E-001;-1.176111102104187E-001;1.525897532701492E-003;-6.418678094632924E-004;
2.427333333333334E+009;1.545188724994659E-001;-1.177152171730995E-001;1.436296966858208E-003;-7.723493035882711E-004;
2.427500000000000E+009;1.539763808250427E-001;-1.179056763648987E-001;1.480319886468351E-003;-8.177330601029098E-004;
2.427666666666667E+009;1.531179845333099E-001;-1.180620715022087E-001;1.548595027998090E-003;-8.206861675716937E-004;
2.427833333333334E+009;1.522154062986374E-001;-1.182093769311905E-001;1.561118056997657E-003;-9.599276236258447E-004;
