# Version 1.00
#
freq[Hz];re:Trc1_S11;im:Trc1_S11;re:Trc2_S21;im:Trc2_S21;
2.400000000000000E+009;1.568237245082855E-001;6.094852089881897E-002;-5.268583074212074E-003;1.936311135068536E-003;
2.400166666666667E+009;1.570089012384415E-001;5.917577818036079E-002;-5.125606432557106E-003;1.969289267435670E-003;
2.400333333333334E+009;1.570013165473938E-001;5.727175995707512E-002;-5.060280207544565E-003;2.170091029256582E-003;
2.400500000000000E+009;1.571797281503677E-001;5.522858351469040E-002;-4.953657742589712E-003;2.289626281708479E-003;
2.400666666666667E+009;1.573424041271210E-001;5.319289490580559E-002;-4.857826512306929E-003;2.316113328561187E-003;
2.400833333333334E+009;1.578602045774460E-001;5.131404846906662E-002;-4.963351879268885E-003;2.538421656936407E-003;
2.401000000000000E+009;1.579998880624771E-001;4.917547851800919E-002;-4.825809970498085E-003;2.747765742242336E-003;
2.401166666666667E+009;1.583096683025360E-001;4.694009944796562E-002;-4.777462687343359E-003;2.930289367213845E-003;
2.401333333333334E+009;1.585990041494370E-001;4.497834295034409E-002;-4.719582386314869E-003;2.893576631322503E-003;
2.401500000000000E+009;1.590725034475327E-001;4.295613244175911E-002;-4.586232826113701E-003;3.079740097746253E-003;
2.401666666666667E+009;1.598292738199234E-001;4.109334573149681E-002;-4.566873889416456E-003;3.166304668411613E-003;
2.401833333333334E+009;1.602925807237625E-001;3.898623213171959E-002;-4.267907235771418E-003;3.298544092103839E-003;
2.402000000000000E+009;1.606958061456680E-001;3.714502975344658E-002;-4.361179191619158E-003;3.444580826908350E-003;
2.402166666666667E+009;1.615072488784790E-001;3.521155565977097E-002;-4.257740452885628E-003;3.607433522120118E-003;
2.402333333333334E+009;1.622005552053452E-001;3.333310037851334E-002;-4.059706348925829E-003;3.675111103802919E-003;
2.402500000000000E+009;1.630743443965912E-001;3.180363774299622E-002;-4.011728800833225E-003;3.954984713345766E-003;
2.402666666666667E+009;1.638341695070267E-001;3.002236224710941E-002;-3.991047851741314E-003;3.971170168370009E-003;
2.402833333333334E+009;1.646054834127426E-001;2.855738438665867E-002;-3.866054816171527E-003;4.359355196356773E-003;
2.403000000000000E+009;1.654021441936493E-001;2.699538320302963E-002;-3.661599708721042E-003;4.364363383501768E-003;
2.403166666666667E+009;1.666106283664703E-001;2.571225725114346E-002;-3.500078339129686E-003;4.434613045305014E-003;
2.403333333333334E+009;1.675288975238800E-001;2.428300492465496E-002;-3.329556435346603E-003;4.563696216791868E-003;
2.403500000000000E+009;1.682279407978058E-001;2.309470251202583E-002;-3.180675208568573E-003;4.590092226862907E-003;
2.403666666666667E+009;1.693304330110550E-001;2.186905220150948E-002;-3.140075830742717E-003;4.805721342563629E-003;
2.403833333333334E+009;1.703460812568665E-001;2.080763503909111E-002;-2.812976017594338E-003;4.795228131115437E-003;
2.404000000000000E+009;1.711311787366867E-001;1.970969699323177E-002;-2.780128968879581E-003;5.054061766713858E-003;
2.404166666666667E+009;1.721370369195938E-001;1.869245246052742E-002;-2.578302985057235E-003;4.973547533154488E-003;
2.404333333333334E+009;1.729803085327148E-001;1.801309734582901E-002;-2.387331333011389E-003;5.271986126899719E-003;
2.404500000000000E+009;1.737578809261322E-001;1.709555275738239E-002;-2.180024050176144E-003;5.402749869972467E-003;
2.404666666666667E+009;1.746567487716675E-001;1.644551940262318E-002;-1.920774695463479E-003;5.432513542473316E-003;
2.404833333333334E+009;1.754305958747864E-001;1.582110114395618E-002;-1.779566635377705E-003;5.471122451126576E-003;
2.405000000000000E+009;1.761657297611237E-001;1.511726621538401E-002;-1.545544015243650E-003;5.589261651039124E-003;
2.405166666666667E+009;1.768505275249481E-001;1.456640101969242E-002;-1.141567947342992E-003;5.527636967599392E-003;
2.405333333333334E+009;1.777287870645523E-001;1.405729912221432E-002;-1.098720589652658E-003;5.666129756718874E-003;
2.405500000000000E+009;1.781162172555924E-001;1.367938984185457E-002;-7.836658624000847E-004;5.727940239012241E-003;
2.405666666666667E+009;1.786439716815949E-001;1.324533205479384E-002;-6.772304768674076E-004;5.923333112150431E-003;
2.405833333333334E+009;1.789593994617462E-001;1.314861048012972E-002;-3.598944167606533E-004;5.915209185332060E-003;
2.406000000000000E+009;1.795496940612793E-001;1.254315581172705E-002;-8.494299254380167E-005;5.907800979912281E-003;
2.406166666666667E+009;1.796123981475830E-001;1.246766652911902E-002;1.763795153237879E-004;5.789708346128464E-003;
2.406333333333334E+009;1.800865381956101E-001;1.213103532791138E-002;4.255953826941550E-004;5.835418589413166E-003;
2.406500000000000E+009;1.802246719598770E-001;1.172677334398031E-002;6.523141055367887E-004;5.558186210691929E-003;
2.406666666666667E+009;1.799370199441910E-001;1.142850052565336E-002;7.543145329691470E-004;5.588968750089407E-003;
2.406833333333334E+009;1.801501661539078E-001;1.097257994115353E-002;9.930396918207407E-004;5.426957271993160E-003;
2.407000000000000E+009;1.801709681749344E-001;1.066135615110397E-002;1.266485895030201E-003;5.373985040932894E-003;
2.407166666666667E+009;1.799690872430801E-001;1.035955734550953E-002;1.572739798575640E-003;5.183804780244827E-003;
2.407333333333334E+009;1.796856075525284E-001;9.700147435069084E-003;1.690054545179009E-003;5.060007330030203E-003;
2.407500000000000E+009;1.792362034320831E-001;9.074059315025806E-003;1.886116107925773E-003;4.881021101027727E-003;
2.407666666666667E+009;1.788824796676636E-001;8.749768137931824E-003;2.090808469802141E-003;4.662348423153162E-003;
2.407833333333334E+009;1.783793866634369E-001;7.877284660935402E-003;2.210450358688831E-003;4.740210250020027E-003;
2.408000000000000E+009;1.778698414564133E-001;7.180127315223217E-003;2.372303744778037E-003;4.580838605761528E-003;
2.408166666666667E+009;1.772666722536087E-001;6.485642865300179E-003;2.497406210750341E-003;4.489363171160221E-003;
2.408333333333334E+009;1.769506782293320E-001;5.639621522277594E-003;2.635980490595102E-003;4.175211768597364E-003;
2.408500000000000E+009;1.762277781963348E-001;4.608907736837864E-003;2.773858606815338E-003;4.067998379468918E-003;
2.408666666666667E+009;1.755307912826538E-001;3.455205354839563E-003;2.778463531285524E-003;3.945486620068550E-003;
2.408833333333334E+009;1.748365908861160E-001;2.446177182719111E-003;2.755817491561174E-003;3.702557645738125E-003;
2.409000000000000E+009;1.741220504045487E-001;1.258644391782582E-003;3.068803809583187E-003;3.708407515659928E-003;
2.409166666666667E+009;1.735712140798569E-001;-1.591017062310129E-004;3.019646508619189E-003;3.388639073818922E-003;
2.409333333333334E+009;1.729519069194794E-001;-1.550430664792657E-003;3.177385078743100E-003;3.186203539371491E-003;
2.409500000000000E+009;1.721145957708359E-001;-3.030817955732346E-003;3.286878112703562E-003;3.233628580346704E-003;
2.409666666666667E+009;1.715536415576935E-001;-4.441058728843927E-003;3.214862197637558E-003;3.008218016475439E-003;
2.409833333333334E+009;1.706495285034180E-001;-5.945383571088314E-003;3.277942305430770E-003;3.047317732125521E-003;
2.410000000000000E+009;1.703918725252152E-001;-7.691831327974796E-003;3.349409205839038E-003;2.812081715092063E-003;
2.410166666666667E+009;1.698682010173798E-001;-9.420289658010006E-003;3.353978041559458E-003;2.654450945556164E-003;
2.410333333333334E+009;1.693075746297836E-001;-1.100456342101097E-002;3.318453673273325E-003;2.568031195551157E-003;
2.410500000000000E+009;1.689176857471466E-001;-1.290736626833677E-002;3.531739581376314E-003;2.398902317509055E-003;
2.410666666666667E+009;1.683607399463654E-001;-1.483460888266563E-002;3.507913090288639E-003;2.186241792514920E-003;
2.410833333333334E+009;1.681831926107407E-001;-1.651198789477348E-002;3.478960134088993E-003;2.112919930368662E-003;
2.411000000000000E+009;1.679956167936325E-001;-1.852199248969555E-002;3.495766082778573E-003;1.916057430207729E-003;
2.411166666666667E+009;1.676435470581055E-001;-2.051136456429958E-002;3.530699061229825E-003;1.796852680854499E-003;
2.411333333333334E+009;1.676946431398392E-001;-2.238723449409008E-002;3.439182648435235E-003;1.658328459598124E-003;
2.411500000000000E+009;1.677225679159164E-001;-2.441627532243729E-002;3.480435581877828E-003;1.542148413136601E-003;
2.411666666666667E+009;1.679002642631531E-001;-2.611416205763817E-002;3.517668927088380E-003;1.300126081332564E-003;
2.411833333333334E+009;1.680374890565872E-001;-2.816335670650005E-002;3.516271943226457E-003;1.167471404187381E-003;
2.412000000000000E+009;1.680615246295929E-001;-3.007100336253643E-002;3.414796432480216E-003;1.132310251705349E-003;
2.412166666666667E+009;1.682668030261993E-001;-3.187243640422821E-002;3.454071702435613E-003;1.010208739899099E-003;
2.412333333333334E+009;1.687920391559601E-001;-3.378978371620178E-002;3.320565214380622E-003;8.550503989681602E-004;
2.412500000000000E+009;1.690423041582108E-001;-3.560297936201096E-002;3.342322539538145E-003;7.194292847998440E-004;
2.412666666666667E+009;1.696360111236572E-001;-3.755353763699532E-002;3.352746134623885E-003;4.905897658318281E-004;
2.412833333333334E+009;1.700252592563629E-001;-3.937658295035362E-002;3.030420513823628E-003;6.022528978064656E-004;
2.413000000000000E+009;1.704745441675186E-001;-4.067131504416466E-002;3.248875495046377E-003;2.958881668746471E-004;
2.413166666666667E+009;1.711242794990540E-001;-4.262232035398483E-002;3.122860332950950E-003;2.209659287473187E-004;
2.413333333333334E+009;1.716647297143936E-001;-4.407919570803642E-002;3.027814207598567E-003;2.077115495922044E-004;
2.413500000000000E+009;1.722742468118668E-001;-4.550090804696083E-002;2.917443867772818E-003;9.761490218807012E-005;
2.413666666666667E+009;1.728435754776001E-001;-4.699373617768288E-002;3.040152136236429E-003;-2.592044984339736E-005;
2.413833333333334E+009;1.733983755111694E-001;-4.828070476651192E-002;2.921528415754437E-003;-1.938153145601973E-004;
2.414000000000000E+009;1.738885045051575E-001;-4.950179532170296E-002;2.754878019914031E-003;-7.028998516034335E-005;
2.414166666666667E+009;1.747020483016968E-001;-5.069017782807350E-002;2.841896610334516E-003;-1.513420138508081E-004;
2.414333333333334E+009;1.751928031444550E-001;-5.184576287865639E-002;2.755079651251435E-003;-2.863562258426100E-004;
2.414500000000000E+009;1.757703274488449E-001;-5.282920971512795E-002;2.606985392048955E-003;-4.691031936090440E-004;
2.414666666666667E+009;1.762272715568543E-001;-5.359132215380669E-002;2.516388893127441E-003;-2.544872113503516E-004;
2.414833333333334E+009;1.766563057899475E-001;-5.455636233091354E-002;2.425333485007286E-003;-4.882590437773615E-004;
2.415000000000000E+009;1.770897656679153E-001;-5.525591224431992E-002;2.371815498918295E-003;-3.524486382957548E-004;
2.415166666666667E+009;1.773613393306732E-001;-5.587693303823471E-002;2.332009142264724E-003;-4.049268609378487E-004;
2.415333333333334E+009;1.778093129396439E-001;-5.643365532159805E-002;2.377545461058617E-003;-4.066178516950458E-004;
2.415500000000000E+009;1.779498904943466E-001;-5.702324584126473E-002;2.201383933424950E-003;-5.379079957492650E-004;
2.415666666666667E+009;1.780924499034882E-001;-5.738771334290505E-002;2.029468305408955E-003;-4.497615154832602E-004;
2.415833333333334E+009;1.782966107130051E-001;-5.787033960223198E-002;2.051769057288766E-003;-5.289501859806478E-004;
2.416000000000000E+009;1.781262010335922E-001;-5.812866985797882E-002;2.074496587738395E-003;-5.514741060324013E-004;
2.416166666666667E+009;1.783413887023926E-001;-5.839855968952179E-002;1.977565698325634E-003;-3.845839237328619E-004;
2.416333333333334E+009;1.780538111925125E-001;-5.862828716635704E-002;2.152701374143362E-003;-5.215010023675859E-004;
2.416500000000000E+009;1.778585463762283E-001;-5.905564874410629E-002;1.985174370929599E-003;-5.983783630654216E-004;
2.416666666666667E+009;1.774133443832398E-001;-5.909844860434532E-002;1.947418437339366E-003;-5.222189356572926E-004;
2.416833333333334E+009;1.771161705255508E-001;-5.940122529864311E-002;1.875514397397637E-003;-5.123522132635117E-004;
2.417000000000000E+009;1.764484494924545E-001;-5.976942554116249E-002;2.016210928559303E-003;-6.516288267448545E-004;
2.417166666666667E+009;1.758837699890137E-001;-5.986609309911728E-002;1.839178148657084E-003;-5.984838353469968E-004;
2.417333333333334E+009;1.752310544252396E-001;-6.000144779682159E-002;1.809081295505166E-003;-6.009446806274355E-004;
2.417500000000000E+009;1.744215935468674E-001;-6.045992299914360E-002;1.948938937857747E-003;-7.606922881677747E-004;
2.417666666666667E+009;1.736914366483688E-001;-6.060855835676193E-002;1.955014886334539E-003;-5.921408883295953E-004;
2.417833333333334E+009;1.727157831192017E-001;-6.086329743266106E-002;1.792301191017032E-003;-7.528833230026066E-004;
2.418000000000000E+009;1.717285364866257E-001;-6.135177984833717E-002;1.800782280042768E-003;-7.838685414753854E-004;
2.418166666666667E+009;1.706380844116211E-001;-6.166732683777809E-002;1.913634594529867E-003;-7.211553747765720E-004;
2.418333333333334E+009;1.698000133037567E-001;-6.222125887870789E-002;1.675244770012796E-003;-8.303128997795284E-004;
2.418500000000000E+009;1.684724539518356E-001;-6.274138391017914E-002;1.689440570771694E-003;-8.976773824542761E-004;
2.418666666666667E+009;1.674392521381378E-001;-6.350423395633698E-002;1.686852658167481E-003;-7.689790218137205E-004;
2.418833333333334E+009;1.661286503076553E-001;-6.401529908180237E-002;1.631275052204728E-003;-8.992883376777172E-004;
2.419000000000000E+009;1.648183465003967E-001;-6.477586925029755E-002;1.779358019120991E-003;-8.055760990828276E-004;
2.419166666666667E+009;1.637203991413117E-001;-6.554929912090302E-002;1.507527544163168E-003;-9.171980782411993E-004;
2.419333333333334E+009;1.623283624649048E-001;-6.619006395339966E-002;1.467012567445636E-003;-9.515450219623745E-004;
2.419500000000000E+009;1.612721383571625E-001;-6.733737140893936E-002;1.417772145941854E-003;-7.583605474792421E-004;
2.419666666666667E+009;1.600662469863892E-001;-6.834700703620911E-002;1.454007579013705E-003;-9.596860618330538E-004;
2.419833333333334E+009;1.588431000709534E-001;-6.935074925422669E-002;1.456562778912485E-003;-1.018064911477268E-003;
2.420000000000000E+009;1.578350514173508E-001;-7.068314403295517E-002;1.392490463331342E-003;-9.819117840379477E-004;
2.420166666666667E+009;1.566381603479385E-001;-7.190486788749695E-002;1.442300737835467E-003;-9.953919798135757E-004;
2.420333333333334E+009;1.557195037603378E-001;-7.321690768003464E-002;1.279210089705885E-003;-9.563259081915021E-004;
2.420500000000000E+009;1.549273878335953E-001;-7.445180416107178E-002;1.202085171826184E-003;-8.464266429655254E-004;
2.420666666666667E+009;1.538850814104080E-001;-7.580405473709106E-002;1.139052328653634E-003;-9.178215987049043E-004;
2.420833333333334E+009;1.530114710330963E-001;-7.738914340734482E-002;1.278598792850971E-003;-8.017140789888799E-004;
2.421000000000000E+009;1.522398591041565E-001;-7.908120751380920E-002;1.272684545256198E-003;-9.393916698172689E-004;
2.421166666666667E+009;1.517456173896790E-001;-8.044452220201492E-002;1.087630284018815E-003;-8.974258671514690E-004;
2.421333333333334E+009;1.512088924646378E-001;-8.215277642011643E-002;9.890007786452770E-004;-9.983241325244308E-004;
2.421500000000000E+009;1.504882574081421E-001;-8.389307558536530E-002;1.014604815281928E-003;-9.715981432236731E-004;
2.421666666666667E+009;1.502210944890976E-001;-8.538500219583511E-002;1.074810628779233E-003;-9.976006112992764E-004;
2.421833333333334E+009;1.499382406473160E-001;-8.706572651863098E-002;1.116256578825414E-003;-9.633657755330205E-004;
2.422000000000000E+009;1.496288180351257E-001;-8.891240507364273E-002;1.045523327775300E-003;-8.099345141090453E-004;
2.422166666666667E+009;1.495238840579987E-001;-9.080138802528381E-002;1.025547739118338E-003;-9.943613549694419E-004;
2.422333333333334E+009;1.493002474308014E-001;-9.233533591032028E-002;1.077051740139723E-003;-9.646051912568510E-004;
2.422500000000000E+009;1.494862437248230E-001;-9.382219612598419E-002;8.904355927370489E-004;-9.169672266580164E-004;
2.422666666666667E+009;1.494095474481583E-001;-9.556834399700165E-002;9.393337531946600E-004;-9.335885988548398E-004;
2.422833333333334E+009;1.496347784996033E-001;-9.727022796869278E-002;8.850789163261652E-004;-8.773321751505137E-004;
2.423000000000000E+009;1.499248743057251E-001;-9.878935664892197E-002;8.801776566542685E-004;-7.946619298309088E-004;
2.423166666666667E+009;1.501845568418503E-001;-1.003189831972122E-001;8.451198809780181E-004;-8.034820202738047E-004;
2.423333333333334E+009;1.505905985832214E-001;-1.017454043030739E-001;9.505596826784313E-004;-7.724221213720739E-004;
2.423500000000000E+009;1.507907062768936E-001;-1.032075211405754E-001;9.422856965102255E-004;-7.628487073816359E-004;
2.423666666666667E+009;1.511253416538239E-001;-1.048173978924751E-001;8.324652444571257E-004;-7.676069508306682E-004;
2.423833333333334E+009;1.517541855573654E-001;-1.061481982469559E-001;8.627232746221125E-004;-7.149974117055535E-004;
2.424000000000000E+009;1.521763354539871E-001;-1.072080582380295E-001;8.178385905921459E-004;-6.740593235008419E-004;
2.424166666666667E+009;1.525966674089432E-001;-1.084265634417534E-001;7.956865592859685E-004;-5.769892595708370E-004;
2.424333333333334E+009;1.531058996915817E-001;-1.094661280512810E-001;1.013452187180519E-003;-5.859672673977912E-004;
2.424500000000000E+009;1.536869555711746E-001;-1.105649694800377E-001;8.476062794215977E-004;-5.276193842291832E-004;
2.424666666666667E+009;1.541803181171417E-001;-1.113711521029472E-001;9.469541255384684E-004;-6.434788811020553E-004;
2.424833333333334E+009;1.545813977718353E-001;-1.122912093997002E-001;1.026980229653418E-003;-5.863961996510625E-004;
2.425000000000000E+009;1.550264805555344E-001;-1.131098866462708E-001;9.606207604520023E-004;-4.395446449052542E-004;
2.425166666666667E+009;1.552592515945435E-001;-1.138028651475906E-001;9.116494329646230E-004;-5.357079207897186E-004;
2.425333333333334E+009;1.557968556880951E-001;-1.144398450851440E-001;1.090121455490589E-003;-4.922362277284265E-004;
2.425500000000000E+009;1.561271399259567E-001;-1.151407584547997E-001;1.162567874416709E-003;-4.454530426301062E-004;
2.425666666666667E+009;1.561840623617172E-001;-1.155430302023888E-001;1.204033731482923E-003;-5.345582612790167E-004;
2.425833333333334E+009;1.563528329133987E-001;-1.159916073083878E-001;1.092688646167517E-003;-6.378127145580947E-004;
2.426000000000000E+009;1.564850062131882E-001;-1.163800656795502E-001;1.215177471749485E-003;-6.191137363202870E-004;
2.426166666666667E+009;1.567484736442566E-001;-1.167907118797302E-001;1.422307570464909E-003;-6.523463525809348E-004;
2.426333333333334E+009;1.564993262290955E-001;-1.170907840132713E-001;1.302417716942728E-003;-6.612531142309308E-004;
2.426500000000000E+009;1.565520912408829E-001;-1.172365844249725E-001;1.462508924305439E-003;-6.449326174333692E-004;
2.426666666666667E+009;1.563537120819092E-001;-1.171188428997994E-001;1.520884805358946E-003;-8.211257518269122E-004;
2.426833333333334E+009;1.560716032981873E-001;-1.174003183841705E-001;1.545882900245488E-003;-8.556027896702290E-004;
2.427000000000000E+009;1.556977480649948E-001;-1.176390424370766E-001;1.594150438904762E-003;-8.961523999460042E-004;
2.427166666666667E+009;1.551813781261444E-001;-1.176338717341423E-001;1.644863979890943E-003;-1.035405788570643E-003;
2.427333333333334E+009;1.544888317584992E-001;-1.177313402295113E-001;1.621352741494775E-003;-9.157568565569818E-004;
2.427500000000000E+009;1.539784371852875E-001;-1.178765445947647E-001;1.547644264064729E-003;-1.056522014550865E-003;
2.427666666666667E+009;1.530818790197372E-001;-1.180150881409645E-001;1.453057979233563E-003;-1.087017823010683E-003;
2.427833333333334E+009;1.521408259868622E-001;-1.181688457727432E-001;1.651620958000422E-003;-1.308668171986938E-003;
