# Version 1.00
#
freq[Hz];re:Trc1_S11;im:Trc1_S11;re:Trc2_S21;im:Trc2_S21;
2.400000000000000E+009;1.574346870183945E-001;1.115911304950714E-001;1.708689262159169E-003;-1.644597272388637E-003;
2.400166666666667E+009;1.569787263870239E-001;1.093590110540390E-001;1.737486571073532E-003;-2.060100669041276E-003;
2.400333333333334E+009;1.564908474683762E-001;1.071998998522759E-001;1.731816562823951E-003;-2.223356626927853E-003;
2.400500000000000E+009;1.561975032091141E-001;1.045944318175316E-001;1.731951837427914E-003;-2.605739515274763E-003;
2.400666666666667E+009;1.559335887432098E-001;1.021948680281639E-001;1.459865598008037E-003;-2.938995137810707E-003;
2.400833333333334E+009;1.555150747299194E-001;9.931627660989761E-002;1.272349967621267E-003;-3.365887096151710E-003;
2.401000000000000E+009;1.552802473306656E-001;9.651558101177216E-002;1.035725697875023E-003;-3.654961241409183E-003;
2.401166666666667E+009;1.549945622682571E-001;9.363999962806702E-002;7.120659574866295E-004;-3.845729632303119E-003;
2.401333333333334E+009;1.547687649726868E-001;9.088730812072754E-002;2.954060619231314E-004;-3.929400816559792E-003;
2.401500000000000E+009;1.547534465789795E-001;8.783574402332306E-002;1.324882759945467E-004;-4.166153725236654E-003;
2.401666666666667E+009;1.548701226711273E-001;8.488171547651291E-002;-4.293500096537173E-004;-4.354157019406557E-003;
2.401833333333334E+009;1.549517214298248E-001;8.198156207799912E-002;-7.441206253133714E-004;-4.117681179195643E-003;
2.402000000000000E+009;1.555022597312927E-001;7.895290106534958E-002;-1.365906326100230E-003;-4.300427157431841E-003;
2.402166666666667E+009;1.559917330741882E-001;7.627183943986893E-002;-1.647273893468082E-003;-4.116181749850512E-003;
2.402333333333334E+009;1.565173119306564E-001;7.313258945941925E-002;-2.130453707650304E-003;-3.963757306337357E-003;
2.402500000000000E+009;1.574792712926865E-001;7.034135609865189E-002;-2.392227295786142E-003;-3.880433738231659E-003;
2.402666666666667E+009;1.583117097616196E-001;6.777231395244598E-002;-2.727653365582228E-003;-3.445970360189676E-003;
2.402833333333334E+009;1.594089865684509E-001;6.501084566116333E-002;-3.152072196826339E-003;-3.106490941718221E-003;
2.403000000000000E+009;1.606156527996063E-001;6.234712153673172E-002;-3.443509805947542E-003;-2.758645685389638E-003;
2.403166666666667E+009;1.622918546199799E-001;5.974824726581574E-002;-3.497521160170436E-003;-2.462146803736687E-003;
2.403333333333334E+009;1.637360602617264E-001;5.726503953337669E-002;-3.839658340439200E-003;-2.104362938553095E-003;
2.403500000000000E+009;1.654065251350403E-001;5.492892488837242E-002;-3.791737137362361E-003;-1.731885364279151E-003;
2.403666666666667E+009;1.670321524143219E-001;5.244994536042213E-002;-3.888364881277084E-003;-1.341256429441273E-003;
2.403833333333334E+009;1.688436567783356E-001;5.029170587658882E-002;-3.989188466221094E-003;-8.442211546935141E-004;
2.404000000000000E+009;1.704909950494766E-001;4.827247187495232E-002;-3.812764538452029E-003;-6.437918054871261E-004;
2.404166666666667E+009;1.724838167428970E-001;4.643053561449051E-002;-3.748758928850293E-003;-2.909557952079922E-004;
2.404333333333334E+009;1.742608845233917E-001;4.461463168263435E-002;-3.783015534281731E-003;1.532150963612367E-005;
2.404500000000000E+009;1.762550324201584E-001;4.296504333615303E-002;-3.619873896241188E-003;2.698914904613048E-004;
2.404666666666667E+009;1.778795570135117E-001;4.150961712002754E-002;-3.714327700436115E-003;6.298043299466372E-004;
2.404833333333334E+009;1.798234730958939E-001;4.016811400651932E-002;-3.238203004002571E-003;8.316391613334417E-004;
2.405000000000000E+009;1.814077645540237E-001;3.917509689927101E-002;-3.106064163148403E-003;9.995077271014452E-004;
2.405166666666667E+009;1.831722259521484E-001;3.837243095040321E-002;-2.989202970638871E-003;1.244161860086024E-003;
2.405333333333334E+009;1.848671436309815E-001;3.767110034823418E-002;-2.850933931767941E-003;1.517615979537368E-003;
2.405500000000000E+009;1.868346929550171E-001;3.699930384755135E-002;-2.640641992911696E-003;1.507616136223078E-003;
2.405666666666667E+009;1.881365478038788E-001;3.654095903038979E-002;-2.436571754515171E-003;1.717986655421555E-003;
2.405833333333334E+009;1.898862719535828E-001;3.636107221245766E-002;-2.212403807789087E-003;1.692384248599410E-003;
2.406000000000000E+009;1.912392824888229E-001;3.592112660408020E-002;-1.904365373775363E-003;1.755189034156501E-003;
2.406166666666667E+009;1.925860494375229E-001;3.585042431950569E-002;-1.854886184446514E-003;1.985120354220271E-003;
2.406333333333334E+009;1.939375847578049E-001;3.586709499359131E-002;-1.765950582921505E-003;2.000088803470135E-003;
2.406500000000000E+009;1.950236856937408E-001;3.598193451762199E-002;-1.706281211227179E-003;1.993290148675442E-003;
2.406666666666667E+009;1.960960030555725E-001;3.603328764438629E-002;-1.318801194429398E-003;2.144044497981668E-003;
2.406833333333334E+009;1.969769001007080E-001;3.621705621480942E-002;-1.185634289868176E-003;2.340332139283419E-003;
2.407000000000000E+009;1.977067589759827E-001;3.663839772343636E-002;-9.545169305056334E-004;2.285906113684177E-003;
2.407166666666667E+009;1.984812468290329E-001;3.647810593247414E-002;-9.455985855311155E-004;2.467009471729398E-003;
2.407333333333334E+009;1.987058967351914E-001;3.693522140383720E-002;-6.405424210242927E-004;2.361652674153447E-003;
2.407500000000000E+009;1.989874690771103E-001;3.719110786914825E-002;-2.175675908802077E-004;2.355546224862337E-003;
2.407666666666667E+009;1.993766427040100E-001;3.749898821115494E-002;4.635382720152848E-005;2.477154601365328E-003;
2.407833333333334E+009;1.991166025400162E-001;3.765653446316719E-002;1.126232818933204E-004;2.452216111123562E-003;
2.408000000000000E+009;1.991674751043320E-001;3.780306503176689E-002;3.129485994577408E-004;2.264689654111862E-003;
2.408166666666667E+009;1.988934278488159E-001;3.786776959896088E-002;5.469630705192685E-004;2.078255871310830E-003;
2.408333333333334E+009;1.985901743173599E-001;3.778182715177536E-002;7.504835957661271E-004;1.830610912293196E-003;
2.408500000000000E+009;1.979719400405884E-001;3.783748298883438E-002;9.491167147643864E-004;1.793463830836117E-003;
2.408666666666667E+009;1.974285393953323E-001;3.773466125130653E-002;1.066161086782813E-003;1.480785547755659E-003;
2.408833333333334E+009;1.967660039663315E-001;3.730532526969910E-002;1.322711817920208E-003;1.378325745463371E-003;
2.409000000000000E+009;1.958581209182739E-001;3.693883121013641E-002;1.587096950970590E-003;1.227273838594556E-003;
2.409166666666667E+009;1.948459148406982E-001;3.640899434685707E-002;1.569799496792257E-003;1.091297250241041E-003;
2.409333333333334E+009;1.939677298069000E-001;3.586822003126144E-002;1.566072227433324E-003;7.076350157149136E-004;
2.409500000000000E+009;1.926571577787399E-001;3.489761054515839E-002;1.518225064501166E-003;6.269289879128337E-004;
2.409666666666667E+009;1.914081275463104E-001;3.393849730491638E-002;1.584784244187176E-003;3.799975384026766E-004;
2.409833333333334E+009;1.901923716068268E-001;3.271995857357979E-002;1.612648484297097E-003;1.033551234286279E-004;
2.410000000000000E+009;1.890689730644226E-001;3.137424960732460E-002;1.786442124284804E-003;1.836480660131201E-004;
2.410166666666667E+009;1.880011558532715E-001;3.003249317407608E-002;1.557656447403133E-003;-2.415084891254082E-004;
2.410333333333334E+009;1.867707073688507E-001;2.863896638154984E-002;1.544662867672741E-003;-3.674469771794975E-004;
2.410500000000000E+009;1.855170577764511E-001;2.687095850706101E-002;1.419428153894842E-003;-6.657291087321937E-004;
2.410666666666667E+009;1.843396574258804E-001;2.481867931783199E-002;1.418664818629623E-003;-7.643328281119466E-004;
2.410833333333334E+009;1.834122836589813E-001;2.286127768456936E-002;1.216312870383263E-003;-1.131357275880873E-003;
2.411000000000000E+009;1.823004484176636E-001;2.083710953593254E-002;1.052882173098624E-003;-1.122969435527921E-003;
2.411166666666667E+009;1.813898980617523E-001;1.868645101785660E-002;9.681946248747408E-004;-1.300087431445718E-003;
2.411333333333334E+009;1.805658191442490E-001;1.611031964421272E-002;4.588033771142364E-004;-1.498061697930098E-003;
2.411500000000000E+009;1.796295791864395E-001;1.378610543906689E-002;6.235347827896476E-004;-1.624254975467920E-003;
2.411666666666667E+009;1.791855245828629E-001;1.157935429364443E-002;2.785607066471130E-004;-1.548461616039276E-003;
2.411833333333334E+009;1.787032485008240E-001;8.993542753160000E-003;1.439160987501964E-004;-1.612391206435859E-003;
2.412000000000000E+009;1.784005463123322E-001;6.270112004131079E-003;1.402648194925860E-004;-1.715352642349899E-003;
2.412166666666667E+009;1.781190335750580E-001;3.821985563263297E-003;-2.025443100137636E-004;-1.748728216625750E-003;
2.412333333333334E+009;1.781764030456543E-001;1.141452463343740E-003;-3.185219247825444E-004;-1.725797774270177E-003;
2.412500000000000E+009;1.783476173877716E-001;-1.443324261344969E-003;-5.650377715937793E-004;-1.652727718465030E-003;
2.412666666666667E+009;1.785914301872253E-001;-4.253858700394630E-003;-7.987564313225448E-004;-1.717204460874200E-003;
2.412833333333334E+009;1.788793802261353E-001;-6.984666921198368E-003;-9.041957091540098E-004;-1.483185915276408E-003;
2.413000000000000E+009;1.795411854982376E-001;-9.565939195454121E-003;-1.068506157025695E-003;-1.391991740092635E-003;
2.413166666666667E+009;1.800801903009415E-001;-1.213729660958052E-002;-1.381591311655939E-003;-1.462031621485949E-003;
2.413333333333334E+009;1.811249405145645E-001;-1.455475110560656E-002;-1.438575563952327E-003;-1.369914738461375E-003;
2.413500000000000E+009;1.818017065525055E-001;-1.735823974013329E-002;-1.573738874867559E-003;-1.154262339696288E-003;
2.413666666666667E+009;1.828729808330536E-001;-1.965053007006645E-002;-1.740566804073751E-003;-9.441127185709775E-004;
2.413833333333334E+009;1.839355230331421E-001;-2.218048088252544E-002;-1.837275573052466E-003;-7.798196747899056E-004;
2.414000000000000E+009;1.850860863924027E-001;-2.437739819288254E-002;-1.740609062835574E-003;-8.105470915324986E-004;
2.414166666666667E+009;1.862413734197617E-001;-2.665106579661369E-002;-1.848457381129265E-003;-5.731775308959186E-004;
2.414333333333334E+009;1.874219924211502E-001;-2.893308550119400E-002;-1.782384584657848E-003;-3.514379204716533E-004;
2.414500000000000E+009;1.887646466493607E-001;-3.074863925576210E-002;-1.819026074372232E-003;-1.552848116261885E-004;
2.414666666666667E+009;1.901318877935410E-001;-3.259248659014702E-002;-1.872612512670457E-003;-2.486070734448731E-004;
2.414833333333334E+009;1.913205385208130E-001;-3.425619751214981E-002;-1.869879895821214E-003;-1.842581696109846E-005;
2.415000000000000E+009;1.925813853740692E-001;-3.586079552769661E-002;-2.072761068120599E-003;2.212709223385900E-004;
2.415166666666667E+009;1.941186040639877E-001;-3.725333511829376E-002;-1.948944176547229E-003;2.961326972581446E-004;
2.415333333333334E+009;1.953297108411789E-001;-3.833456337451935E-002;-2.024876419454813E-003;2.484736032783985E-004;
2.415500000000000E+009;1.966315507888794E-001;-3.944450244307518E-002;-2.028685295954347E-003;3.254999464843422E-004;
2.415666666666667E+009;1.980167180299759E-001;-4.034158959984779E-002;-1.972884172573686E-003;5.196720012463629E-004;
2.415833333333334E+009;1.992671489715576E-001;-4.117026180028915E-002;-1.940382062457502E-003;7.355663110502064E-004;
2.416000000000000E+009;2.002387642860413E-001;-4.177835211157799E-002;-1.924857497215271E-003;8.408236899413168E-004;
2.416166666666667E+009;2.012869417667389E-001;-4.255006089806557E-002;-2.067009685561061E-003;9.390891646035016E-004;
2.416333333333334E+009;2.022262662649155E-001;-4.281776025891304E-002;-1.889211474917829E-003;1.145777176134288E-003;
2.416500000000000E+009;2.031245231628418E-001;-4.322061315178871E-002;-1.806844491511583E-003;1.337240217253566E-003;
2.416666666666667E+009;2.037547677755356E-001;-4.357410594820976E-002;-1.841605990193784E-003;1.693640719167888E-003;
2.416833333333334E+009;2.043233811855316E-001;-4.361053556203842E-002;-1.598696573637426E-003;1.754550030454993E-003;
2.417000000000000E+009;2.047000229358673E-001;-4.381911084055901E-002;-1.432328252121806E-003;1.876164576970041E-003;
2.417166666666667E+009;2.048066854476929E-001;-4.353827983140945E-002;-1.152467099018395E-003;2.061443869024515E-003;
2.417333333333334E+009;2.049880474805832E-001;-4.325689002871513E-002;-1.086256117559969E-003;2.046369714662433E-003;
2.417500000000000E+009;2.050910592079163E-001;-4.318943247199059E-002;-9.103714255616069E-004;2.095206174999476E-003;
2.417666666666667E+009;2.048092335462570E-001;-4.285585507750511E-002;-6.585144437849522E-004;2.011209493502975E-003;
2.417833333333334E+009;2.047148197889328E-001;-4.240109026432037E-002;-4.192743508610874E-004;1.973195699974895E-003;
2.418000000000000E+009;2.043118327856064E-001;-4.199321568012238E-002;-1.880661438917741E-004;1.959849847480655E-003;
2.418166666666667E+009;2.037131935358048E-001;-4.167324304580689E-002;-3.454120014794171E-004;1.677619642578065E-003;
2.418333333333334E+009;2.030881196260452E-001;-4.132432490587235E-002;-1.809852983569726E-004;1.724180416204035E-003;
2.418500000000000E+009;2.022974789142609E-001;-4.099578037858009E-002;-1.497612684033811E-004;1.683099195361137E-003;
2.418666666666667E+009;2.014229297637940E-001;-4.067880287766457E-002;-2.507899807824288E-005;1.560538192279637E-003;
2.418833333333334E+009;2.003024667501450E-001;-4.058458283543587E-002;-5.738305480917916E-005;1.535609131678939E-003;
2.419000000000000E+009;1.990295499563217E-001;-4.049882292747498E-002;-1.786283537512645E-004;1.559455529786646E-003;
2.419166666666667E+009;1.979621648788452E-001;-4.035327956080437E-002;-9.328254964202642E-005;1.556154806166887E-003;
2.419333333333334E+009;1.964934021234512E-001;-4.050113633275032E-002;-1.081435257219710E-004;1.741913612931967E-003;
2.419500000000000E+009;1.950404495000839E-001;-4.065363854169846E-002;-1.155157679022523E-005;1.596801099367440E-003;
2.419666666666667E+009;1.934255361557007E-001;-4.108802601695061E-002;-2.394231705693528E-005;1.772821298800409E-003;
2.419833333333334E+009;1.918274015188217E-001;-4.158495366573334E-002;-2.017624210566282E-004;1.739317667670548E-003;
2.420000000000000E+009;1.901266872882843E-001;-4.203701391816139E-002;-1.042730491462862E-005;1.630786573514342E-003;
2.420166666666667E+009;1.883442401885986E-001;-4.281312972307205E-002;5.458301166072488E-005;1.775630866177380E-003;
2.420333333333334E+009;1.865316629409790E-001;-4.363386705517769E-002;9.187677642330527E-005;1.927921664901078E-003;
2.420500000000000E+009;1.845778524875641E-001;-4.478418081998825E-002;2.646636858116835E-004;2.037659287452698E-003;
2.420666666666667E+009;1.828162819147110E-001;-4.583883658051491E-002;5.236298893578351E-004;1.927409321069717E-003;
2.420833333333334E+009;1.809840947389603E-001;-4.707847908139229E-002;6.037350394763053E-004;2.068867674097419E-003;
2.421000000000000E+009;1.792836338281632E-001;-4.840790852904320E-002;6.937293219380081E-004;2.008626470342279E-003;
2.421166666666667E+009;1.775119751691818E-001;-5.018861591815949E-002;8.210467058233917E-004;1.933933235704899E-003;
2.421333333333334E+009;1.754932105541229E-001;-5.150173231959343E-002;1.128585077822208E-003;1.921603921800852E-003;
2.421500000000000E+009;1.740888655185700E-001;-5.343483388423920E-002;1.302212942391634E-003;1.871829503215849E-003;
2.421666666666667E+009;1.725140064954758E-001;-5.530522391200066E-002;1.480577979236841E-003;1.619569724425674E-003;
2.421833333333334E+009;1.711397618055344E-001;-5.710753053426743E-002;1.706439303234220E-003;1.582634169608355E-003;
2.422000000000000E+009;1.695525795221329E-001;-5.910465121269226E-002;1.637524575926364E-003;1.281990204006434E-003;
2.422166666666667E+009;1.683781147003174E-001;-6.108136847615242E-002;1.923126867040992E-003;1.144745037890971E-003;
2.422333333333334E+009;1.671536862850189E-001;-6.344303488731384E-002;1.832805457524955E-003;8.784213569015265E-004;
2.422500000000000E+009;1.659183651208878E-001;-6.549713015556335E-002;1.839103992097080E-003;6.663964013569057E-004;
2.422666666666667E+009;1.649872064590454E-001;-6.764416396617889E-002;1.917917630635202E-003;5.815595504827797E-004;
2.422833333333334E+009;1.643903851509094E-001;-6.991823017597199E-002;1.754493918269873E-003;2.431960310786963E-004;
2.423000000000000E+009;1.636085212230682E-001;-7.231375575065613E-002;1.852864050306380E-003;2.183445758419111E-004;
2.423166666666667E+009;1.630174070596695E-001;-7.448169589042664E-002;1.668293727561832E-003;-2.889968345698435E-005;
2.423333333333334E+009;1.625572293996811E-001;-7.673434168100357E-002;1.582399243488908E-003;-2.108103362843394E-004;
2.423500000000000E+009;1.623586118221283E-001;-7.881328463554382E-002;1.412921468727291E-003;-4.178869130555540E-004;
2.423666666666667E+009;1.621958762407303E-001;-8.097596466541290E-002;1.246724859811366E-003;-4.969236324541271E-004;
2.423833333333334E+009;1.621776074171066E-001;-8.319425582885742E-002;1.160216517746449E-003;-3.231111913919449E-004;
2.424000000000000E+009;1.621744632720947E-001;-8.523877710103989E-002;9.912389796227217E-004;-3.575772861950100E-004;
2.424166666666667E+009;1.622467935085297E-001;-8.718069642782211E-002;7.533332100138068E-004;-5.204227636568248E-004;
2.424333333333334E+009;1.623869240283966E-001;-8.904154598712921E-002;6.660058861598373E-004;-5.392584716901183E-004;
2.424500000000000E+009;1.628076434135437E-001;-9.111327677965164E-002;5.614174879156053E-004;-3.422526351641864E-004;
2.424666666666667E+009;1.631489694118500E-001;-9.285035729408264E-002;4.722462035715580E-004;-4.164258134551346E-004;
2.424833333333334E+009;1.637357920408249E-001;-9.445769339799881E-002;4.454636073205620E-004;-2.523594012018293E-004;
2.425000000000000E+009;1.642156243324280E-001;-9.585349261760712E-002;2.669470559339970E-004;-3.949544043280184E-004;
2.425166666666667E+009;1.645768284797669E-001;-9.740701317787170E-002;1.995141938095912E-004;-3.049401566386223E-004;
2.425333333333334E+009;1.651991009712219E-001;-9.858629107475281E-002;1.921859657159075E-004;-2.518159162718803E-004;
2.425500000000000E+009;1.658881157636643E-001;-9.984950721263886E-002;2.059456164715812E-004;-1.785948115866631E-004;
2.425666666666667E+009;1.664763987064362E-001;-1.007776185870171E-001;5.628995859296992E-005;-1.599388815520797E-005;
2.425833333333334E+009;1.670425087213516E-001;-1.018976867198944E-001;1.697254483588040E-004;1.090447549358942E-004;
2.426000000000000E+009;1.677602082490921E-001;-1.025579795241356E-001;1.088977514882572E-004;1.378504675813019E-004;
2.426166666666667E+009;1.684770882129669E-001;-1.031919866800308E-001;2.251875848742202E-004;9.815129305934534E-005;
2.426333333333334E+009;1.689609885215759E-001;-1.038943231105804E-001;2.272114215884358E-004;2.338312187930569E-004;
2.426500000000000E+009;1.695331633090973E-001;-1.042071506381035E-001;9.866073924058583E-006;2.858184161596000E-004;
2.426666666666667E+009;1.702253669500351E-001;-1.047224700450897E-001;1.352581166429445E-004;3.621445503085852E-004;
2.426833333333334E+009;1.706879585981369E-001;-1.051025241613388E-001;-3.664558607852086E-005;3.266463172622025E-004;
2.427000000000000E+009;1.709778159856796E-001;-1.053507253527641E-001;1.774840930011123E-004;3.833869704976678E-004;
2.427166666666667E+009;1.714048385620117E-001;-1.054012626409531E-001;1.861912169260904E-004;4.443280340638012E-004;
2.427333333333334E+009;1.716188490390778E-001;-1.056260392069817E-001;1.108295036829077E-004;4.116638447158039E-004;
2.427500000000000E+009;1.717463284730911E-001;-1.058266758918762E-001;1.365450880257413E-004;5.179318250156939E-004;
2.427666666666667E+009;1.717215180397034E-001;-1.056786626577377E-001;1.211342823808081E-004;3.557379532139748E-004;
2.427833333333334E+009;1.717348843812943E-001;-1.057815328240395E-001;1.071574370143935E-004;5.824624677188695E-004;
