# Version 1.00
#
freq[Hz];re:Trc1_S11;im:Trc1_S11;re:Trc2_S21;im:Trc2_S21;
2.400000000000000E+009;1.583142578601837E-001;6.256590783596039E-002;-3.213002812117338E-003;-2.776983892545104E-003;
2.400166666666667E+009;1.581103205680847E-001;6.099012121558189E-002;-3.439016640186310E-003;-2.453314606100321E-003;
2.400333333333334E+009;1.578905582427979E-001;5.902535840868950E-002;-3.336906433105469E-003;-2.210407285019755E-003;
2.400500000000000E+009;1.579456627368927E-001;5.713175609707832E-002;-3.478193655610085E-003;-2.163382712751627E-003;
2.400666666666667E+009;1.577640324831009E-001;5.517039820551872E-002;-3.490349510684609E-003;-2.014684723690152E-003;
2.400833333333334E+009;1.579662412405014E-001;5.347648262977600E-002;-3.658963833004236E-003;-1.803235965780914E-003;
2.401000000000000E+009;1.579523384571075E-001;5.119202286005020E-002;-3.685995005071163E-003;-1.534971292130649E-003;
2.401166666666667E+009;1.582117676734924E-001;4.912316426634789E-002;-3.589925589039922E-003;-1.213540555909276E-003;
2.401333333333334E+009;1.582062989473343E-001;4.689022526144981E-002;-3.583905519917607E-003;-1.204498694278300E-003;
2.401500000000000E+009;1.586488187313080E-001;4.499756172299385E-002;-3.598641371354461E-003;-9.406089666299522E-004;
2.401666666666667E+009;1.588544249534607E-001;4.292343556880951E-002;-3.428103169426322E-003;-9.304893319495022E-004;
2.401833333333334E+009;1.593288332223892E-001;4.079107567667961E-002;-3.646103199571371E-003;-7.400368340313435E-004;
2.402000000000000E+009;1.596715748310089E-001;3.877228125929833E-002;-3.423682181164622E-003;-5.310537526383996E-004;
2.402166666666667E+009;1.600983142852783E-001;3.663259372115135E-002;-3.468264825642109E-003;-3.402941511012614E-004;
2.402333333333334E+009;1.607203483581543E-001;3.504417836666107E-002;-3.379557281732559E-003;-2.554050297476351E-004;
2.402500000000000E+009;1.614431738853455E-001;3.305010870099068E-002;-3.241726430132985E-003;-2.752211294136941E-004;
2.402666666666667E+009;1.622290611267090E-001;3.125451877713203E-002;-3.058703616261482E-003;7.482070941478014E-005;
2.402833333333334E+009;1.628810763359070E-001;2.947598509490490E-002;-3.094122977927327E-003;1.532198657514527E-004;
2.403000000000000E+009;1.635314971208572E-001;2.790364995598793E-002;-3.020924748852849E-003;2.931593044195324E-004;
2.403166666666667E+009;1.645043343305588E-001;2.617213316261768E-002;-2.973596099764109E-003;3.091431281063706E-004;
2.403333333333334E+009;1.654036790132523E-001;2.476779371500015E-002;-2.642131177708507E-003;3.433076199144125E-004;
2.403500000000000E+009;1.661196947097778E-001;2.343485318124294E-002;-2.736535854637623E-003;6.065161433070898E-004;
2.403666666666667E+009;1.671632826328278E-001;2.186805009841919E-002;-2.643764251843095E-003;5.929825711064041E-004;
2.403833333333334E+009;1.681923568248749E-001;2.063296362757683E-002;-2.552160993218422E-003;5.747340037487447E-004;
2.404000000000000E+009;1.692157983779907E-001;1.942060329020023E-002;-2.574540441855788E-003;5.960647249594331E-004;
2.404166666666667E+009;1.700396686792374E-001;1.823700219392777E-002;-2.377593424171209E-003;6.915666745044291E-004;
2.404333333333334E+009;1.711004525423050E-001;1.734926365315914E-002;-2.274537226185203E-003;8.537617977708578E-004;
2.404500000000000E+009;1.719672977924347E-001;1.629751548171043E-002;-2.257203683257103E-003;7.488646078854799E-004;
2.404666666666667E+009;1.730121225118637E-001;1.551523245871067E-002;-2.129798056557775E-003;9.107417427003384E-004;
2.404833333333334E+009;1.739557087421417E-001;1.471345033496618E-002;-1.983463997021318E-003;8.828258723951876E-004;
2.405000000000000E+009;1.747651398181915E-001;1.403436996042728E-002;-2.027804264798760E-003;8.284972864203155E-004;
2.405166666666667E+009;1.754436492919922E-001;1.341805886477232E-002;-1.923009986057878E-003;7.978324429132044E-004;
2.405333333333334E+009;1.765393018722534E-001;1.260661520063877E-002;-1.858075382187963E-003;9.115759166888893E-004;
2.405500000000000E+009;1.771913617849350E-001;1.229466125369072E-002;-1.605561817996204E-003;8.051078184507787E-004;
2.405666666666667E+009;1.779131442308426E-001;1.182784419506788E-002;-1.647864468395710E-003;7.828412344679236E-004;
2.405833333333334E+009;1.783907711505890E-001;1.144616398960352E-002;-1.506679458543658E-003;9.051203378476203E-004;
2.406000000000000E+009;1.789509654045105E-001;1.110623404383659E-002;-1.514782081358135E-003;6.541955517604947E-004;
2.406166666666667E+009;1.792808026075363E-001;1.091150287538767E-002;-1.509429886937141E-003;8.477888186462224E-004;
2.406333333333334E+009;1.799297481775284E-001;1.044773682951927E-002;-1.482443069107831E-003;8.879528031684458E-004;
2.406500000000000E+009;1.801874637603760E-001;1.026021782308817E-002;-1.739571685902774E-003;7.744239410385490E-004;
2.406666666666667E+009;1.802092492580414E-001;9.852074086666107E-003;-1.484885811805725E-003;8.662012987770140E-004;
2.406833333333334E+009;1.806192398071289E-001;9.535834193229675E-003;-1.428077113814652E-003;7.610843749716878E-004;
2.407000000000000E+009;1.806295663118362E-001;9.311092086136341E-003;-1.423432375304401E-003;8.406193810515106E-004;
2.407166666666667E+009;1.808187514543533E-001;9.060032665729523E-003;-1.493542222306132E-003;7.054317975416780E-004;
2.407333333333334E+009;1.805865317583084E-001;8.492861874401569E-003;-1.277812756597996E-003;6.510181701742113E-004;
2.407500000000000E+009;1.803457587957382E-001;8.145548403263092E-003;-1.326614874415100E-003;6.839399575255811E-004;
2.407666666666667E+009;1.801551729440689E-001;7.706451695412397E-003;-1.303465571254492E-003;7.205799920484424E-004;
2.407833333333334E+009;1.798423826694489E-001;7.208487950265408E-003;-1.319115632213652E-003;6.968115922063589E-004;
2.408000000000000E+009;1.795274317264557E-001;6.486288271844387E-003;-1.321961055509746E-003;7.625014986842871E-004;
2.408166666666667E+009;1.791072934865952E-001;6.014264188706875E-003;-1.240593614056706E-003;6.005379254929721E-004;
2.408333333333334E+009;1.787451803684235E-001;5.268865730613470E-003;-1.170395174995065E-003;6.973856943659484E-004;
2.408500000000000E+009;1.781730651855469E-001;4.511517006903887E-003;-1.184443011879921E-003;6.892593810334802E-004;
2.408666666666667E+009;1.774311810731888E-001;3.635986940935254E-003;-1.342688687145710E-003;8.163556340150535E-004;
2.408833333333334E+009;1.768456995487213E-001;2.775823231786490E-003;-1.302544726058841E-003;7.293345988728106E-004;
2.409000000000000E+009;1.760915070772171E-001;1.707324176095426E-003;-1.217501936480403E-003;7.627214072272182E-004;
2.409166666666667E+009;1.754298210144043E-001;5.254439893178642E-004;-1.287663588300347E-003;7.112854509614408E-004;
2.409333333333334E+009;1.749279648065567E-001;-6.220635841600597E-004;-1.289498526602984E-003;7.451651617884636E-004;
2.409500000000000E+009;1.741621345281601E-001;-2.024678513407707E-003;-1.188883907161653E-003;8.902751142159104E-004;
2.409666666666667E+009;1.734459549188614E-001;-3.400358138605952E-003;-1.250007422640920E-003;7.678842521272600E-004;
2.409833333333334E+009;1.726785302162170E-001;-4.554370883852243E-003;-1.256572781130672E-003;8.586000767536461E-004;
2.410000000000000E+009;1.720937341451645E-001;-6.074531935155392E-003;-1.284233527258039E-003;8.063041605055332E-004;
2.410166666666667E+009;1.715193241834641E-001;-7.585420273244381E-003;-1.256557996384800E-003;7.113742758519948E-004;
2.410333333333334E+009;1.708574891090393E-001;-9.261701256036758E-003;-1.291030202992261E-003;8.499405230395496E-004;
2.410500000000000E+009;1.701674163341522E-001;-1.093259081244469E-002;-1.301188138313592E-003;7.018628530204296E-004;
2.410666666666667E+009;1.697361767292023E-001;-1.284551620483398E-002;-1.170855248346925E-003;8.281463524326682E-004;
2.410833333333334E+009;1.694219112396240E-001;-1.462226919829845E-002;-1.091402606107295E-003;8.842596434988082E-004;
2.411000000000000E+009;1.689586490392685E-001;-1.629161275923252E-002;-9.176887106150389E-004;9.947350481525064E-004;
2.411166666666667E+009;1.685430556535721E-001;-1.815003901720047E-002;-1.170536852441728E-003;8.977322722785175E-004;
2.411333333333334E+009;1.684112548828125E-001;-2.014902420341969E-002;-1.136327628046274E-003;7.845112122595310E-004;
2.411500000000000E+009;1.681603938341141E-001;-2.231886424124241E-002;-1.122794928960502E-003;7.896525203250349E-004;
2.411666666666667E+009;1.682411283254623E-001;-2.416471764445305E-002;-1.138973166234791E-003;8.524024160578847E-004;
2.411833333333334E+009;1.680458188056946E-001;-2.609165571630001E-002;-1.112668076530099E-003;9.137253509834409E-004;
2.412000000000000E+009;1.681427061557770E-001;-2.801745384931564E-002;-1.315899309702218E-003;9.673843742348254E-004;
2.412166666666667E+009;1.682617515325546E-001;-3.004078194499016E-002;-1.320246257819235E-003;9.207628318108618E-004;
2.412333333333334E+009;1.685535013675690E-001;-3.190761432051659E-002;-1.207065070047975E-003;8.841874077916145E-004;
2.412500000000000E+009;1.686530113220215E-001;-3.387526422739029E-002;-1.229729852639139E-003;8.992022485472262E-004;
2.412666666666667E+009;1.688453257083893E-001;-3.586245328187943E-002;-1.131060649640858E-003;1.012371270917356E-003;
2.412833333333334E+009;1.694262027740479E-001;-3.760100528597832E-002;-1.186069683171809E-003;9.449939243495464E-004;
2.413000000000000E+009;1.696453690528870E-001;-3.934156522154808E-002;-1.231949659995735E-003;1.053219195455313E-003;
2.413166666666667E+009;1.700780242681503E-001;-4.118221253156662E-002;-1.243804930709302E-003;1.102505018934608E-003;
2.413333333333334E+009;1.705224215984345E-001;-4.277071356773377E-002;-1.210520509630442E-003;9.309621527791023E-004;
2.413500000000000E+009;1.710309088230133E-001;-4.460046812891960E-002;-1.177584053948522E-003;1.162404892966151E-003;
2.413666666666667E+009;1.717094480991364E-001;-4.599630460143089E-002;-1.258664531633258E-003;1.156055252067745E-003;
2.413833333333334E+009;1.722180545330048E-001;-4.768941178917885E-002;-1.337487716227770E-003;1.223486498929560E-003;
2.414000000000000E+009;1.724685132503510E-001;-4.911023750901222E-002;-1.296725822612643E-003;1.196315395645797E-003;
2.414166666666667E+009;1.732315421104431E-001;-5.037597566843033E-002;-1.203874242492020E-003;1.250641653314233E-003;
2.414333333333334E+009;1.738008111715317E-001;-5.161012336611748E-002;-1.170210074633360E-003;1.387425116263330E-003;
2.414500000000000E+009;1.745055168867111E-001;-5.270949751138687E-002;-1.118570449762046E-003;1.282959361560643E-003;
2.414666666666667E+009;1.750532239675522E-001;-5.378060042858124E-002;-1.347405370324850E-003;1.376610482111573E-003;
2.414833333333334E+009;1.754300296306610E-001;-5.482685193419457E-002;-1.303887809626758E-003;1.378612709231675E-003;
2.415000000000000E+009;1.758835911750794E-001;-5.556645244359970E-002;-1.236935961060226E-003;1.336503308266401E-003;
2.415166666666667E+009;1.763083785772324E-001;-5.641601234674454E-002;-1.182266045361757E-003;1.519277691841126E-003;
2.415333333333334E+009;1.768256574869156E-001;-5.723217502236366E-002;-1.068733399733901E-003;1.584694953635335E-003;
2.415500000000000E+009;1.770659983158112E-001;-5.782236531376839E-002;-1.198272919282317E-003;1.657910994254053E-003;
2.415666666666667E+009;1.773623079061508E-001;-5.838034301996231E-002;-1.235695555806160E-003;1.598591799847782E-003;
2.415833333333334E+009;1.775533854961395E-001;-5.890468135476112E-002;-9.246617555618286E-004;1.766806002706289E-003;
2.416000000000000E+009;1.776772439479828E-001;-5.938608571887016E-002;-1.111067365854979E-003;1.814780873246491E-003;
2.416166666666667E+009;1.779084205627441E-001;-5.974957719445229E-002;-1.094213803298771E-003;1.897530048154295E-003;
2.416333333333334E+009;1.778097599744797E-001;-6.003668159246445E-002;-1.093867467716336E-003;1.913662184961140E-003;
2.416500000000000E+009;1.776465922594070E-001;-6.038332358002663E-002;-1.075943349860609E-003;1.992922509089112E-003;
2.416666666666667E+009;1.774788200855255E-001;-6.064388528466225E-002;-1.015770016238093E-003;1.901548705063760E-003;
2.416833333333334E+009;1.773265898227692E-001;-6.089155003428459E-002;-8.706123917363584E-004;1.883769291453064E-003;
2.417000000000000E+009;1.768035590648651E-001;-6.116687878966332E-002;-8.949504699558020E-004;2.181778661906719E-003;
2.417166666666667E+009;1.764537096023560E-001;-6.126180291175842E-002;-8.097303798422217E-004;2.132107270881534E-003;
2.417333333333334E+009;1.758094727993012E-001;-6.144702434539795E-002;-9.421023423783481E-004;2.047052606940270E-003;
2.417500000000000E+009;1.751712858676910E-001;-6.181569397449493E-002;-7.791736279614270E-004;2.207363955676556E-003;
2.417666666666667E+009;1.745255589485169E-001;-6.189525872468948E-002;-7.219679537229240E-004;2.172850770875812E-003;
2.417833333333334E+009;1.737520545721054E-001;-6.217769533395767E-002;-6.692425813525915E-004;2.322684507817030E-003;
2.418000000000000E+009;1.728146374225617E-001;-6.264729052782059E-002;-6.377227837219834E-004;2.365961205214262E-003;
2.418166666666667E+009;1.719812452793121E-001;-6.279323250055313E-002;-6.070706294849515E-004;2.367900684475899E-003;
2.418333333333334E+009;1.710911542177200E-001;-6.328614056110382E-002;-4.924255190417171E-004;2.474882872775197E-003;
2.418500000000000E+009;1.699602305889130E-001;-6.359469890594482E-002;-3.922565956600010E-004;2.328862668946385E-003;
2.418666666666667E+009;1.689620763063431E-001;-6.407416611909866E-002;-3.148231480736285E-004;2.609964227303863E-003;
2.418833333333334E+009;1.677535921335220E-001;-6.463160365819931E-002;-3.801418642979115E-004;2.447857521474361E-003;
2.419000000000000E+009;1.663880497217178E-001;-6.525799632072449E-002;-2.896411460824311E-004;2.477061236277223E-003;
2.419166666666667E+009;1.652946621179581E-001;-6.593023985624313E-002;-2.524489245843142E-004;2.630556933581829E-003;
2.419333333333334E+009;1.640468388795853E-001;-6.645112484693527E-002;-5.836025593453087E-005;2.639069454744458E-003;
2.419500000000000E+009;1.628657281398773E-001;-6.751944124698639E-002;-6.447585474234074E-005;2.676804317161441E-003;
2.419666666666667E+009;1.617956012487412E-001;-6.845653057098389E-002;-2.410966772004031E-005;2.621729625388980E-003;
2.419833333333334E+009;1.604544520378113E-001;-6.914399564266205E-002;-1.858858240666450E-006;2.696123439818621E-003;
2.420000000000000E+009;1.593699157238007E-001;-7.034216076135635E-002;2.020811807597056E-004;2.657907782122493E-003;
2.420166666666667E+009;1.582288593053818E-001;-7.134880125522614E-002;2.143231831723824E-004;2.645993372425437E-003;
2.420333333333334E+009;1.572018563747406E-001;-7.262988388538361E-002;3.037897113244981E-004;2.694776048883796E-003;
2.420500000000000E+009;1.561764031648636E-001;-7.377886772155762E-002;3.756073419936001E-004;2.712870249524713E-003;
2.420666666666667E+009;1.552557647228241E-001;-7.506790757179260E-002;4.889983683824539E-004;2.657430246472359E-003;
2.420833333333334E+009;1.542848497629166E-001;-7.653656601905823E-002;4.813882696907967E-004;2.719493582844734E-003;
2.421000000000000E+009;1.532935798168182E-001;-7.816858589649200E-002;6.915631238371134E-004;2.729868283495307E-003;
2.421166666666667E+009;1.526732444763184E-001;-7.956680655479431E-002;6.868440541438758E-004;2.674527931958437E-003;
2.421333333333334E+009;1.519643664360046E-001;-8.124602586030960E-002;8.374000317417085E-004;2.821632195264101E-003;
2.421500000000000E+009;1.513625979423523E-001;-8.261947333812714E-002;8.786338148638606E-004;2.745574573054910E-003;
2.421666666666667E+009;1.508173793554306E-001;-8.434309065341950E-002;9.617396281100810E-004;2.773493528366089E-003;
2.421833333333334E+009;1.503921449184418E-001;-8.597152680158615E-002;9.945114143192768E-004;2.709363820031285E-003;
2.422000000000000E+009;1.498750895261765E-001;-8.768963813781738E-002;1.206344575621188E-003;2.759532071650028E-003;
2.422166666666667E+009;1.496399343013763E-001;-8.955828100442886E-002;1.088112359866500E-003;2.600212814286351E-003;
2.422333333333334E+009;1.494616270065308E-001;-9.106442332267761E-002;1.116446102969348E-003;2.676235977560282E-003;
2.422500000000000E+009;1.493257880210877E-001;-9.277223795652390E-002;1.267041428945959E-003;2.607028000056744E-003;
2.422666666666667E+009;1.491039991378784E-001;-9.445593506097794E-002;1.344659947790206E-003;2.655332675203681E-003;
2.422833333333334E+009;1.493629217147827E-001;-9.612017869949341E-002;1.571376807987690E-003;2.634512260556221E-003;
2.423000000000000E+009;1.492979079484940E-001;-9.776441007852554E-002;1.587281352840364E-003;2.691569039598107E-003;
2.423166666666667E+009;1.496586054563522E-001;-9.941052645444870E-002;1.570833032019436E-003;2.513070125132799E-003;
2.423333333333334E+009;1.499539911746979E-001;-1.008613556623459E-001;1.831799279898405E-003;2.656447701156139E-003;
2.423500000000000E+009;1.502960175275803E-001;-1.024176180362701E-001;1.782416249625385E-003;2.492489060387015E-003;
2.423666666666667E+009;1.505132615566254E-001;-1.040131822228432E-001;2.032453427091241E-003;2.521881135180593E-003;
2.423833333333334E+009;1.510188132524490E-001;-1.054005771875382E-001;1.966937445104122E-003;2.384310821071267E-003;
2.424000000000000E+009;1.513336002826691E-001;-1.065802350640297E-001;2.006610389798880E-003;2.518214751034975E-003;
2.424166666666667E+009;1.517305672168732E-001;-1.081022024154663E-001;2.163541037589312E-003;2.297132043167949E-003;
2.424333333333334E+009;1.523301601409912E-001;-1.091661453247070E-001;2.212975639849901E-003;2.442545723170042E-003;
2.424500000000000E+009;1.527851372957230E-001;-1.104222536087036E-001;2.576278289780021E-003;2.350552007555962E-003;
2.424666666666667E+009;1.533968150615692E-001;-1.112690940499306E-001;2.485823817551136E-003;2.304859226569533E-003;
2.424833333333334E+009;1.537273228168488E-001;-1.124339252710342E-001;2.563723828643560E-003;2.186361467465758E-003;
2.425000000000000E+009;1.543217003345490E-001;-1.133008077740669E-001;2.680913312360644E-003;2.240665256977081E-003;
2.425166666666667E+009;1.545989960432053E-001;-1.141811311244965E-001;2.783187432214618E-003;2.185149351134896E-003;
2.425333333333334E+009;1.551045477390289E-001;-1.148779690265656E-001;2.952517941594124E-003;2.068195957690477E-003;
2.425500000000000E+009;1.555860638618469E-001;-1.157228946685791E-001;2.856309292837977E-003;1.846125465817750E-003;
2.425666666666667E+009;1.556743383407593E-001;-1.162346303462982E-001;3.214679891243577E-003;1.742861699312925E-003;
2.425833333333334E+009;1.560618728399277E-001;-1.166934370994568E-001;3.085564589127898E-003;1.650004065595567E-003;
2.426000000000000E+009;1.562421619892120E-001;-1.172995567321777E-001;3.317107912153006E-003;1.613280037418008E-003;
2.426166666666667E+009;1.565002650022507E-001;-1.176599040627480E-001;3.317259717732668E-003;1.535215647891164E-003;
2.426333333333334E+009;1.564889848232269E-001;-1.180179044604302E-001;3.399741603061557E-003;1.409151824191213E-003;
2.426500000000000E+009;1.565736085176468E-001;-1.181906685233116E-001;3.337112022563815E-003;1.331439125351608E-003;
2.426666666666667E+009;1.566050797700882E-001;-1.183736324310303E-001;3.501073457300663E-003;1.168361282907426E-003;
2.426833333333334E+009;1.563673615455627E-001;-1.184720546007156E-001;3.658442525193095E-003;1.101928879506886E-003;
2.427000000000000E+009;1.559966802597046E-001;-1.188262850046158E-001;3.604805096983910E-003;1.000274089165032E-003;
2.427166666666667E+009;1.556673347949982E-001;-1.187793239951134E-001;3.637823741883040E-003;1.011783024296165E-003;
2.427333333333334E+009;1.552642136812210E-001;-1.188536882400513E-001;3.774540266022086E-003;8.346497779712081E-004;
2.427500000000000E+009;1.546479761600494E-001;-1.190868988633156E-001;3.685004776343703E-003;5.677416338585317E-004;
2.427666666666667E+009;1.539059132337570E-001;-1.192579194903374E-001;3.857900388538837E-003;4.744723555631936E-004;
2.427833333333334E+009;1.530923098325729E-001;-1.193158850073814E-001;4.003492649644613E-003;3.438141138758510E-004;
