# Version 1.00
#
freq[Hz];re:Trc1_S11;im:Trc1_S11;re:Trc2_S21;im:Trc2_S21;
2.400000000000000E+009;1.583013385534287E-001;6.260285526514053E-002;-3.363640978932381E-003;-2.520664129406214E-003;
2.400166666666667E+009;1.581246256828308E-001;6.094150990247726E-002;-3.531871130689979E-003;-2.339988015592098E-003;
2.400333333333334E+009;1.580832600593567E-001;5.904905870556831E-002;-3.468344919383526E-003;-2.191125880926848E-003;
2.400500000000000E+009;1.580516546964645E-001;5.716783925890923E-002;-3.514259587973356E-003;-2.035487908869982E-003;
2.400666666666667E+009;1.579459011554718E-001;5.505942180752754E-002;-3.702995134517551E-003;-1.750434748828411E-003;
2.400833333333334E+009;1.579885184764862E-001;5.322813615202904E-002;-3.840055782347918E-003;-1.641509006731212E-003;
2.401000000000000E+009;1.580560803413391E-001;5.110232904553413E-002;-3.846852807328105E-003;-1.405936665832996E-003;
2.401166666666667E+009;1.582908779382706E-001;4.884663969278336E-002;-3.849047003313899E-003;-1.248599961400032E-003;
2.401333333333334E+009;1.582026481628418E-001;4.692097753286362E-002;-3.727689152583480E-003;-1.072461251169443E-003;
2.401500000000000E+009;1.586764305830002E-001;4.474712535738945E-002;-3.653040621429682E-003;-9.017277043312788E-004;
2.401666666666667E+009;1.590492129325867E-001;4.293418303132057E-002;-3.658998059108853E-003;-6.937882280908525E-004;
2.401833333333334E+009;1.591327786445618E-001;4.074583202600479E-002;-3.770669922232628E-003;-4.717754200100899E-004;
2.402000000000000E+009;1.596366167068481E-001;3.854884952306747E-002;-3.631541738286614E-003;-3.811345668509603E-004;
2.402166666666667E+009;1.602702438831329E-001;3.651850298047066E-002;-3.628318663686514E-003;-1.261230499949306E-004;
2.402333333333334E+009;1.606582552194595E-001;3.468483313918114E-002;-3.553397953510284E-003;-2.500994560250547E-005;
2.402500000000000E+009;1.615819633007050E-001;3.298197314143181E-002;-3.474527969956398E-003;1.019147020997480E-004;
2.402666666666667E+009;1.621191501617432E-001;3.125227242708206E-002;-3.397919470444322E-003;2.063089486910030E-004;
2.402833333333334E+009;1.628470271825790E-001;2.936143986880779E-002;-3.315954469144344E-003;3.213793097529560E-004;
2.403000000000000E+009;1.636494547128677E-001;2.785360254347324E-002;-3.137312829494476E-003;5.525375017896295E-004;
2.403166666666667E+009;1.645369380712509E-001;2.621610090136528E-002;-3.000653348863125E-003;5.407305434346199E-004;
2.403333333333334E+009;1.653273850679398E-001;2.473556064069271E-002;-2.887511625885963E-003;5.724648362956941E-004;
2.403500000000000E+009;1.662340164184570E-001;2.333392389118671E-002;-2.919192891567946E-003;7.838121964596212E-004;
2.403666666666667E+009;1.673719137907028E-001;2.183101139962673E-002;-2.788768615573645E-003;8.119557751342654E-004;
2.403833333333334E+009;1.681702136993408E-001;2.059017121791840E-002;-2.620934275910258E-003;7.011935813352466E-004;
2.404000000000000E+009;1.692553609609604E-001;1.939014531672001E-002;-2.656245138496161E-003;1.020789728499949E-003;
2.404166666666667E+009;1.702408939599991E-001;1.829995587468147E-002;-2.437359653413296E-003;1.032920321449637E-003;
2.404333333333334E+009;1.711975634098053E-001;1.736414991319180E-002;-2.232460072264075E-003;9.269523434340954E-004;
2.404500000000000E+009;1.719150543212891E-001;1.629113592207432E-002;-2.360518556088209E-003;9.291884489357472E-004;
2.404666666666667E+009;1.729899495840073E-001;1.539527904242277E-002;-2.168482635170221E-003;1.004242687486112E-003;
2.404833333333334E+009;1.739457845687866E-001;1.466698385775089E-002;-2.162844175472856E-003;1.042060670442879E-003;
2.405000000000000E+009;1.747793406248093E-001;1.398034859448671E-002;-2.040071878582239E-003;1.093969680368900E-003;
2.405166666666667E+009;1.756349056959152E-001;1.331825368106365E-002;-1.874491688795388E-003;1.005557132884860E-003;
2.405333333333334E+009;1.765041202306747E-001;1.271352637559176E-002;-1.737842219881713E-003;1.139901462011039E-003;
2.405500000000000E+009;1.771844178438187E-001;1.233148574829102E-002;-1.832483569160104E-003;1.151945791207254E-003;
2.405666666666667E+009;1.778931766748428E-001;1.181455608457327E-002;-1.632401836104691E-003;1.047347788698971E-003;
2.405833333333334E+009;1.784243732690811E-001;1.137124840170145E-002;-1.653844607062638E-003;1.088106539100409E-003;
2.406000000000000E+009;1.789865195751190E-001;1.093817502260208E-002;-1.601502764970064E-003;1.210490590892732E-003;
2.406166666666667E+009;1.793110221624374E-001;1.096318103373051E-002;-1.447779126465321E-003;1.170848147012293E-003;
2.406333333333334E+009;1.798910051584244E-001;1.048897858709097E-002;-1.538411946967244E-003;1.234247116371989E-003;
2.406500000000000E+009;1.800862997770309E-001;1.012473646551371E-002;-1.377063104882836E-003;1.006040838547051E-003;
2.406666666666667E+009;1.803422570228577E-001;9.972614236176014E-003;-1.217159093357623E-003;1.168877584859729E-003;
2.406833333333334E+009;1.805512160062790E-001;9.543047286570072E-003;-1.319153117947280E-003;1.025563920848072E-003;
2.407000000000000E+009;1.806967407464981E-001;9.167900308966637E-003;-1.250989851541817E-003;9.848634945228696E-004;
2.407166666666667E+009;1.808509826660156E-001;9.009012952446938E-003;-1.237800344824791E-003;8.683978812769055E-004;
2.407333333333334E+009;1.806117445230484E-001;8.518471382558346E-003;-1.233896706253290E-003;9.844223968684673E-004;
2.407500000000000E+009;1.803810894489288E-001;8.252441883087158E-003;-1.142124412581325E-003;9.369527688249946E-004;
2.407666666666667E+009;1.802291572093964E-001;7.695863489061594E-003;-1.108971773646772E-003;9.927316568791866E-004;
2.407833333333334E+009;1.798567771911621E-001;7.093320600688458E-003;-1.254191505722702E-003;8.621589513495565E-004;
2.408000000000000E+009;1.795634627342224E-001;6.448163650929928E-003;-1.153580029495060E-003;8.582213777117431E-004;
2.408166666666667E+009;1.790259182453156E-001;5.942085292190313E-003;-9.543715277686715E-004;7.863267674110830E-004;
2.408333333333334E+009;1.786231994628906E-001;5.243379157036543E-003;-1.119276275858283E-003;8.208088693208993E-004;
2.408500000000000E+009;1.781885772943497E-001;4.472553264349699E-003;-1.080182497389615E-003;9.394473745487630E-004;
2.408666666666667E+009;1.774128377437592E-001;3.516700351610780E-003;-1.134115154854953E-003;8.195345290005207E-004;
2.408833333333334E+009;1.767269670963287E-001;2.567745512351394E-003;-1.205163192935288E-003;7.965354016050696E-004;
2.409000000000000E+009;1.762349456548691E-001;1.677018357440829E-003;-1.151148462668061E-003;8.944356231950223E-004;
2.409166666666667E+009;1.755416095256805E-001;5.608294741250575E-004;-1.093405648134649E-003;8.413939503952861E-004;
2.409333333333334E+009;1.748165190219879E-001;-7.166338036768138E-004;-1.013215631246567E-003;8.919643005356193E-004;
2.409500000000000E+009;1.741240620613098E-001;-2.032424788922072E-003;-1.086447155103087E-003;6.904345354996622E-004;
2.409666666666667E+009;1.732410192489624E-001;-3.258512588217855E-003;-1.027810387313366E-003;9.298699442297220E-004;
2.409833333333334E+009;1.726333498954773E-001;-4.613806027919054E-003;-1.039438415318728E-003;9.061152231879532E-004;
2.410000000000000E+009;1.721765100955963E-001;-6.188999395817518E-003;-9.918228024616838E-004;8.911711629480124E-004;
2.410166666666667E+009;1.714326888322830E-001;-7.704053539782763E-003;-1.000233809463680E-003;7.521606166847050E-004;
2.410333333333334E+009;1.707833111286163E-001;-9.320105426013470E-003;-1.104757073335350E-003;9.839029517024756E-004;
2.410500000000000E+009;1.702952235937119E-001;-1.107484661042690E-002;-9.946333011612296E-004;8.522958378307521E-004;
2.410666666666667E+009;1.696987599134445E-001;-1.291428413242102E-002;-8.887355797924101E-004;7.146504940465093E-004;
2.410833333333334E+009;1.694093346595764E-001;-1.459772698581219E-002;-9.899776196107268E-004;7.842442719265819E-004;
2.411000000000000E+009;1.688776612281799E-001;-1.642302237451077E-002;-9.334443020634353E-004;7.748047355562449E-004;
2.411166666666667E+009;1.685485690832138E-001;-1.836357451975346E-002;-9.646407561376691E-004;8.215585257858038E-004;
2.411333333333334E+009;1.683800965547562E-001;-2.023296989500523E-002;-9.686857229098678E-004;9.051758097484708E-004;
2.411500000000000E+009;1.681772917509079E-001;-2.218236774206162E-002;-9.872255614027381E-004;1.020259805954993E-003;
2.411666666666667E+009;1.680074036121368E-001;-2.421311847865582E-002;-8.290298865176737E-004;7.799357408657670E-004;
2.411833333333334E+009;1.680520623922348E-001;-2.609525993466377E-002;-9.077817085199058E-004;8.339437772519887E-004;
2.412000000000000E+009;1.679723262786865E-001;-2.813428081572056E-002;-9.189337724819779E-004;9.752268670126796E-004;
2.412166666666667E+009;1.680311709642410E-001;-3.000374697148800E-002;-9.847407927736640E-004;8.783033699728549E-004;
2.412333333333334E+009;1.684190034866333E-001;-3.186203539371491E-002;-1.043449272401631E-003;7.888741092756391E-004;
2.412500000000000E+009;1.685233414173126E-001;-3.380341455340385E-002;-9.015084360726178E-004;9.331622859463096E-004;
2.412666666666667E+009;1.690119802951813E-001;-3.585354238748550E-002;-1.056138309650123E-003;9.004308958537877E-004;
2.412833333333334E+009;1.693636775016785E-001;-3.764703497290611E-002;-1.014490146189928E-003;9.304549894295633E-004;
2.413000000000000E+009;1.696246117353439E-001;-3.936488181352615E-002;-1.056152279488742E-003;7.906061364337802E-004;
2.413166666666667E+009;1.701142042875290E-001;-4.113025218248367E-002;-1.063237781636417E-003;1.000715070404112E-003;
2.413333333333334E+009;1.705298721790314E-001;-4.284188523888588E-002;-8.551921928301454E-004;1.042588264681399E-003;
2.413500000000000E+009;1.711201965808868E-001;-4.460738971829414E-002;-1.243233331479132E-003;1.074307481758297E-003;
2.413666666666667E+009;1.716192811727524E-001;-4.623897373676300E-002;-1.120467903092504E-003;1.037257723510265E-003;
2.413833333333334E+009;1.722259521484375E-001;-4.760969057679176E-002;-9.378953836858273E-004;1.050533959642053E-003;
2.414000000000000E+009;1.727859377861023E-001;-4.904418438673019E-002;-1.120684202760458E-003;9.218985214829445E-004;
2.414166666666667E+009;1.734006553888321E-001;-5.029464140534401E-002;-1.131448079831898E-003;1.132118864916265E-003;
2.414333333333334E+009;1.738137006759644E-001;-5.167384073138237E-002;-1.041473820805550E-003;1.112220692448318E-003;
2.414500000000000E+009;1.745119690895081E-001;-5.282225832343102E-002;-1.094229635782540E-003;1.167534268461168E-003;
2.414666666666667E+009;1.749465167522430E-001;-5.389264971017838E-002;-1.194186392240226E-003;1.078406814485788E-003;
2.414833333333334E+009;1.754523068666458E-001;-5.486910417675972E-002;-9.772556368261576E-004;1.169137773104012E-003;
2.415000000000000E+009;1.759169697761536E-001;-5.566341802477837E-002;-1.059105270542204E-003;1.301577198319137E-003;
2.415166666666667E+009;1.763160079717636E-001;-5.651757121086121E-002;-9.313609334640205E-004;1.342353527434170E-003;
2.415333333333334E+009;1.767390817403793E-001;-5.725910142064095E-002;-1.018712297081947E-003;1.253562280908227E-003;
2.415500000000000E+009;1.770547777414322E-001;-5.781215056777000E-002;-1.234524999745190E-003;1.231931266374886E-003;
2.415666666666667E+009;1.774769127368927E-001;-5.848603323101997E-002;-1.099267974495888E-003;1.383966533467174E-003;
2.415833333333334E+009;1.776612699031830E-001;-5.899730697274208E-002;-1.096207648515701E-003;1.513572409749031E-003;
2.416000000000000E+009;1.775817126035690E-001;-5.938074365258217E-002;-1.103333313949406E-003;1.537648262456060E-003;
2.416166666666667E+009;1.779038012027741E-001;-5.970547720789909E-002;-9.628807310946286E-004;1.630219281651080E-003;
2.416333333333334E+009;1.777970939874649E-001;-6.001539900898933E-002;-9.302913676947355E-004;1.725755981169641E-003;
2.416500000000000E+009;1.777020692825317E-001;-6.046355143189430E-002;-9.369302424602211E-004;1.731694675981998E-003;
2.416666666666667E+009;1.774987429380417E-001;-6.066875159740448E-002;-9.721449459902942E-004;1.842679572291672E-003;
2.416833333333334E+009;1.773123443126679E-001;-6.104243919253349E-002;-9.619491756893694E-004;1.908855512738228E-003;
2.417000000000000E+009;1.766589283943176E-001;-6.124316155910492E-002;-8.315064478665590E-004;1.828918349929154E-003;
2.417166666666667E+009;1.764003634452820E-001;-6.124334037303925E-002;-8.481086115352809E-004;1.807259744964540E-003;
2.417333333333334E+009;1.758866012096405E-001;-6.151553988456726E-002;-8.493104251101613E-004;1.949186902493238E-003;
2.417500000000000E+009;1.752238571643829E-001;-6.189298629760742E-002;-8.112760842777789E-004;1.897586160339415E-003;
2.417666666666667E+009;1.746130585670471E-001;-6.189828738570213E-002;-5.807210691273212E-004;2.011102624237537E-003;
2.417833333333334E+009;1.737606376409531E-001;-6.230181828141213E-002;-5.392409511841834E-004;1.999354688450694E-003;
2.418000000000000E+009;1.728148311376572E-001;-6.274261325597763E-002;-5.944610456936061E-004;2.071861876174808E-003;
2.418166666666667E+009;1.720813065767288E-001;-6.274262815713882E-002;-6.052524549886584E-004;2.203320851549506E-003;
2.418333333333334E+009;1.711125075817108E-001;-6.326911598443985E-002;-5.794816534034908E-004;2.144119003787637E-003;
2.418500000000000E+009;1.700056940317154E-001;-6.366478651762009E-002;-4.833327257074416E-004;2.185213845223188E-003;
2.418666666666667E+009;1.690418869256973E-001;-6.415322422981262E-002;-3.690484736580402E-004;2.374615054577589E-003;
2.418833333333334E+009;1.678179800510407E-001;-6.478106975555420E-002;-4.170641768723726E-004;2.271146513521671E-003;
2.419000000000000E+009;1.664691269397736E-001;-6.520688533782959E-002;-1.719261199468747E-004;2.345608547329903E-003;
2.419166666666667E+009;1.653324812650681E-001;-6.583473086357117E-002;-3.428603813517839E-004;2.445973921567202E-003;
2.419333333333334E+009;1.640209555625916E-001;-6.642083823680878E-002;-1.844451908254996E-004;2.446208614856005E-003;
2.419500000000000E+009;1.629549115896225E-001;-6.744372844696045E-002;-6.252405000850558E-005;2.496178029105067E-003;
2.419666666666667E+009;1.618812978267670E-001;-6.854853034019470E-002;-3.083480260102078E-005;2.500440226867795E-003;
2.419833333333334E+009;1.604794263839722E-001;-6.912528723478317E-002;4.536513733910397E-005;2.559622982516885E-003;
2.420000000000000E+009;1.593903750181198E-001;-7.034215331077576E-002;1.000531847239472E-004;2.624081913381815E-003;
2.420166666666667E+009;1.583548635244370E-001;-7.145453989505768E-002;2.548658812884241E-004;2.724982099607587E-003;
2.420333333333334E+009;1.572898030281067E-001;-7.269401848316193E-002;3.402276197448373E-004;2.480583265423775E-003;
2.420500000000000E+009;1.562170535326004E-001;-7.375790178775787E-002;2.584612520877272E-004;2.642162842676044E-003;
2.420666666666667E+009;1.551847308874130E-001;-7.487776875495911E-002;5.632133688777685E-004;2.532877260819078E-003;
2.420833333333334E+009;1.541577875614166E-001;-7.642234861850739E-002;5.824178806506097E-004;2.454144647344947E-003;
2.421000000000000E+009;1.533965319395065E-001;-7.808270305395126E-002;6.134616560302675E-004;2.511873375624418E-003;
2.421166666666667E+009;1.527284085750580E-001;-7.943890243768692E-002;7.281323196366429E-004;2.692224225029349E-003;
2.421333333333334E+009;1.520389914512634E-001;-8.100749552249908E-002;8.159799035638571E-004;2.560959430411458E-003;
2.421500000000000E+009;1.512911617755890E-001;-8.265417814254761E-002;8.869157754816115E-004;2.717258874326944E-003;
2.421666666666667E+009;1.508970558643341E-001;-8.428402990102768E-002;8.391509763896465E-004;2.595940139144659E-003;
2.421833333333334E+009;1.504357606172562E-001;-8.595352619886398E-002;1.033731503412128E-003;2.525325864553452E-003;
2.422000000000000E+009;1.499746888875961E-001;-8.750363439321518E-002;9.349075844511390E-004;2.576556755229831E-003;
2.422166666666667E+009;1.496896892786026E-001;-8.947400003671646E-002;1.079817884601653E-003;2.620301675051451E-003;
2.422333333333334E+009;1.494739502668381E-001;-9.104853123426437E-002;1.221234793774784E-003;2.632977673783898E-003;
2.422500000000000E+009;1.494000405073166E-001;-9.265801310539246E-002;1.271807122975588E-003;2.504483098164201E-003;
2.422666666666667E+009;1.491892188787460E-001;-9.448574483394623E-002;1.257054973393679E-003;2.412097295746207E-003;
2.422833333333334E+009;1.493017375469208E-001;-9.616487473249435E-002;1.477905432693660E-003;2.433959627524018E-003;
2.423000000000000E+009;1.495249271392822E-001;-9.773207455873489E-002;1.568003906868398E-003;2.508382312953472E-003;
2.423166666666667E+009;1.498292088508606E-001;-9.948650747537613E-002;1.779197249561548E-003;2.632877323776484E-003;
2.423333333333334E+009;1.501183360815048E-001;-1.008508354425430E-001;1.626018900424242E-003;2.389529487118125E-003;
2.423500000000000E+009;1.503039747476578E-001;-1.025720089673996E-001;1.830202061682940E-003;2.352157840505242E-003;
2.423666666666667E+009;1.505197584629059E-001;-1.041506454348564E-001;1.798853278160095E-003;2.325106179341674E-003;
2.423833333333334E+009;1.511808037757874E-001;-1.056631878018379E-001;1.916283392347395E-003;2.330885967239738E-003;
2.424000000000000E+009;1.514691859483719E-001;-1.066760420799255E-001;1.956711756065488E-003;2.220203867182136E-003;
2.424166666666667E+009;1.517238318920136E-001;-1.080861389636993E-001;1.920302864164114E-003;2.293225377798080E-003;
2.424333333333334E+009;1.523395180702210E-001;-1.093164831399918E-001;2.216079737991095E-003;2.287663286551833E-003;
2.424500000000000E+009;1.528726965188980E-001;-1.105559542775154E-001;2.179196802899241E-003;2.217078348621726E-003;
2.424666666666667E+009;1.535487323999405E-001;-1.113432273268700E-001;2.432238310575485E-003;2.125396393239498E-003;
2.424833333333334E+009;1.537702530622482E-001;-1.124659776687622E-001;2.513081766664982E-003;2.096784999594092E-003;
2.425000000000000E+009;1.542764455080032E-001;-1.133925765752792E-001;2.570444718003273E-003;2.203845884650946E-003;
2.425166666666667E+009;1.545127332210541E-001;-1.143066585063934E-001;2.695652190595865E-003;2.068512141704559E-003;
2.425333333333334E+009;1.551213115453720E-001;-1.148540154099464E-001;2.613286487758160E-003;1.973431790247560E-003;
2.425500000000000E+009;1.556062698364258E-001;-1.157205924391747E-001;2.884846879169345E-003;1.884284196421504E-003;
2.425666666666667E+009;1.557380110025406E-001;-1.162789463996887E-001;3.063839394599199E-003;1.816458301618695E-003;
2.425833333333334E+009;1.560101509094238E-001;-1.167797967791557E-001;3.131702775135636E-003;1.641052425839007E-003;
2.426000000000000E+009;1.562085896730423E-001;-1.173409745097160E-001;3.314438275992870E-003;1.525204977951944E-003;
2.426166666666667E+009;1.564770042896271E-001;-1.176823824644089E-001;3.244212362915278E-003;1.503336476162076E-003;
2.426333333333334E+009;1.564374119043350E-001;-1.180769875645638E-001;3.329269355162978E-003;1.558769494295120E-003;
2.426500000000000E+009;1.566054224967957E-001;-1.182781234383583E-001;3.432910423725843E-003;1.478495425544679E-003;
2.426666666666667E+009;1.566185057163239E-001;-1.183952242136002E-001;3.304573940113187E-003;1.239084056578577E-003;
2.426833333333334E+009;1.562892943620682E-001;-1.186578497290611E-001;3.480058629065752E-003;1.149794668890536E-003;
2.427000000000000E+009;1.560326516628265E-001;-1.188696771860123E-001;3.636779962107539E-003;1.020216033793986E-003;
2.427166666666667E+009;1.556655913591385E-001;-1.187539845705032E-001;3.806854132562876E-003;8.053207420744002E-004;
2.427333333333334E+009;1.551300287246704E-001;-1.189366206526756E-001;3.893170272931457E-003;7.428246317431331E-004;
2.427500000000000E+009;1.546785384416580E-001;-1.191243082284927E-001;3.756255842745304E-003;5.862615071237087E-004;
2.427666666666667E+009;1.539796292781830E-001;-1.191907599568367E-001;3.857950214296579E-003;5.364990211091936E-004;
2.427833333333334E+009;1.531265676021576E-001;-1.193058565258980E-001;3.920478746294975E-003;3.204368986189365E-004;
