# Version 1.00
#
freq[Hz];re:Trc1_S11;im:Trc1_S11;re:Trc2_S21;im:Trc2_S21;
2.400000000000000E+009;1.582622826099396E-001;6.262402981519699E-002;-3.389365738257766E-003;-2.509461948648095E-003;
2.400166666666667E+009;1.581011265516281E-001;6.110724061727524E-002;-3.356158966198564E-003;-2.354586496949196E-003;
2.400333333333334E+009;1.580502390861511E-001;5.904997885227203E-002;-3.379140747711062E-003;-2.099803416058421E-003;
2.400500000000000E+009;1.579955071210861E-001;5.715835094451904E-002;-3.594502806663513E-003;-2.076077042147517E-003;
2.400666666666667E+009;1.578309237957001E-001;5.513131245970726E-002;-3.522227983921766E-003;-1.934202737174928E-003;
2.400833333333334E+009;1.579790264368057E-001;5.333431437611580E-002;-3.704953240230680E-003;-1.825928804464638E-003;
2.401000000000000E+009;1.580361872911453E-001;5.106687918305397E-002;-3.608521306887269E-003;-1.625996781513095E-003;
2.401166666666667E+009;1.580591350793839E-001;4.916489496827126E-002;-3.826983273029327E-003;-1.465808833017945E-003;
2.401333333333334E+009;1.582003682851791E-001;4.694388806819916E-002;-3.637909190729260E-003;-1.180519931949675E-003;
2.401500000000000E+009;1.588046997785568E-001;4.495115578174591E-002;-3.734859637916088E-003;-9.473757818341255E-004;
2.401666666666667E+009;1.589556932449341E-001;4.316683486104012E-002;-3.672858467325568E-003;-7.937003974802792E-004;
2.401833333333334E+009;1.592268794775009E-001;4.093842208385468E-002;-3.723383415490389E-003;-6.291109602898359E-004;
2.402000000000000E+009;1.595529764890671E-001;3.892895579338074E-002;-3.610119223594666E-003;-5.806453991681337E-004;
2.402166666666667E+009;1.602826863527298E-001;3.686526045203209E-002;-3.420657711103559E-003;-3.250987792853266E-004;
2.402333333333334E+009;1.606579422950745E-001;3.493594005703926E-002;-3.488069400191307E-003;-1.062901137629524E-004;
2.402500000000000E+009;1.615227013826370E-001;3.315341472625732E-002;-3.374435240402818E-003;-3.408575139474124E-005;
2.402666666666667E+009;1.618933826684952E-001;3.125854954123497E-002;-3.181644715368748E-003;1.193575462821173E-005;
2.402833333333334E+009;1.628538221120834E-001;2.959575504064560E-002;-3.148221876472235E-003;1.427351235179231E-004;
2.403000000000000E+009;1.635502874851227E-001;2.785901166498661E-002;-3.102363087236881E-003;3.610208805184811E-004;
2.403166666666667E+009;1.645091176033020E-001;2.633147686719894E-002;-2.978837583214045E-003;4.951638402417302E-004;
2.403333333333334E+009;1.654521822929382E-001;2.483613416552544E-002;-2.922985702753067E-003;5.520501872524619E-004;
2.403500000000000E+009;1.661650538444519E-001;2.340279892086983E-002;-2.829515840858221E-003;7.560015656054020E-004;
2.403666666666667E+009;1.672132909297943E-001;2.192310057580471E-002;-2.872963203117251E-003;6.969971000216901E-004;
2.403833333333334E+009;1.682950407266617E-001;2.064292132854462E-002;-2.759972121566534E-003;5.819023353978992E-004;
2.404000000000000E+009;1.693313717842102E-001;1.950460672378540E-002;-2.637818455696106E-003;8.665406494401395E-004;
2.404166666666667E+009;1.702732592821121E-001;1.833222061395645E-002;-2.309381496161223E-003;7.230755290947855E-004;
2.404333333333334E+009;1.710195243358612E-001;1.731363683938980E-002;-2.324579982087016E-003;7.954045431688428E-004;
2.404500000000000E+009;1.718852072954178E-001;1.634643226861954E-002;-2.239832887426019E-003;8.199155563488603E-004;
2.404666666666667E+009;1.729025095701218E-001;1.553349755704403E-002;-2.193944528698921E-003;8.426524000242353E-004;
2.404833333333334E+009;1.738564819097519E-001;1.472950447350740E-002;-1.980239991098642E-003;9.441624279133976E-004;
2.405000000000000E+009;1.747457832098007E-001;1.406453549861908E-002;-1.991973724216223E-003;7.950252038426697E-004;
2.405166666666667E+009;1.755464673042297E-001;1.339358557015657E-002;-2.002304885536432E-003;9.368806495331228E-004;
2.405333333333334E+009;1.763492226600647E-001;1.264904718846083E-002;-1.830514403991401E-003;1.012329594232142E-003;
2.405500000000000E+009;1.771780699491501E-001;1.235904823988676E-002;-1.869654050096870E-003;9.734864579513669E-004;
2.405666666666667E+009;1.779168397188187E-001;1.192308496683836E-002;-1.704085385426879E-003;8.706187363713980E-004;
2.405833333333334E+009;1.782553493976593E-001;1.149228867143393E-002;-1.479214290156961E-003;9.639154886826873E-004;
2.406000000000000E+009;1.789646446704865E-001;1.103524956852198E-002;-1.557800569571555E-003;1.001301803626120E-003;
2.406166666666667E+009;1.793833076953888E-001;1.081648096442223E-002;-1.458560931496322E-003;8.646690403111279E-004;
2.406333333333334E+009;1.800030916929245E-001;1.046823244541884E-002;-1.460338942706585E-003;9.239782229997218E-004;
2.406500000000000E+009;1.801139265298843E-001;1.019825320690870E-002;-1.430472126230598E-003;9.973109699785709E-004;
2.406666666666667E+009;1.802466362714768E-001;9.938923642039299E-003;-1.342036412097514E-003;8.368566632270813E-004;
2.406833333333334E+009;1.806549429893494E-001;9.595481678843498E-003;-1.315863453783095E-003;8.909908938221633E-004;
2.407000000000000E+009;1.806643456220627E-001;9.333073161542416E-003;-1.275821239687502E-003;9.153305436484516E-004;
2.407166666666667E+009;1.807685047388077E-001;9.105606004595757E-003;-1.283142482861877E-003;7.125626434572041E-004;
2.407333333333334E+009;1.805647313594818E-001;8.589196950197220E-003;-1.111486228182912E-003;8.818136993795633E-004;
2.407500000000000E+009;1.804830282926559E-001;8.231955580413342E-003;-1.277676899917424E-003;7.793032564222813E-004;
2.407666666666667E+009;1.803116649389267E-001;7.872425951063633E-003;-1.245346269570291E-003;9.313244372606278E-004;
2.407833333333334E+009;1.798051297664642E-001;7.142499554902315E-003;-1.256996416486800E-003;8.456492214463651E-004;
2.408000000000000E+009;1.796288192272186E-001;6.626321934163570E-003;-1.257839379832149E-003;8.245391654781997E-004;
2.408166666666667E+009;1.790637522935867E-001;6.140308454632759E-003;-1.246420084498823E-003;6.997077725827694E-004;
2.408333333333334E+009;1.788100302219391E-001;5.241862498223782E-003;-1.182927400805056E-003;8.125464664772153E-004;
2.408500000000000E+009;1.781846582889557E-001;4.570806864649057E-003;-1.279038959182799E-003;7.324871839955449E-004;
2.408666666666667E+009;1.774313300848007E-001;3.728906856849790E-003;-1.288307597860694E-003;7.092297892086208E-004;
2.408833333333334E+009;1.767996996641159E-001;2.872259123250842E-003;-1.269793836399913E-003;8.529951446689665E-004;
2.409000000000000E+009;1.761298179626465E-001;1.789925852790475E-003;-1.171574811451137E-003;6.229082355275750E-004;
2.409166666666667E+009;1.753807961940765E-001;6.550578400492668E-004;-1.130676595494151E-003;8.874412160366774E-004;
2.409333333333334E+009;1.748539954423904E-001;-6.365134031511843E-004;-1.155198900960386E-003;7.164659327827394E-004;
2.409500000000000E+009;1.741279810667038E-001;-1.998719293624163E-003;-1.086384290829301E-003;8.734964649192989E-004;
2.409666666666667E+009;1.734257787466049E-001;-3.248379332944751E-003;-1.171674579381943E-003;8.220855961553752E-004;
2.409833333333334E+009;1.727136224508286E-001;-4.333619028329849E-003;-1.133439247496426E-003;8.047047886066139E-004;
2.410000000000000E+009;1.720730662345886E-001;-6.136594340205193E-003;-1.086542499251664E-003;8.699181489646435E-004;
2.410166666666667E+009;1.715659201145172E-001;-7.715311832726002E-003;-1.137233455665410E-003;9.007845656014979E-004;
2.410333333333334E+009;1.709067374467850E-001;-9.235171601176262E-003;-1.097540720365942E-003;8.008851436898112E-004;
2.410500000000000E+009;1.702409535646439E-001;-1.085675973445177E-002;-1.091862213797867E-003;8.388780406676233E-004;
2.410666666666667E+009;1.698377579450607E-001;-1.279045734554529E-002;-9.995354339480400E-004;8.325431845150888E-004;
2.410833333333334E+009;1.695274412631989E-001;-1.458698790520430E-002;-1.069772522896528E-003;9.638499468564987E-004;
2.411000000000000E+009;1.689829528331757E-001;-1.632902771234512E-002;-9.164153598248959E-004;9.783413261175156E-004;
2.411166666666667E+009;1.685316264629364E-001;-1.828618533909321E-002;-1.035730820149183E-003;8.220605086535215E-004;
2.411333333333334E+009;1.683603525161743E-001;-2.002805285155773E-002;-1.051240717060864E-003;8.001334499567747E-004;
2.411500000000000E+009;1.680163592100143E-001;-2.212605625391007E-002;-1.129274722188711E-003;7.656315574422479E-004;
2.411666666666667E+009;1.682396978139877E-001;-2.402594313025475E-002;-1.063413103111088E-003;8.951086201705039E-004;
2.411833333333334E+009;1.681022047996521E-001;-2.599126100540161E-002;-9.119662572629750E-004;8.167357300408185E-004;
2.412000000000000E+009;1.682409793138504E-001;-2.780999615788460E-002;-1.006912207230926E-003;9.788956958800554E-004;
2.412166666666667E+009;1.682404577732086E-001;-2.999733202159405E-002;-1.125282375141978E-003;8.139937417581677E-004;
2.412333333333334E+009;1.685984581708908E-001;-3.188909962773323E-002;-1.022972748614848E-003;8.631786331534386E-004;
2.412500000000000E+009;1.686516851186752E-001;-3.373773396015167E-002;-1.008048071525991E-003;8.009367156773806E-004;
2.412666666666667E+009;1.689743995666504E-001;-3.566830977797508E-002;-1.001497963443399E-003;9.485202026553452E-004;
2.412833333333334E+009;1.692680418491364E-001;-3.767797350883484E-002;-1.087352633476257E-003;8.878016378730536E-004;
2.413000000000000E+009;1.697636246681213E-001;-3.933923318982124E-002;-1.133398967795074E-003;1.026223413646221E-003;
2.413166666666667E+009;1.701796203851700E-001;-4.114014655351639E-002;-1.163170905783773E-003;9.516103309579194E-004;
2.413333333333334E+009;1.705252379179001E-001;-4.292795062065125E-002;-1.085834926925600E-003;1.065724412910640E-003;
2.413500000000000E+009;1.712915301322937E-001;-4.455263540148735E-002;-1.008000457659364E-003;9.460833971388638E-004;
2.413666666666667E+009;1.717180162668228E-001;-4.609014093875885E-002;-1.117045874707401E-003;1.024983241222799E-003;
2.413833333333334E+009;1.722415238618851E-001;-4.753923043608666E-002;-1.081479946151376E-003;9.770173346623778E-004;
2.414000000000000E+009;1.726819276809692E-001;-4.914869368076325E-002;-1.192205003462732E-003;1.176069141365588E-003;
2.414166666666667E+009;1.734067350625992E-001;-5.044628679752350E-002;-1.217852113768458E-003;1.270719338208437E-003;
2.414333333333334E+009;1.738426089286804E-001;-5.172885581851006E-002;-1.141265965998173E-003;1.069287071004510E-003;
2.414500000000000E+009;1.745641380548477E-001;-5.265759304165840E-002;-1.171961659565568E-003;1.245010178536177E-003;
2.414666666666667E+009;1.750807613134384E-001;-5.373309552669525E-002;-1.073001418262720E-003;1.192952855490148E-003;
2.414833333333334E+009;1.753527671098709E-001;-5.482603982090950E-002;-1.175282173790038E-003;1.410158933140338E-003;
2.415000000000000E+009;1.758756637573242E-001;-5.567052960395813E-002;-1.134085119701922E-003;1.382210990414023E-003;
2.415166666666667E+009;1.762260049581528E-001;-5.654416605830193E-002;-1.167474547401071E-003;1.470589195378125E-003;
2.415333333333334E+009;1.767581552267075E-001;-5.735626444220543E-002;-1.174558070488274E-003;1.367146847769618E-003;
2.415500000000000E+009;1.771830320358276E-001;-5.783877894282341E-002;-9.549820679239929E-004;1.521278056316078E-003;
2.415666666666667E+009;1.773897111415863E-001;-5.837173014879227E-002;-1.083495328202844E-003;1.549401786178350E-003;
2.415833333333334E+009;1.776512712240219E-001;-5.893876403570175E-002;-1.096198451705277E-003;1.737147569656372E-003;
2.416000000000000E+009;1.775220483541489E-001;-5.933246761560440E-002;-1.246452215127647E-003;1.627620542421937E-003;
2.416166666666667E+009;1.778780668973923E-001;-5.968144163489342E-002;-9.644863894209266E-004;1.684720860794187E-003;
2.416333333333334E+009;1.778068095445633E-001;-5.994907021522522E-002;-9.738212684169412E-004;1.847556792199612E-003;
2.416500000000000E+009;1.776184290647507E-001;-6.046720966696739E-002;-9.024025639519095E-004;1.947347889654338E-003;
2.416666666666667E+009;1.774975508451462E-001;-6.057631969451904E-002;-7.803761400282383E-004;1.801495905965567E-003;
2.416833333333334E+009;1.772673130035400E-001;-6.091327592730522E-002;-9.232374140992761E-004;2.077889163047075E-003;
2.417000000000000E+009;1.767636686563492E-001;-6.104982644319534E-002;-8.297248859889805E-004;2.095693955197930E-003;
2.417166666666667E+009;1.764438897371292E-001;-6.118953973054886E-002;-8.679269230924547E-004;1.948775025084615E-003;
2.417333333333334E+009;1.757809221744537E-001;-6.148813664913178E-002;-6.598003092221916E-004;2.043624175712466E-003;
2.417500000000000E+009;1.752453446388245E-001;-6.184261292219162E-002;-6.471673259511590E-004;2.120549324899912E-003;
2.417666666666667E+009;1.745650768280029E-001;-6.187321990728378E-002;-7.108940626494587E-004;2.179669914767146E-003;
2.417833333333334E+009;1.737796366214752E-001;-6.222509965300560E-002;-7.383368792943656E-004;2.234549727290869E-003;
2.418000000000000E+009;1.728959083557129E-001;-6.256233155727387E-002;-3.138589963782579E-004;2.359335543587804E-003;
2.418166666666667E+009;1.719446778297424E-001;-6.273265928030014E-002;-6.269696750678122E-004;2.277156803756952E-003;
2.418333333333334E+009;1.712391376495361E-001;-6.311171501874924E-002;-4.072062729392201E-004;2.259682165458798E-003;
2.418500000000000E+009;1.700483858585358E-001;-6.360027194023132E-002;-4.100099322386086E-004;2.229872858151794E-003;
2.418666666666667E+009;1.690936088562012E-001;-6.410058587789536E-002;-2.598046266939491E-004;2.503541996702552E-003;
2.418833333333334E+009;1.677687913179398E-001;-6.473281979560852E-002;-9.332069021183997E-005;2.514630788937211E-003;
2.419000000000000E+009;1.664995253086090E-001;-6.513905525207520E-002;-3.500233869999647E-004;2.477147150784731E-003;
2.419166666666667E+009;1.653392314910889E-001;-6.577251851558685E-002;-1.309972431045026E-004;2.433950547128916E-003;
2.419333333333334E+009;1.640673279762268E-001;-6.648799031972885E-002;-8.752333815209568E-005;2.773602958768606E-003;
2.419500000000000E+009;1.630138605833054E-001;-6.745122373104096E-002;-1.007473038043827E-004;2.577139064669609E-003;
2.419666666666667E+009;1.618797332048416E-001;-6.833862513303757E-002;-1.146499052993022E-004;2.534914296120405E-003;
2.419833333333334E+009;1.606007814407349E-001;-6.918976455926895E-002;5.703060378436931E-005;2.592385746538639E-003;
2.420000000000000E+009;1.594575047492981E-001;-7.034546881914139E-002;1.913652813527733E-004;2.663802821189165E-003;
2.420166666666667E+009;1.584183722734451E-001;-7.135280221700668E-002;2.538839180488139E-004;2.630200004205108E-003;
2.420333333333334E+009;1.573104411363602E-001;-7.264860719442368E-002;2.574145619291812E-004;2.514375140890479E-003;
2.420500000000000E+009;1.562399566173554E-001;-7.359561324119568E-002;4.090939182788134E-004;2.583827590569854E-003;
2.420666666666667E+009;1.551019996404648E-001;-7.500596344470978E-002;3.500931779854000E-004;2.634901320561767E-003;
2.420833333333334E+009;1.544032543897629E-001;-7.639854401350021E-002;5.772343138232827E-004;2.709205495193601E-003;
2.421000000000000E+009;1.533995121717453E-001;-7.796008139848709E-002;5.152234807610512E-004;2.665282925590873E-003;
2.421166666666667E+009;1.525952816009522E-001;-7.955299317836762E-002;6.433583330363035E-004;2.573955338448286E-003;
2.421333333333334E+009;1.521736532449722E-001;-8.105274289846420E-002;5.859793163836002E-004;2.711292821913958E-003;
2.421500000000000E+009;1.513273864984512E-001;-8.261115849018097E-002;7.867022650316358E-004;2.636601682752371E-003;
2.421666666666667E+009;1.508231461048126E-001;-8.414732664823532E-002;9.164503426291049E-004;2.594664460048080E-003;
2.421833333333334E+009;1.503666192293167E-001;-8.590786159038544E-002;1.052417559549213E-003;2.599550178274512E-003;
2.422000000000000E+009;1.499652117490768E-001;-8.752740174531937E-002;1.045683515258133E-003;2.586010843515396E-003;
2.422166666666667E+009;1.495677530765533E-001;-8.943616598844528E-002;1.151563832536340E-003;2.668355358764529E-003;
2.422333333333334E+009;1.493920832872391E-001;-9.091734886169434E-002;1.129838521592319E-003;2.625770866870880E-003;
2.422500000000000E+009;1.492609530687332E-001;-9.272921085357666E-002;1.315215951763094E-003;2.588206902146339E-003;
2.422666666666667E+009;1.490402966737747E-001;-9.435984492301941E-002;1.359733869321644E-003;2.599888248369098E-003;
2.422833333333334E+009;1.494042575359345E-001;-9.601888060569763E-002;1.383805763907731E-003;2.673401264473796E-003;
2.423000000000000E+009;1.493225842714310E-001;-9.777865558862686E-002;1.482998370192945E-003;2.564885886386037E-003;
2.423166666666667E+009;1.496659368276596E-001;-9.935827553272247E-002;1.666048192419112E-003;2.576892031356692E-003;
2.423333333333334E+009;1.500364691019058E-001;-1.008269190788269E-001;1.566028338856995E-003;2.609510207548738E-003;
2.423500000000000E+009;1.502463072538376E-001;-1.025684475898743E-001;1.750356284901500E-003;2.581892069429159E-003;
2.423666666666667E+009;1.505215615034103E-001;-1.040922850370407E-001;1.851169858127832E-003;2.533534076064825E-003;
2.423833333333334E+009;1.510623097419739E-001;-1.055296808481216E-001;1.984721515327692E-003;2.571963239461184E-003;
2.424000000000000E+009;1.513567417860031E-001;-1.066276654601097E-001;2.102658152580261E-003;2.500162459909916E-003;
2.424166666666667E+009;1.518894582986832E-001;-1.080459505319595E-001;2.202604897320271E-003;2.547412877902389E-003;
2.424333333333334E+009;1.523414701223373E-001;-1.091485247015953E-001;2.230695681646466E-003;2.561643254011869E-003;
2.424500000000000E+009;1.528815478086472E-001;-1.104457005858421E-001;2.371262526139617E-003;2.315044868737459E-003;
2.424666666666667E+009;1.534109562635422E-001;-1.112751215696335E-001;2.378752455115318E-003;2.291275886818767E-003;
2.424833333333334E+009;1.537293195724487E-001;-1.123801618814468E-001;2.601445652544498E-003;2.214529318735004E-003;
2.425000000000000E+009;1.544120162725449E-001;-1.133386120200157E-001;2.866365713998675E-003;2.149712992832065E-003;
2.425166666666667E+009;1.545572429895401E-001;-1.142784133553505E-001;2.870949218049645E-003;2.025648253038526E-003;
2.425333333333334E+009;1.549976170063019E-001;-1.149425804615021E-001;3.095483174547553E-003;1.995905069634318E-003;
2.425500000000000E+009;1.556637883186340E-001;-1.155925095081329E-001;2.900156192481518E-003;1.934082945808768E-003;
2.425666666666667E+009;1.556747108697891E-001;-1.162404119968414E-001;3.104841802269220E-003;1.832449925132096E-003;
2.425833333333334E+009;1.559900343418121E-001;-1.167819276452065E-001;3.288314212113619E-003;1.822318532504141E-003;
2.426000000000000E+009;1.562015712261200E-001;-1.173094958066940E-001;3.285575192421675E-003;1.643190276809037E-003;
2.426166666666667E+009;1.566215157508850E-001;-1.176757588982582E-001;3.330174135044217E-003;1.545385690405965E-003;
2.426333333333334E+009;1.565418839454651E-001;-1.180100589990616E-001;3.461826359853149E-003;1.496479380875826E-003;
2.426500000000000E+009;1.565079987049103E-001;-1.182150170207024E-001;3.473479300737381E-003;1.378524350002408E-003;
2.426666666666667E+009;1.566445380449295E-001;-1.182432621717453E-001;3.669947152957320E-003;1.238173572346568E-003;
2.426833333333334E+009;1.562509238719940E-001;-1.185651123523712E-001;3.629219951108098E-003;1.201075618155301E-003;
2.427000000000000E+009;1.560651510953903E-001;-1.188613548874855E-001;3.592370077967644E-003;1.028398517519236E-003;
2.427166666666667E+009;1.556867659091950E-001;-1.188481152057648E-001;3.786489833146334E-003;9.079876472242177E-004;
2.427333333333334E+009;1.550195664167404E-001;-1.189823523163796E-001;3.949950449168682E-003;8.522924035787582E-004;
2.427500000000000E+009;1.547312140464783E-001;-1.190309450030327E-001;3.940667957067490E-003;7.198386592790484E-004;
2.427666666666667E+009;1.540256887674332E-001;-1.192641630768776E-001;3.919669426977634E-003;5.853914190083742E-004;
2.427833333333334E+009;1.530817449092865E-001;-1.192554235458374E-001;4.020299296826124E-003;3.048885846510530E-004;
