# Version 1.00
#
freq[Hz];re:Trc1_S11;im:Trc1_S11;re:Trc2_S21;im:Trc2_S21;
2.400000000000000E+009;1.689246594905853E-001;4.581415280699730E-002;-2.336066216230393E-003;1.371449558064342E-003;
2.400166666666667E+009;1.699203103780747E-001;4.483903944492340E-002;-2.417875919491053E-003;1.224818988703191E-003;
2.400333333333334E+009;1.708777397871018E-001;4.363474622368813E-002;-2.295619109645486E-003;1.239031204022467E-003;
2.400500000000000E+009;1.717645674943924E-001;4.263835027813911E-002;-2.521902089938521E-003;1.390269142575562E-003;
2.400666666666667E+009;1.726537346839905E-001;4.177061468362808E-002;-2.199891256168485E-003;1.351392362266779E-003;
2.400833333333334E+009;1.737536638975143E-001;4.083815589547157E-002;-2.354648429900408E-003;1.264434307813644E-003;
2.401000000000000E+009;1.742381453514099E-001;4.012120515108109E-002;-2.174853580072522E-003;1.186937792226672E-003;
2.401166666666667E+009;1.751465350389481E-001;3.932558745145798E-002;-2.349943853914738E-003;1.358423149213195E-003;
2.401333333333334E+009;1.759241819381714E-001;3.864647448062897E-002;-2.313419012352824E-003;1.380196888931096E-003;
2.401500000000000E+009;1.767394095659256E-001;3.807570040225983E-002;-2.254901686683297E-003;1.562467194162309E-003;
2.401666666666667E+009;1.773100942373276E-001;3.739790245890617E-002;-2.392319496721029E-003;1.345710363239050E-003;
2.401833333333334E+009;1.778229922056198E-001;3.690322861075401E-002;-2.305831061676145E-003;1.528579741716385E-003;
2.402000000000000E+009;1.780835837125778E-001;3.626974672079086E-002;-2.477140864357352E-003;1.624934840947390E-003;
2.402166666666667E+009;1.784278601408005E-001;3.565541654825211E-002;-2.469982486218214E-003;1.658758032135665E-003;
2.402333333333334E+009;1.789112091064453E-001;3.514788672327995E-002;-2.467208076268435E-003;1.674857805483043E-003;
2.402500000000000E+009;1.793574988842011E-001;3.445055335760117E-002;-2.532239304855466E-003;1.878687646239996E-003;
2.402666666666667E+009;1.794175654649735E-001;3.394632041454315E-002;-2.455072943121195E-003;2.034553093835712E-003;
2.402833333333334E+009;1.796180605888367E-001;3.338359668850899E-002;-2.432845067232847E-003;2.030394738540053E-003;
2.403000000000000E+009;1.796999424695969E-001;3.243781998753548E-002;-2.405317733064294E-003;2.142480807378888E-003;
2.403166666666667E+009;1.798999905586243E-001;3.166623041033745E-002;-2.577159786596894E-003;2.293157158419490E-003;
2.403333333333334E+009;1.797543466091156E-001;3.097496367990971E-002;-2.612636191770434E-003;2.481092000380158E-003;
2.403500000000000E+009;1.796010285615921E-001;3.004838526248932E-002;-2.420422853901982E-003;2.375178504735231E-003;
2.403666666666667E+009;1.792590916156769E-001;2.914961241185665E-002;-2.410550834611058E-003;2.675588941201568E-003;
2.403833333333334E+009;1.791518032550812E-001;2.804145030677319E-002;-2.495381049811840E-003;2.854880876839161E-003;
2.404000000000000E+009;1.787510663270950E-001;2.712061814963818E-002;-2.444635611027479E-003;3.178997663781047E-003;
2.404166666666667E+009;1.782471537590027E-001;2.582461759448052E-002;-2.234796993434429E-003;3.164816414937377E-003;
2.404333333333334E+009;1.779286712408066E-001;2.471857517957687E-002;-2.257016487419605E-003;3.390935715287924E-003;
2.404500000000000E+009;1.773745566606522E-001;2.342050708830357E-002;-2.101666061207652E-003;3.424160182476044E-003;
2.404666666666667E+009;1.769836843013763E-001;2.195764519274235E-002;-1.762455562129617E-003;3.817408811300993E-003;
2.404833333333334E+009;1.764497309923172E-001;2.069743350148201E-002;-1.860416145063937E-003;4.075119737535715E-003;
2.405000000000000E+009;1.760668903589249E-001;1.910430006682873E-002;-1.760359620675445E-003;4.074146505445242E-003;
2.405166666666667E+009;1.757069975137711E-001;1.753957010805607E-002;-1.589853432960808E-003;4.346466623246670E-003;
2.405333333333334E+009;1.751404553651810E-001;1.587037928402424E-002;-1.198865007609129E-003;4.450038541108370E-003;
2.405500000000000E+009;1.746983379125595E-001;1.421147491782904E-002;-1.053730025887489E-003;4.760144744068384E-003;
2.405666666666667E+009;1.743702292442322E-001;1.246169488877058E-002;-8.431096212007105E-004;4.567408468574286E-003;
2.405833333333334E+009;1.738054156303406E-001;1.069471333175898E-002;-4.187106096651405E-004;4.706440027803183E-003;
2.406000000000000E+009;1.736905723810196E-001;8.746544830501080E-003;-1.632073253858835E-004;4.692059475928545E-003;
2.406166666666667E+009;1.733555793762207E-001;6.884042639285326E-003;4.562123285722919E-005;4.780013114213944E-003;
2.406333333333334E+009;1.733243912458420E-001;4.899961873888969E-003;3.235603217035532E-004;4.796106833964586E-003;
2.406500000000000E+009;1.730450987815857E-001;2.873614197596908E-003;6.900071166455746E-004;4.877226892858744E-003;
2.406666666666667E+009;1.728874593973160E-001;8.408128633163869E-004;7.743515889160335E-004;4.710649140179157E-003;
2.406833333333334E+009;1.728067398071289E-001;-1.291846972890198E-003;1.177405822090805E-003;4.843300674110651E-003;
2.407000000000000E+009;1.729813218116760E-001;-3.429228672757745E-003;1.499140751548111E-003;4.625373054295778E-003;
2.407166666666667E+009;1.730954945087433E-001;-5.493022501468658E-003;1.625033444724977E-003;4.547076299786568E-003;
2.407333333333334E+009;1.731625497341156E-001;-7.623339537531138E-003;1.897795940749347E-003;4.406390246003866E-003;
2.407500000000000E+009;1.733370721340179E-001;-9.725677780807018E-003;2.017405116930604E-003;4.265181720256805E-003;
2.407666666666667E+009;1.736204326152802E-001;-1.176991686224937E-002;2.332333009690046E-003;4.075417760759592E-003;
2.407833333333334E+009;1.738601028919220E-001;-1.398018747568131E-002;2.624846296384931E-003;3.893564920872450E-003;
2.408000000000000E+009;1.742560863494873E-001;-1.617258787155151E-002;2.774560591205955E-003;3.630528924986720E-003;
2.408166666666667E+009;1.745054721832275E-001;-1.815140247344971E-002;3.076896769925952E-003;3.512326860800386E-003;
2.408333333333334E+009;1.750501245260239E-001;-2.009672112762928E-002;3.126857569441199E-003;3.139942418783903E-003;
2.408500000000000E+009;1.752889603376389E-001;-2.199229039251804E-002;3.411586629226804E-003;3.050096798688173E-003;
2.408666666666667E+009;1.756842285394669E-001;-2.402578666806221E-002;3.473542863503099E-003;2.856174716725946E-003;
2.408833333333334E+009;1.759251952171326E-001;-2.584319561719894E-002;3.554188879206777E-003;2.658186247572303E-003;
2.409000000000000E+009;1.763501912355423E-001;-2.744513563811779E-002;3.612959757447243E-003;2.562999492511153E-003;
2.409166666666667E+009;1.766209751367569E-001;-2.882239036262035E-002;3.321311203762889E-003;2.258714754134417E-003;
2.409333333333334E+009;1.770992279052734E-001;-3.049458935856819E-002;3.562053199857473E-003;1.957936910912395E-003;
2.409500000000000E+009;1.774657666683197E-001;-3.190223500132561E-002;3.658825764432550E-003;1.771516632288694E-003;
2.409666666666667E+009;1.779034435749054E-001;-3.303040564060211E-002;3.488646354526281E-003;1.716734725050628E-003;
2.409833333333334E+009;1.782476156949997E-001;-3.397938609123230E-002;3.567647188901901E-003;1.586332335136831E-003;
2.410000000000000E+009;1.787347644567490E-001;-3.485841676592827E-002;3.490671282634139E-003;1.218399032950401E-003;
2.410166666666667E+009;1.792098283767700E-001;-3.599490970373154E-002;3.596792463213205E-003;1.242160913534463E-003;
2.410333333333334E+009;1.794970631599426E-001;-3.672565147280693E-002;3.744051326066256E-003;1.122583053074777E-003;
2.410500000000000E+009;1.800408065319061E-001;-3.742263466119766E-002;3.709255484864116E-003;7.219875697046518E-004;
2.410666666666667E+009;1.801934689283371E-001;-3.820624202489853E-002;3.585982834920287E-003;7.814904674887657E-004;
2.410833333333334E+009;1.808165311813355E-001;-3.870798647403717E-002;3.592198016121984E-003;4.586965078487992E-004;
2.411000000000000E+009;1.812322288751602E-001;-3.929151222109795E-002;3.570570610463619E-003;5.416657659225166E-004;
2.411166666666667E+009;1.813357621431351E-001;-3.985406085848808E-002;3.507010638713837E-003;3.507822984829545E-004;
2.411333333333334E+009;1.814875900745392E-001;-4.030964151024818E-002;3.662336384877563E-003;2.738779876381159E-004;
2.411500000000000E+009;1.813438981771469E-001;-4.079649969935417E-002;3.554294351488352E-003;1.132289035012946E-004;
2.411666666666667E+009;1.815879791975021E-001;-4.120743647217751E-002;3.637438872829080E-003;1.439992483938113E-004;
2.411833333333334E+009;1.815730184316635E-001;-4.139181226491928E-002;3.469988703727722E-003;-6.942061736481264E-005;
2.412000000000000E+009;1.815941333770752E-001;-4.188740625977516E-002;3.446495160460472E-003;-2.524374285712838E-004;
2.412166666666667E+009;1.810927540063858E-001;-4.221402108669281E-002;3.555075731128454E-003;-4.132420581299812E-004;
2.412333333333334E+009;1.809053272008896E-001;-4.255200177431107E-002;3.553953254595399E-003;-5.716278683394194E-004;
2.412500000000000E+009;1.803439110517502E-001;-4.297362640500069E-002;3.419918939471245E-003;-6.908548530191183E-004;
2.412666666666667E+009;1.798818707466126E-001;-4.341222718358040E-002;3.474449971690774E-003;-1.006674137897790E-003;
2.412833333333334E+009;1.793750524520874E-001;-4.364762827754021E-002;3.395296866074204E-003;-9.712891769595444E-004;
2.413000000000000E+009;1.785972863435745E-001;-4.407297074794769E-002;3.344699973240495E-003;-1.244768267497420E-003;
2.413166666666667E+009;1.777486503124237E-001;-4.442488029599190E-002;3.324623685330153E-003;-1.433978904969990E-003;
2.413333333333334E+009;1.767442226409912E-001;-4.489482566714287E-002;3.342042211443186E-003;-1.590068452060223E-003;
2.413500000000000E+009;1.758017539978027E-001;-4.538412392139435E-002;3.088021185249090E-003;-1.672152546234429E-003;
2.413666666666667E+009;1.748150885105133E-001;-4.603935778141022E-002;3.066458040848374E-003;-1.775846001692116E-003;
2.413833333333334E+009;1.737281829118729E-001;-4.652556404471397E-002;2.875456353649497E-003;-1.795682823285461E-003;
2.414000000000000E+009;1.725664734840393E-001;-4.719488695263863E-002;2.711571054533124E-003;-2.062590792775154E-003;
2.414166666666667E+009;1.716114431619644E-001;-4.788063839077950E-002;2.522634807974100E-003;-2.109889639541507E-003;
2.414333333333334E+009;1.704529076814652E-001;-4.885816946625710E-002;2.340098610147834E-003;-2.409998327493668E-003;
2.414500000000000E+009;1.693236380815506E-001;-4.955767095088959E-002;2.284813439473510E-003;-2.473247935995460E-003;
2.414666666666667E+009;1.680252999067307E-001;-5.049721896648407E-002;2.111977664753795E-003;-2.489839214831591E-003;
2.414833333333334E+009;1.667913794517517E-001;-5.167116597294807E-002;2.150107873603702E-003;-2.609727438539267E-003;
2.415000000000000E+009;1.655396521091461E-001;-5.278205499053001E-002;1.784815336577594E-003;-2.575531601905823E-003;
2.415166666666667E+009;1.643145531415939E-001;-5.400708317756653E-002;1.803388353437185E-003;-2.720587188377976E-003;
2.415333333333334E+009;1.632664799690247E-001;-5.521595478057861E-002;1.567415194585919E-003;-2.452524611726403E-003;
2.415500000000000E+009;1.620813906192780E-001;-5.656666308641434E-002;1.318519120104611E-003;-2.735164947807789E-003;
2.415666666666667E+009;1.609022170305252E-001;-5.807087570428848E-002;1.327339792624116E-003;-2.770975930616260E-003;
2.415833333333334E+009;1.599706262350082E-001;-5.957209318876267E-002;1.173195429146290E-003;-2.771896310150623E-003;
2.416000000000000E+009;1.586669981479645E-001;-6.125131994485855E-002;8.605220355093479E-004;-2.675242256373167E-003;
2.416166666666667E+009;1.579530388116837E-001;-6.304487586021423E-002;7.254593074321747E-004;-2.743835328146815E-003;
2.416333333333334E+009;1.569167375564575E-001;-6.477099657058716E-002;7.414546562358737E-004;-2.749327803030610E-003;
2.416500000000000E+009;1.559627950191498E-001;-6.668984889984131E-002;5.427831783890724E-004;-2.602704335004091E-003;
2.416666666666667E+009;1.548689305782318E-001;-6.845770776271820E-002;3.018394636455923E-004;-2.681346610188484E-003;
2.416833333333334E+009;1.542141884565353E-001;-7.054390013217926E-002;1.366345240967348E-004;-2.759347902610898E-003;
2.417000000000000E+009;1.532434672117233E-001;-7.231261581182480E-002;1.361056001769612E-005;-2.665806561708450E-003;
2.417166666666667E+009;1.526245325803757E-001;-7.422919571399689E-002;1.927407356561162E-005;-2.636521123349667E-003;
2.417333333333334E+009;1.519268006086350E-001;-7.601530104875565E-002;-2.780392533168197E-004;-2.522683702409267E-003;
2.417500000000000E+009;1.513385027647018E-001;-7.808902114629746E-002;-2.588781644590199E-004;-2.377079799771309E-003;
2.417666666666667E+009;1.509119570255280E-001;-7.982359826564789E-002;-3.268950677011162E-004;-2.232756931334734E-003;
2.417833333333334E+009;1.505416333675385E-001;-8.164398372173309E-002;-7.002530037425458E-004;-2.149915555492044E-003;
2.418000000000000E+009;1.500013619661331E-001;-8.355144411325455E-002;-4.691281646955758E-004;-2.006329596042633E-003;
2.418166666666667E+009;1.496592462062836E-001;-8.517725765705109E-002;-7.126049604266882E-004;-2.043983899056912E-003;
2.418333333333334E+009;1.498787105083466E-001;-8.688077330589294E-002;-7.462848443537951E-004;-1.821336802095175E-003;
2.418500000000000E+009;1.494067162275314E-001;-8.840917050838471E-002;-8.783906232565641E-004;-1.833993592299521E-003;
2.418666666666667E+009;1.495531797409058E-001;-8.998705446720123E-002;-7.615112117491663E-004;-1.855628564953804E-003;
2.418833333333334E+009;1.492340564727783E-001;-9.138958901166916E-002;-8.406931883655489E-004;-1.646387274377048E-003;
2.419000000000000E+009;1.492254287004471E-001;-9.274730086326599E-002;-9.143966017290950E-004;-1.625819946639240E-003;
2.419166666666667E+009;1.493171453475952E-001;-9.408602863550186E-002;-1.108347438275814E-003;-1.597275375388563E-003;
2.419333333333334E+009;1.492413878440857E-001;-9.494248777627945E-002;-1.031735213473439E-003;-1.573769259266555E-003;
2.419500000000000E+009;1.494773477315903E-001;-9.609629958868027E-002;-1.107559655793011E-003;-1.442300388589501E-003;
2.419666666666667E+009;1.498713344335556E-001;-9.704555571079254E-002;-1.272376626729965E-003;-1.216549193486571E-003;
2.419833333333334E+009;1.498494148254395E-001;-9.764254838228226E-002;-1.267266576178372E-003;-1.279229298233986E-003;
2.420000000000000E+009;1.502108871936798E-001;-9.840536862611771E-002;-1.204207888804376E-003;-1.075983745977283E-003;
2.420166666666667E+009;1.505523324012756E-001;-9.905786067247391E-002;-1.289525418542326E-003;-8.490744512528181E-004;
2.420333333333334E+009;1.508056670427322E-001;-9.952621161937714E-002;-1.299091498367488E-003;-8.189650252461433E-004;
2.420500000000000E+009;1.511796265840530E-001;-9.985913336277008E-002;-1.567246392369270E-003;-8.664783672429621E-004;
2.420666666666667E+009;1.513429731130600E-001;-9.994924068450928E-002;-1.343628042377532E-003;-4.665482265409082E-004;
2.420833333333334E+009;1.517268568277359E-001;-1.001905873417854E-001;-1.346820034086704E-003;-4.120822122786194E-004;
2.421000000000000E+009;1.517561823129654E-001;-1.003645211458206E-001;-1.376560656353831E-003;-2.379293437115848E-004;
2.421166666666667E+009;1.520794183015823E-001;-1.001617461442947E-001;-1.311266096308827E-003;-9.658736234996468E-005;
2.421333333333334E+009;1.522961854934692E-001;-1.002436131238937E-001;-1.260674442164600E-003;-3.770907278521918E-005;
2.421500000000000E+009;1.522603631019592E-001;-1.001722738146782E-001;-1.231608097441495E-003;2.252634658361785E-005;
2.421666666666667E+009;1.523870229721069E-001;-1.000344604253769E-001;-9.552871924825013E-004;1.020130657707341E-004;
2.421833333333334E+009;1.523495465517044E-001;-9.991668164730072E-002;-9.035700350068510E-004;3.770738840103149E-004;
2.422000000000000E+009;1.521746367216110E-001;-9.963193535804749E-002;-9.878320852294564E-004;2.199388109147549E-004;
2.422166666666667E+009;1.518679708242416E-001;-9.964276105165482E-002;-8.075708174146712E-004;5.067050806246698E-004;
2.422333333333334E+009;1.516308337450028E-001;-9.939222782850266E-002;-6.753482739441097E-004;3.291121392976493E-004;
2.422500000000000E+009;1.510420739650726E-001;-9.893924742937088E-002;-5.692766862921417E-004;3.981568443123251E-004;
2.422666666666667E+009;1.503926366567612E-001;-9.875973314046860E-002;-4.127955180592835E-004;3.851356450468302E-004;
2.422833333333334E+009;1.498296409845352E-001;-9.842486679553986E-002;-3.203481901437044E-004;3.932157997041941E-004;
2.423000000000000E+009;1.489608734846115E-001;-9.794648736715317E-002;-2.390193549217656E-004;4.821609181817621E-004;
2.423166666666667E+009;1.481982916593552E-001;-9.773824363946915E-002;-3.081025206483901E-004;5.203291075304151E-004;
2.423333333333334E+009;1.472529172897339E-001;-9.723191708326340E-002;-2.206614881288260E-004;5.443352856673300E-004;
2.423500000000000E+009;1.460965573787689E-001;-9.706255793571472E-002;-2.513644867576659E-004;5.155692342668772E-004;
2.423666666666667E+009;1.448104530572891E-001;-9.677559882402420E-002;-7.430991536239162E-005;3.855170216411352E-004;
2.423833333333334E+009;1.437240242958069E-001;-9.667039662599564E-002;-1.663691364228725E-004;3.720710228662938E-004;
2.424000000000000E+009;1.423563510179520E-001;-9.612141549587250E-002;6.241026130737737E-005;3.479087608866394E-004;
2.424166666666667E+009;1.410460770130158E-001;-9.611619263887405E-002;3.404754897928797E-005;4.101750673726201E-004;
2.424333333333334E+009;1.397024244070053E-001;-9.600181877613068E-002;9.725072595756501E-005;4.572888137772679E-004;
2.424500000000000E+009;1.382435709238052E-001;-9.600502997636795E-002;1.978814398171380E-004;3.877666022162885E-004;
2.424666666666667E+009;1.369635164737701E-001;-9.568937122821808E-002;3.499693120829761E-004;3.824699379038066E-004;
2.424833333333334E+009;1.354538947343826E-001;-9.615303575992584E-002;3.160162887070328E-004;3.351955674588680E-004;
2.425000000000000E+009;1.340880244970322E-001;-9.644258022308350E-002;5.110706551931799E-004;4.953749012202025E-004;
2.425166666666667E+009;1.324633955955505E-001;-9.684778749942780E-002;5.793280433863401E-004;2.807845012284815E-004;
2.425333333333334E+009;1.310244202613831E-001;-9.749101102352142E-002;5.356012843549252E-004;2.920595288742334E-004;
2.425500000000000E+009;1.296705603599548E-001;-9.806805849075317E-002;7.177043589763343E-004;2.598157152533531E-004;
2.425666666666667E+009;1.280315518379211E-001;-9.880588203668594E-002;4.531515587586910E-004;8.236603025579825E-005;
2.425833333333334E+009;1.266610324382782E-001;-9.974251687526703E-002;7.040326599963009E-004;1.461494593968382E-005;
2.426000000000000E+009;1.253312677145004E-001;-1.008553132414818E-001;8.847438730299473E-004;-1.041445575538091E-004;
2.426166666666667E+009;1.241979897022247E-001;-1.018674895167351E-001;7.729828357696533E-004;-1.255696261068806E-004;
2.426333333333334E+009;1.228027716279030E-001;-1.030479744076729E-001;9.145569638349116E-004;-6.646383553743362E-005;
2.426500000000000E+009;1.215760484337807E-001;-1.042336225509644E-001;1.031734631396830E-003;-2.958884288091213E-004;
2.426666666666667E+009;1.205360591411591E-001;-1.055946946144104E-001;8.739824406802654E-004;-1.034277738654055E-004;
2.426833333333334E+009;1.193596795201302E-001;-1.070513427257538E-001;9.838846744969487E-004;-2.933548821602017E-004;
2.427000000000000E+009;1.183166727423668E-001;-1.086309552192688E-001;1.048355712555349E-003;-4.902325454168022E-004;
2.427166666666667E+009;1.174271181225777E-001;-1.101490557193756E-001;1.052762498147786E-003;-4.673502407968044E-004;
2.427333333333334E+009;1.164577528834343E-001;-1.118975430727005E-001;1.001640688627958E-003;-7.668475736863911E-004;
2.427500000000000E+009;1.156942397356033E-001;-1.134838536381722E-001;1.021225121803582E-003;-7.978457142598927E-004;
2.427666666666667E+009;1.148497834801674E-001;-1.152384653687477E-001;8.752529975026846E-004;-8.064685389399529E-004;
