# Version 1.00
#
freq[Hz];re:Trc1_S11;im:Trc1_S11;re:Trc2_S21;im:Trc2_S21;
2.400000000000000E+009;1.687693446874619E-001;4.570018872618675E-002;-2.411252353340387E-003;1.126408576965332E-003;
2.400166666666667E+009;1.700431108474731E-001;4.480164498090744E-002;-2.535574836656451E-003;1.242547994479537E-003;
2.400333333333334E+009;1.709000170230866E-001;4.368516802787781E-002;-2.329134615138173E-003;1.192024792544544E-003;
2.400500000000000E+009;1.716941595077515E-001;4.267746210098267E-002;-2.325378358364105E-003;1.200224854983389E-003;
2.400666666666667E+009;1.727455407381058E-001;4.164291918277741E-002;-2.489496488124132E-003;1.366849406622350E-003;
2.400833333333334E+009;1.737109273672104E-001;4.078351706266403E-002;-2.399741439148784E-003;1.312564709223807E-003;
2.401000000000000E+009;1.745668649673462E-001;4.007010534405708E-002;-2.446581842377782E-003;1.392357866279781E-003;
2.401166666666667E+009;1.752172410488129E-001;3.938596695661545E-002;-2.490357961505652E-003;1.307931961491704E-003;
2.401333333333334E+009;1.759228855371475E-001;3.872544318437576E-002;-2.463060896843672E-003;1.528606750071049E-003;
2.401500000000000E+009;1.768075376749039E-001;3.791447356343269E-002;-2.454092260450125E-003;1.626854413188994E-003;
2.401666666666667E+009;1.773777604103088E-001;3.741096332669258E-002;-2.376409014686942E-003;1.538314041681588E-003;
2.401833333333334E+009;1.779764443635941E-001;3.688722103834152E-002;-2.248678356409073E-003;1.595723209902644E-003;
2.402000000000000E+009;1.783044040203095E-001;3.635292872786522E-002;-2.432158682495356E-003;1.569358981214464E-003;
2.402166666666667E+009;1.786497533321381E-001;3.567461669445038E-002;-2.577202860265970E-003;1.735489466227591E-003;
2.402333333333334E+009;1.790084093809128E-001;3.508299589157105E-002;-2.495504217222333E-003;1.794817042537034E-003;
2.402500000000000E+009;1.796350032091141E-001;3.444109857082367E-002;-2.558231120929122E-003;2.010866533964872E-003;
2.402666666666667E+009;1.796499937772751E-001;3.382063657045364E-002;-2.754657994955778E-003;2.114485716447234E-003;
2.402833333333334E+009;1.796528100967407E-001;3.331236913800240E-002;-2.520198700949550E-003;2.061033155769110E-003;
2.403000000000000E+009;1.797442734241486E-001;3.240767493844032E-002;-2.588875591754913E-003;2.347889356315136E-003;
2.403166666666667E+009;1.799429506063461E-001;3.159257769584656E-002;-2.628693124279380E-003;2.405300969257951E-003;
2.403333333333334E+009;1.797897517681122E-001;3.088068403303623E-002;-2.382092177867889E-003;2.528554527089000E-003;
2.403500000000000E+009;1.795809566974640E-001;3.007879294455051E-002;-2.635547425597906E-003;2.766130724921823E-003;
2.403666666666667E+009;1.792549192905426E-001;2.912650816142559E-002;-2.387732965871692E-003;2.760291798040271E-003;
2.403833333333334E+009;1.792095452547073E-001;2.804020047187805E-002;-2.366534201428294E-003;2.917874371632934E-003;
2.404000000000000E+009;1.786668598651886E-001;2.701656520366669E-002;-2.311598509550095E-003;3.028355771675706E-003;
2.404166666666667E+009;1.783336400985718E-001;2.585496380925179E-002;-2.418373012915254E-003;3.277971642091870E-003;
2.404333333333334E+009;1.778061538934708E-001;2.459209784865379E-002;-2.307392656803131E-003;3.352650208398700E-003;
2.404500000000000E+009;1.775263845920563E-001;2.329831011593342E-002;-2.068548696115613E-003;3.650941886007786E-003;
2.404666666666667E+009;1.769474446773529E-001;2.194239199161530E-002;-2.065400360152125E-003;3.948067314922810E-003;
2.404833333333334E+009;1.765131354331970E-001;2.060214430093765E-002;-1.838194788433611E-003;4.019329324364662E-003;
2.405000000000000E+009;1.761642843484879E-001;1.903376169502735E-002;-1.721123931929469E-003;4.305812064558268E-003;
2.405166666666667E+009;1.756671220064163E-001;1.738804951310158E-002;-1.518461038358510E-003;4.342303611338139E-003;
2.405333333333334E+009;1.751947999000549E-001;1.571504957973957E-002;-1.301077893003821E-003;4.557203501462936E-003;
2.405500000000000E+009;1.746814101934433E-001;1.424637623131275E-002;-1.081956666894257E-003;4.521127324551344E-003;
2.405666666666667E+009;1.743859648704529E-001;1.253038179129362E-002;-6.970461690798402E-004;4.672437440603972E-003;
2.405833333333334E+009;1.738933920860291E-001;1.064486056566238E-002;-5.049899336881936E-004;4.719305317848921E-003;
2.406000000000000E+009;1.737188994884491E-001;8.640447631478310E-003;-7.044117955956608E-005;4.780768882483244E-003;
2.406166666666667E+009;1.732923984527588E-001;7.009428460150957E-003;2.059194775938522E-005;4.754957742989063E-003;
2.406333333333334E+009;1.732210814952850E-001;4.930419847369194E-003;3.703604743350297E-004;4.755612462759018E-003;
2.406500000000000E+009;1.730496734380722E-001;2.802415285259485E-003;8.099753176793456E-004;4.737501963973045E-003;
2.406666666666667E+009;1.727268993854523E-001;9.255919721908867E-004;9.124695789068937E-004;4.731376655399799E-003;
2.406833333333334E+009;1.729067414999008E-001;-1.334775122813880E-003;1.202504266984761E-003;4.788527265191078E-003;
2.407000000000000E+009;1.728607416152954E-001;-3.421913366764784E-003;1.572377281263471E-003;4.632827825844288E-003;
2.407166666666667E+009;1.731158196926117E-001;-5.465090274810791E-003;1.800380996428430E-003;4.581132438033819E-003;
2.407333333333334E+009;1.732546538114548E-001;-7.652661297470331E-003;2.096298616379499E-003;4.496493376791477E-003;
2.407500000000000E+009;1.733600944280624E-001;-9.705376811325550E-003;2.185920951887965E-003;4.246805794537067E-003;
2.407666666666667E+009;1.737083643674851E-001;-1.175008900463581E-002;2.431998960673809E-003;4.042434040457010E-003;
2.407833333333334E+009;1.738047450780869E-001;-1.400829851627350E-002;2.607005881145597E-003;3.962141927331686E-003;
2.408000000000000E+009;1.740730702877045E-001;-1.608409918844700E-002;2.844514558091760E-003;3.640191862359643E-003;
2.408166666666667E+009;1.744836717844009E-001;-1.800195500254631E-002;3.036790294572711E-003;3.558491822332144E-003;
2.408333333333334E+009;1.749380379915237E-001;-2.009493298828602E-002;3.255818737670779E-003;3.284762613475323E-003;
2.408500000000000E+009;1.752615422010422E-001;-2.205005101859570E-002;3.372966079041362E-003;2.935715485364199E-003;
2.408666666666667E+009;1.756792515516281E-001;-2.392512001097202E-002;3.412508405745029E-003;2.790800062939525E-003;
2.408833333333334E+009;1.758878976106644E-001;-2.565594390034676E-002;3.463475964963436E-003;2.448254497721791E-003;
2.409000000000000E+009;1.762714385986328E-001;-2.732399664819241E-002;3.477575257420540E-003;2.383155981078744E-003;
2.409166666666667E+009;1.767886877059937E-001;-2.906615100800991E-002;3.540470497682691E-003;2.299713203683496E-003;
2.409333333333334E+009;1.773908287286758E-001;-3.037619218230248E-002;3.527527209371328E-003;1.813838840462267E-003;
2.409500000000000E+009;1.773628741502762E-001;-3.190791979432106E-002;3.539589699357748E-003;1.887068036012352E-003;
2.409666666666667E+009;1.778924614191055E-001;-3.291874006390572E-002;3.567649284377694E-003;1.627864316105843E-003;
2.409833333333334E+009;1.782075613737106E-001;-3.398289531469345E-002;3.637470304965973E-003;1.572372973896563E-003;
2.410000000000000E+009;1.788390427827835E-001;-3.499261662364006E-002;3.619470167905092E-003;1.376135740429163E-003;
2.410166666666667E+009;1.791588664054871E-001;-3.585271909832954E-002;3.582546487450600E-003;1.336212386377156E-003;
2.410333333333334E+009;1.796616613864899E-001;-3.671906515955925E-002;3.596225986257196E-003;9.575934964232147E-004;
2.410500000000000E+009;1.800466626882553E-001;-3.750833868980408E-002;3.551804460585117E-003;8.722619968466461E-004;
2.410666666666667E+009;1.803970336914063E-001;-3.825372084975243E-002;3.546159248799086E-003;7.665730081498623E-004;
2.410833333333334E+009;1.807228177785873E-001;-3.871383517980576E-002;3.495362820103765E-003;5.843297112733126E-004;
2.411000000000000E+009;1.811597347259522E-001;-3.931547701358795E-002;3.542913356795907E-003;5.213868571445346E-004;
2.411166666666667E+009;1.811903864145279E-001;-3.985470905900002E-002;3.459481289610267E-003;4.447139799594879E-004;
2.411333333333334E+009;1.816766262054443E-001;-4.022984951734543E-002;3.613836597651243E-003;3.180046915076673E-004;
2.411500000000000E+009;1.815986335277557E-001;-4.090314731001854E-002;3.432173049077392E-003;2.847166906576604E-004;
2.411666666666667E+009;1.817579567432404E-001;-4.121496155858040E-002;3.506778739392757E-003;8.240645547630265E-005;
2.411833333333334E+009;1.815431565046310E-001;-4.147326573729515E-002;3.562432015314698E-003;-1.466153935325565E-005;
2.412000000000000E+009;1.814277768135071E-001;-4.208549112081528E-002;3.493068972602487E-003;-1.469921407988295E-004;
2.412166666666667E+009;1.811315864324570E-001;-4.234918951988220E-002;3.411605721339583E-003;-2.681804762687534E-004;
2.412333333333334E+009;1.808532178401947E-001;-4.254415258765221E-002;3.422924783080816E-003;-4.049041017424315E-004;
2.412500000000000E+009;1.803168952465057E-001;-4.305915907025337E-002;3.523345338180661E-003;-7.758232532069087E-004;
2.412666666666667E+009;1.799164265394211E-001;-4.345719888806343E-002;3.543895203620195E-003;-8.027752628549933E-004;
2.412833333333334E+009;1.793383359909058E-001;-4.379284009337425E-002;3.361557610332966E-003;-9.092559339478612E-004;
2.413000000000000E+009;1.785380691289902E-001;-4.407932609319687E-002;3.526649903506041E-003;-1.181734027341008E-003;
2.413166666666667E+009;1.777568608522415E-001;-4.450685903429985E-002;3.351935651153326E-003;-1.291640452109277E-003;
2.413333333333334E+009;1.766866445541382E-001;-4.492692276835442E-002;3.214524593204260E-003;-1.545633538626134E-003;
2.413500000000000E+009;1.759590953588486E-001;-4.545819759368897E-002;3.118305234238505E-003;-1.779092242941260E-003;
2.413666666666667E+009;1.749325841665268E-001;-4.611655697226524E-002;3.033067565411329E-003;-1.789227942936122E-003;
2.413833333333334E+009;1.737768054008484E-001;-4.656048491597176E-002;2.884661313146353E-003;-1.976876286789775E-003;
2.414000000000000E+009;1.726941764354706E-001;-4.732216522097588E-002;2.751019550487399E-003;-2.016679616644979E-003;
2.414166666666667E+009;1.715704351663590E-001;-4.787882789969444E-002;2.602754859253764E-003;-2.118525095283985E-003;
2.414333333333334E+009;1.704610735177994E-001;-4.876816645264626E-002;2.461618743836880E-003;-2.253148471936584E-003;
2.414500000000000E+009;1.693319380283356E-001;-4.949790984392166E-002;2.400175901129842E-003;-2.364952815696597E-003;
2.414666666666667E+009;1.680013090372086E-001;-5.045687407255173E-002;2.272100653499365E-003;-2.547127660363913E-003;
2.414833333333334E+009;1.668269038200378E-001;-5.163734406232834E-002;2.158151008188725E-003;-2.601097570732236E-003;
2.415000000000000E+009;1.655654907226563E-001;-5.271598696708679E-002;1.963156741112471E-003;-2.654372015967965E-003;
2.415166666666667E+009;1.644367128610611E-001;-5.396743491292000E-002;1.796272699721158E-003;-2.610203810036182E-003;
2.415333333333334E+009;1.633193939924240E-001;-5.530587583780289E-002;1.630199025385082E-003;-2.730054082348943E-003;
2.415500000000000E+009;1.620965003967285E-001;-5.669178068637848E-002;1.296274014748633E-003;-2.742725191637874E-003;
2.415666666666667E+009;1.609921455383301E-001;-5.808143690228462E-002;1.202956656925380E-003;-2.893796656280756E-003;
2.415833333333334E+009;1.599448919296265E-001;-5.965897068381310E-002;1.057950779795647E-003;-2.903422806411982E-003;
2.416000000000000E+009;1.587545871734619E-001;-6.128382310271263E-002;8.889765013009310E-004;-2.853584242984653E-003;
2.416166666666667E+009;1.578902304172516E-001;-6.309369951486588E-002;8.365687099285424E-004;-2.776789246127009E-003;
2.416333333333334E+009;1.567807048559189E-001;-6.468120217323303E-002;4.593732010107487E-004;-2.698540454730392E-003;
2.416500000000000E+009;1.558810323476791E-001;-6.651834398508072E-002;3.210241557098925E-004;-2.835529157891870E-003;
2.416666666666667E+009;1.549048125743866E-001;-6.842099875211716E-002;7.130816084099934E-005;-2.633264521136880E-003;
2.416833333333334E+009;1.543140113353729E-001;-7.048236578702927E-002;1.194024371216074E-004;-2.619220409542322E-003;
2.417000000000000E+009;1.533490717411041E-001;-7.238212972879410E-002;-2.557849220465869E-004;-2.520853653550148E-003;
2.417166666666667E+009;1.525343954563141E-001;-7.418365776538849E-002;-3.529204404912889E-004;-2.490009414032102E-003;
2.417333333333334E+009;1.520028710365295E-001;-7.605454325675964E-002;-3.384761221241206E-004;-2.291135489940643E-003;
2.417500000000000E+009;1.514022648334503E-001;-7.810557633638382E-002;-4.575673956423998E-004;-2.331561408936977E-003;
2.417666666666667E+009;1.509954184293747E-001;-7.979782670736313E-002;-4.807495279237628E-004;-2.348974812775850E-003;
2.417833333333334E+009;1.505879461765289E-001;-8.172906935214996E-002;-5.873859627172351E-004;-2.085446845740080E-003;
2.418000000000000E+009;1.500130444765091E-001;-8.358713984489441E-002;-5.469656316563487E-004;-1.889242092147470E-003;
2.418166666666667E+009;1.497586071491242E-001;-8.516965061426163E-002;-6.966692162677646E-004;-2.055464079603553E-003;
2.418333333333334E+009;1.497743278741837E-001;-8.687290549278259E-002;-8.052843040786684E-004;-1.879941322840750E-003;
2.418500000000000E+009;1.494778543710709E-001;-8.850210905075073E-002;-9.006586042232812E-004;-1.844073762185872E-003;
2.418666666666667E+009;1.495509743690491E-001;-9.006414562463760E-002;-8.700738544575870E-004;-1.698247739113867E-003;
2.418833333333334E+009;1.491818726062775E-001;-9.154680371284485E-002;-8.384070824831724E-004;-1.691526733338833E-003;
2.419000000000000E+009;1.492428034543991E-001;-9.275783598423004E-002;-8.955374360084534E-004;-1.492314157076180E-003;
2.419166666666667E+009;1.494322717189789E-001;-9.404061734676361E-002;-1.027484540827572E-003;-1.641078153625131E-003;
2.419333333333334E+009;1.493694484233856E-001;-9.497019648551941E-002;-1.001092488877475E-003;-1.468799891881645E-003;
2.419500000000000E+009;1.495238095521927E-001;-9.624943882226944E-002;-1.290590967983007E-003;-1.372191356495023E-003;
2.419666666666667E+009;1.497976034879684E-001;-9.701655805110931E-002;-1.181451370939612E-003;-1.218904275447130E-003;
2.419833333333334E+009;1.498728394508362E-001;-9.764332324266434E-002;-1.206486718729138E-003;-1.224645762704313E-003;
2.420000000000000E+009;1.502322852611542E-001;-9.849476814270020E-002;-1.321493880823255E-003;-1.074021449312568E-003;
2.420166666666667E+009;1.505575776100159E-001;-9.915555268526077E-002;-1.274536130949855E-003;-8.852441096678376E-004;
2.420333333333334E+009;1.507348865270615E-001;-9.948305040597916E-002;-1.437719445675612E-003;-7.656884263269603E-004;
2.420500000000000E+009;1.511368751525879E-001;-9.958130121231079E-002;-1.451410353183746E-003;-5.450227181427181E-004;
2.420666666666667E+009;1.514598131179810E-001;-9.988468140363693E-002;-1.390815246850252E-003;-4.527924756985158E-004;
2.420833333333334E+009;1.517707407474518E-001;-1.002869084477425E-001;-1.455608871765435E-003;-3.223810635972768E-004;
2.421000000000000E+009;1.517836600542069E-001;-1.004688665270805E-001;-1.423927373252809E-003;-1.839308970374987E-004;
2.421166666666667E+009;1.521493792533875E-001;-1.003267318010330E-001;-1.247367821633816E-003;-1.574964844621718E-004;
2.421333333333334E+009;1.523785591125488E-001;-1.003078445792198E-001;-1.368829980492592E-003;2.436628419673070E-004;
2.421500000000000E+009;1.522660255432129E-001;-1.000850051641464E-001;-1.189010217785835E-003;8.526265446562320E-005;
2.421666666666667E+009;1.524343639612198E-001;-1.001558601856232E-001;-1.067725825123489E-003;1.740084408083931E-004;
2.421833333333334E+009;1.522140949964523E-001;-9.994847327470779E-002;-9.385901503264904E-004;4.047801194246858E-004;
2.422000000000000E+009;1.522952169179916E-001;-9.961448609828949E-002;-8.339164196513593E-004;2.627524372655898E-004;
2.422166666666667E+009;1.519071459770203E-001;-9.951239079236984E-002;-7.872142014093697E-004;4.039760679006577E-004;
2.422333333333334E+009;1.515924036502838E-001;-9.917651861906052E-002;-5.606130580417812E-004;3.612236760091037E-004;
2.422500000000000E+009;1.510894149541855E-001;-9.893648326396942E-002;-6.143277860246599E-004;5.114263622090221E-004;
2.422666666666667E+009;1.503813266754150E-001;-9.852592647075653E-002;-5.806787521578372E-004;4.595373757183552E-004;
2.422833333333334E+009;1.498176008462906E-001;-9.842499345541000E-002;-3.831493668258190E-004;4.375777789391577E-004;
2.423000000000000E+009;1.489737182855606E-001;-9.805626422166824E-002;-2.093997754855081E-004;4.263586015440524E-004;
2.423166666666667E+009;1.482793986797333E-001;-9.766831248998642E-002;-2.342722000321373E-004;3.495158453006297E-004;
2.423333333333334E+009;1.472574621438980E-001;-9.715275466442108E-002;-2.236049913335592E-004;4.661149287130684E-004;
2.423500000000000E+009;1.460066735744476E-001;-9.695129841566086E-002;-1.779462036211044E-004;4.500469949562103E-004;
2.423666666666667E+009;1.447327733039856E-001;-9.658373892307282E-002;-1.321589807048440E-004;4.305329348426312E-004;
2.423833333333334E+009;1.436723172664642E-001;-9.657862037420273E-002;-2.021613545366563E-005;4.631487245205790E-004;
2.424000000000000E+009;1.423517465591431E-001;-9.607727825641632E-002;8.921353582991287E-005;5.018382798880339E-004;
2.424166666666667E+009;1.409874111413956E-001;-9.608536213636398E-002;1.148293595178984E-004;5.344000528566539E-004;
2.424333333333334E+009;1.396541297435761E-001;-9.581474959850311E-002;5.630098894471303E-005;3.698607615660876E-004;
2.424500000000000E+009;1.383007615804672E-001;-9.603840112686157E-002;1.457386242691428E-004;3.259576333221048E-004;
2.424666666666667E+009;1.369941383600235E-001;-9.589956700801849E-002;2.661934995558113E-004;3.047118952963501E-004;
2.424833333333334E+009;1.353692561388016E-001;-9.621284157037735E-002;3.984053619205952E-004;3.253063478041440E-004;
2.425000000000000E+009;1.341265290975571E-001;-9.655389189720154E-002;4.252486687619239E-004;3.383350849617273E-004;
2.425166666666667E+009;1.324366480112076E-001;-9.683620929718018E-002;4.875502490904182E-004;2.122338337358087E-004;
2.425333333333334E+009;1.310755014419556E-001;-9.733845293521881E-002;5.297978059388697E-004;3.038533322978765E-004;
2.425500000000000E+009;1.296634376049042E-001;-9.808284789323807E-002;6.716549396514893E-004;2.054005017271265E-004;
2.425666666666667E+009;1.281132102012634E-001;-9.883107244968414E-002;7.592551410198212E-004;1.544754049973562E-004;
2.425833333333334E+009;1.268233805894852E-001;-9.968813508749008E-002;7.187993614934385E-004;1.651380080147646E-005;
2.426000000000000E+009;1.253298372030258E-001;-1.007432714104652E-001;7.835989235900343E-004;8.102596439130139E-006;
2.426166666666667E+009;1.241398081183434E-001;-1.018724441528320E-001;7.999503868632019E-004;-2.134864625986666E-004;
2.426333333333334E+009;1.228344663977623E-001;-1.030563712120056E-001;7.773061515763402E-004;-1.717680279398337E-004;
2.426500000000000E+009;1.216115429997444E-001;-1.042824089527130E-001;9.083788027055562E-004;-2.419752709101886E-004;
2.426666666666667E+009;1.205036714673042E-001;-1.055151745676994E-001;9.753599297255278E-004;-3.415222454350442E-004;
2.426833333333334E+009;1.194085404276848E-001;-1.070862635970116E-001;1.037043752148747E-003;-3.316308138892055E-004;
2.427000000000000E+009;1.182716265320778E-001;-1.088680475950241E-001;9.154690196737647E-004;-6.085523637011647E-004;
2.427166666666667E+009;1.173159107565880E-001;-1.101615354418755E-001;1.039024093188345E-003;-6.324322312138975E-004;
2.427333333333334E+009;1.163942217826843E-001;-1.118637025356293E-001;9.584418730810285E-004;-7.037172326818109E-004;
2.427500000000000E+009;1.157002896070480E-001;-1.135955825448036E-001;9.568904060870409E-004;-8.422166574746370E-004;
2.427666666666667E+009;1.149526759982109E-001;-1.153633370995522E-001;9.241632651537657E-004;-9.117654408328235E-004;
