# Version 1.00
#
freq[Hz];re:Trc1_S11;im:Trc1_S11;re:Trc2_S21;im:Trc2_S21;
2.400000000000000E+009;1.689562946557999E-001;4.563002288341522E-002;-2.216865541413426E-003;1.131113269366324E-003;
2.400166666666667E+009;1.700009852647781E-001;4.474054276943207E-002;-2.215604763478041E-003;1.311481813900173E-003;
2.400333333333334E+009;1.709415018558502E-001;4.355389997363091E-002;-2.313182456418872E-003;1.182335778139532E-003;
2.400500000000000E+009;1.718941330909729E-001;4.254601150751114E-002;-2.261415123939514E-003;1.128347008489072E-003;
2.400666666666667E+009;1.726399809122086E-001;4.151884466409683E-002;-2.125753089785576E-003;1.200406113639474E-003;
2.400833333333334E+009;1.735254824161530E-001;4.095564782619476E-002;-2.180926967412233E-003;1.240590470843017E-003;
2.401000000000000E+009;1.744579672813416E-001;4.012075439095497E-002;-2.358734374865890E-003;1.311945263296366E-003;
2.401166666666667E+009;1.752794682979584E-001;3.915115445852280E-002;-2.230458427220583E-003;1.517978846095502E-003;
2.401333333333334E+009;1.759122759103775E-001;3.850527480244637E-002;-2.367637353017926E-003;1.559410244226456E-003;
2.401500000000000E+009;1.766396909952164E-001;3.799668326973915E-002;-2.188974991440773E-003;1.635027700103819E-003;
2.401666666666667E+009;1.772816330194473E-001;3.754331171512604E-002;-2.433191053569317E-003;1.449992298148572E-003;
2.401833333333334E+009;1.776635199785233E-001;3.676045686006546E-002;-2.502388786524534E-003;1.335825887508690E-003;
2.402000000000000E+009;1.782632023096085E-001;3.629572689533234E-002;-2.399498596787453E-003;1.549074193462730E-003;
2.402166666666667E+009;1.786924898624420E-001;3.551930561661720E-002;-2.409320091828704E-003;1.750669674947858E-003;
2.402333333333334E+009;1.789390146732330E-001;3.490161895751953E-002;-2.390495035797358E-003;1.855281763710082E-003;
2.402500000000000E+009;1.794207394123077E-001;3.426950052380562E-002;-2.408875618129969E-003;1.943242968991399E-003;
2.402666666666667E+009;1.793753355741501E-001;3.374526649713516E-002;-2.598348306491971E-003;1.946168136782944E-003;
2.402833333333334E+009;1.798028945922852E-001;3.311628103256226E-002;-2.603222848847508E-003;2.107691951096058E-003;
2.403000000000000E+009;1.797467917203903E-001;3.253686800599098E-002;-2.512382576242089E-003;2.226077485829592E-003;
2.403166666666667E+009;1.799221038818359E-001;3.174800798296928E-002;-2.496122149750590E-003;2.170265885069966E-003;
2.403333333333334E+009;1.797826737165451E-001;3.072399832308292E-002;-2.564469352364540E-003;2.609774935990572E-003;
2.403500000000000E+009;1.795188039541245E-001;2.998582273721695E-002;-2.425004029646516E-003;2.831876976415515E-003;
2.403666666666667E+009;1.793239116668701E-001;2.898413874208927E-002;-2.384529914706945E-003;2.981101861223579E-003;
2.403833333333334E+009;1.791224032640457E-001;2.804453484714031E-002;-2.284031361341476E-003;3.074206179007888E-003;
2.404000000000000E+009;1.787479966878891E-001;2.701320685446262E-002;-2.408022526651621E-003;3.253706963732839E-003;
2.404166666666667E+009;1.783859282732010E-001;2.562614902853966E-002;-2.314507961273193E-003;3.308506216853857E-003;
2.404333333333334E+009;1.779264658689499E-001;2.459539473056793E-002;-2.260403241962194E-003;3.588732564821839E-003;
2.404500000000000E+009;1.773200631141663E-001;2.334224432706833E-002;-2.110899891704321E-003;3.777619451284409E-003;
2.404666666666667E+009;1.769930720329285E-001;2.178683504462242E-002;-1.898937975056469E-003;3.851706627756357E-003;
2.404833333333334E+009;1.764461845159531E-001;2.042805776000023E-002;-1.843171310611069E-003;4.130749031901360E-003;
2.405000000000000E+009;1.761155277490616E-001;1.894111372530460E-002;-1.486051245592535E-003;4.170245956629515E-003;
2.405166666666667E+009;1.754901856184006E-001;1.746505871415138E-002;-1.316912239417434E-003;4.374389071017504E-003;
2.405333333333334E+009;1.752126365900040E-001;1.568060927093029E-002;-1.147544709965587E-003;4.339838866144419E-003;
2.405500000000000E+009;1.747335344552994E-001;1.400339510291815E-002;-9.254391770809889E-004;4.637517500668764E-003;
2.405666666666667E+009;1.744150817394257E-001;1.242430135607719E-002;-6.547754746861756E-004;4.695077892392874E-003;
2.405833333333334E+009;1.738601922988892E-001;1.070775650441647E-002;-4.659688274841756E-004;4.878541920334101E-003;
2.406000000000000E+009;1.736870110034943E-001;8.685791864991188E-003;-1.298421266255900E-004;4.805810283869505E-003;
2.406166666666667E+009;1.731844991445541E-001;6.870779674500227E-003;1.169403767562471E-004;4.881293047219515E-003;
2.406333333333334E+009;1.732472330331802E-001;4.901894833892584E-003;2.929071488324553E-004;4.856535699218512E-003;
2.406500000000000E+009;1.730446666479111E-001;2.838068176060915E-003;6.647824775427580E-004;4.778794478625059E-003;
2.406666666666667E+009;1.727944910526276E-001;7.903047953732312E-004;9.057450806722045E-004;4.822270013391972E-003;
2.406833333333334E+009;1.728802621364594E-001;-1.175281824544072E-003;1.242255093529820E-003;4.888589493930340E-003;
2.407000000000000E+009;1.728876978158951E-001;-3.460936713963747E-003;1.429275842383504E-003;4.645809996873140E-003;
2.407166666666667E+009;1.730839014053345E-001;-5.445154849439859E-003;1.767551177181304E-003;4.546149633824825E-003;
2.407333333333334E+009;1.730951219797134E-001;-7.631496526300907E-003;1.978107728064060E-003;4.448727704584599E-003;
2.407500000000000E+009;1.732944548130035E-001;-9.733443148434162E-003;2.304571680724621E-003;4.336462356150150E-003;
2.407666666666667E+009;1.735743582248688E-001;-1.177927199751139E-002;2.426179358735681E-003;4.110326059162617E-003;
2.407833333333334E+009;1.738572567701340E-001;-1.398064475506544E-002;2.631689887493849E-003;3.788384608924389E-003;
2.408000000000000E+009;1.741624623537064E-001;-1.614816486835480E-002;2.787024248391390E-003;3.774471115320921E-003;
2.408166666666667E+009;1.745425015687943E-001;-1.793345250189304E-002;3.036456415429711E-003;3.491353942081332E-003;
2.408333333333334E+009;1.751284152269363E-001;-2.006863616406918E-002;3.277543699368835E-003;3.225914668291807E-003;
2.408500000000000E+009;1.753334403038025E-001;-2.206685766577721E-002;3.271361114457250E-003;3.044636221602559E-003;
2.408666666666667E+009;1.755582243204117E-001;-2.402285672724247E-002;3.346344456076622E-003;2.836018102243543E-003;
2.408833333333334E+009;1.758584082126617E-001;-2.572319656610489E-002;3.405158640816808E-003;2.702830359339714E-003;
2.409000000000000E+009;1.762844622135162E-001;-2.747650444507599E-002;3.459092462435365E-003;2.507360186427832E-003;
2.409166666666667E+009;1.768152862787247E-001;-2.896469086408615E-002;3.660708898678422E-003;2.209427999332547E-003;
2.409333333333334E+009;1.771302819252014E-001;-3.038806095719338E-002;3.464170731604099E-003;1.944495830684900E-003;
2.409500000000000E+009;1.774563938379288E-001;-3.180094063282013E-002;3.618586109951139E-003;1.742596505209804E-003;
2.409666666666667E+009;1.778475046157837E-001;-3.308588638901711E-002;3.490124829113483E-003;1.588312792591751E-003;
2.409833333333334E+009;1.782667040824890E-001;-3.390873968601227E-002;3.608293132856488E-003;1.356972032226622E-003;
2.410000000000000E+009;1.788282394409180E-001;-3.493378311395645E-002;3.498397069051862E-003;1.301158335991204E-003;
2.410166666666667E+009;1.792066991329193E-001;-3.585456311702728E-002;3.572812303900719E-003;1.156292622908950E-003;
2.410333333333334E+009;1.795583963394165E-001;-3.654991835355759E-002;3.622156102210283E-003;8.287030505016446E-004;
2.410500000000000E+009;1.800629198551178E-001;-3.765644878149033E-002;3.579292679205537E-003;8.645991329103708E-004;
2.410666666666667E+009;1.804368346929550E-001;-3.835869953036308E-002;3.543343627825379E-003;7.084496319293976E-004;
2.410833333333334E+009;1.808423995971680E-001;-3.871016576886177E-002;3.358081215992570E-003;6.238453206606209E-004;
2.411000000000000E+009;1.812503039836884E-001;-3.927124291658402E-002;3.561363788321614E-003;6.636221078224480E-004;
2.411166666666667E+009;1.813504844903946E-001;-3.996016830205917E-002;3.549952292814851E-003;3.646286786533892E-004;
2.411333333333334E+009;1.815216094255447E-001;-4.029846563935280E-002;3.419662592932582E-003;1.676098618190736E-004;
2.411500000000000E+009;1.815753877162933E-001;-4.085991159081459E-002;3.412193851545453E-003;2.401368838036433E-004;
2.411666666666667E+009;1.817804276943207E-001;-4.136037081480026E-002;3.389056771993637E-003;1.507530851085903E-005;
2.411833333333334E+009;1.815616935491562E-001;-4.135432839393616E-002;3.437418723478913E-003;-5.529575719265267E-005;
2.412000000000000E+009;1.814519912004471E-001;-4.184824600815773E-002;3.423558548092842E-003;-1.346371482213726E-005;
2.412166666666667E+009;1.812440305948257E-001;-4.246964305639267E-002;3.505922621116042E-003;-2.504598523955792E-004;
2.412333333333334E+009;1.810136437416077E-001;-4.269086569547653E-002;3.377815475687385E-003;-3.722027759067714E-004;
2.412500000000000E+009;1.804493516683579E-001;-4.303500801324844E-002;3.392099402844906E-003;-5.157651612535119E-004;
2.412666666666667E+009;1.799050569534302E-001;-4.330851510167122E-002;3.461915068328381E-003;-7.275981479324400E-004;
2.412833333333334E+009;1.793033927679062E-001;-4.365134611725807E-002;3.309907391667366E-003;-8.290982223115861E-004;
2.413000000000000E+009;1.784657835960388E-001;-4.413491114974022E-002;3.385631134733558E-003;-1.073495252057910E-003;
2.413166666666667E+009;1.777021288871765E-001;-4.456000775098801E-002;3.371705766767263E-003;-1.325528370216489E-003;
2.413333333333334E+009;1.768040508031845E-001;-4.496122896671295E-002;3.210994647815824E-003;-1.463698572479188E-003;
2.413500000000000E+009;1.757320165634155E-001;-4.541717469692230E-002;3.320758929476142E-003;-1.478268299251795E-003;
2.413666666666667E+009;1.750681847333908E-001;-4.607393220067024E-002;3.038630122318864E-003;-1.636233879253268E-003;
2.413833333333334E+009;1.737383008003235E-001;-4.651829227805138E-002;2.932736882939935E-003;-1.855466514825821E-003;
2.414000000000000E+009;1.725423932075501E-001;-4.720991104841232E-002;2.972928807139397E-003;-2.065775217488408E-003;
2.414166666666667E+009;1.715196371078491E-001;-4.791735857725143E-002;2.675142604857683E-003;-2.007768955081701E-003;
2.414333333333334E+009;1.703713089227676E-001;-4.877692088484764E-002;2.476472640410066E-003;-2.220979193225503E-003;
2.414500000000000E+009;1.693267673254013E-001;-4.958987981081009E-002;2.389206551015377E-003;-2.372080693021417E-003;
2.414666666666667E+009;1.680416464805603E-001;-5.038864165544510E-002;2.302451990544796E-003;-2.480609575286508E-003;
2.414833333333334E+009;1.667206287384033E-001;-5.151870846748352E-002;2.085887128487229E-003;-2.510216087102890E-003;
2.415000000000000E+009;1.655695438385010E-001;-5.267326161265373E-002;1.810856978408992E-003;-2.642634091898799E-003;
2.415166666666667E+009;1.643706709146500E-001;-5.400042980909348E-002;1.751858624629676E-003;-2.602580469101667E-003;
2.415333333333334E+009;1.633181869983673E-001;-5.531628057360649E-002;1.492715789936483E-003;-2.483015647158027E-003;
2.415500000000000E+009;1.621977239847183E-001;-5.664962530136108E-002;1.392950303852558E-003;-2.733902074396610E-003;
2.415666666666667E+009;1.609617769718170E-001;-5.807512253522873E-002;1.286263228394091E-003;-2.763704862445593E-003;
2.415833333333334E+009;1.599448323249817E-001;-5.961284041404724E-002;1.124837086535990E-003;-2.758458023890853E-003;
2.416000000000000E+009;1.587052941322327E-001;-6.129067391157150E-002;1.162854256108403E-003;-2.666708314791322E-003;
2.416166666666667E+009;1.578813940286636E-001;-6.310278177261353E-002;7.692481740377843E-004;-2.805046737194061E-003;
2.416333333333334E+009;1.568486690521240E-001;-6.477818638086319E-002;7.025345112197101E-004;-2.655063290148974E-003;
2.416500000000000E+009;1.559145152568817E-001;-6.663651019334793E-002;6.003729649819434E-004;-2.615331904962659E-003;
2.416666666666667E+009;1.548574566841126E-001;-6.837967783212662E-002;3.137315216008574E-004;-2.569315023720264E-003;
2.416833333333334E+009;1.541778147220612E-001;-7.039807736873627E-002;1.538751239422709E-004;-2.623241860419512E-003;
2.417000000000000E+009;1.532959342002869E-001;-7.236363738775253E-002;-1.117155698011629E-004;-2.518312772735953E-003;
2.417166666666667E+009;1.527151167392731E-001;-7.411001622676849E-002;-3.977654341724701E-005;-2.624954795464873E-003;
2.417333333333334E+009;1.520043462514877E-001;-7.594820857048035E-002;-2.750739222392440E-004;-2.582796616479754E-003;
2.417500000000000E+009;1.513351500034332E-001;-7.819758355617523E-002;-4.219928523525596E-004;-2.200198359787464E-003;
2.417666666666667E+009;1.509896814823151E-001;-7.991576194763184E-002;-4.009131516795605E-004;-2.327123424038291E-003;
2.417833333333334E+009;1.504253596067429E-001;-8.168832957744598E-002;-5.110181518830359E-004;-2.111977664753795E-003;
2.418000000000000E+009;1.501039564609528E-001;-8.354280889034271E-002;-6.112891132943332E-004;-2.010566880926490E-003;
2.418166666666667E+009;1.497522443532944E-001;-8.516374230384827E-002;-7.983216200955212E-004;-1.938858185894787E-003;
2.418333333333334E+009;1.498421281576157E-001;-8.695355057716370E-002;-8.298615575768054E-004;-1.958022359758616E-003;
2.418500000000000E+009;1.493660509586334E-001;-8.841198682785034E-002;-8.581773145124316E-004;-1.800572965294123E-003;
2.418666666666667E+009;1.495217382907867E-001;-9.003689140081406E-002;-9.111146791838110E-004;-1.664915936999023E-003;
2.418833333333334E+009;1.492520272731781E-001;-9.149308502674103E-002;-9.154418949037790E-004;-1.521007157862186E-003;
2.419000000000000E+009;1.492661386728287E-001;-9.271958470344544E-002;-1.097741536796093E-003;-1.529081491753459E-003;
2.419166666666667E+009;1.494202762842178E-001;-9.395969659090042E-002;-9.738966473378241E-004;-1.435303129255772E-003;
2.419333333333334E+009;1.493827402591705E-001;-9.493862837553024E-002;-1.182911102660000E-003;-1.394808292388916E-003;
2.419500000000000E+009;1.495663225650787E-001;-9.606871753931046E-002;-1.211315509863198E-003;-1.293537090532482E-003;
2.419666666666667E+009;1.498959660530090E-001;-9.698727726936340E-002;-1.220281119458377E-003;-1.134964055381715E-003;
2.419833333333334E+009;1.499195247888565E-001;-9.775374084711075E-002;-1.243312493897975E-003;-1.159332459792495E-003;
2.420000000000000E+009;1.502725183963776E-001;-9.848850965499878E-002;-1.195864169858396E-003;-9.434943785890937E-004;
2.420166666666667E+009;1.505569964647293E-001;-9.902717918157578E-002;-1.346945413388312E-003;-8.791974978521466E-004;
2.420333333333334E+009;1.506924331188202E-001;-9.941475838422775E-002;-1.333862892352045E-003;-7.109576836228371E-004;
2.420500000000000E+009;1.511803418397903E-001;-9.969764202833176E-002;-1.325331279076636E-003;-4.609330790117383E-004;
2.420666666666667E+009;1.514239311218262E-001;-9.990567713975906E-002;-1.497824327088893E-003;-5.226448993198574E-004;
2.420833333333334E+009;1.515870243310928E-001;-1.002136170864105E-001;-1.452655997127295E-003;-2.497251552995294E-004;
2.421000000000000E+009;1.518351733684540E-001;-1.003624722361565E-001;-1.380330184474587E-003;-3.773504795390181E-005;
2.421166666666667E+009;1.520958989858627E-001;-1.002166941761971E-001;-1.449406147003174E-003;-9.209142262989190E-006;
2.421333333333334E+009;1.523662060499191E-001;-1.003609746694565E-001;-1.144226640462875E-003;5.984116432955489E-005;
2.421500000000000E+009;1.523551344871521E-001;-1.002481728792191E-001;-1.298788003623486E-003;2.282715722685680E-004;
2.421666666666667E+009;1.523245871067047E-001;-1.002437546849251E-001;-1.072767423465848E-003;3.581852070055902E-004;
2.421833333333334E+009;1.524719297885895E-001;-9.986321628093720E-002;-9.574376163072884E-004;2.442447294015437E-004;
2.422000000000000E+009;1.520580649375916E-001;-9.973654150962830E-002;-1.008983934298158E-003;4.647507448680699E-004;
2.422166666666667E+009;1.518892049789429E-001;-9.959567338228226E-002;-8.738293545320630E-004;5.381906521506608E-004;
2.422333333333334E+009;1.515325754880905E-001;-9.920160472393036E-002;-8.234399720095098E-004;6.495958659797907E-004;
2.422500000000000E+009;1.510869264602661E-001;-9.893218427896500E-002;-5.984407616779208E-004;4.425550869200379E-004;
2.422666666666667E+009;1.504143774509430E-001;-9.856056421995163E-002;-6.492029642686248E-004;4.880047636106610E-004;
2.422833333333334E+009;1.498690545558929E-001;-9.853603690862656E-002;-4.504855314735323E-004;5.123421433381736E-004;
2.423000000000000E+009;1.491108834743500E-001;-9.801933169364929E-002;-3.092817496508360E-004;4.949486465193331E-004;
2.423166666666667E+009;1.480177938938141E-001;-9.774259477853775E-002;-3.770010662265122E-004;4.917539190500975E-004;
2.423333333333334E+009;1.471708118915558E-001;-9.736399352550507E-002;-3.079031594097614E-004;6.206083344295621E-004;
2.423500000000000E+009;1.460438668727875E-001;-9.695025533437729E-002;-2.213163388660178E-004;4.768208309542388E-004;
2.423666666666667E+009;1.448142379522324E-001;-9.681119024753571E-002;-1.051519502652809E-004;5.280714249238372E-004;
2.423833333333334E+009;1.437877267599106E-001;-9.662213921546936E-002;5.781255094916560E-005;4.126973508391529E-004;
2.424000000000000E+009;1.423334628343582E-001;-9.619115293025971E-002;1.313722168561071E-004;4.267444601282477E-004;
2.424166666666667E+009;1.409746110439301E-001;-9.603396803140640E-002;9.752938058227301E-005;5.539003759622574E-004;
2.424333333333334E+009;1.397138535976410E-001;-9.591016918420792E-002;1.527501444797963E-004;6.218573544174433E-004;
2.424500000000000E+009;1.382756680250168E-001;-9.595663845539093E-002;1.820303004933521E-004;4.888772382400930E-004;
2.424666666666667E+009;1.370595991611481E-001;-9.603705257177353E-002;1.330938684986904E-004;4.980588564649224E-004;
2.424833333333334E+009;1.354921311140060E-001;-9.618496149778366E-002;3.743310808204114E-004;3.163664077874273E-004;
2.425000000000000E+009;1.340377926826477E-001;-9.655223041772842E-002;3.727454750332981E-004;4.199845425318927E-004;
2.425166666666667E+009;1.324706226587296E-001;-9.695354104042053E-002;5.879579694010317E-004;2.392934547970071E-004;
2.425333333333334E+009;1.310572326183319E-001;-9.737906605005264E-002;5.730174016207457E-004;2.765704703051597E-004;
2.425500000000000E+009;1.296586394309998E-001;-9.812883287668228E-002;7.324501057155430E-004;2.001515968004242E-004;
2.425666666666667E+009;1.281019896268845E-001;-9.878831356763840E-002;7.848243112675846E-004;2.033491327892989E-004;
2.425833333333334E+009;1.267679929733276E-001;-9.974015504121780E-002;7.940521463751793E-004;9.262242383556441E-005;
2.426000000000000E+009;1.252190768718720E-001;-1.009149178862572E-001;8.904855931177735E-004;3.334644497954287E-005;
2.426166666666667E+009;1.241617873311043E-001;-1.019292846322060E-001;8.610739023424685E-004;-1.214876610902138E-004;
2.426333333333334E+009;1.227999776601791E-001;-1.031292751431465E-001;8.613563259132206E-004;-1.408361131325364E-004;
2.426500000000000E+009;1.215417385101318E-001;-1.043435186147690E-001;9.119614842347801E-004;-2.918275713454932E-004;
2.426666666666667E+009;1.206104755401611E-001;-1.055348590016365E-001;9.170557605102658E-004;-3.762075793929398E-004;
2.426833333333334E+009;1.193042546510696E-001;-1.071242168545723E-001;8.391245501115918E-004;-5.063313874416053E-004;
2.427000000000000E+009;1.183176338672638E-001;-1.087216138839722E-001;1.105139497667551E-003;-6.249009747989476E-004;
2.427166666666667E+009;1.173832714557648E-001;-1.101645305752754E-001;9.998553432524204E-004;-5.793861346319318E-004;
2.427333333333334E+009;1.163398772478104E-001;-1.119229719042778E-001;9.772552875801921E-004;-7.880265475250781E-004;
2.427500000000000E+009;1.157199144363403E-001;-1.135803386569023E-001;1.005210331641138E-003;-6.191008724272251E-004;
2.427666666666667E+009;1.148367822170258E-001;-1.153907403349876E-001;9.473600657656789E-004;-8.599981083534658E-004;
