# Version 1.00
#
freq[Hz];re:Trc1_S11;im:Trc1_S11;re:Trc2_S21;im:Trc2_S21;
2.400000000000000E+009;1.552539169788361E-001;1.064800992608070E-001;-3.722551511600614E-003;-4.505898803472519E-003;
2.400166666666667E+009;1.551247537136078E-001;1.040529608726502E-001;-4.078685771673918E-003;-4.242920782417059E-003;
2.400333333333334E+009;1.551443487405777E-001;1.018533259630203E-001;-4.171180073171854E-003;-3.967610653489828E-003;
2.400500000000000E+009;1.550790965557098E-001;9.903138875961304E-002;-4.305831622332335E-003;-3.774723736569285E-003;
2.400666666666667E+009;1.552905589342117E-001;9.665413200855255E-002;-4.132369067519903E-003;-3.511660965159535E-003;
2.400833333333334E+009;1.551396846771240E-001;9.374918788671494E-002;-4.267363343387842E-003;-3.324570367112756E-003;
2.401000000000000E+009;1.554557234048843E-001;9.094386547803879E-002;-4.390654154121876E-003;-3.127861768007278E-003;
2.401166666666667E+009;1.555272191762924E-001;8.819478005170822E-002;-4.328990820795298E-003;-3.019086783751845E-003;
2.401333333333334E+009;1.559496670961380E-001;8.547404408454895E-002;-4.357130266726017E-003;-2.848810050636530E-003;
2.401500000000000E+009;1.562475115060806E-001;8.262427151203156E-002;-4.314318764954805E-003;-2.806479344144464E-003;
2.401666666666667E+009;1.568756997585297E-001;7.980071008205414E-002;-4.358143545687199E-003;-2.608292968943715E-003;
2.401833333333334E+009;1.572154462337494E-001;7.724402099847794E-002;-4.426947329193354E-003;-2.534269122406840E-003;
2.402000000000000E+009;1.582515239715576E-001;7.453299313783646E-002;-4.248398356139660E-003;-2.319397171959281E-003;
2.402166666666667E+009;1.589541137218475E-001;7.189538329839706E-002;-4.305238835513592E-003;-2.388505497947335E-003;
2.402333333333334E+009;1.599058210849762E-001;6.927557289600372E-002;-4.550778307020664E-003;-2.292540855705738E-003;
2.402500000000000E+009;1.612547934055328E-001;6.672175228595734E-002;-4.635483957827091E-003;-2.190205734223127E-003;
2.402666666666667E+009;1.623605638742447E-001;6.437018513679504E-002;-4.779454786330462E-003;-2.145494567230344E-003;
2.402833333333334E+009;1.637143492698669E-001;6.200947612524033E-002;-4.843704868108034E-003;-1.937614521011710E-003;
2.403000000000000E+009;1.651706546545029E-001;5.971225351095200E-002;-4.993626847863197E-003;-1.936377375386655E-003;
2.403166666666667E+009;1.668198555707932E-001;5.760670453310013E-002;-5.205177702009678E-003;-1.656030537560582E-003;
2.403333333333334E+009;1.683450490236282E-001;5.536020919680595E-002;-5.314286798238754E-003;-1.547695836052299E-003;
2.403500000000000E+009;1.699548959732056E-001;5.313701927661896E-002;-5.365623161196709E-003;-1.310174819082022E-003;
2.403666666666667E+009;1.716937273740768E-001;5.155296996235848E-002;-5.609990097582340E-003;-8.698701276443899E-004;
2.403833333333334E+009;1.732864081859589E-001;4.966960474848747E-002;-5.605875048786402E-003;-6.473272806033492E-004;
2.404000000000000E+009;1.747009307146072E-001;4.782355949282646E-002;-5.660640541464090E-003;-2.304268127772957E-004;
2.404166666666667E+009;1.765201985836029E-001;4.650813713669777E-002;-5.692070815712214E-003;5.626730489893816E-005;
2.404333333333334E+009;1.781707704067230E-001;4.502056911587715E-002;-5.774034652858973E-003;3.963751369155943E-004;
2.404500000000000E+009;1.798191070556641E-001;4.346595332026482E-002;-5.470433272421360E-003;7.741749286651611E-004;
2.404666666666667E+009;1.814832389354706E-001;4.247081279754639E-002;-5.294705275446177E-003;9.900764562189579E-004;
2.404833333333334E+009;1.830082088708878E-001;4.138073697686195E-002;-5.105652846395969E-003;1.410778961144388E-003;
2.405000000000000E+009;1.843259632587433E-001;4.073257371783257E-002;-4.944857675582171E-003;1.586705329827964E-003;
2.405166666666667E+009;1.859754621982575E-001;3.989798203110695E-002;-4.619858227670193E-003;1.777427620254457E-003;
2.405333333333334E+009;1.872738450765610E-001;3.951789438724518E-002;-4.587526898831129E-003;1.956715015694499E-003;
2.405500000000000E+009;1.887433379888535E-001;3.905451297760010E-002;-4.316429141908884E-003;2.024575369432569E-003;
2.405666666666667E+009;1.898643523454666E-001;3.879294916987419E-002;-4.122100770473480E-003;2.091727918013930E-003;
2.405833333333334E+009;1.911671906709671E-001;3.835938498377800E-002;-3.868145402520895E-003;2.125063911080360E-003;
2.406000000000000E+009;1.921349465847015E-001;3.823494538664818E-002;-3.591252490878105E-003;2.325083827599883E-003;
2.406166666666667E+009;1.929763853549957E-001;3.795604407787323E-002;-3.478364087641239E-003;2.244998933747411E-003;
2.406333333333334E+009;1.940220445394516E-001;3.795231506228447E-002;-3.310191445052624E-003;2.341432264074683E-003;
2.406500000000000E+009;1.947359144687653E-001;3.798180818557739E-002;-3.111186670139432E-003;2.392802154645324E-003;
2.406666666666667E+009;1.952099651098251E-001;3.791327774524689E-002;-2.979130251333118E-003;2.516549313440919E-003;
2.406833333333334E+009;1.957897990942001E-001;3.779859095811844E-002;-2.791031263768673E-003;2.367065753787756E-003;
2.407000000000000E+009;1.960768550634384E-001;3.804411366581917E-002;-2.811289858072996E-003;2.531793899834156E-003;
2.407166666666667E+009;1.965421885251999E-001;3.771615028381348E-002;-2.509907586500049E-003;2.510114572942257E-003;
2.407333333333334E+009;1.964107453823090E-001;3.784127905964851E-002;-2.474013948813081E-003;2.387030515819788E-003;
2.407500000000000E+009;1.962981820106506E-001;3.783694654703140E-002;-2.342725172638893E-003;2.270337194204330E-003;
2.407666666666667E+009;1.962236166000366E-001;3.767133876681328E-002;-2.163798781111836E-003;2.181660383939743E-003;
2.407833333333334E+009;1.956775486469269E-001;3.753752633929253E-002;-2.110846573486924E-003;2.393048955127597E-003;
2.408000000000000E+009;1.956094056367874E-001;3.730092570185661E-002;-1.988064497709274E-003;2.208192367106676E-003;
2.408166666666667E+009;1.950213313102722E-001;3.685935214161873E-002;-1.902783173136413E-003;2.108092186972499E-003;
2.408333333333334E+009;1.945956498384476E-001;3.638517856597900E-002;-1.892056665383279E-003;2.046583453193307E-003;
2.408500000000000E+009;1.938271671533585E-001;3.602386638522148E-002;-1.823683385737240E-003;1.838369760662317E-003;
2.408666666666667E+009;1.931167542934418E-001;3.549467399716377E-002;-1.677886000834405E-003;1.913886051625013E-003;
2.408833333333334E+009;1.925257891416550E-001;3.461723029613495E-002;-1.828292268328369E-003;1.859810552559793E-003;
2.409000000000000E+009;1.915209889411926E-001;3.369833901524544E-002;-1.612675492651761E-003;1.805099658668041E-003;
2.409166666666667E+009;1.905121207237244E-001;3.262685611844063E-002;-1.779389800503850E-003;1.865237485617399E-003;
2.409333333333334E+009;1.897348463535309E-001;3.156494349241257E-002;-1.966943265870214E-003;1.752381213009358E-003;
2.409500000000000E+009;1.885884553194046E-001;3.016013652086258E-002;-1.878401031717658E-003;1.915168017148972E-003;
2.409666666666667E+009;1.875111013650894E-001;2.880897931754589E-002;-1.910416176542640E-003;1.952016958966851E-003;
2.409833333333334E+009;1.865462362766266E-001;2.732493728399277E-002;-1.774523174390197E-003;1.876141759566963E-003;
2.410000000000000E+009;1.854925900697708E-001;2.571368962526321E-002;-1.950778532773256E-003;1.896229456178844E-003;
2.410166666666667E+009;1.846618652343750E-001;2.385384961962700E-002;-1.866226550191641E-003;2.026045229285955E-003;
2.410333333333334E+009;1.836310029029846E-001;2.200431376695633E-002;-1.744394539855421E-003;2.164173405617476E-003;
2.410500000000000E+009;1.826760619878769E-001;2.022569440305233E-002;-1.700088265351951E-003;2.244517439976335E-003;
2.410666666666667E+009;1.817804872989655E-001;1.774406433105469E-002;-1.641885028220713E-003;2.103973878547549E-003;
2.410833333333334E+009;1.811866611242294E-001;1.579182595014572E-002;-1.518647419288755E-003;2.297107828781009E-003;
2.411000000000000E+009;1.804501265287399E-001;1.334064453840256E-002;-1.651784521527588E-003;2.129869069904089E-003;
2.411166666666667E+009;1.796884983778000E-001;1.124173868447542E-002;-1.249652123078704E-003;2.081033308058977E-003;
2.411333333333334E+009;1.791733652353287E-001;8.842529729008675E-003;-1.246112049557269E-003;2.053711796179414E-003;
2.411500000000000E+009;1.787816733121872E-001;6.425106897950172E-003;-1.233956660144031E-003;2.056353492662311E-003;
2.411666666666667E+009;1.786029040813446E-001;4.120492376387119E-003;-1.186330686323345E-003;1.933616702444851E-003;
2.411833333333334E+009;1.784176081418991E-001;1.870801206678152E-003;-1.171169918961823E-003;1.873181317932904E-003;
2.412000000000000E+009;1.785270869731903E-001;-7.698480621911585E-004;-1.209525391459465E-003;1.869609579443932E-003;
2.412166666666667E+009;1.783396005630493E-001;-3.076969878748059E-003;-1.287617255002260E-003;1.747746369801462E-003;
2.412333333333334E+009;1.786496639251709E-001;-5.554223433136940E-003;-1.482067047618330E-003;1.643687370233238E-003;
2.412500000000000E+009;1.791581064462662E-001;-7.959360256791115E-003;-1.359923859126866E-003;1.545601524412632E-003;
2.412666666666667E+009;1.795624345541000E-001;-1.027115806937218E-002;-1.547636114992201E-003;1.543967053294182E-003;
2.412833333333334E+009;1.802572607994080E-001;-1.274531241506338E-002;-1.640276866964996E-003;1.823181286454201E-003;
2.413000000000000E+009;1.810912638902664E-001;-1.499270461499691E-002;-1.806241227313876E-003;1.660560257732868E-003;
2.413166666666667E+009;1.818116307258606E-001;-1.715589500963688E-002;-1.811744645237923E-003;1.843876205384731E-003;
2.413333333333334E+009;1.827779412269592E-001;-1.949276588857174E-002;-1.932492828927934E-003;2.016382059082389E-003;
2.413500000000000E+009;1.836593747138977E-001;-2.156948857009411E-002;-2.159873954951763E-003;2.073842566460371E-003;
2.413666666666667E+009;1.848614215850830E-001;-2.375376038253307E-002;-2.137138741090894E-003;2.238296903669834E-003;
2.413833333333334E+009;1.857863664627075E-001;-2.581749297678471E-002;-2.193913096562028E-003;2.690042834728956E-003;
2.414000000000000E+009;1.870610564947128E-001;-2.768579684197903E-002;-2.133950358256698E-003;2.758150454610586E-003;
2.414166666666667E+009;1.881940811872482E-001;-2.943592704832554E-002;-2.173306653276086E-003;3.117249347269535E-003;
2.414333333333334E+009;1.892339736223221E-001;-3.130989149212837E-002;-2.027846407145262E-003;3.173714270815253E-003;
2.414500000000000E+009;1.905468702316284E-001;-3.276456147432327E-002;-1.854364294558764E-003;3.436492988839746E-003;
2.414666666666667E+009;1.916030496358872E-001;-3.415662795305252E-002;-1.642380258999765E-003;3.753087250515819E-003;
2.414833333333334E+009;1.927706897258759E-001;-3.546417877078056E-002;-1.372537692077458E-003;3.874039975926280E-003;
2.415000000000000E+009;1.938075125217438E-001;-3.675730898976326E-002;-1.136190723627806E-003;3.972646780312061E-003;
2.415166666666667E+009;1.951296925544739E-001;-3.773904219269753E-002;-9.466205374337733E-004;4.142215941101313E-003;
2.415333333333334E+009;1.962792277336121E-001;-3.856420144438744E-002;-7.901015342213213E-004;4.279846791177988E-003;
2.415500000000000E+009;1.972066313028336E-001;-3.932678699493408E-002;-4.545075062196702E-004;4.265830386430025E-003;
2.415666666666667E+009;1.982309818267822E-001;-4.017760604619980E-002;-3.895430709235370E-004;4.251269623637199E-003;
2.415833333333334E+009;1.991542726755142E-001;-4.087333008646965E-002;-2.046807639999315E-004;4.201997537165880E-003;
2.416000000000000E+009;1.997739374637604E-001;-4.145841300487518E-002;5.347983824322000E-005;4.357451107352972E-003;
2.416166666666667E+009;2.004690170288086E-001;-4.188001900911331E-002;2.085024316329509E-004;4.297235514968634E-003;
2.416333333333334E+009;2.011056244373322E-001;-4.220947623252869E-002;3.457003913354129E-004;4.274729639291763E-003;
2.416500000000000E+009;2.015546113252640E-001;-4.235506802797318E-002;5.292664282023907E-004;4.275315441191196E-003;
2.416666666666667E+009;2.018548697233200E-001;-4.279191046953201E-002;8.657631115056574E-004;4.234890453517437E-003;
2.416833333333334E+009;2.018964737653732E-001;-4.266967996954918E-002;1.030467567034066E-003;4.055471159517765E-003;
2.417000000000000E+009;2.020456939935684E-001;-4.291029274463654E-002;1.204305910505354E-003;4.140585195273161E-003;
2.417166666666667E+009;2.017483860254288E-001;-4.281021654605866E-002;1.240719459019601E-003;4.030416719615459E-003;
2.417333333333334E+009;2.015096545219421E-001;-4.262569919228554E-002;1.549981650896370E-003;3.911385778337717E-003;
2.417500000000000E+009;2.012087255716324E-001;-4.263137280941010E-002;1.581934397108853E-003;3.886741120368242E-003;
2.417666666666667E+009;2.006819397211075E-001;-4.242546856403351E-002;1.831750269047916E-003;3.933302126824856E-003;
2.417833333333334E+009;2.001814097166061E-001;-4.226725548505783E-002;1.967645715922117E-003;3.782402025535703E-003;
2.418000000000000E+009;1.996034532785416E-001;-4.213621467351914E-002;2.214390086010099E-003;3.683253191411495E-003;
2.418166666666667E+009;1.986869871616364E-001;-4.197641462087631E-002;2.351428382098675E-003;3.455768572166562E-003;
2.418333333333334E+009;1.977090984582901E-001;-4.184423014521599E-002;2.510433783754706E-003;3.308148356154561E-003;
2.418500000000000E+009;1.967646777629852E-001;-4.189542680978775E-002;2.572785131633282E-003;3.244046587496996E-003;
2.418666666666667E+009;1.958077549934387E-001;-4.185190051794052E-002;2.655274001881480E-003;2.966277766972780E-003;
2.418833333333334E+009;1.945395171642304E-001;-4.207433387637138E-002;2.825484145432711E-003;3.050136612728238E-003;
2.419000000000000E+009;1.932100653648377E-001;-4.218266159296036E-002;2.917139092460275E-003;2.973682247102261E-003;
2.419166666666667E+009;1.919443458318710E-001;-4.261156171560288E-002;2.937894547358155E-003;2.514254534617066E-003;
2.419333333333334E+009;1.906217187643051E-001;-4.298551008105278E-002;3.019708907231689E-003;2.437281422317028E-003;
2.419500000000000E+009;1.891903877258301E-001;-4.354909062385559E-002;3.085839562118053E-003;2.184237120673060E-003;
2.419666666666667E+009;1.875250488519669E-001;-4.439250379800797E-002;3.102948889136314E-003;1.982183195650578E-003;
2.419833333333334E+009;1.859264969825745E-001;-4.497112333774567E-002;3.153235185891390E-003;1.860290300101042E-003;
2.420000000000000E+009;1.844079345464706E-001;-4.584196582436562E-002;3.089542035013437E-003;1.592127373442054E-003;
2.420166666666667E+009;1.828327476978302E-001;-4.683455452322960E-002;3.133825492113829E-003;1.477571786381304E-003;
2.420333333333334E+009;1.812777072191238E-001;-4.789718240499497E-002;3.068018238991499E-003;1.199138234369457E-003;
2.420500000000000E+009;1.796351671218872E-001;-4.929021000862122E-002;2.996443305164576E-003;1.142881112173200E-003;
2.420666666666667E+009;1.780227273702622E-001;-5.039602145552635E-002;2.967973938211799E-003;9.116623550653458E-004;
2.420833333333334E+009;1.765839606523514E-001;-5.191192775964737E-002;2.831344492733479E-003;9.174973238259554E-004;
2.421000000000000E+009;1.750844866037369E-001;-5.337521433830261E-002;2.909544622525573E-003;7.974525797180831E-004;
2.421166666666667E+009;1.737190783023834E-001;-5.504973977804184E-002;2.742909826338291E-003;7.658429094590247E-004;
2.421333333333334E+009;1.721750795841217E-001;-5.664047598838806E-002;2.643617102876306E-003;5.468883318826556E-004;
2.421500000000000E+009;1.708630174398422E-001;-5.853508412837982E-002;2.591369906440377E-003;4.996666102670133E-004;
2.421666666666667E+009;1.697456687688828E-001;-6.020295619964600E-002;2.452724380418658E-003;5.094035295769572E-004;
2.421833333333334E+009;1.685819625854492E-001;-6.205848231911659E-002;2.325431909412146E-003;2.994012611452490E-004;
2.422000000000000E+009;1.677556484937668E-001;-6.396222859621048E-002;2.238523913547397E-003;3.661020891740918E-004;
2.422166666666667E+009;1.668747961521149E-001;-6.616330891847611E-002;2.087302505970001E-003;3.064989869017154E-004;
2.422333333333334E+009;1.657914221286774E-001;-6.799639016389847E-002;2.123783575370908E-003;3.192182048223913E-004;
2.422500000000000E+009;1.650102585554123E-001;-6.999145448207855E-002;2.140542026609182E-003;3.677424392662942E-004;
2.422666666666667E+009;1.643998324871063E-001;-7.214339822530747E-002;1.952882157638669E-003;3.570337139535695E-004;
2.422833333333334E+009;1.640043109655380E-001;-7.410272955894470E-002;2.004083944484592E-003;3.281951940152794E-004;
2.423000000000000E+009;1.633816957473755E-001;-7.600795477628708E-002;1.849365187808871E-003;4.212955536786467E-004;
2.423166666666667E+009;1.630603373050690E-001;-7.803373783826828E-002;1.909544109366834E-003;3.549688844941557E-004;
2.423333333333334E+009;1.629106551408768E-001;-8.000002801418304E-002;1.815918250940740E-003;2.166457561543211E-004;
2.423500000000000E+009;1.628025025129318E-001;-8.175684511661530E-002;1.715267775580287E-003;2.301098138559610E-004;
2.423666666666667E+009;1.629659086465836E-001;-8.357837796211243E-002;1.873519155196846E-003;2.780914073809981E-004;
2.423833333333334E+009;1.628568470478058E-001;-8.520585298538208E-002;1.765048713423312E-003;2.634814009070396E-004;
2.424000000000000E+009;1.629182398319244E-001;-8.702847361564636E-002;1.580137177370489E-003;2.743767108768225E-004;
2.424166666666667E+009;1.629530489444733E-001;-8.838991075754166E-002;1.687064999714494E-003;2.369451249251142E-004;
2.424333333333334E+009;1.632193475961685E-001;-8.998047560453415E-002;1.638192101381719E-003;2.292027638759464E-004;
2.424500000000000E+009;1.637369990348816E-001;-9.165213257074356E-002;1.660184818319976E-003;3.111569967586547E-004;
2.424666666666667E+009;1.638166159391403E-001;-9.296651184558868E-002;1.591752399690449E-003;3.468282229732722E-004;
2.424833333333334E+009;1.644206196069717E-001;-9.425236284732819E-002;1.563660451211035E-003;4.548228171188384E-004;
2.425000000000000E+009;1.649007350206375E-001;-9.543422609567642E-002;1.584689831361175E-003;4.056399920955300E-004;
2.425166666666667E+009;1.652428507804871E-001;-9.644662588834763E-002;1.660160138271749E-003;4.352967953309417E-004;
2.425333333333334E+009;1.654651165008545E-001;-9.739201515913010E-002;1.621101633645594E-003;5.727158277295530E-004;
2.425500000000000E+009;1.659737527370453E-001;-9.834361076354981E-002;1.726605114527047E-003;5.594734684564173E-004;
2.425666666666667E+009;1.663602143526077E-001;-9.894955903291702E-002;1.876208465546370E-003;5.982214934192598E-004;
2.425833333333334E+009;1.666159480810165E-001;-9.985304623842239E-002;1.732331584207714E-003;6.173658184707165E-004;
2.426000000000000E+009;1.670423746109009E-001;-1.002962067723274E-001;1.981729175895453E-003;6.715279887430370E-004;
2.426166666666667E+009;1.674455255270004E-001;-1.007171049714088E-001;2.053444040939212E-003;6.575367879122496E-004;
2.426333333333334E+009;1.675766706466675E-001;-1.012390404939652E-001;2.134314738214016E-003;5.983305163681507E-004;
2.426500000000000E+009;1.678917706012726E-001;-1.016021296381950E-001;2.090772846713662E-003;6.724804989062250E-004;
2.426666666666667E+009;1.681371033191681E-001;-1.018894091248512E-001;2.253148704767227E-003;6.986262742429972E-004;
2.426833333333334E+009;1.684039384126663E-001;-1.021209433674812E-001;2.207432175055146E-003;7.556548807770014E-004;
2.427000000000000E+009;1.682767570018768E-001;-1.023910939693451E-001;2.392118331044912E-003;4.678623226936907E-004;
2.427166666666667E+009;1.683561354875565E-001;-1.024923026561737E-001;2.395072486251593E-003;5.812401068396866E-004;
2.427333333333334E+009;1.682492047548294E-001;-1.027532070875168E-001;2.531473292037845E-003;3.972738340962678E-004;
2.427500000000000E+009;1.679115742444992E-001;-1.029526442289352E-001;2.710735891014338E-003;4.181981494184583E-004;
2.427666666666667E+009;1.676852852106094E-001;-1.030423641204834E-001;2.687130821868777E-003;3.628079139161855E-004;
2.427833333333334E+009;1.672099679708481E-001;-1.032330766320229E-001;2.885719528421760E-003;3.607054241001606E-004;
