# Version 1.00
#
freq[Hz];re:Trc1_S11;im:Trc1_S11;re:Trc2_S21;im:Trc2_S21;
2.400000000000000E+009;1.552567631006241E-001;1.063378006219864E-001;-3.773157019168139E-003;-4.505945835262537E-003;
2.400166666666667E+009;1.549002975225449E-001;1.040200367569923E-001;-3.836970543488860E-003;-4.280611872673035E-003;
2.400333333333334E+009;1.551063358783722E-001;1.018107607960701E-001;-4.007767885923386E-003;-4.093533847481012E-003;
2.400500000000000E+009;1.550983339548111E-001;9.897720068693161E-002;-4.269167780876160E-003;-3.861776320263743E-003;
2.400666666666667E+009;1.551732569932938E-001;9.660390764474869E-002;-4.165444988757372E-003;-3.599453950300813E-003;
2.400833333333334E+009;1.550772190093994E-001;9.384873509407044E-002;-4.200027324259281E-003;-3.470198716968298E-003;
2.401000000000000E+009;1.553674489259720E-001;9.091886132955551E-002;-4.263653419911861E-003;-3.262404119595885E-003;
2.401166666666667E+009;1.554251015186310E-001;8.820339292287827E-002;-4.200682044029236E-003;-2.975982381030917E-003;
2.401333333333334E+009;1.558939367532730E-001;8.545110374689102E-002;-4.220985341817141E-003;-3.025129437446594E-003;
2.401500000000000E+009;1.563263088464737E-001;8.252371847629547E-002;-4.292612895369530E-003;-2.673619193956256E-003;
2.401666666666667E+009;1.567614674568176E-001;7.976429164409638E-002;-4.226407967507839E-003;-2.659193705767393E-003;
2.401833333333334E+009;1.571516245603561E-001;7.692414522171021E-002;-4.161374643445015E-003;-2.650134265422821E-003;
2.402000000000000E+009;1.581653803586960E-001;7.422447949647903E-002;-4.332381300628185E-003;-2.508462872356176E-003;
2.402166666666667E+009;1.588465869426727E-001;7.178126275539398E-002;-4.403808154165745E-003;-2.487967489287257E-003;
2.402333333333334E+009;1.599455326795578E-001;6.917143613100052E-002;-4.386456683278084E-003;-2.313847653567791E-003;
2.402500000000000E+009;1.612822115421295E-001;6.667754054069519E-002;-4.452692810446024E-003;-2.241512294858694E-003;
2.402666666666667E+009;1.623677313327789E-001;6.441800296306610E-002;-4.701199941337109E-003;-2.106240484863520E-003;
2.402833333333334E+009;1.635609716176987E-001;6.197540834546089E-002;-4.640957806259394E-003;-2.051972318440676E-003;
2.403000000000000E+009;1.650502383708954E-001;5.971688032150269E-002;-5.068478174507618E-003;-1.970606856048107E-003;
2.403166666666667E+009;1.668458133935928E-001;5.759040638804436E-002;-5.084270611405373E-003;-1.797104720026255E-003;
2.403333333333334E+009;1.682875305414200E-001;5.522096157073975E-002;-5.276092793792486E-003;-1.652769395150244E-003;
2.403500000000000E+009;1.697853952646256E-001;5.316645279526711E-002;-5.486602894961834E-003;-1.304644509218633E-003;
2.403666666666667E+009;1.717891395092011E-001;5.140282958745956E-002;-5.657830741256475E-003;-1.010627485811710E-003;
2.403833333333334E+009;1.732639819383621E-001;4.968134313821793E-002;-5.606261081993580E-003;-8.345732348971069E-004;
2.404000000000000E+009;1.746739596128464E-001;4.780185595154762E-002;-5.771705880761147E-003;-3.708399017341435E-004;
2.404166666666667E+009;1.764731407165527E-001;4.639688506722450E-002;-5.595846101641655E-003;1.155451827798970E-004;
2.404333333333334E+009;1.782120168209076E-001;4.484679922461510E-002;-5.698699969798327E-003;4.318373976275325E-004;
2.404500000000000E+009;1.796701401472092E-001;4.347950965166092E-002;-5.509982351213694E-003;8.076119702309370E-004;
2.404666666666667E+009;1.814160346984863E-001;4.238124564290047E-002;-5.283149424940348E-003;1.211779774166644E-003;
2.404833333333334E+009;1.830122470855713E-001;4.136151820421219E-002;-4.974149167537689E-003;1.425286754965782E-003;
2.405000000000000E+009;1.843193918466568E-001;4.046590998768807E-002;-4.940749146044254E-003;1.500273705460131E-003;
2.405166666666667E+009;1.858930438756943E-001;3.992611169815064E-002;-4.735638853162527E-003;1.616217428818345E-003;
2.405333333333334E+009;1.873388141393662E-001;3.955247253179550E-002;-4.591608885675669E-003;1.968647120520473E-003;
2.405500000000000E+009;1.886330544948578E-001;3.899697586894035E-002;-4.269823431968689E-003;1.940272864885628E-003;
2.405666666666667E+009;1.898377090692520E-001;3.862134367227554E-002;-4.101003985852003E-003;2.060788450762630E-003;
2.405833333333334E+009;1.911054104566574E-001;3.839854151010513E-002;-3.969428129494190E-003;2.290561562404037E-003;
2.406000000000000E+009;1.920917034149170E-001;3.805231675505638E-002;-3.699572989717126E-003;2.308892318978906E-003;
2.406166666666667E+009;1.930298507213593E-001;3.796477243304253E-002;-3.451443277299404E-003;2.267713891342282E-003;
2.406333333333334E+009;1.940073519945145E-001;3.794091194868088E-002;-3.254804527387023E-003;2.438191557303071E-003;
2.406500000000000E+009;1.946624368429184E-001;3.785680234432221E-002;-3.054842818528414E-003;2.362322993576527E-003;
2.406666666666667E+009;1.952918320894241E-001;3.781069070100784E-002;-3.060718765482307E-003;2.295988611876965E-003;
2.406833333333334E+009;1.957065463066101E-001;3.767936676740646E-002;-2.790366299450398E-003;2.472107997164130E-003;
2.407000000000000E+009;1.959360241889954E-001;3.794974088668823E-002;-2.703421982005239E-003;2.427117200568318E-003;
2.407166666666667E+009;1.965147554874420E-001;3.766926005482674E-002;-2.496694447472692E-003;2.381911035627127E-003;
2.407333333333334E+009;1.962554603815079E-001;3.775880485773087E-002;-2.353824209421873E-003;2.344966167584062E-003;
2.407500000000000E+009;1.962351948022842E-001;3.783805295825005E-002;-2.182461321353912E-003;2.396926749497652E-003;
2.407666666666667E+009;1.961277872323990E-001;3.761510550975800E-002;-2.217806642875075E-003;2.132511464878917E-003;
2.407833333333334E+009;1.958038657903671E-001;3.740978613495827E-002;-2.119925338774920E-003;2.114580478519201E-003;
2.408000000000000E+009;1.955946534872055E-001;3.736681491136551E-002;-2.164951059967279E-003;2.099165925756097E-003;
2.408166666666667E+009;1.950581818819046E-001;3.690731152892113E-002;-2.005440415814519E-003;1.994116231799126E-003;
2.408333333333334E+009;1.944891214370728E-001;3.643421456217766E-002;-1.959959976375103E-003;2.001471119001508E-003;
2.408500000000000E+009;1.937958896160126E-001;3.608541190624237E-002;-1.950009958818555E-003;1.872495980933309E-003;
2.408666666666667E+009;1.931108832359314E-001;3.546582162380219E-002;-1.823380356654525E-003;1.810239045880735E-003;
2.408833333333334E+009;1.923285424709320E-001;3.485613316297531E-002;-1.862560166046023E-003;1.891991705633700E-003;
2.409000000000000E+009;1.914383322000504E-001;3.375507891178131E-002;-1.913655200041831E-003;1.736131613142788E-003;
2.409166666666667E+009;1.906151473522186E-001;3.271618857979775E-002;-1.846038969233632E-003;1.827117637731135E-003;
2.409333333333334E+009;1.895523220300674E-001;3.187250718474388E-002;-1.883029006421566E-003;1.683340989984572E-003;
2.409500000000000E+009;1.885010898113251E-001;3.035990148782730E-002;-1.971996156498790E-003;1.692419755272567E-003;
2.409666666666667E+009;1.876523792743683E-001;2.900521270930767E-002;-1.966409850865603E-003;1.752177602611482E-003;
2.409833333333334E+009;1.865050643682480E-001;2.751693129539490E-002;-1.977543579414487E-003;1.841802615672350E-003;
2.410000000000000E+009;1.854223310947418E-001;2.583933621644974E-002;-1.816432573832572E-003;1.909451209940016E-003;
2.410166666666667E+009;1.845298856496811E-001;2.403969690203667E-002;-2.124832477420569E-003;2.053183037787676E-003;
2.410333333333334E+009;1.836330592632294E-001;2.223087660968304E-002;-1.809968147426844E-003;1.921585761010647E-003;
2.410500000000000E+009;1.826813220977783E-001;2.022477984428406E-002;-1.818511635065079E-003;2.146553248167038E-003;
2.410666666666667E+009;1.817449182271957E-001;1.798903755843639E-002;-1.654185587540269E-003;2.280102809891105E-003;
2.410833333333334E+009;1.811458468437195E-001;1.584419235587120E-002;-1.591983251273632E-003;2.263717819005251E-003;
2.411000000000000E+009;1.803101301193237E-001;1.372966077178717E-002;-1.530673122033477E-003;2.195478649809957E-003;
2.411166666666667E+009;1.796401143074036E-001;1.138752885162830E-002;-1.456564292311668E-003;2.146703889593482E-003;
2.411333333333334E+009;1.792565733194351E-001;8.750366047024727E-003;-1.347306300885975E-003;2.208914840593934E-003;
2.411500000000000E+009;1.786824166774750E-001;6.545498035848141E-003;-1.353247789666057E-003;2.069793408736587E-003;
2.411666666666667E+009;1.785301864147186E-001;4.073536023497582E-003;-1.362996408715844E-003;1.895720604807138E-003;
2.411833333333334E+009;1.783378571271896E-001;1.619144459255040E-003;-1.427000504918397E-003;1.876319642178714E-003;
2.412000000000000E+009;1.786004155874252E-001;-7.304765749722719E-004;-1.387411728501320E-003;1.754509750753641E-003;
2.412166666666667E+009;1.784412860870361E-001;-2.926681889221072E-003;-1.512257033027709E-003;1.787848770618439E-003;
2.412333333333334E+009;1.787798851728439E-001;-5.496617872267962E-003;-1.405491959303618E-003;1.775608514435589E-003;
2.412500000000000E+009;1.790902018547058E-001;-7.813295349478722E-003;-1.609419123269618E-003;1.673071063123643E-003;
2.412666666666667E+009;1.796574443578720E-001;-1.054316386580467E-002;-1.516155665740371E-003;1.683525391854346E-003;
2.412833333333334E+009;1.803733110427856E-001;-1.278561446815729E-002;-1.803915016353130E-003;1.698338310234249E-003;
2.413000000000000E+009;1.810593307018280E-001;-1.506395358592272E-002;-1.959266141057015E-003;1.805058331228793E-003;
2.413166666666667E+009;1.817683130502701E-001;-1.710506901144981E-002;-1.978496555238962E-003;1.941772759892047E-003;
2.413333333333334E+009;1.828135102987289E-001;-1.928613334894180E-002;-1.970855519175530E-003;1.963107846677303E-003;
2.413500000000000E+009;1.837206333875656E-001;-2.174316532909870E-002;-2.142282901331782E-003;2.225220669060946E-003;
2.413666666666667E+009;1.849498897790909E-001;-2.375364303588867E-002;-2.279748674482107E-003;2.440502634271979E-003;
2.413833333333334E+009;1.858876198530197E-001;-2.577687427401543E-002;-2.305775182321668E-003;2.548958174884319E-003;
2.414000000000000E+009;1.869768351316452E-001;-2.784237079322338E-002;-2.272959332913160E-003;2.893466502428055E-003;
2.414166666666667E+009;1.882378011941910E-001;-2.944546565413475E-002;-2.306217793375254E-003;3.168008057400584E-003;
2.414333333333334E+009;1.892813742160797E-001;-3.126021847128868E-002;-2.176243811845779E-003;3.270606277510524E-003;
2.414500000000000E+009;1.904828697443008E-001;-3.274451196193695E-002;-1.955175772309303E-003;3.552553942427039E-003;
2.414666666666667E+009;1.916851401329041E-001;-3.405057638883591E-002;-1.819274155423045E-003;3.885630983859301E-003;
2.414833333333334E+009;1.927934139966965E-001;-3.557180240750313E-002;-1.608865917660296E-003;3.990030381828547E-003;
2.415000000000000E+009;1.939047574996948E-001;-3.673671931028366E-002;-1.321732765063644E-003;3.986758179962635E-003;
2.415166666666667E+009;1.950554698705673E-001;-3.775468468666077E-002;-1.038086367771030E-003;4.234053194522858E-003;
2.415333333333334E+009;1.962442398071289E-001;-3.866696357727051E-002;-8.921329863369465E-004;4.197084344923496E-003;
2.415500000000000E+009;1.972824037075043E-001;-3.935871645808220E-002;-6.414229283109307E-004;4.204866942018271E-003;
2.415666666666667E+009;1.983233690261841E-001;-4.005484282970429E-002;-3.974167339038104E-004;4.247954115271568E-003;
2.415833333333334E+009;1.990201771259308E-001;-4.071627184748650E-002;-3.320238902233541E-004;4.285082686692476E-003;
2.416000000000000E+009;1.997910588979721E-001;-4.129297658801079E-002;5.010133463656530E-005;4.311947152018547E-003;
2.416166666666667E+009;2.005960643291473E-001;-4.195312038064003E-002;1.035730310832150E-004;4.325197543948889E-003;
2.416333333333334E+009;2.011590749025345E-001;-4.215171933174133E-002;3.821203135885298E-004;4.262953996658325E-003;
2.416500000000000E+009;2.015836983919144E-001;-4.237775132060051E-002;4.908940754830837E-004;4.313169512897730E-003;
2.416666666666667E+009;2.018236964941025E-001;-4.273739457130432E-002;6.915666162967682E-004;4.276377614587545E-003;
2.416833333333334E+009;2.020194828510284E-001;-4.263934493064880E-002;9.003194281831384E-004;4.318363033235073E-003;
2.417000000000000E+009;2.020262181758881E-001;-4.287428408861160E-002;1.175433164462447E-003;4.220022354274988E-003;
2.417166666666667E+009;2.018419057130814E-001;-4.280138760805130E-002;1.209095469675958E-003;4.165494348853827E-003;
2.417333333333334E+009;2.014905214309692E-001;-4.272257536649704E-002;1.417519990354776E-003;4.170775879174471E-003;
2.417500000000000E+009;2.012360095977783E-001;-4.261673986911774E-002;1.635956345126033E-003;4.007706418633461E-003;
2.417666666666667E+009;2.006315290927887E-001;-4.240825772285461E-002;1.743395812809467E-003;3.832297399640083E-003;
2.417833333333334E+009;2.002291977405548E-001;-4.224127531051636E-002;1.955285202711821E-003;3.868473926559091E-003;
2.418000000000000E+009;1.995424032211304E-001;-4.202434420585632E-002;2.175190486013889E-003;3.729173680767417E-003;
2.418166666666667E+009;1.986915469169617E-001;-4.208524152636528E-002;2.312529366463423E-003;3.528941422700882E-003;
2.418333333333334E+009;1.976911425590515E-001;-4.190954566001892E-002;2.319277729839087E-003;3.336614696308971E-003;
2.418500000000000E+009;1.967303603887558E-001;-4.191957786679268E-002;2.570274518802762E-003;3.112877486273646E-003;
2.418666666666667E+009;1.957639008760452E-001;-4.202498495578766E-002;2.766530262306333E-003;3.204295178875327E-003;
2.418833333333334E+009;1.945182979106903E-001;-4.204967245459557E-002;2.793007530272007E-003;3.142557572573423E-003;
2.419000000000000E+009;1.932085901498795E-001;-4.224278777837753E-002;2.884494373574853E-003;2.870743628591299E-003;
2.419166666666667E+009;1.919088512659073E-001;-4.259691387414932E-002;3.028139006346464E-003;2.673714887350798E-003;
2.419333333333334E+009;1.904945671558380E-001;-4.305938631296158E-002;3.082665149122477E-003;2.530255820602179E-003;
2.419500000000000E+009;1.890797913074493E-001;-4.349487647414208E-002;2.937916200608015E-003;2.305052243173122E-003;
2.419666666666667E+009;1.875626891851425E-001;-4.429983720183373E-002;3.173165721818805E-003;2.070824848487973E-003;
2.419833333333334E+009;1.860086917877197E-001;-4.488412663340569E-002;3.113613929599524E-003;1.829140353947878E-003;
2.420000000000000E+009;1.845347434282303E-001;-4.582845792174339E-002;3.089333884418011E-003;1.701501547358930E-003;
2.420166666666667E+009;1.827857047319412E-001;-4.679830744862557E-002;3.048697952181101E-003;1.624561147764325E-003;
2.420333333333334E+009;1.811466962099075E-001;-4.802135005593300E-002;3.033262677490711E-003;1.498298835940659E-003;
2.420500000000000E+009;1.796165555715561E-001;-4.938387125730515E-002;3.103192197158933E-003;1.149799674749374E-003;
2.420666666666667E+009;1.781315505504608E-001;-5.043046176433563E-002;2.993398811668158E-003;1.094165374524891E-003;
2.420833333333334E+009;1.764537394046783E-001;-5.191950872540474E-002;2.962625585496426E-003;9.733604383654892E-004;
2.421000000000000E+009;1.750355958938599E-001;-5.343713983893395E-002;2.922168932855129E-003;8.658908191137016E-004;
2.421166666666667E+009;1.736579835414887E-001;-5.501650646328926E-002;2.649943809956312E-003;5.999752902425826E-004;
2.421333333333334E+009;1.721338033676148E-001;-5.656322836875916E-002;2.603732980787754E-003;6.072918185964227E-004;
2.421500000000000E+009;1.708596497774124E-001;-5.859834328293800E-002;2.499934285879135E-003;6.344123394228518E-004;
2.421666666666667E+009;1.696231812238693E-001;-6.034123897552490E-002;2.395121846348047E-003;4.261542635504156E-004;
2.421833333333334E+009;1.686705797910690E-001;-6.222724914550781E-002;2.257874701172113E-003;3.833817027043551E-004;
2.422000000000000E+009;1.675623208284378E-001;-6.413716077804565E-002;2.306359121575952E-003;3.859219723381102E-004;
2.422166666666667E+009;1.667631715536118E-001;-6.612700968980789E-002;2.230433048680425E-003;2.730114501900971E-004;
2.422333333333334E+009;1.656055152416229E-001;-6.818235665559769E-002;2.100160112604499E-003;3.095757565461099E-004;
2.422500000000000E+009;1.650780588388443E-001;-7.012299448251724E-002;2.039935439825058E-003;3.949509700760245E-004;
2.422666666666667E+009;1.644278615713120E-001;-7.210263609886169E-002;1.947246026247740E-003;3.100853064097464E-004;
2.422833333333334E+009;1.639210730791092E-001;-7.398770749568939E-002;1.977828564122319E-003;4.102719831280410E-004;
2.423000000000000E+009;1.633951812982559E-001;-7.604949176311493E-002;2.025883411988616E-003;3.928878868464381E-004;
2.423166666666667E+009;1.630271077156067E-001;-7.795282453298569E-002;1.992435660213232E-003;4.021035856567323E-004;
2.423333333333334E+009;1.627709269523621E-001;-7.996495813131332E-002;1.843320322223008E-003;2.461780095472932E-004;
2.423500000000000E+009;1.625847220420837E-001;-8.169326931238174E-002;1.687533804215491E-003;2.445413265377283E-004;
2.423666666666667E+009;1.629173010587692E-001;-8.366335928440094E-002;1.866435050033033E-003;3.155440208502114E-004;
2.423833333333334E+009;1.626762747764587E-001;-8.514897525310516E-002;1.886185607872903E-003;3.345061559230089E-004;
2.424000000000000E+009;1.629537194967270E-001;-8.695732802152634E-002;1.707751420326531E-003;4.109061264898628E-004;
2.424166666666667E+009;1.629257649183273E-001;-8.850641548633575E-002;1.814285758882761E-003;2.683064958546311E-004;
2.424333333333334E+009;1.631767004728317E-001;-9.009025990962982E-002;1.721757929772139E-003;2.393762988504022E-004;
2.424500000000000E+009;1.636392176151276E-001;-9.161466360092163E-002;1.640015281736851E-003;3.485890920273960E-004;
2.424666666666667E+009;1.639011204242706E-001;-9.299363940954208E-002;1.655805390328169E-003;4.188915481790900E-004;
2.424833333333334E+009;1.643565446138382E-001;-9.430973976850510E-002;1.567512052133679E-003;3.755873476620764E-004;
2.425000000000000E+009;1.647707074880600E-001;-9.544474631547928E-002;1.653393497690558E-003;5.752566503360868E-004;
2.425166666666667E+009;1.650774627923966E-001;-9.646940231323242E-002;1.651660306379199E-003;4.707099578808993E-004;
2.425333333333334E+009;1.653815358877182E-001;-9.737395495176315E-002;1.677828491665423E-003;7.132439059205353E-004;
2.425500000000000E+009;1.658387184143066E-001;-9.840340167284012E-002;1.739723957143724E-003;7.050308049656451E-004;
2.425666666666667E+009;1.662777215242386E-001;-9.899518638849258E-002;1.889159320853651E-003;7.812075782567263E-004;
2.425833333333334E+009;1.665799021720886E-001;-9.986206144094467E-002;1.770619302988052E-003;6.910164374858141E-004;
2.426000000000000E+009;1.670039147138596E-001;-1.003179177641869E-001;2.078797435387969E-003;7.680241251364350E-004;
2.426166666666667E+009;1.673589050769806E-001;-1.006769388914108E-001;2.114753006026149E-003;6.164135411381722E-004;
2.426333333333334E+009;1.674254238605499E-001;-1.013090610504150E-001;1.996050588786602E-003;6.403433508239687E-004;
2.426500000000000E+009;1.677241921424866E-001;-1.015810817480087E-001;2.233614446595311E-003;4.616176593117416E-004;
2.426666666666667E+009;1.680471152067184E-001;-1.019240617752075E-001;2.291022567078471E-003;6.105789216235280E-004;
2.426833333333334E+009;1.683307588100433E-001;-1.021386981010437E-001;2.412587171420455E-003;5.505923181772232E-004;
2.427000000000000E+009;1.682436317205429E-001;-1.024528369307518E-001;2.432539593428373E-003;5.397070781327784E-004;
2.427166666666667E+009;1.682875752449036E-001;-1.025113314390183E-001;2.576842205598950E-003;4.768052604049444E-004;
2.427333333333334E+009;1.681512743234634E-001;-1.027751713991165E-001;2.627111505717039E-003;5.129812052473426E-004;
2.427500000000000E+009;1.678138226270676E-001;-1.029733419418335E-001;2.634010510519147E-003;4.942229134030640E-004;
2.427666666666667E+009;1.675418615341187E-001;-1.030585914850235E-001;2.784099197015166E-003;3.819994162768126E-004;
2.427833333333334E+009;1.671365499496460E-001;-1.031304076313973E-001;2.877683611586690E-003;3.590160340536386E-004;
