# Version 1.00
#
freq[Hz];re:Trc1_S11;im:Trc1_S11;re:Trc2_S21;im:Trc2_S21;
2.400000000000000E+009;1.548509448766708E-001;1.064245998859406E-001;-3.735122038051486E-003;-4.500371869653463E-003;
2.400166666666667E+009;1.543806195259094E-001;1.042804494500160E-001;-3.831845242530108E-003;-4.315861035138369E-003;
2.400333333333334E+009;1.546587944030762E-001;1.020213589072228E-001;-3.934307023882866E-003;-3.911961335688829E-003;
2.400500000000000E+009;1.544920206069946E-001;9.916716814041138E-002;-4.240413662046194E-003;-3.760543651878834E-003;
2.400666666666667E+009;1.547540873289108E-001;9.678009897470474E-002;-4.148442298173904E-003;-3.519254270941019E-003;
2.400833333333334E+009;1.547366678714752E-001;9.389476478099823E-002;-4.134014714509249E-003;-3.421043278649449E-003;
2.401000000000000E+009;1.550205200910568E-001;9.102615714073181E-002;-4.307335708290339E-003;-3.232661169022322E-003;
2.401166666666667E+009;1.549598872661591E-001;8.844847232103348E-002;-4.347213543951511E-003;-3.033345798030496E-003;
2.401333333333334E+009;1.555004268884659E-001;8.559428155422211E-002;-4.300712607800961E-003;-2.895281184464693E-003;
2.401500000000000E+009;1.559800356626511E-001;8.272897452116013E-002;-4.253960214555264E-003;-2.725867088884115E-003;
2.401666666666667E+009;1.563812345266342E-001;8.000362664461136E-002;-4.331198520958424E-003;-2.590777818113565E-003;
2.401833333333334E+009;1.569260656833649E-001;7.735714316368103E-002;-4.388266243040562E-003;-2.507562749087811E-003;
2.402000000000000E+009;1.579214036464691E-001;7.465273141860962E-002;-4.397761542350054E-003;-2.520334208384156E-003;
2.402166666666667E+009;1.586209237575531E-001;7.213969528675079E-002;-4.387167282402515E-003;-2.399615710601211E-003;
2.402333333333334E+009;1.596838980913162E-001;6.944739818572998E-002;-4.579822067171335E-003;-2.279972191900015E-003;
2.402500000000000E+009;1.607894599437714E-001;6.678786128759384E-002;-4.604711662977934E-003;-2.231497550383210E-003;
2.402666666666667E+009;1.619233936071396E-001;6.442126631736755E-002;-4.679974634200335E-003;-2.185617806389928E-003;
2.402833333333334E+009;1.633799076080322E-001;6.215272843837738E-002;-4.743951838463545E-003;-2.115478506311774E-003;
2.403000000000000E+009;1.646387130022049E-001;6.000604853034020E-002;-5.039657931774855E-003;-1.825507730245590E-003;
2.403166666666667E+009;1.663918495178223E-001;5.783065408468247E-002;-5.127373617142439E-003;-1.740362495183945E-003;
2.403333333333334E+009;1.679760068655014E-001;5.549042299389839E-002;-5.307470448315144E-003;-1.536408672109246E-003;
2.403500000000000E+009;1.696111857891083E-001;5.351738631725311E-002;-5.422121845185757E-003;-1.101027475669980E-003;
2.403666666666667E+009;1.714231967926025E-001;5.167871713638306E-002;-5.599980242550373E-003;-9.201309876516461E-004;
2.403833333333334E+009;1.730033904314041E-001;4.982079938054085E-002;-5.837427452206612E-003;-5.781390937045217E-004;
2.404000000000000E+009;1.745350211858749E-001;4.812996461987495E-002;-5.919076502323151E-003;-2.592880337033421E-004;
2.404166666666667E+009;1.764616221189499E-001;4.670719057321549E-002;-5.775899626314640E-003;-3.468230715952814E-007;
2.404333333333334E+009;1.780713498592377E-001;4.508878663182259E-002;-5.675707943737507E-003;3.809874178841710E-004;
2.404500000000000E+009;1.795970201492310E-001;4.381191730499268E-002;-5.581605248153210E-003;9.449606877751648E-004;
2.404666666666667E+009;1.813347786664963E-001;4.283383861184120E-002;-5.354228895157576E-003;1.051221392117441E-003;
2.404833333333334E+009;1.830322891473770E-001;4.166043922305107E-002;-5.109279416501522E-003;1.380142522975802E-003;
2.405000000000000E+009;1.842959523200989E-001;4.105006903409958E-002;-5.022457335144281E-003;1.578710158355534E-003;
2.405166666666667E+009;1.857797652482987E-001;4.014382138848305E-002;-4.771759733557701E-003;1.749554066918790E-003;
2.405333333333334E+009;1.871555298566818E-001;3.988478332757950E-002;-4.425722640007734E-003;1.955586951225996E-003;
2.405500000000000E+009;1.885919123888016E-001;3.921752795577049E-002;-4.294279031455517E-003;2.166748046875000E-003;
2.405666666666667E+009;1.896741092205048E-001;3.898845985531807E-002;-4.085443913936615E-003;2.295481739565730E-003;
2.405833333333334E+009;1.910167932510376E-001;3.871802240610123E-002;-4.006941337138414E-003;2.325159264728427E-003;
2.406000000000000E+009;1.919196546077728E-001;3.838907554745674E-002;-3.672543680295348E-003;2.394010545685887E-003;
2.406166666666667E+009;1.929113119840622E-001;3.825017064809799E-002;-3.592048771679401E-003;2.565463539212942E-003;
2.406333333333334E+009;1.938769221305847E-001;3.834717720746994E-002;-3.358640708029270E-003;2.459559123963118E-003;
2.406500000000000E+009;1.946089714765549E-001;3.820063546299934E-002;-3.068917663767934E-003;2.387555548921228E-003;
2.406666666666667E+009;1.952712833881378E-001;3.825893998146057E-002;-3.019421594217420E-003;2.538158558309078E-003;
2.406833333333334E+009;1.956819295883179E-001;3.819559514522553E-002;-2.791444538161159E-003;2.543641254305840E-003;
2.407000000000000E+009;1.959075331687927E-001;3.835036978125572E-002;-2.735615475103259E-003;2.501077484339476E-003;
2.407166666666667E+009;1.964225172996521E-001;3.806211054325104E-002;-2.469779923558235E-003;2.468059072270989E-003;
2.407333333333334E+009;1.962784230709076E-001;3.827021643519402E-002;-2.376523334532976E-003;2.408527303487063E-003;
2.407500000000000E+009;1.961836665868759E-001;3.821937367320061E-002;-2.141612116247416E-003;2.398951444774866E-003;
2.407666666666667E+009;1.962741464376450E-001;3.803208097815514E-002;-1.980075379833579E-003;2.075914293527603E-003;
2.407833333333334E+009;1.956925243139267E-001;3.781151399016380E-002;-2.109114779159427E-003;2.360741375014186E-003;
2.408000000000000E+009;1.956619620323181E-001;3.766220808029175E-002;-1.976664643734694E-003;2.255111699923873E-003;
2.408166666666667E+009;1.949734538793564E-001;3.733398392796516E-002;-1.975499792024493E-003;2.068566158413887E-003;
2.408333333333334E+009;1.945250183343887E-001;3.677443414926529E-002;-1.938599976710975E-003;2.024634974077344E-003;
2.408500000000000E+009;1.937612444162369E-001;3.645165264606476E-002;-1.800866797566414E-003;2.013680525124073E-003;
2.408666666666667E+009;1.931935995817184E-001;3.582670539617539E-002;-1.669010496698320E-003;1.899365801364183E-003;
2.408833333333334E+009;1.923874616622925E-001;3.509396687150002E-002;-1.741325133480132E-003;1.809078850783408E-003;
2.409000000000000E+009;1.914770752191544E-001;3.412850201129913E-002;-1.949932659044862E-003;1.774356467649341E-003;
2.409166666666667E+009;1.906362324953079E-001;3.311481326818466E-002;-1.872303429991007E-003;1.755237462930381E-003;
2.409333333333334E+009;1.896841228008270E-001;3.193346783518791E-002;-1.909331767819822E-003;1.843849779106677E-003;
2.409500000000000E+009;1.885853707790375E-001;3.064950928092003E-002;-1.785523258149624E-003;1.816943869926035E-003;
2.409666666666667E+009;1.876307427883148E-001;2.921777032315731E-002;-1.955793239176273E-003;1.765465131029487E-003;
2.409833333333334E+009;1.865503937005997E-001;2.774099446833134E-002;-1.926190336234868E-003;2.012434182688594E-003;
2.410000000000000E+009;1.857119947671890E-001;2.613957412540913E-002;-1.777991652488709E-003;2.009720774367452E-003;
2.410166666666667E+009;1.847014874219894E-001;2.428770624101162E-002;-1.877662376500666E-003;1.952441642060876E-003;
2.410333333333334E+009;1.837566345930100E-001;2.253006584942341E-002;-1.686523552052677E-003;2.053468953818083E-003;
2.410500000000000E+009;1.828428357839584E-001;2.041990496218205E-002;-1.599069102667272E-003;2.083082450553775E-003;
2.410666666666667E+009;1.818729043006897E-001;1.823486946523190E-002;-1.557555398903787E-003;2.247579162940383E-003;
2.410833333333334E+009;1.813027709722519E-001;1.597312279045582E-002;-1.624270807951689E-003;2.131770830601454E-003;
2.411000000000000E+009;1.804393976926804E-001;1.392026897519827E-002;-1.484730164520443E-003;2.270568860694766E-003;
2.411166666666667E+009;1.798958182334900E-001;1.166700106114149E-002;-1.433087862096727E-003;2.205400262027979E-003;
2.411333333333334E+009;1.795191317796707E-001;9.134828113019466E-003;-1.255483133718371E-003;2.038636710494757E-003;
2.411500000000000E+009;1.789644807577133E-001;6.759201642125845E-003;-1.225161598995328E-003;2.005427377298474E-003;
2.411666666666667E+009;1.788114309310913E-001;4.563793074339628E-003;-1.121059409342706E-003;2.069312613457441E-003;
2.411833333333334E+009;1.784909665584564E-001;2.040217397734523E-003;-1.109411008656025E-003;1.807130989618599E-003;
2.412000000000000E+009;1.786314994096756E-001;-5.849378067068756E-004;-1.128313830122352E-003;1.766196568496525E-003;
2.412166666666667E+009;1.786379814147949E-001;-2.813726896420121E-003;-1.255781506188214E-003;1.754513825289905E-003;
2.412333333333334E+009;1.789220720529556E-001;-5.252763163298369E-003;-1.441691769286990E-003;1.705900765955448E-003;
2.412500000000000E+009;1.792000830173492E-001;-7.666785269975662E-003;-1.344564836472273E-003;1.739965635351837E-003;
2.412666666666667E+009;1.797948330640793E-001;-1.016552001237869E-002;-1.384830800816417E-003;1.550711807794869E-003;
2.412833333333334E+009;1.806543320417404E-001;-1.258359011262655E-002;-1.623873948119581E-003;1.605919911526144E-003;
2.413000000000000E+009;1.811084896326065E-001;-1.479417271912098E-002;-1.763551030308008E-003;1.694895443506539E-003;
2.413166666666667E+009;1.820544302463532E-001;-1.697080023586750E-002;-1.842556055635214E-003;1.857705763541162E-003;
2.413333333333334E+009;1.830000579357147E-001;-1.912660337984562E-002;-2.027693204581738E-003;1.802422804757953E-003;
2.413500000000000E+009;1.839220225811005E-001;-2.144081331789494E-002;-2.051181392744184E-003;2.069430425763130E-003;
2.413666666666667E+009;1.850105822086334E-001;-2.354060672223568E-002;-2.262661000713706E-003;2.228886587545276E-003;
2.413833333333334E+009;1.860444694757462E-001;-2.536818012595177E-002;-2.283784328028560E-003;2.479098271578550E-003;
2.414000000000000E+009;1.871081292629242E-001;-2.741001360118389E-002;-2.264527138322592E-003;2.823075512424111E-003;
2.414166666666667E+009;1.884758919477463E-001;-2.913211658596993E-002;-2.282322850078344E-003;2.994814654812217E-003;
2.414333333333334E+009;1.895708590745926E-001;-3.117664344608784E-002;-1.948661054484546E-003;3.336801659315825E-003;
2.414500000000000E+009;1.907534152269363E-001;-3.258473798632622E-002;-1.947395270690322E-003;3.511566203087568E-003;
2.414666666666667E+009;1.918381005525589E-001;-3.391017392277718E-002;-1.767245004884899E-003;3.730772528797388E-003;
2.414833333333334E+009;1.929848641157150E-001;-3.529238328337669E-002;-1.493509276770055E-003;3.818205092102289E-003;
2.415000000000000E+009;1.941868811845779E-001;-3.671688586473465E-002;-1.199684687890112E-003;4.046903457492590E-003;
2.415166666666667E+009;1.953987777233124E-001;-3.768320754170418E-002;-1.043600845150650E-003;4.047445021569729E-003;
2.415333333333334E+009;1.964269429445267E-001;-3.848010301589966E-002;-8.121180580928922E-004;4.255319945514202E-003;
2.415500000000000E+009;1.976080536842346E-001;-3.911709412932396E-002;-5.620251758955419E-004;4.136097617447376E-003;
2.415666666666667E+009;1.984860450029373E-001;-3.999071568250656E-002;-4.893275909125805E-004;4.264016170054674E-003;
2.415833333333334E+009;1.993789374828339E-001;-4.062133654952049E-002;-8.744814840611070E-005;4.236853215843439E-003;
2.416000000000000E+009;2.000315785408020E-001;-4.124999046325684E-002;-1.243261635863746E-006;4.262737464159727E-003;
2.416166666666667E+009;2.008010149002075E-001;-4.170589894056320E-002;6.351209594868124E-005;4.246157128363848E-003;
2.416333333333334E+009;2.014599293470383E-001;-4.194221273064613E-002;4.581578541547060E-004;4.234298132359982E-003;
2.416500000000000E+009;2.019362747669220E-001;-4.228333756327629E-002;5.939741386100650E-004;4.219348076730967E-003;
2.416666666666667E+009;2.020878493785858E-001;-4.263552650809288E-002;8.056085789576173E-004;4.252771381288767E-003;
2.416833333333334E+009;2.023002952337265E-001;-4.272655770182610E-002;9.606445091776550E-004;4.069665446877480E-003;
2.417000000000000E+009;2.023544609546661E-001;-4.281179606914520E-002;1.088191987946630E-003;4.051074851304293E-003;
2.417166666666667E+009;2.020921707153320E-001;-4.289406165480614E-002;1.214817748405039E-003;4.134116694331169E-003;
2.417333333333334E+009;2.018235027790070E-001;-4.263964667916298E-002;1.525312429293990E-003;4.108323715627194E-003;
2.417500000000000E+009;2.015290856361389E-001;-4.267157986760140E-002;1.601808937266469E-003;3.956114873290062E-003;
2.417666666666667E+009;2.009776681661606E-001;-4.239748418331146E-002;1.851131673902273E-003;3.640867071226239E-003;
2.417833333333334E+009;2.005484104156494E-001;-4.231320694088936E-002;1.935392152518034E-003;3.772854339331389E-003;
2.418000000000000E+009;1.997977495193481E-001;-4.209034517407417E-002;2.114290837198496E-003;3.603314515203238E-003;
2.418166666666667E+009;1.989998668432236E-001;-4.199652746319771E-002;2.210231265053153E-003;3.660612273961306E-003;
2.418333333333334E+009;1.981196403503418E-001;-4.193143919110298E-002;2.239898080006242E-003;3.390774596482515E-003;
2.418500000000000E+009;1.970830708742142E-001;-4.186343401670456E-002;2.738320967182517E-003;3.274264046922326E-003;
2.418666666666667E+009;1.961669325828552E-001;-4.190995544195175E-002;2.781649585813284E-003;3.128759795799851E-003;
2.418833333333334E+009;1.947083175182343E-001;-4.218381270766258E-002;2.842721762135625E-003;2.920213388279080E-003;
2.419000000000000E+009;1.935910582542419E-001;-4.231348261237145E-002;2.896591089665890E-003;2.739791059866548E-003;
2.419166666666667E+009;1.922776252031326E-001;-4.262034222483635E-002;3.007411258295178E-003;2.560820896178484E-003;
2.419333333333334E+009;1.908352375030518E-001;-4.315184056758881E-002;3.083446994423866E-003;2.371813869103789E-003;
2.419500000000000E+009;1.895003020763397E-001;-4.356881976127625E-002;3.150678006932139E-003;2.076536184176803E-003;
2.419666666666667E+009;1.879434436559677E-001;-4.439322277903557E-002;2.980975201353431E-003;1.989454496651888E-003;
2.419833333333334E+009;1.863923668861389E-001;-4.491946101188660E-002;3.194876946508884E-003;1.814198214560747E-003;
2.420000000000000E+009;1.847900450229645E-001;-4.596547409892082E-002;3.079975256696343E-003;1.572014298290014E-003;
2.420166666666667E+009;1.832489967346191E-001;-4.697040095925331E-002;3.254937473684549E-003;1.529974164441228E-003;
2.420333333333334E+009;1.815512180328369E-001;-4.811368882656097E-002;3.128533484414220E-003;1.109600765630603E-003;
2.420500000000000E+009;1.799537241458893E-001;-4.932400584220886E-002;3.124384675174952E-003;9.709457517601550E-004;
2.420666666666667E+009;1.782971918582916E-001;-5.034362152218819E-002;2.874099416658282E-003;9.420029819011688E-004;
2.420833333333334E+009;1.768002063035965E-001;-5.198910459876061E-002;2.973274560645223E-003;7.471633725799620E-004;
2.421000000000000E+009;1.753933429718018E-001;-5.372299998998642E-002;2.850746503099799E-003;5.611093365587294E-004;
2.421166666666667E+009;1.740555465221405E-001;-5.521036684513092E-002;2.739021554589272E-003;5.713829887099564E-004;
2.421333333333334E+009;1.723409444093704E-001;-5.674640834331513E-002;2.536783460527659E-003;3.483171167317778E-004;
2.421500000000000E+009;1.710797101259232E-001;-5.879454687237740E-002;2.468283521011472E-003;2.652522234711796E-004;
2.421666666666667E+009;1.698466688394547E-001;-6.049149110913277E-002;2.300708089023829E-003;4.435778246261179E-004;
2.421833333333334E+009;1.687841713428497E-001;-6.235102564096451E-002;2.299777697771788E-003;3.265988198108971E-004;
2.422000000000000E+009;1.677742153406143E-001;-6.418720632791519E-002;2.170850755646825E-003;2.827639400493354E-004;
2.422166666666667E+009;1.670396625995636E-001;-6.633115559816361E-002;2.196283778175712E-003;4.685359599534422E-004;
2.422333333333334E+009;1.659801453351975E-001;-6.832851469516754E-002;1.989029347896576E-003;2.914487849920988E-004;
2.422500000000000E+009;1.652143150568008E-001;-7.030252367258072E-002;1.938617206178606E-003;3.114870924036950E-004;
2.422666666666667E+009;1.645715534687042E-001;-7.224218547344208E-002;1.858616597019136E-003;2.911642659455538E-004;
2.422833333333334E+009;1.640549898147583E-001;-7.421072572469711E-002;1.851783599704504E-003;2.206973003922030E-004;
2.423000000000000E+009;1.636281460523605E-001;-7.632395625114441E-002;1.797766773961484E-003;3.858238633256406E-004;
2.423166666666667E+009;1.632021218538284E-001;-7.821202278137207E-002;1.825799350626767E-003;2.580884902272373E-004;
2.423333333333334E+009;1.629871428012848E-001;-8.021683990955353E-002;1.735929516144097E-003;3.741354448720813E-004;
2.423500000000000E+009;1.629246473312378E-001;-8.189488947391510E-002;1.845977036282420E-003;2.567905467003584E-004;
2.423666666666667E+009;1.629084199666977E-001;-8.377607166767120E-002;1.775858108885586E-003;3.974975552409887E-004;
2.423833333333334E+009;1.630189567804337E-001;-8.554214239120483E-002;1.749939401634038E-003;2.648661902640015E-004;
2.424000000000000E+009;1.631654947996140E-001;-8.723453432321549E-002;1.714740530587733E-003;2.816177729982883E-004;
2.424166666666667E+009;1.630813628435135E-001;-8.876409381628037E-002;1.605831901542842E-003;3.629452839959413E-004;
2.424333333333334E+009;1.634831577539444E-001;-9.023838490247726E-002;1.575132831931114E-003;4.251043719705194E-004;
2.424500000000000E+009;1.637960225343704E-001;-9.185736626386643E-002;1.505994703620672E-003;2.995399117935449E-004;
2.424666666666667E+009;1.640001982450485E-001;-9.328719973564148E-002;1.476132893003523E-003;3.830731729976833E-004;
2.424833333333334E+009;1.645977199077606E-001;-9.438361972570419E-002;1.501381746493280E-003;5.173730314709246E-004;
2.425000000000000E+009;1.649523079395294E-001;-9.568443149328232E-002;1.656982582062483E-003;5.261315382085741E-004;
2.425166666666667E+009;1.651630401611328E-001;-9.668638557195664E-002;1.599305775016546E-003;4.507416742853820E-004;
2.425333333333334E+009;1.655497401952744E-001;-9.764216095209122E-002;1.683564623817802E-003;6.372364005073905E-004;
2.425500000000000E+009;1.658540517091751E-001;-9.852933138608933E-002;1.570299617014825E-003;5.659802700392902E-004;
2.425666666666667E+009;1.664324849843979E-001;-9.921175241470337E-002;1.652125269174576E-003;5.576088442467153E-004;
2.425833333333334E+009;1.666496992111206E-001;-1.000960767269135E-001;1.745015732012689E-003;6.570093100890517E-004;
2.426000000000000E+009;1.670666784048080E-001;-1.005087345838547E-001;1.942751929163933E-003;7.228717440739274E-004;
2.426166666666667E+009;1.674274504184723E-001;-1.009162217378616E-001;1.962483627721667E-003;7.125906995497644E-004;
2.426333333333334E+009;1.675615012645721E-001;-1.015163362026215E-001;2.010485390201211E-003;6.879910361021757E-004;
2.426500000000000E+009;1.679140776395798E-001;-1.017399579286575E-001;2.098384546115995E-003;7.267532637342811E-004;
2.426666666666667E+009;1.681398004293442E-001;-1.020508408546448E-001;2.235837746411562E-003;7.013515569269657E-004;
2.426833333333334E+009;1.683155894279480E-001;-1.024572998285294E-001;2.242197282612324E-003;7.171830511651933E-004;
2.427000000000000E+009;1.681957393884659E-001;-1.026387363672257E-001;2.378873061388731E-003;7.151954341679812E-004;
2.427166666666667E+009;1.681919842958450E-001;-1.027461290359497E-001;2.326100599020720E-003;5.656272987835109E-004;
2.427333333333334E+009;1.681882292032242E-001;-1.029268354177475E-001;2.545253606513143E-003;5.434079212136567E-004;
2.427500000000000E+009;1.679590940475464E-001;-1.031396985054016E-001;2.574908547103405E-003;5.233665578998625E-004;
2.427666666666667E+009;1.675033569335938E-001;-1.032832786440849E-001;2.786832628771663E-003;4.736700793728232E-004;
2.427833333333334E+009;1.672787070274353E-001;-1.033648401498795E-001;2.708247397094965E-003;5.242590559646487E-004;
