# Version 1.00
#
freq[Hz];re:Trc1_S11;im:Trc1_S11;re:Trc2_S21;im:Trc2_S21;
2.400000000000000E+009;1.554650068283081E-001;1.067871525883675E-001;-3.884235629811883E-003;-7.515974808484316E-003;
2.400166666666667E+009;1.550197601318359E-001;1.043889671564102E-001;-4.239950329065323E-003;-7.030990440398455E-003;
2.400333333333334E+009;1.551302373409271E-001;1.020648181438446E-001;-4.442181438207626E-003;-6.645774003118277E-003;
2.400500000000000E+009;1.549107730388641E-001;9.933306276798248E-002;-4.608487244695425E-003;-6.351846735924482E-003;
2.400666666666667E+009;1.548931300640106E-001;9.680426865816116E-002;-4.607580136507750E-003;-5.960771813988686E-003;
2.400833333333334E+009;1.550450772047043E-001;9.393568336963654E-002;-4.659517668187618E-003;-5.466042552143335E-003;
2.401000000000000E+009;1.553166210651398E-001;9.103652089834213E-002;-4.673464223742485E-003;-5.160801578313112E-003;
2.401166666666667E+009;1.552237868309021E-001;8.836804330348969E-002;-4.610080737620592E-003;-4.776399116963148E-003;
2.401333333333334E+009;1.555384397506714E-001;8.563055843114853E-002;-4.527521319687367E-003;-4.502263385802507E-003;
2.401500000000000E+009;1.561607718467712E-001;8.273263275623322E-002;-4.186073318123817E-003;-4.208400379866362E-003;
2.401666666666667E+009;1.564106643199921E-001;7.981749624013901E-002;-4.141800105571747E-003;-3.993739373981953E-003;
2.401833333333334E+009;1.570930629968643E-001;7.715717703104019E-002;-4.041756968945265E-003;-3.990874160081148E-003;
2.402000000000000E+009;1.577972322702408E-001;7.410786300897598E-002;-3.834118833765388E-003;-3.909663297235966E-003;
2.402166666666667E+009;1.587240844964981E-001;7.163994759321213E-002;-3.851018147543073E-003;-3.900328185409308E-003;
2.402333333333334E+009;1.596890538930893E-001;6.888045370578766E-002;-3.848661901429296E-003;-3.875508438795805E-003;
2.402500000000000E+009;1.608555465936661E-001;6.630686670541763E-002;-3.659018082544208E-003;-3.826739732176065E-003;
2.402666666666667E+009;1.618229895830154E-001;6.388900429010391E-002;-3.646129276603460E-003;-3.855758579447866E-003;
2.402833333333334E+009;1.631337851285934E-001;6.152202934026718E-002;-3.511879593133926E-003;-3.879053285345435E-003;
2.403000000000000E+009;1.646703183650971E-001;5.903608724474907E-002;-3.692585509270430E-003;-3.828037995845079E-003;
2.403166666666667E+009;1.664175242185593E-001;5.685596913099289E-002;-3.745140274986625E-003;-3.759254468604922E-003;
2.403333333333334E+009;1.677376627922058E-001;5.463074892759323E-002;-3.918959759175777E-003;-3.888707142323256E-003;
2.403500000000000E+009;1.694007664918900E-001;5.254227295517921E-002;-3.933366388082504E-003;-3.856293857097626E-003;
2.403666666666667E+009;1.711541712284088E-001;5.053738877177239E-002;-3.804428735747933E-003;-3.943382762372494E-003;
2.403833333333334E+009;1.727409809827805E-001;4.867645725607872E-002;-4.192683380097151E-003;-3.777172649279237E-003;
2.404000000000000E+009;1.742659211158752E-001;4.680113866925240E-002;-4.172050394117832E-003;-3.678128821775317E-003;
2.404166666666667E+009;1.761589050292969E-001;4.534058645367622E-002;-4.343723412603140E-003;-3.550718538463116E-003;
2.404333333333334E+009;1.776612699031830E-001;4.387120902538300E-002;-4.402738530188799E-003;-3.619144903495908E-003;
2.404500000000000E+009;1.793036460876465E-001;4.255221784114838E-002;-4.376930184662342E-003;-3.462881082668901E-003;
2.404666666666667E+009;1.810159832239151E-001;4.137969017028809E-002;-4.566819407045841E-003;-3.271838882938027E-003;
2.404833333333334E+009;1.825318783521652E-001;4.041880741715431E-002;-4.567077383399010E-003;-3.304745769128203E-003;
2.405000000000000E+009;1.838681846857071E-001;3.970351442694664E-002;-4.659234546124935E-003;-3.150701289996505E-003;
2.405166666666667E+009;1.852211803197861E-001;3.901147097349167E-002;-4.759627394378185E-003;-3.183173015713692E-003;
2.405333333333334E+009;1.867311298847199E-001;3.854028508067131E-002;-4.853664431720972E-003;-3.025123151019216E-003;
2.405500000000000E+009;1.881418526172638E-001;3.805753961205483E-002;-4.686997737735510E-003;-2.994292648509145E-003;
2.405666666666667E+009;1.892960816621780E-001;3.783377632498741E-002;-4.934711381793022E-003;-2.812972525134683E-003;
2.405833333333334E+009;1.907191425561905E-001;3.765340149402618E-002;-4.981848411262035E-003;-2.764938632026315E-003;
2.406000000000000E+009;1.916455328464508E-001;3.737756237387657E-002;-5.062597803771496E-003;-2.694469410926104E-003;
2.406166666666667E+009;1.927373111248016E-001;3.723633289337158E-002;-5.317861214280129E-003;-2.750644227489829E-003;
2.406333333333334E+009;1.935172677040100E-001;3.735126182436943E-002;-5.334501620382071E-003;-2.528253011405468E-003;
2.406500000000000E+009;1.943821609020233E-001;3.738495707511902E-002;-5.098884459584951E-003;-2.350958529859781E-003;
2.406666666666667E+009;1.948527693748474E-001;3.732155263423920E-002;-5.261028185486794E-003;-2.351859351620078E-003;
2.406833333333334E+009;1.954302191734314E-001;3.752572461962700E-002;-5.413244012743235E-003;-2.021756023168564E-003;
2.407000000000000E+009;1.956684738397598E-001;3.769649192690849E-002;-5.560962948948145E-003;-2.238635206595063E-003;
2.407166666666667E+009;1.960777491331101E-001;3.760465234518051E-002;-5.711579229682684E-003;-2.067828318104148E-003;
2.407333333333334E+009;1.960891634225845E-001;3.772324696183205E-002;-5.728832446038723E-003;-1.782828709110618E-003;
2.407500000000000E+009;1.959468573331833E-001;3.790530934929848E-002;-5.868589971214533E-003;-1.751880510710180E-003;
2.407666666666667E+009;1.959895640611649E-001;3.781528025865555E-002;-5.956691689789295E-003;-1.559007214382291E-003;
2.407833333333334E+009;1.955260038375855E-001;3.787516057491303E-002;-5.925857927650213E-003;-1.406734809279442E-003;
2.408000000000000E+009;1.954322308301926E-001;3.775320202112198E-002;-6.155274808406830E-003;-1.341273193247616E-003;
2.408166666666667E+009;1.948705762624741E-001;3.735930845141411E-002;-6.111052352935076E-003;-1.094300765544176E-003;
2.408333333333334E+009;1.943365186452866E-001;3.688612580299377E-002;-6.163145881146193E-003;-9.851589566096664E-004;
2.408500000000000E+009;1.937699913978577E-001;3.674974665045738E-002;-6.278648972511292E-003;-8.454562630504370E-004;
2.408666666666667E+009;1.931897997856140E-001;3.596495464444161E-002;-6.392687093466520E-003;-6.015035323798657E-004;
2.408833333333334E+009;1.924468129873276E-001;3.541751578450203E-002;-6.490991450846195E-003;-4.810943501070142E-004;
2.409000000000000E+009;1.915210187435150E-001;3.450541198253632E-002;-6.471028085798025E-003;-3.187793190591037E-004;
2.409166666666667E+009;1.905233860015869E-001;3.359275683760643E-002;-6.559781730175018E-003;-2.660477184690535E-004;
2.409333333333334E+009;1.896559447050095E-001;3.263439983129501E-002;-6.665801629424095E-003;8.367168447875883E-006;
2.409500000000000E+009;1.885062158107758E-001;3.132864832878113E-002;-6.629182025790215E-003;2.473278436809778E-004;
2.409666666666667E+009;1.874086707830429E-001;2.987131476402283E-002;-6.595606449991465E-003;4.785363271366805E-004;
2.409833333333334E+009;1.864345967769623E-001;2.837469801306725E-002;-6.755603477358818E-003;6.343167042359710E-004;
2.410000000000000E+009;1.853581070899963E-001;2.677705697715282E-002;-6.660279352217913E-003;8.021867251954973E-004;
2.410166666666667E+009;1.844713240861893E-001;2.511317655444145E-002;-6.664619781076908E-003;8.521749987266958E-004;
2.410333333333334E+009;1.836352795362473E-001;2.315780334174633E-002;-6.669098511338234E-003;1.139677246101201E-003;
2.410500000000000E+009;1.823790222406387E-001;2.132880315184593E-002;-6.646531634032726E-003;1.361311413347721E-003;
2.410666666666667E+009;1.816631108522415E-001;1.900541037321091E-002;-6.517256610095501E-003;1.811894122511149E-003;
2.410833333333334E+009;1.810230761766434E-001;1.675766333937645E-002;-6.413329392671585E-003;2.023861510679126E-003;
2.411000000000000E+009;1.801676750183106E-001;1.468100771307945E-002;-6.372377276420593E-003;2.062127925455570E-003;
2.411166666666667E+009;1.795795261859894E-001;1.239043474197388E-002;-6.375159602612257E-003;2.247249940410256E-003;
2.411333333333334E+009;1.790537536144257E-001;9.751114062964916E-003;-6.294025108218193E-003;2.488333499059081E-003;
2.411500000000000E+009;1.784956455230713E-001;7.514422293752432E-003;-6.013581994920969E-003;2.829192206263542E-003;
2.411666666666667E+009;1.784293502569199E-001;5.131145473569632E-003;-5.915771238505840E-003;2.821054542437196E-003;
2.411833333333334E+009;1.781744360923767E-001;2.710607601329684E-003;-5.927557125687599E-003;2.851525787264109E-003;
2.412000000000000E+009;1.781986355781555E-001;4.564605114865117E-005;-5.833847913891077E-003;2.985099796205759E-003;
2.412166666666667E+009;1.783116161823273E-001;-2.050118520855904E-003;-5.756001919507980E-003;3.166219452396035E-003;
2.412333333333334E+009;1.784500628709793E-001;-4.669568035751581E-003;-5.563809536397457E-003;3.330803709104657E-003;
2.412500000000000E+009;1.790103912353516E-001;-7.167998235672712E-003;-5.664695519953966E-003;3.473169868811965E-003;
2.412666666666667E+009;1.795603036880493E-001;-9.710258804261684E-003;-5.568036343902350E-003;3.596180118620396E-003;
2.412833333333334E+009;1.802203804254532E-001;-1.202080026268959E-002;-5.506782326847315E-003;3.757199272513390E-003;
2.413000000000000E+009;1.808804124593735E-001;-1.438998989760876E-002;-5.307689309120178E-003;3.855996998026967E-003;
2.413166666666667E+009;1.816760301589966E-001;-1.669250614941120E-002;-5.340905860066414E-003;3.946583718061447E-003;
2.413333333333334E+009;1.828123331069946E-001;-1.888394542038441E-002;-5.338092800229788E-003;4.191587213426828E-003;
2.413500000000000E+009;1.837303489446640E-001;-2.134486846625805E-002;-5.266966298222542E-003;4.513015970587730E-003;
2.413666666666667E+009;1.849551051855087E-001;-2.357094362378120E-002;-5.046829115599394E-003;4.604293033480644E-003;
2.413833333333334E+009;1.860241293907166E-001;-2.543904632329941E-002;-5.034492816776037E-003;4.813748411834240E-003;
2.414000000000000E+009;1.873407810926437E-001;-2.749812789261341E-002;-4.767877049744129E-003;5.087748635560274E-003;
2.414166666666667E+009;1.884131580591202E-001;-2.931664325296879E-002;-4.620593041181564E-003;5.265085026621819E-003;
2.414333333333334E+009;1.895430088043213E-001;-3.135851770639420E-002;-4.282241687178612E-003;5.350117105990648E-003;
2.414500000000000E+009;1.908765137195587E-001;-3.268259763717651E-002;-4.080020822584629E-003;5.653113592416048E-003;
2.414666666666667E+009;1.919917464256287E-001;-3.443523123860359E-002;-3.909711726009846E-003;5.880557931959629E-003;
2.414833333333334E+009;1.930790692567825E-001;-3.579365462064743E-002;-3.457948798313737E-003;6.107085850089788E-003;
2.415000000000000E+009;1.943385004997253E-001;-3.706789761781693E-002;-3.326794831082225E-003;6.114582531154156E-003;
2.415166666666667E+009;1.954649835824966E-001;-3.811398521065712E-002;-3.014028072357178E-003;6.260947789996862E-003;
2.415333333333334E+009;1.968368887901306E-001;-3.908929973840714E-002;-2.754638204351068E-003;6.262339651584625E-003;
2.415500000000000E+009;1.978101432323456E-001;-3.982998058199883E-002;-2.318611834198237E-003;6.309610791504383E-003;
2.415666666666667E+009;1.988565921783447E-001;-4.066487774252892E-002;-2.196494722738862E-003;6.310078781098127E-003;
2.415833333333334E+009;1.997849196195602E-001;-4.128317907452583E-002;-1.846782979555428E-003;6.397699937224388E-003;
2.416000000000000E+009;2.003763169050217E-001;-4.185643047094345E-002;-1.542696729302406E-003;6.380084902048111E-003;
2.416166666666667E+009;2.011433541774750E-001;-4.234734550118446E-002;-1.217035343870521E-003;6.243447773158550E-003;
2.416333333333334E+009;2.018624544143677E-001;-4.257880151271820E-002;-9.102921467274427E-004;6.169054191559553E-003;
2.416500000000000E+009;2.022729665040970E-001;-4.280140623450279E-002;-7.351086242124438E-004;5.953683052212000E-003;
2.416666666666667E+009;2.025068402290344E-001;-4.316507652401924E-002;-4.955344484187663E-004;5.929934326559305E-003;
2.416833333333334E+009;2.026978582143784E-001;-4.309207201004028E-002;-3.567478852346540E-004;5.855914670974016E-003;
2.417000000000000E+009;2.028393447399139E-001;-4.328853264451027E-002;-3.574642178136855E-004;5.780722480267286E-003;
2.417166666666667E+009;2.025693506002426E-001;-4.306810721755028E-002;-1.094800463761203E-004;5.721895955502987E-003;
2.417333333333334E+009;2.023267298936844E-001;-4.287955537438393E-002;7.098161586327478E-005;5.360627546906471E-003;
2.417500000000000E+009;2.020402252674103E-001;-4.281166195869446E-002;6.842107541160658E-005;5.480039399117231E-003;
2.417666666666667E+009;2.015558481216431E-001;-4.259392246603966E-002;4.225921657052822E-005;5.461537279188633E-003;
2.417833333333334E+009;2.012348920106888E-001;-4.234147444367409E-002;1.227924949489534E-004;5.421873647719622E-003;
2.418000000000000E+009;2.005231976509094E-001;-4.204367846250534E-002;4.036609316244721E-004;5.295898765325546E-003;
2.418166666666667E+009;1.997129917144775E-001;-4.199894145131111E-002;4.121175443287939E-004;5.285324994474649E-003;
2.418333333333334E+009;1.987513601779938E-001;-4.175313562154770E-002;5.337921902537346E-004;5.138032604008913E-003;
2.418500000000000E+009;1.977860629558563E-001;-4.196825250983238E-002;6.550160469487310E-004;5.096145439893007E-003;
2.418666666666667E+009;1.969864666461945E-001;-4.173359647393227E-002;8.705983054824174E-004;4.921793006360531E-003;
2.418833333333334E+009;1.955985724925995E-001;-4.192313924431801E-002;1.061285147443414E-003;4.983722697943449E-003;
2.419000000000000E+009;1.944499015808106E-001;-4.216575622558594E-002;1.040235976688564E-003;4.817407578229904E-003;
2.419166666666667E+009;1.930842399597168E-001;-4.236830770969391E-002;1.290554646402597E-003;4.705824423581362E-003;
2.419333333333334E+009;1.915044486522675E-001;-4.290080070495606E-002;1.264912774786353E-003;4.531862679868937E-003;
2.419500000000000E+009;1.901120394468308E-001;-4.338534921407700E-002;1.435697893612087E-003;4.278770182281733E-003;
2.419666666666667E+009;1.885121166706085E-001;-4.416923969984055E-002;1.525456435047090E-003;4.174561239778996E-003;
2.419833333333334E+009;1.868958324193955E-001;-4.481733962893486E-002;1.520068384706974E-003;4.038429353386164E-003;
2.420000000000000E+009;1.853478997945786E-001;-4.568581283092499E-002;1.381264417432249E-003;3.861813805997372E-003;
2.420166666666667E+009;1.837061047554016E-001;-4.672928526997566E-002;1.292003435082734E-003;3.632507054135203E-003;
2.420333333333334E+009;1.820451468229294E-001;-4.782354086637497E-002;1.241468242369592E-003;3.606046084314585E-003;
2.420500000000000E+009;1.803681850433350E-001;-4.914280399680138E-002;1.172195537947118E-003;3.412867430597544E-003;
2.420666666666667E+009;1.787677109241486E-001;-5.028187856078148E-002;9.923906764015555E-004;3.391903359442949E-003;
2.420833333333334E+009;1.770896762609482E-001;-5.174256116151810E-002;7.567249122075737E-004;3.352279076352716E-003;
2.421000000000000E+009;1.755875498056412E-001;-5.333506315946579E-002;7.317703566513956E-004;3.300891956314445E-003;
2.421166666666667E+009;1.742497384548187E-001;-5.505181849002838E-002;6.209876737557352E-004;3.468626877292991E-003;
2.421333333333334E+009;1.726552098989487E-001;-5.656041204929352E-002;4.058446502313018E-004;3.602927085012198E-003;
2.421500000000000E+009;1.713269799947739E-001;-5.858445912599564E-002;2.380327641731128E-004;3.659553360193968E-003;
2.421666666666667E+009;1.700418442487717E-001;-6.040454655885696E-002;1.979417575057596E-004;3.902911674231291E-003;
2.421833333333334E+009;1.689413785934448E-001;-6.227275729179382E-002;4.850974801229313E-005;4.117394331842661E-003;
2.422000000000000E+009;1.677696704864502E-001;-6.424784660339356E-002;1.305966725340113E-004;4.389280918985605E-003;
2.422166666666667E+009;1.669193804264069E-001;-6.641187518835068E-002;2.391747402725741E-004;4.536325111985207E-003;
2.422333333333334E+009;1.659783273935318E-001;-6.834981590509415E-002;2.924614527728409E-004;4.789339378476143E-003;
2.422500000000000E+009;1.652247607707977E-001;-7.045389711856842E-002;4.478885675780475E-004;5.042196251451969E-003;
2.422666666666667E+009;1.645791530609131E-001;-7.243710011243820E-002;4.380979225970805E-004;5.131490062922239E-003;
2.422833333333334E+009;1.640270501375198E-001;-7.467670738697052E-002;7.560863741673529E-004;5.348579492419958E-003;
2.423000000000000E+009;1.636378318071365E-001;-7.674729079008102E-002;9.791818447411060E-004;5.491754505783320E-003;
2.423166666666667E+009;1.631767600774765E-001;-7.857032865285873E-002;1.267271116375923E-003;5.702812690287828E-003;
2.423333333333334E+009;1.628719717264175E-001;-8.067532628774643E-002;1.511805225163698E-003;5.783090833574534E-003;
2.423500000000000E+009;1.628839820623398E-001;-8.253813534975052E-002;1.645071781240404E-003;5.845553707331419E-003;
2.423666666666667E+009;1.629696637392044E-001;-8.442385494709015E-002;1.870846957899630E-003;5.834352690726519E-003;
2.423833333333334E+009;1.628525555133820E-001;-8.640269190073013E-002;2.285302849486470E-003;5.891342181712389E-003;
2.424000000000000E+009;1.630143821239471E-001;-8.813729137182236E-002;2.440448617562652E-003;5.822045728564262E-003;
2.424166666666667E+009;1.632586121559143E-001;-8.972193300724030E-002;2.721777418628335E-003;6.071565207093954E-003;
2.424333333333334E+009;1.633974909782410E-001;-9.120373427867889E-002;3.148749470710754E-003;5.957462824881077E-003;
2.424500000000000E+009;1.637481003999710E-001;-9.298226237297058E-002;3.154549980536103E-003;5.927826743572950E-003;
2.424666666666667E+009;1.639803946018219E-001;-9.448508918285370E-002;3.685797797515988E-003;6.079744547605515E-003;
2.424833333333334E+009;1.646810024976730E-001;-9.569498151540756E-002;4.113221541047096E-003;5.845318082720041E-003;
2.425000000000000E+009;1.648965030908585E-001;-9.693232923746109E-002;4.294564016163349E-003;5.804441403597593E-003;
2.425166666666667E+009;1.653072386980057E-001;-9.807485342025757E-002;4.613734316080809E-003;5.741377361118794E-003;
2.425333333333334E+009;1.655182093381882E-001;-9.906902909278870E-002;4.922669380903244E-003;5.440807435661554E-003;
2.425500000000000E+009;1.660685837268829E-001;-1.000697240233421E-001;5.152475554496050E-003;5.327900871634483E-003;
2.425666666666667E+009;1.664474010467529E-001;-1.006305962800980E-001;5.643695592880249E-003;4.975256975740194E-003;
2.425833333333334E+009;1.668715476989746E-001;-1.015573441982269E-001;5.881111137568951E-003;4.829028155654669E-003;
2.426000000000000E+009;1.672208458185196E-001;-1.019372120499611E-001;6.074827164411545E-003;4.807799123227596E-003;
2.426166666666667E+009;1.675768345594406E-001;-1.024622470140457E-001;6.324399728327990E-003;4.412184469401836E-003;
2.426333333333334E+009;1.676805168390274E-001;-1.030774265527725E-001;6.555776577442884E-003;4.094037227332592E-003;
2.426500000000000E+009;1.680233478546143E-001;-1.031312346458435E-001;6.633761338889599E-003;3.777328412979841E-003;
2.426666666666667E+009;1.683168560266495E-001;-1.035266593098640E-001;6.912655197083950E-003;3.476845333352685E-003;
2.426833333333334E+009;1.685054302215576E-001;-1.038399040699005E-001;7.040400989353657E-003;3.052063519135118E-003;
2.427000000000000E+009;1.685259938240051E-001;-1.039967611432076E-001;7.198266219347715E-003;2.680459059774876E-003;
2.427166666666667E+009;1.685524731874466E-001;-1.039790362119675E-001;7.191426586359739E-003;2.595749450847507E-003;
2.427333333333334E+009;1.683252751827240E-001;-1.042867675423622E-001;7.336602546274662E-003;2.122466452419758E-003;
2.427500000000000E+009;1.680673062801361E-001;-1.043752059340477E-001;7.352322340011597E-003;1.781139872036874E-003;
2.427666666666667E+009;1.678836643695831E-001;-1.044006720185280E-001;7.427915465086699E-003;1.577332383021712E-003;
2.427833333333334E+009;1.673233509063721E-001;-1.044523119926453E-001;7.434639148414135E-003;1.386671559885144E-003;
