# Version 1.00
#
freq[Hz];re:Trc1_S11;im:Trc1_S11;re:Trc2_S21;im:Trc2_S21;
2.400000000000000E+009;1.554204225540161E-001;1.066925376653671E-001;-3.871774766594172E-003;-7.534111849963665E-003;
2.400166666666667E+009;1.550883948802948E-001;1.043559685349464E-001;-4.055597353726625E-003;-7.155648432672024E-003;
2.400333333333334E+009;1.550729125738144E-001;1.019872054457665E-001;-4.397280048578978E-003;-6.877393927425146E-003;
2.400500000000000E+009;1.549913138151169E-001;9.918052703142166E-002;-4.574322607368231E-003;-6.346383132040501E-003;
2.400666666666667E+009;1.550159603357315E-001;9.681931138038635E-002;-4.610321950167418E-003;-5.970196332782507E-003;
2.400833333333334E+009;1.550058573484421E-001;9.395329654216766E-002;-4.696786869317293E-003;-5.675827153027058E-003;
2.401000000000000E+009;1.551875174045563E-001;9.121002256870270E-002;-4.728130064904690E-003;-5.289649590849876E-003;
2.401166666666667E+009;1.551148593425751E-001;8.844111114740372E-002;-4.685899708420038E-003;-4.951881244778633E-003;
2.401333333333334E+009;1.556932181119919E-001;8.554899692535400E-002;-4.500253126025200E-003;-4.585582762956619E-003;
2.401500000000000E+009;1.559922546148300E-001;8.267690241336823E-002;-4.490497987717390E-003;-4.314182791858912E-003;
2.401666666666667E+009;1.564694494009018E-001;7.980830222368240E-002;-4.042907152324915E-003;-4.369176924228668E-003;
2.401833333333334E+009;1.570412665605545E-001;7.707577943801880E-002;-4.129944834858179E-003;-4.085259512066841E-003;
2.402000000000000E+009;1.578720808029175E-001;7.414869219064713E-002;-3.913538996130228E-003;-3.897583577781916E-003;
2.402166666666667E+009;1.586588770151138E-001;7.161951065063477E-002;-3.873561508953571E-003;-3.845735453069210E-003;
2.402333333333334E+009;1.598820984363556E-001;6.876252591609955E-002;-3.721839981153607E-003;-4.418925847858191E-003;
2.402500000000000E+009;1.606033742427826E-001;6.663754582405090E-002;-3.540124278515577E-003;-3.208453301340342E-003;
2.402666666666667E+009;1.613795161247253E-001;6.474100798368454E-002;-3.278134856373072E-003;-2.185385441407561E-003;
2.402833333333334E+009;1.627450883388519E-001;6.143462657928467E-002;-4.502371884882450E-003;-3.037247806787491E-003;
2.403000000000000E+009;1.646230518817902E-001;5.908467620611191E-002;-3.628115169703960E-003;-4.027306102216244E-003;
2.403166666666667E+009;1.662483811378479E-001;5.677784979343414E-002;-3.862802404910326E-003;-3.971493337303400E-003;
2.403333333333334E+009;1.677627116441727E-001;5.455423146486282E-002;-3.983639646321535E-003;-4.026396200060844E-003;
2.403500000000000E+009;1.695086807012558E-001;5.254102498292923E-002;-3.920841030776501E-003;-3.842314705252647E-003;
2.403666666666667E+009;1.712262332439423E-001;5.070871114730835E-002;-4.081996157765389E-003;-3.827810054644942E-003;
2.403833333333334E+009;1.727476865053177E-001;4.858390986919403E-002;-4.215184133499861E-003;-3.701514098793268E-003;
2.404000000000000E+009;1.741643100976944E-001;4.683269932866097E-002;-4.280401393771172E-003;-3.760371590033174E-003;
2.404166666666667E+009;1.760804206132889E-001;4.550255462527275E-002;-4.430054221302271E-003;-3.576249815523624E-003;
2.404333333333334E+009;1.772565990686417E-001;4.375761374831200E-002;-5.527041852474213E-003;-3.346836427226663E-003;
2.404500000000000E+009;1.792861819267273E-001;4.323492944240570E-002;-3.891768865287304E-003;-2.146849874407053E-003;
2.404666666666667E+009;1.803558319807053E-001;4.100573807954788E-002;-6.274698302149773E-003;-3.724355483427644E-003;
2.404833333333334E+009;1.823918968439102E-001;4.001085460186005E-002;-5.302624776959419E-003;-3.776881610974670E-003;
2.405000000000000E+009;1.842005997896195E-001;3.934501856565476E-002;-4.357073921710253E-003;-4.244588315486908E-003;
2.405166666666667E+009;1.853545159101486E-001;3.912145271897316E-002;-4.888350144028664E-003;-2.819255460053682E-003;
2.405333333333334E+009;1.868193298578262E-001;3.845171257853508E-002;-4.872751422226429E-003;-3.091974649578333E-003;
2.405500000000000E+009;1.882628947496414E-001;3.810942173004150E-002;-5.102194380015135E-003;-3.028312465175986E-003;
2.405666666666667E+009;1.892556399106979E-001;3.782849013805389E-002;-4.606081638485193E-003;-2.267500618472695E-003;
2.405833333333334E+009;1.906966865062714E-001;3.734435513615608E-002;-5.433623213320971E-003;-2.938971621915698E-003;
2.406000000000000E+009;1.915021687746048E-001;3.708835691213608E-002;-5.760117899626494E-003;-2.397333038970828E-003;
2.406166666666667E+009;1.926224976778030E-001;3.714377805590630E-002;-5.382105708122253E-003;-2.557038562372327E-003;
2.406333333333334E+009;1.937738507986069E-001;3.731365874409676E-002;-5.149668082594872E-003;-2.718061208724976E-003;
2.406500000000000E+009;1.942463368177414E-001;3.713124990463257E-002;-5.747788120061159E-003;-1.821165787987411E-003;
2.406666666666667E+009;1.950078904628754E-001;3.733109310269356E-002;-5.458903964608908E-003;-1.857325201854110E-003;
2.406833333333334E+009;1.956971883773804E-001;3.715196251869202E-002;-6.229262333363295E-003;-2.701193094253540E-003;
2.407000000000000E+009;1.958990395069122E-001;3.759101778268814E-002;-5.499159451574087E-003;-2.135951537638903E-003;
2.407166666666667E+009;1.961735188961029E-001;3.747368976473808E-002;-5.878862459212542E-003;-1.769854454323649E-003;
2.407333333333334E+009;1.960589140653610E-001;3.770685195922852E-002;-5.897141527384520E-003;-1.846921164542437E-003;
2.407500000000000E+009;1.960880905389786E-001;3.778043389320374E-002;-5.897330120205879E-003;-1.837378251366317E-003;
2.407666666666667E+009;1.961222887039185E-001;3.786829486489296E-002;-6.205138750374317E-003;-1.485199318267405E-003;
2.407833333333334E+009;1.955477446317673E-001;3.776572272181511E-002;-6.109527777880430E-003;-1.525518950074911E-003;
2.408000000000000E+009;1.954817324876785E-001;3.759840503334999E-002;-6.202149670571089E-003;-1.192360417917371E-003;
2.408166666666667E+009;1.949285566806793E-001;3.737801313400269E-002;-6.345099769532681E-003;-1.070338301360607E-003;
2.408333333333334E+009;1.944250762462616E-001;3.693623840808868E-002;-6.247920915484428E-003;-8.825570694170892E-004;
2.408500000000000E+009;1.937507390975952E-001;3.656398132443428E-002;-6.435643881559372E-003;-6.400285637937486E-004;
2.408666666666667E+009;1.930653601884842E-001;3.602290153503418E-002;-6.413938477635384E-003;-5.409430013969541E-004;
2.408833333333334E+009;1.925142705440521E-001;3.542328253388405E-002;-6.423667538911104E-003;-2.731333952397108E-004;
2.409000000000000E+009;1.915900707244873E-001;3.436275571584702E-002;-6.495722103863955E-003;-1.822888298192993E-004;
2.409166666666667E+009;1.905395984649658E-001;3.353152796626091E-002;-6.561568006873131E-003;-3.874689355143346E-006;
2.409333333333334E+009;1.894907206296921E-001;3.258229792118073E-002;-6.636161357164383E-003;6.739669333910570E-005;
2.409500000000000E+009;1.884557306766510E-001;3.120049834251404E-002;-6.560113281011581E-003;1.949376019183546E-004;
2.409666666666667E+009;1.875063031911850E-001;2.990887314081192E-002;-6.680087652057409E-003;5.290066474117339E-004;
2.409833333333334E+009;1.865044385194778E-001;2.832599915564060E-002;-6.655825302004814E-003;7.091928273439407E-004;
2.410000000000000E+009;1.854808181524277E-001;2.672629989683628E-002;-6.684810854494572E-003;9.533903794363141E-004;
2.410166666666667E+009;1.844757944345474E-001;2.486841566860676E-002;-6.662746425718069E-003;1.341365627013147E-003;
2.410333333333334E+009;1.836033612489700E-001;2.306624129414558E-002;-6.684679538011551E-003;1.601155032403767E-003;
2.410500000000000E+009;1.825389415025711E-001;2.109820768237114E-002;-6.654069293290377E-003;1.620347611606121E-003;
2.410666666666667E+009;1.816486418247223E-001;1.895008981227875E-002;-6.649159826338291E-003;1.899004564620554E-003;
2.410833333333334E+009;1.810475140810013E-001;1.682192645967007E-002;-6.510095670819283E-003;2.075482392683625E-003;
2.411000000000000E+009;1.802250295877457E-001;1.454489119350910E-002;-6.347190588712692E-003;2.265373244881630E-003;
2.411166666666667E+009;1.794720590114594E-001;1.237124484032393E-002;-6.242555100470781E-003;2.480531577020884E-003;
2.411333333333334E+009;1.789310425519943E-001;9.794247336685658E-003;-6.194717716425657E-003;2.646071603521705E-003;
2.411500000000000E+009;1.786622107028961E-001;7.482660934329033E-003;-5.956882145255804E-003;2.735830610617995E-003;
2.411666666666667E+009;1.784379631280899E-001;4.945054650306702E-003;-5.967300385236740E-003;3.008596133440733E-003;
2.411833333333334E+009;1.780976951122284E-001;2.555958461016417E-003;-5.851563997566700E-003;3.067763056606054E-003;
2.412000000000000E+009;1.782794743776321E-001;1.685145834926516E-004;-5.668675061315298E-003;3.087569959461689E-003;
2.412166666666667E+009;1.783544272184372E-001;-2.099709119647741E-003;-5.633386783301830E-003;3.279508790001273E-003;
2.412333333333334E+009;1.784493774175644E-001;-4.837057087570429E-003;-5.587596446275711E-003;3.418307052925229E-003;
2.412500000000000E+009;1.790465414524078E-001;-7.067366968840361E-003;-5.487979389727116E-003;3.691784339025617E-003;
2.412666666666667E+009;1.793578267097473E-001;-9.707996621727943E-003;-5.410662386566401E-003;3.702361136674881E-003;
2.412833333333334E+009;1.803217530250549E-001;-1.202937867492437E-002;-5.404937546700239E-003;3.868884639814496E-003;
2.413000000000000E+009;1.808921843767166E-001;-1.456631720066071E-002;-5.254308693110943E-003;3.990663681179285E-003;
2.413166666666667E+009;1.817907243967056E-001;-1.689879037439823E-002;-5.194271448999643E-003;4.216630943119526E-003;
2.413333333333334E+009;1.827536821365356E-001;-1.911620236933231E-002;-5.211982876062393E-003;4.346050787717104E-003;
2.413500000000000E+009;1.837154328823090E-001;-2.121952176094055E-002;-5.012589972466230E-003;4.674379713833332E-003;
2.413666666666667E+009;1.848578453063965E-001;-2.362607792019844E-002;-4.898762796074152E-003;4.811792168766260E-003;
2.413833333333334E+009;1.860944032669067E-001;-2.548815310001373E-002;-4.768105223774910E-003;5.002820864319801E-003;
2.414000000000000E+009;1.870111525058746E-001;-2.768255397677422E-002;-4.638964775949717E-003;5.326868966221809E-003;
2.414166666666667E+009;1.883373111486435E-001;-2.959292940795422E-002;-4.386425483971834E-003;5.507220514118671E-003;
2.414333333333334E+009;1.896252036094666E-001;-3.151062503457069E-002;-4.229537211358547E-003;5.740573164075613E-003;
2.414500000000000E+009;1.909005492925644E-001;-3.284676000475884E-002;-3.976047039031982E-003;5.822881124913693E-003;
2.414666666666667E+009;1.920426040887833E-001;-3.443652763962746E-002;-3.722577821463347E-003;6.082866806536913E-003;
2.414833333333334E+009;1.933200061321259E-001;-3.575123474001885E-002;-3.633209969848394E-003;6.279942579567432E-003;
2.415000000000000E+009;1.942943185567856E-001;-3.708292916417122E-002;-3.195969620719552E-003;6.191575899720192E-003;
2.415166666666667E+009;1.955713480710983E-001;-3.825869038701057E-002;-2.937972545623779E-003;6.374483928084374E-003;
2.415333333333334E+009;1.966919004917145E-001;-3.919753804802895E-002;-2.566202078014612E-003;6.549918558448553E-003;
2.415500000000000E+009;1.978605985641480E-001;-3.988692536950111E-002;-2.214494394138455E-003;6.689013913273811E-003;
2.415666666666667E+009;1.987510025501251E-001;-4.075379669666290E-002;-1.931502833031118E-003;6.472616456449032E-003;
2.415833333333334E+009;1.996704339981079E-001;-4.134429991245270E-002;-1.648452715016902E-003;6.529531907290220E-003;
2.416000000000000E+009;2.003889083862305E-001;-4.189385846257210E-002;-1.314052031375468E-003;6.480206269770861E-003;
2.416166666666667E+009;2.011068165302277E-001;-4.243733361363411E-002;-1.089685712940991E-003;6.368124391883612E-003;
2.416333333333334E+009;2.017398029565811E-001;-4.262027889490128E-002;-8.267387165687978E-004;6.182698067277670E-003;
2.416500000000000E+009;2.022565752267838E-001;-4.290490970015526E-002;-6.432898808270693E-004;6.089614704251289E-003;
2.416666666666667E+009;2.024865895509720E-001;-4.326966404914856E-002;-3.509185917209834E-004;5.978942383080721E-003;
2.416833333333334E+009;2.026248127222061E-001;-4.321507737040520E-002;-4.297861014492810E-004;5.940658506006002E-003;
2.417000000000000E+009;2.028073817491531E-001;-4.329265281558037E-002;-2.411341556580737E-004;5.709446500986815E-003;
2.417166666666667E+009;2.025245577096939E-001;-4.311034083366394E-002;-2.651481008797418E-005;5.689965561032295E-003;
2.417333333333334E+009;2.022737860679627E-001;-4.294577240943909E-002;-1.799853635020554E-005;5.468430928885937E-003;
2.417500000000000E+009;2.019877880811691E-001;-4.289681464433670E-002;3.980060137109831E-005;5.325687117874622E-003;
2.417666666666667E+009;2.014643102884293E-001;-4.275812953710556E-002;2.666896034497768E-004;5.357783287763596E-003;
2.417833333333334E+009;2.010849565267563E-001;-4.246159270405769E-002;3.704419650603086E-004;5.237457342445850E-003;
2.418000000000000E+009;2.004448175430298E-001;-4.221949353814125E-002;3.676277410704643E-004;5.303921643644571E-003;
2.418166666666667E+009;1.995842754840851E-001;-4.210143536329269E-002;5.696656298823655E-004;5.167481955140829E-003;
2.418333333333334E+009;1.986903995275497E-001;-4.200626909732819E-002;8.066215086728334E-004;5.142872687429190E-003;
2.418500000000000E+009;1.977484673261643E-001;-4.191518947482109E-002;8.303681970573962E-004;5.127615761011839E-003;
2.418666666666667E+009;1.967103630304337E-001;-4.187473654747009E-002;9.462365997023881E-004;5.019743926823139E-003;
2.418833333333334E+009;1.953472793102264E-001;-4.205007478594780E-002;1.039535854943097E-003;4.823286551982164E-003;
2.419000000000000E+009;1.942028105258942E-001;-4.223709926009178E-002;1.347182784229517E-003;4.718597047030926E-003;
2.419166666666667E+009;1.929716318845749E-001;-4.262847825884819E-002;1.338877598755062E-003;4.577825777232647E-003;
2.419333333333334E+009;1.915161758661270E-001;-4.309608042240143E-002;1.348324934951961E-003;4.566441755741835E-003;
2.419500000000000E+009;1.899951547384262E-001;-4.339774698019028E-002;1.413776655681431E-003;4.334102850407362E-003;
2.419666666666667E+009;1.884188354015350E-001;-4.431458190083504E-002;1.510349684394896E-003;4.100505728274584E-003;
2.419833333333334E+009;1.867219060659409E-001;-4.489760100841522E-002;1.524989958852530E-003;3.955461084842682E-003;
2.420000000000000E+009;1.853172779083252E-001;-4.579962044954300E-002;1.501643331721425E-003;3.773814300075173E-003;
2.420166666666667E+009;1.836127042770386E-001;-4.675177112221718E-002;1.503045321442187E-003;3.665956668555737E-003;
2.420333333333334E+009;1.819636970758438E-001;-4.794109612703323E-002;1.417644787579775E-003;3.459583269432187E-003;
2.420500000000000E+009;1.802357435226440E-001;-4.925335943698883E-002;1.231507165357471E-003;3.342493437230587E-003;
2.420666666666667E+009;1.785866022109985E-001;-5.016042292118073E-002;1.041187322698534E-003;3.235355950891972E-003;
2.420833333333334E+009;1.769697815179825E-001;-5.195358768105507E-002;9.858754929155111E-004;3.388441167771816E-003;
2.421000000000000E+009;1.755478829145432E-001;-5.337747186422348E-002;7.620578981004655E-004;3.308817045763135E-003;
2.421166666666667E+009;1.741455048322678E-001;-5.520078167319298E-002;6.275394116528332E-004;3.322792006656528E-003;
2.421333333333334E+009;1.724536418914795E-001;-5.665928125381470E-002;4.884771769866347E-004;3.450918942689896E-003;
2.421500000000000E+009;1.711999475955963E-001;-5.866590514779091E-002;5.025253049097955E-004;3.521312261000276E-003;
2.421666666666667E+009;1.699341833591461E-001;-6.048617139458656E-002;2.771314175333828E-004;3.806542372331023E-003;
2.421833333333334E+009;1.688142120838165E-001;-6.240040808916092E-002;2.311799034941942E-004;3.932271152734757E-003;
2.422000000000000E+009;1.676294356584549E-001;-6.421868503093720E-002;1.080643560271710E-004;4.110173322260380E-003;
2.422166666666667E+009;1.668482273817062E-001;-6.634513288736343E-002;3.746676084119827E-004;4.465961363166571E-003;
2.422333333333334E+009;1.658957898616791E-001;-6.852853298187256E-002;2.593982790131122E-004;4.700948484241962E-003;
2.422500000000000E+009;1.651568859815598E-001;-7.031326740980148E-002;4.781025054398924E-004;4.795426968485117E-003;
2.422666666666667E+009;1.644023805856705E-001;-7.250423729419708E-002;7.759754080325365E-004;5.005678161978722E-003;
2.422833333333334E+009;1.639606058597565E-001;-7.460456341505051E-002;7.982732495293021E-004;5.220507737249136E-003;
2.423000000000000E+009;1.634135991334915E-001;-7.669782638549805E-002;1.009472412988544E-003;5.502971820533276E-003;
2.423166666666667E+009;1.630922406911850E-001;-7.858460396528244E-002;1.310534775257111E-003;5.397562403231859E-003;
2.423333333333334E+009;1.628392040729523E-001;-8.062952011823654E-002;1.467208145186305E-003;5.684580653905869E-003;
2.423500000000000E+009;1.628234237432480E-001;-8.258135616779327E-002;1.744465786032379E-003;5.778019316494465E-003;
2.423666666666667E+009;1.627368330955505E-001;-8.451610803604126E-002;1.941634225659072E-003;5.678232759237289E-003;
2.423833333333334E+009;1.626446992158890E-001;-8.621685951948166E-002;2.275947714224458E-003;5.723868031054735E-003;
2.424000000000000E+009;1.629099845886231E-001;-8.801741898059845E-002;2.587055554613471E-003;5.840720143169165E-003;
2.424166666666667E+009;1.629976779222488E-001;-8.962796628475189E-002;2.813083585351706E-003;5.833876784890890E-003;
2.424333333333334E+009;1.632246524095535E-001;-9.119587391614914E-002;2.982781501486898E-003;5.954800639301539E-003;
2.424500000000000E+009;1.635354459285736E-001;-9.295497834682465E-002;3.408106043934822E-003;5.909089930355549E-003;
2.424666666666667E+009;1.638511121273041E-001;-9.428922832012177E-002;3.638444934040308E-003;5.818843841552734E-003;
2.424833333333334E+009;1.643764823675156E-001;-9.560530632734299E-002;3.883230965584517E-003;5.759593099355698E-003;
2.425000000000000E+009;1.648242175579071E-001;-9.687986224889755E-002;4.286923445761204E-003;5.583974532783032E-003;
2.425166666666667E+009;1.651159524917603E-001;-9.785302728414536E-002;4.644548986107111E-003;5.525168031454086E-003;
2.425333333333334E+009;1.654594689607620E-001;-9.882938861846924E-002;4.873085767030716E-003;5.380815360695124E-003;
2.425500000000000E+009;1.658908575773239E-001;-9.987588226795197E-002;5.208611954003573E-003;5.153331439942122E-003;
2.425666666666667E+009;1.662506759166718E-001;-1.004719734191895E-001;5.484811495989561E-003;5.144708789885044E-003;
2.425833333333334E+009;1.665198206901550E-001;-1.013987585902214E-001;5.680964328348637E-003;4.820934962481260E-003;
2.426000000000000E+009;1.670756191015244E-001;-1.017781794071198E-001;6.098653655499220E-003;4.508188925683498E-003;
2.426166666666667E+009;1.674555093050003E-001;-1.022488400340080E-001;6.305554881691933E-003;4.335854202508926E-003;
2.426333333333334E+009;1.675721108913422E-001;-1.027833893895149E-001;6.450882181525230E-003;4.075174685567617E-003;
2.426500000000000E+009;1.679620891809464E-001;-1.030023992061615E-001;6.632798351347446E-003;3.673683386296034E-003;
2.426666666666667E+009;1.681383997201920E-001;-1.032933890819550E-001;6.725709885358810E-003;3.344618715345860E-003;
2.426833333333334E+009;1.684489697217941E-001;-1.036377102136612E-001;6.987290922552347E-003;3.031812841072679E-003;
2.427000000000000E+009;1.684759855270386E-001;-1.037733927369118E-001;7.193296682089567E-003;2.949459012597799E-003;
2.427166666666667E+009;1.684320867061615E-001;-1.038626730442047E-001;7.251291070133448E-003;2.385900123044848E-003;
2.427333333333334E+009;1.683504134416580E-001;-1.040655672550201E-001;7.107503246515989E-003;2.160399919375777E-003;
2.427500000000000E+009;1.679686456918716E-001;-1.041704714298248E-001;7.399921771138907E-003;1.823458005674183E-003;
2.427666666666667E+009;1.677084863185883E-001;-1.043090000748634E-001;7.342134602367878E-003;1.558578573167324E-003;
2.427833333333334E+009;1.673674732446671E-001;-1.043854579329491E-001;7.350052706897259E-003;1.092914491891861E-003;
