# Version 1.00
#
freq[Hz];re:Trc1_S11;im:Trc1_S11;re:Trc2_S21;im:Trc2_S21;
2.400000000000000E+009;1.554775834083557E-001;1.046142205595970E-001;-2.405552659183741E-003;-3.348846221342683E-003;
2.400166666666667E+009;1.555605828762054E-001;1.023634001612663E-001;-2.243821276351810E-003;-2.986001549288631E-003;
2.400333333333334E+009;1.556826978921890E-001;1.003953889012337E-001;-2.367562381550670E-003;-3.006780287250876E-003;
2.400500000000000E+009;1.557664275169373E-001;9.767772257328033E-002;-2.010134281590581E-003;-2.935084747150540E-003;
2.400666666666667E+009;1.560549736022949E-001;9.529180824756622E-002;-2.159537281841040E-003;-2.954608993604779E-003;
2.400833333333334E+009;1.561090499162674E-001;9.254785627126694E-002;-2.115950454026461E-003;-3.133579855784774E-003;
2.401000000000000E+009;1.566665917634964E-001;8.988342434167862E-002;-2.160256262868643E-003;-3.153878031298518E-003;
2.401166666666667E+009;1.566116213798523E-001;8.726383000612259E-002;-2.361345803365111E-003;-3.155628684908152E-003;
2.401333333333334E+009;1.572356373071671E-001;8.462174236774445E-002;-2.309909788891673E-003;-3.124137176200748E-003;
2.401500000000000E+009;1.575891077518463E-001;8.184568583965302E-002;-2.417868934571743E-003;-3.310204017907381E-003;
2.401666666666667E+009;1.580061763525009E-001;7.912342995405197E-002;-2.595430472865701E-003;-3.181641921401024E-003;
2.401833333333334E+009;1.585242003202438E-001;7.674543559551239E-002;-2.660203492268920E-003;-3.218270139768720E-003;
2.402000000000000E+009;1.595510989427567E-001;7.419414818286896E-002;-2.937254495918751E-003;-3.152454737573862E-003;
2.402166666666667E+009;1.603800207376480E-001;7.188095897436142E-002;-3.129597520455718E-003;-3.016017144545913E-003;
2.402333333333334E+009;1.612631231546402E-001;6.933037936687470E-002;-3.320896998047829E-003;-3.086499869823456E-003;
2.402500000000000E+009;1.625517010688782E-001;6.689812988042831E-002;-3.421575995162129E-003;-2.918361686170101E-003;
2.402666666666667E+009;1.634778380393982E-001;6.478746235370636E-002;-3.598995041102171E-003;-2.751303603872657E-003;
2.402833333333334E+009;1.646825671195984E-001;6.243226677179337E-002;-3.849282395094633E-003;-2.678057644516230E-003;
2.403000000000000E+009;1.661441028118134E-001;6.015326082706451E-002;-3.735475940629840E-003;-2.412362024188042E-003;
2.403166666666667E+009;1.676169186830521E-001;5.821109563112259E-002;-4.000701475888491E-003;-2.285377820953727E-003;
2.403333333333334E+009;1.691258102655411E-001;5.619279295206070E-002;-3.992360085248947E-003;-2.240282483398914E-003;
2.403500000000000E+009;1.704766899347305E-001;5.425336956977844E-002;-4.111627582460642E-003;-1.950784469954670E-003;
2.403666666666667E+009;1.721761077642441E-001;5.250284820795059E-002;-4.035331308841705E-003;-1.928584766574204E-003;
2.403833333333334E+009;1.737478375434876E-001;5.067633837461472E-002;-4.187169019132853E-003;-1.590160769410431E-003;
2.404000000000000E+009;1.750564426183701E-001;4.909101501107216E-002;-4.187822807580233E-003;-1.344760414212942E-003;
2.404166666666667E+009;1.766075342893601E-001;4.744412750005722E-002;-4.154909867793322E-003;-1.295821857638657E-003;
2.404333333333334E+009;1.781875044107437E-001;4.613666236400604E-002;-4.222838673740625E-003;-1.028209691867232E-003;
2.404500000000000E+009;1.794806420803070E-001;4.464781284332275E-002;-4.067549947649241E-003;-8.955334778875113E-004;
2.404666666666667E+009;1.810466945171356E-001;4.365228861570358E-002;-4.082068335264921E-003;-7.253818330354989E-004;
2.404833333333334E+009;1.824346482753754E-001;4.264294728636742E-002;-4.010459873825312E-003;-6.811555940657854E-004;
2.405000000000000E+009;1.838552206754684E-001;4.195023328065872E-002;-4.004032351076603E-003;-4.145195125602186E-004;
2.405166666666667E+009;1.851342022418976E-001;4.118723049759865E-002;-3.962505608797073E-003;-3.893299144692719E-004;
2.405333333333334E+009;1.862628757953644E-001;4.074951261281967E-002;-3.932922612875700E-003;-3.534453571774066E-004;
2.405500000000000E+009;1.875677555799484E-001;4.024551436305046E-002;-3.948777914047241E-003;-3.873832174576819E-004;
2.405666666666667E+009;1.885968744754791E-001;3.970005363225937E-002;-3.899216419085860E-003;-6.982099876040593E-005;
2.405833333333334E+009;1.896959841251373E-001;3.926045075058937E-002;-3.878598567098379E-003;-6.469202344305813E-005;
2.406000000000000E+009;1.905686557292938E-001;3.893863409757614E-002;-4.018506035208702E-003;-1.226492604473606E-004;
2.406166666666667E+009;1.915620267391205E-001;3.877773135900497E-002;-3.834777977317572E-003;1.273136294912547E-004;
2.406333333333334E+009;1.923937797546387E-001;3.862232714891434E-002;-3.824924817308784E-003;2.540145396778826E-005;
2.406500000000000E+009;1.930227130651474E-001;3.851315006613731E-002;-3.893385175615549E-003;1.715506223263219E-004;
2.406666666666667E+009;1.935880482196808E-001;3.841576725244522E-002;-4.009548109024763E-003;2.957921824418008E-004;
2.406833333333334E+009;1.939563155174255E-001;3.838217258453369E-002;-3.994433209300041E-003;3.684211696963757E-004;
2.407000000000000E+009;1.942075043916702E-001;3.835571184754372E-002;-4.015290178358555E-003;5.504895234480500E-004;
2.407166666666667E+009;1.945690810680389E-001;3.779319673776627E-002;-4.052450880408287E-003;6.490217638202012E-004;
2.407333333333334E+009;1.945446133613586E-001;3.787334635853767E-002;-4.063383676111698E-003;5.397388013079763E-004;
2.407500000000000E+009;1.943800896406174E-001;3.782276809215546E-002;-4.046479240059853E-003;7.450337288901210E-004;
2.407666666666667E+009;1.944896429777145E-001;3.745770081877708E-002;-4.069931339472532E-003;7.612201734445989E-004;
2.407833333333334E+009;1.941091865301132E-001;3.726016357541084E-002;-3.871778026223183E-003;9.945697383955121E-004;
2.408000000000000E+009;1.940812915563583E-001;3.694127127528191E-002;-4.000160377472639E-003;9.850363712757826E-004;
2.408166666666667E+009;1.935551911592484E-001;3.648882359266281E-002;-4.009056370705366E-003;1.166977919638157E-003;
2.408333333333334E+009;1.932195723056793E-001;3.565327450633049E-002;-3.998369444161654E-003;1.151899457909167E-003;
2.408500000000000E+009;1.925270408391953E-001;3.530288860201836E-002;-3.982949536293745E-003;1.166102825663984E-003;
2.408666666666667E+009;1.919855624437332E-001;3.462733700871468E-002;-3.952858038246632E-003;1.358858542516828E-003;
2.408833333333334E+009;1.913968771696091E-001;3.373635560274124E-002;-3.976762760430574E-003;1.624715747311711E-003;
2.409000000000000E+009;1.906169950962067E-001;3.268097341060638E-002;-4.051398485898972E-003;1.770678907632828E-003;
2.409166666666667E+009;1.898521482944489E-001;3.158986940979958E-002;-4.012537654489279E-003;1.938287401571870E-003;
2.409333333333334E+009;1.889473348855972E-001;3.046191111207008E-002;-3.905461868271232E-003;2.117453375831246E-003;
2.409500000000000E+009;1.880396455526352E-001;2.922171913087368E-002;-3.924943972378969E-003;2.311347518116236E-003;
2.409666666666667E+009;1.871775388717651E-001;2.762476541101933E-002;-3.889507148414850E-003;2.442101249471307E-003;
2.409833333333334E+009;1.861789375543594E-001;2.603714354336262E-002;-3.722984809428453E-003;2.586555201560259E-003;
2.410000000000000E+009;1.855017542839050E-001;2.465240284800530E-002;-3.785361070185900E-003;2.731950953602791E-003;
2.410166666666667E+009;1.845600306987763E-001;2.275029197335243E-002;-3.728525713086128E-003;2.924851607531309E-003;
2.410333333333334E+009;1.838621199131012E-001;2.104376815259457E-002;-3.597945673391223E-003;3.174157347530127E-003;
2.410500000000000E+009;1.830404251813889E-001;1.901638135313988E-002;-3.399426583200693E-003;3.296507988125086E-003;
2.410666666666667E+009;1.822974830865860E-001;1.690431870520115E-002;-3.243142738938332E-003;3.404290415346623E-003;
2.410833333333334E+009;1.818474382162094E-001;1.479384955018759E-002;-3.016529371961951E-003;3.399460576474667E-003;
2.411000000000000E+009;1.810695528984070E-001;1.293171104043722E-002;-2.874423516914249E-003;3.523277817294002E-003;
2.411166666666667E+009;1.807992905378342E-001;1.053147576749325E-002;-2.742352662608028E-003;3.687543328851461E-003;
2.411333333333334E+009;1.802348196506500E-001;8.123151026666164E-003;-2.523180097341538E-003;3.612236352637410E-003;
2.411500000000000E+009;1.799969822168350E-001;6.020180881023407E-003;-2.311637392267585E-003;3.688862081617117E-003;
2.411666666666667E+009;1.797757744789124E-001;3.803726052865386E-003;-2.257392974570394E-003;3.870394313707948E-003;
2.411833333333334E+009;1.793476939201355E-001;1.442519715055823E-003;-2.185936784371734E-003;3.848286578431726E-003;
2.412000000000000E+009;1.798398494720459E-001;-9.545533102937043E-004;-2.012189710512757E-003;3.763571148738265E-003;
2.412166666666667E+009;1.799881309270859E-001;-3.071274142712355E-003;-1.930473605170846E-003;3.800148842856288E-003;
2.412333333333334E+009;1.800906211137772E-001;-5.423558875918388E-003;-1.890848274342716E-003;3.758780658245087E-003;
2.412500000000000E+009;1.805090010166168E-001;-7.720562629401684E-003;-1.653112121857703E-003;3.783206921070814E-003;
2.412666666666667E+009;1.811230927705765E-001;-9.919953532516956E-003;-1.540797180496156E-003;3.815043019130826E-003;
2.412833333333334E+009;1.816468983888626E-001;-1.234195195138454E-002;-1.483267638832331E-003;3.970397170633078E-003;
2.413000000000000E+009;1.822788715362549E-001;-1.431363169103861E-002;-1.375632593408227E-003;3.948228433728218E-003;
2.413166666666667E+009;1.831011176109314E-001;-1.650004833936691E-002;-1.226338790729642E-003;3.899465315043926E-003;
2.413333333333334E+009;1.841794699430466E-001;-1.849645934998989E-002;-1.084623625501990E-003;3.949683159589768E-003;
2.413500000000000E+009;1.848986148834229E-001;-2.075323462486267E-002;-1.117444946430624E-003;4.028960131108761E-003;
2.413666666666667E+009;1.860021203756332E-001;-2.270097844302654E-002;-1.039636670611799E-003;4.142292309552431E-003;
2.413833333333334E+009;1.869416385889053E-001;-2.460871823132038E-002;-7.852153503336012E-004;4.118825308978558E-003;
2.414000000000000E+009;1.877862662076950E-001;-2.640053629875183E-002;-9.388089529238641E-004;4.051864147186279E-003;
2.414166666666667E+009;1.890590786933899E-001;-2.831065654754639E-002;-5.946697201579809E-004;4.152761772274971E-003;
2.414333333333334E+009;1.899341791868210E-001;-3.002535924315453E-002;-4.435651644598693E-004;4.167819861322641E-003;
2.414500000000000E+009;1.911024451255798E-001;-3.135536611080170E-002;-4.346702771726996E-004;4.264521412551403E-003;
2.414666666666667E+009;1.922240555286408E-001;-3.268386423587799E-002;-2.346285909879953E-004;4.185803700238466E-003;
2.414833333333334E+009;1.931033581495285E-001;-3.418568894267082E-002;-3.561294306564378E-006;4.112110473215580E-003;
2.415000000000000E+009;1.938992589712143E-001;-3.536203131079674E-002;1.272027875529602E-004;4.214964341372252E-003;
2.415166666666667E+009;1.950493007898331E-001;-3.658578917384148E-002;3.169007541146129E-004;4.103099461644888E-003;
2.415333333333334E+009;1.960801482200623E-001;-3.724384307861328E-002;3.162889333907515E-004;4.052049014717341E-003;
2.415500000000000E+009;1.970601677894592E-001;-3.810752555727959E-002;5.069679464213550E-004;4.073181655257940E-003;
2.415666666666667E+009;1.979274004697800E-001;-3.898434713482857E-002;5.268616951070726E-004;4.235836211591959E-003;
2.415833333333334E+009;1.985057890415192E-001;-3.953536599874497E-002;5.749014671891928E-004;4.031504504382610E-003;
2.416000000000000E+009;1.991273909807205E-001;-4.008506238460541E-002;7.723083253949881E-004;3.876655595377088E-003;
2.416166666666667E+009;1.997585743665695E-001;-4.074164852499962E-002;8.322215871885419E-004;3.870435291901231E-003;
2.416333333333334E+009;2.003911882638931E-001;-4.103136435151100E-002;9.034982067532837E-004;3.916868939995766E-003;
2.416500000000000E+009;2.007247656583786E-001;-4.146719723939896E-002;1.079761073924601E-003;4.005060531198978E-003;
2.416666666666667E+009;2.008025497198105E-001;-4.180197417736054E-002;1.156797050498426E-003;3.957440610975027E-003;
2.416833333333334E+009;2.010438889265060E-001;-4.195493832230568E-002;1.361140049993992E-003;3.906302619725466E-003;
2.417000000000000E+009;2.009792625904083E-001;-4.224455729126930E-002;1.545959501527250E-003;3.914440982043743E-003;
2.417166666666667E+009;2.006499469280243E-001;-4.228066653013229E-002;1.553123700432479E-003;3.992343321442604E-003;
2.417333333333334E+009;2.003554254770279E-001;-4.215209186077118E-002;1.620364841073751E-003;3.803532803431153E-003;
2.417500000000000E+009;2.000573426485062E-001;-4.226715117692947E-002;1.951767248101533E-003;3.842501901090145E-003;
2.417666666666667E+009;1.995493173599243E-001;-4.224271327257156E-002;2.054454758763313E-003;3.772212890908122E-003;
2.417833333333334E+009;1.989951282739639E-001;-4.227525740861893E-002;2.238597255200148E-003;3.773267846554518E-003;
2.418000000000000E+009;1.983908116817474E-001;-4.220275208353996E-002;2.472649328410626E-003;3.679980989545584E-003;
2.418166666666667E+009;1.976087093353272E-001;-4.220358654856682E-002;2.578459214419127E-003;3.516093362122774E-003;
2.418333333333334E+009;1.968462467193604E-001;-4.217202588915825E-002;2.764057833701372E-003;3.357931273058057E-003;
2.418500000000000E+009;1.957413405179977E-001;-4.241368919610977E-002;2.742876531556249E-003;3.230948466807604E-003;
2.418666666666667E+009;1.949157416820526E-001;-4.237644374370575E-002;2.907364396378398E-003;3.007398918271065E-003;
2.418833333333334E+009;1.937683075666428E-001;-4.270831495523453E-002;2.924112835898995E-003;2.802775241434574E-003;
2.419000000000000E+009;1.924654394388199E-001;-4.306677728891373E-002;2.979917684569955E-003;2.717804163694382E-003;
2.419166666666667E+009;1.915086209774017E-001;-4.335097968578339E-002;2.948620822280645E-003;2.623819280415773E-003;
2.419333333333334E+009;1.902481317520142E-001;-4.410788044333458E-002;2.946020802482963E-003;2.288253512233496E-003;
2.419500000000000E+009;1.888390779495239E-001;-4.449128732085228E-002;2.907682908698916E-003;2.421745797619224E-003;
2.419666666666667E+009;1.874674409627914E-001;-4.533512890338898E-002;2.900583436712623E-003;2.194643486291170E-003;
2.419833333333334E+009;1.859978735446930E-001;-4.590871930122376E-002;2.882372122257948E-003;2.103526610881090E-003;
2.420000000000000E+009;1.845848858356476E-001;-4.686606302857399E-002;2.777842339128256E-003;2.027518115937710E-003;
2.420166666666667E+009;1.832232773303986E-001;-4.792356491088867E-002;2.726733451709151E-003;2.099168021231890E-003;
2.420333333333334E+009;1.817865669727325E-001;-4.906001314520836E-002;2.709035994485021E-003;1.946066389791668E-003;
2.420500000000000E+009;1.803011447191238E-001;-5.050642415881157E-002;2.693575806915760E-003;2.214548178017139E-003;
2.420666666666667E+009;1.786773949861527E-001;-5.147976428270340E-002;2.917850855737925E-003;2.185197779908776E-003;
2.420833333333334E+009;1.774634271860123E-001;-5.292432382702828E-002;2.930774120613933E-003;2.063236664980650E-003;
2.421000000000000E+009;1.761013567447662E-001;-5.443713068962097E-002;3.064132528379560E-003;1.970872748643160E-003;
2.421166666666667E+009;1.749181896448135E-001;-5.620485171675682E-002;3.304683603346348E-003;2.089338377118111E-003;
2.421333333333334E+009;1.732183545827866E-001;-5.761001259088516E-002;3.282932331785560E-003;1.921353628858924E-003;
2.421500000000000E+009;1.722611635923386E-001;-5.951635167002678E-002;3.389331279322505E-003;2.007122850045562E-003;
2.421666666666667E+009;1.710226386785507E-001;-6.107909604907036E-002;3.465872490778565E-003;1.708978903479874E-003;
2.421833333333334E+009;1.700896471738815E-001;-6.311047077178955E-002;3.608006518334150E-003;1.719164196401835E-003;
2.422000000000000E+009;1.689863353967667E-001;-6.473332643508911E-002;3.743581473827362E-003;1.619972288608551E-003;
2.422166666666667E+009;1.682677268981934E-001;-6.668591499328613E-002;3.808940760791302E-003;1.248938613571227E-003;
2.422333333333334E+009;1.673636734485626E-001;-6.867834925651550E-002;3.796604694798589E-003;1.241938327439129E-003;
2.422500000000000E+009;1.664218455553055E-001;-7.039946317672730E-002;3.716015256941319E-003;1.160824787802994E-003;
2.422666666666667E+009;1.659697890281677E-001;-7.228258997201920E-002;3.655050881206989E-003;8.866003481671214E-004;
2.422833333333334E+009;1.655031591653824E-001;-7.423664629459381E-002;3.872863482683897E-003;9.703540708869696E-004;
2.423000000000000E+009;1.650160104036331E-001;-7.610324770212174E-002;3.749863710254431E-003;7.509511779062450E-004;
2.423166666666667E+009;1.646112948656082E-001;-7.811525464057922E-002;3.698098706081510E-003;6.887527415528894E-004;
2.423333333333334E+009;1.644040793180466E-001;-7.980001717805862E-002;3.888855921104550E-003;5.199684528633952E-004;
2.423500000000000E+009;1.642633527517319E-001;-8.137272298336029E-002;3.681404283270240E-003;3.886320337187499E-004;
2.423666666666667E+009;1.641816943883896E-001;-8.330708742141724E-002;3.596310038119555E-003;2.689626708161086E-004;
2.423833333333334E+009;1.640942394733429E-001;-8.494153618812561E-002;3.728202776983380E-003;1.583096309332177E-004;
2.424000000000000E+009;1.640403568744659E-001;-8.649204671382904E-002;3.936586435884237E-003;1.861541095422581E-004;
2.424166666666667E+009;1.641445308923721E-001;-8.789591491222382E-002;3.719931468367577E-003;6.663663225481287E-005;
2.424333333333334E+009;1.642659306526184E-001;-8.949607610702515E-002;3.725430462509394E-003;6.520143506349996E-005;
2.424500000000000E+009;1.645595729351044E-001;-9.101863205432892E-002;3.847094019874930E-003;-3.663397365016863E-005;
2.424666666666667E+009;1.645865738391876E-001;-9.225662797689438E-002;3.698638640344143E-003;-1.702686568023637E-004;
2.424833333333334E+009;1.650427281856537E-001;-9.356047213077545E-002;3.675958374515176E-003;-3.230583679396659E-004;
2.425000000000000E+009;1.653557568788528E-001;-9.448245912790299E-002;3.737928345799446E-003;-3.542359336279333E-004;
2.425166666666667E+009;1.655151695013046E-001;-9.569469094276428E-002;3.796961158514023E-003;-4.823579511139542E-004;
2.425333333333334E+009;1.658850312232971E-001;-9.658052027225494E-002;3.716199425980449E-003;-4.376117722131312E-004;
2.425500000000000E+009;1.660064160823822E-001;-9.760858863592148E-002;3.746296977624297E-003;-6.605809903703630E-004;
2.425666666666667E+009;1.663369238376617E-001;-9.819470345973969E-002;3.805830609053373E-003;-8.514804649166763E-004;
2.425833333333334E+009;1.665816158056259E-001;-9.899762272834778E-002;3.732555313035846E-003;-1.045802375301719E-003;
2.426000000000000E+009;1.668800562620163E-001;-9.943708032369614E-002;3.895997302606702E-003;-8.553925435990095E-004;
2.426166666666667E+009;1.670318096876144E-001;-1.001860871911049E-001;3.742437576875091E-003;-1.260677468962967E-003;
2.426333333333334E+009;1.671039760112763E-001;-1.006883010268211E-001;3.726526163518429E-003;-1.337555469945073E-003;
2.426500000000000E+009;1.673720926046372E-001;-1.009385213255882E-001;3.612659405916929E-003;-1.547240186482668E-003;
2.426666666666667E+009;1.674597412347794E-001;-1.014223247766495E-001;3.585082478821278E-003;-1.641113776713610E-003;
2.426833333333334E+009;1.676554828882217E-001;-1.018349826335907E-001;3.574536181986332E-003;-1.774570671841502E-003;
2.427000000000000E+009;1.674562692642212E-001;-1.020310446619988E-001;3.594405716285110E-003;-1.796273747459054E-003;
2.427166666666667E+009;1.674002259969711E-001;-1.022747978568077E-001;3.538568271324039E-003;-1.983701018616557E-003;
2.427333333333334E+009;1.673031300306320E-001;-1.025541424751282E-001;3.601560136303306E-003;-2.020900137722492E-003;
2.427500000000000E+009;1.669154465198517E-001;-1.029996797442436E-001;3.433247096836567E-003;-2.271085046231747E-003;
2.427666666666667E+009;1.665635854005814E-001;-1.031491458415985E-001;3.378109540790319E-003;-2.318301005288959E-003;
2.427833333333334E+009;1.661761105060577E-001;-1.034254208207130E-001;3.315871115773916E-003;-2.460957504808903E-003;
