# Version 1.00
#
freq[Hz];re:Trc1_S11;im:Trc1_S11;re:Trc2_S21;im:Trc2_S21;
2.400000000000000E+009;1.553989946842194E-001;1.049127876758575E-001;-2.221717266365886E-003;-3.238792996853590E-003;
2.400166666666667E+009;1.552975475788117E-001;1.026068553328514E-001;-2.150284359231591E-003;-2.988512627780438E-003;
2.400333333333334E+009;1.555933952331543E-001;1.004043221473694E-001;-2.233602572232485E-003;-3.108147531747818E-003;
2.400500000000000E+009;1.557518690824509E-001;9.785953909158707E-002;-1.953089958988130E-003;-3.023000899702311E-003;
2.400666666666667E+009;1.559592336416245E-001;9.543285518884659E-002;-2.082063350826502E-003;-2.851205645129085E-003;
2.400833333333334E+009;1.561580151319504E-001;9.281238168478012E-002;-2.048794878646731E-003;-2.925762208178639E-003;
2.401000000000000E+009;1.565561890602112E-001;9.001515060663223E-002;-1.957061467692256E-003;-2.962290542200208E-003;
2.401166666666667E+009;1.567194461822510E-001;8.753670006990433E-002;-2.037008525803685E-003;-3.075078362599015E-003;
2.401333333333334E+009;1.571174710988998E-001;8.469321578741074E-002;-2.208243124186993E-003;-3.058911534026265E-003;
2.401500000000000E+009;1.575977802276611E-001;8.207726478576660E-002;-2.495653461664915E-003;-3.285428974777460E-003;
2.401666666666667E+009;1.580372601747513E-001;7.929506152868271E-002;-2.468589926138520E-003;-3.321436233818531E-003;
2.401833333333334E+009;1.586532890796661E-001;7.692167162895203E-002;-2.628829563036561E-003;-3.162384033203125E-003;
2.402000000000000E+009;1.595827043056488E-001;7.420203089714050E-002;-2.699784236028791E-003;-3.125548129901290E-003;
2.402166666666667E+009;1.603326797485352E-001;7.175347208976746E-002;-2.961753867566586E-003;-3.007100196555257E-003;
2.402333333333334E+009;1.613667607307434E-001;6.942455470561981E-002;-3.204917069524527E-003;-3.115151543170214E-003;
2.402500000000000E+009;1.623860150575638E-001;6.703624129295349E-002;-3.408184042200446E-003;-2.789659658446908E-003;
2.402666666666667E+009;1.632369756698608E-001;6.484453380107880E-002;-3.436624538153410E-003;-2.716655144467950E-003;
2.402833333333334E+009;1.646248698234558E-001;6.248554959893227E-002;-3.500293008983135E-003;-2.560725668445230E-003;
2.403000000000000E+009;1.662158370018005E-001;6.054488569498062E-002;-3.942346200346947E-003;-2.255816012620926E-003;
2.403166666666667E+009;1.676146388053894E-001;5.834322050213814E-002;-3.759359708055854E-003;-2.278047148138285E-003;
2.403333333333334E+009;1.690273731946945E-001;5.629686638712883E-002;-3.770242445170879E-003;-2.129870466887951E-003;
2.403500000000000E+009;1.706110537052155E-001;5.440505594015122E-002;-3.940368071198463E-003;-1.819256576709449E-003;
2.403666666666667E+009;1.721511632204056E-001;5.267885699868202E-002;-3.966720309108496E-003;-1.746975583955646E-003;
2.403833333333334E+009;1.735784411430359E-001;5.089366436004639E-002;-3.909092862159014E-003;-1.606673584319651E-003;
2.404000000000000E+009;1.750521063804627E-001;4.914658144116402E-002;-4.062714986503124E-003;-1.403698697686195E-003;
2.404166666666667E+009;1.767109632492065E-001;4.768559709191322E-002;-4.102422390133143E-003;-1.205318956635892E-003;
2.404333333333334E+009;1.781828552484512E-001;4.617788270115852E-002;-4.110002890229225E-003;-1.107388641685247E-003;
2.404500000000000E+009;1.795777678489685E-001;4.482808336615562E-002;-3.898239927366376E-003;-8.910797769203782E-004;
2.404666666666667E+009;1.811479479074478E-001;4.380363970994949E-002;-3.969707991927862E-003;-7.320080767385662E-004;
2.404833333333334E+009;1.826422959566116E-001;4.278773441910744E-002;-3.836309304460883E-003;-8.112160721793771E-004;
2.405000000000000E+009;1.836647093296051E-001;4.213007166981697E-002;-3.727315925061703E-003;-6.104984204284847E-004;
2.405166666666667E+009;1.850860565900803E-001;4.130930826067925E-002;-3.929647617042065E-003;-4.679324338212609E-004;
2.405333333333334E+009;1.863161623477936E-001;4.068581014871597E-002;-3.835954004898667E-003;-6.528387311846018E-004;
2.405500000000000E+009;1.874980926513672E-001;4.023816809058189E-002;-3.659325418993831E-003;-3.827099862974137E-004;
2.405666666666667E+009;1.885419785976410E-001;3.984493017196655E-002;-3.796257311478257E-003;-2.988280903082341E-004;
2.405833333333334E+009;1.898178756237030E-001;3.947755321860313E-002;-3.686859970912337E-003;-2.184284821851179E-004;
2.406000000000000E+009;1.906382590532303E-001;3.917326405644417E-002;-3.855750663205981E-003;-2.019805979216471E-004;
2.406166666666667E+009;1.915524899959564E-001;3.887152671813965E-002;-3.662997856736183E-003;-1.155867503257468E-004;
2.406333333333334E+009;1.923016607761383E-001;3.886641189455986E-002;-3.818531986325979E-003;-3.992385609308258E-005;
2.406500000000000E+009;1.930725574493408E-001;3.863381966948509E-002;-3.669549478217959E-003;9.337033407064155E-005;
2.406666666666667E+009;1.934863626956940E-001;3.856930881738663E-002;-3.760225139558315E-003;1.571937464177609E-004;
2.406833333333334E+009;1.939948052167893E-001;3.837478533387184E-002;-3.841317491605878E-003;1.514654286438599E-004;
2.407000000000000E+009;1.941877603530884E-001;3.840193152427673E-002;-3.893955610692501E-003;2.220222231699154E-004;
2.407166666666667E+009;1.945833116769791E-001;3.807920217514038E-002;-3.928500227630138E-003;1.853188441600651E-004;
2.407333333333334E+009;1.945211291313171E-001;3.807338327169418E-002;-3.869111416861415E-003;5.275399307720363E-004;
2.407500000000000E+009;1.944431513547897E-001;3.793216496706009E-002;-3.882893361151218E-003;6.584562943316996E-004;
2.407666666666667E+009;1.945833712816238E-001;3.766800090670586E-002;-4.060911480337381E-003;6.875654798932374E-004;
2.407833333333334E+009;1.942081600427628E-001;3.733889386057854E-002;-4.061247687786818E-003;7.703995215706527E-004;
2.408000000000000E+009;1.940335631370544E-001;3.704140707850456E-002;-4.065614659339190E-003;9.684617398306727E-004;
2.408166666666667E+009;1.935967355966568E-001;3.657721728086472E-002;-3.897668793797493E-003;1.016642083413899E-003;
2.408333333333334E+009;1.932051777839661E-001;3.595421463251114E-002;-4.050750751048327E-003;1.131862052716315E-003;
2.408500000000000E+009;1.925517618656158E-001;3.547132760286331E-002;-4.102844279259443E-003;1.118019456043840E-003;
2.408666666666667E+009;1.919849365949631E-001;3.476665169000626E-002;-4.090104252099991E-003;1.307280617766082E-003;
2.408833333333334E+009;1.915267854928970E-001;3.382320329546928E-002;-4.055925179272890E-003;1.297738286666572E-003;
2.409000000000000E+009;1.906091868877411E-001;3.276248276233673E-002;-3.979060798883438E-003;1.733059994876385E-003;
2.409166666666667E+009;1.896837800741196E-001;3.174914419651032E-002;-3.953654784709215E-003;1.744502456858754E-003;
2.409333333333334E+009;1.890760362148285E-001;3.080841526389122E-002;-4.113206639885902E-003;1.890063635073602E-003;
2.409500000000000E+009;1.880522370338440E-001;2.926600538194180E-002;-3.960591740906239E-003;2.197246300056577E-003;
2.409666666666667E+009;1.872089356184006E-001;2.785912156105042E-002;-3.965189680457115E-003;2.286778530105948E-003;
2.409833333333334E+009;1.864175200462341E-001;2.642780914902687E-002;-3.859933232888579E-003;2.713108668103814E-003;
2.410000000000000E+009;1.856074333190918E-001;2.480245381593704E-002;-3.818898927420378E-003;2.801146823912859E-003;
2.410166666666667E+009;1.849137991666794E-001;2.295380830764771E-002;-3.759183455258608E-003;2.867876784875989E-003;
2.410333333333334E+009;1.840232312679291E-001;2.128314040601254E-002;-3.599802032113075E-003;3.033363725990057E-003;
2.410500000000000E+009;1.832247823476791E-001;1.931713148951531E-002;-3.548549022525549E-003;3.022063756361604E-003;
2.410666666666667E+009;1.823694854974747E-001;1.705456897616386E-002;-3.257435979321599E-003;3.213094314560294E-003;
2.410833333333334E+009;1.820087581872940E-001;1.500159129500389E-002;-3.182495944201946E-003;3.404824063181877E-003;
2.411000000000000E+009;1.812701225280762E-001;1.287267450243235E-002;-3.096352564170957E-003;3.530685557052493E-003;
2.411166666666667E+009;1.809747219085693E-001;1.072814222425222E-002;-2.870966214686632E-003;3.529610810801387E-003;
2.411333333333334E+009;1.803844273090363E-001;8.317793719470501E-003;-2.606491092592478E-003;3.577135037630796E-003;
2.411500000000000E+009;1.801049411296845E-001;6.132221780717373E-003;-2.529027638956904E-003;3.575142240151763E-003;
2.411666666666667E+009;1.799386590719223E-001;3.926570992916822E-003;-2.339969621971250E-003;3.561440156772733E-003;
2.411833333333334E+009;1.797387897968292E-001;1.575901405885816E-003;-2.171582309529185E-003;3.672616789117456E-003;
2.412000000000000E+009;1.799584031105042E-001;-8.662173640914261E-004;-2.177838003262878E-003;3.777862293645740E-003;
2.412166666666667E+009;1.802845299243927E-001;-2.987438114359975E-003;-2.094908617436886E-003;3.681075526401401E-003;
2.412333333333334E+009;1.802481263875961E-001;-5.303320940583944E-003;-1.924139913171530E-003;3.791854251176119E-003;
2.412500000000000E+009;1.808817535638809E-001;-7.595390081405640E-003;-1.914739375934005E-003;3.726885886862874E-003;
2.412666666666667E+009;1.810746937990189E-001;-9.910033084452152E-003;-1.776328659616411E-003;3.750847419723868E-003;
2.412833333333334E+009;1.819470226764679E-001;-1.202274765819311E-002;-1.567547791637480E-003;3.934985958039761E-003;
2.413000000000000E+009;1.826343834400177E-001;-1.422282960265875E-002;-1.618554349988699E-003;3.921770490705967E-003;
2.413166666666667E+009;1.832496374845505E-001;-1.630267687141895E-002;-1.311069121584296E-003;3.958090208470821E-003;
2.413333333333334E+009;1.842959672212601E-001;-1.864716410636902E-002;-1.330233062617481E-003;3.930584061890841E-003;
2.413500000000000E+009;1.850694864988327E-001;-2.066191099584103E-002;-1.032415893860161E-003;3.857390256598592E-003;
2.413666666666667E+009;1.861609965562820E-001;-2.270015701651573E-002;-1.148997689597309E-003;3.927621524780989E-003;
2.413833333333334E+009;1.871698051691055E-001;-2.460702881217003E-002;-9.983332129195333E-004;4.165885504335165E-003;
2.414000000000000E+009;1.880737096071243E-001;-2.646735124289990E-002;-8.330167620442808E-004;4.118085373193026E-003;
2.414166666666667E+009;1.892914921045303E-001;-2.812950313091278E-002;-8.774133166298270E-004;4.108401481062174E-003;
2.414333333333334E+009;1.900432407855988E-001;-2.999801188707352E-002;-6.366859888657928E-004;4.168631508946419E-003;
2.414500000000000E+009;1.912388950586319E-001;-3.127340227365494E-002;-5.760342464782298E-004;4.253640305250883E-003;
2.414666666666667E+009;1.923927515745163E-001;-3.271853178739548E-002;-2.926404704339802E-004;4.232849460095167E-003;
2.414833333333334E+009;1.933060139417648E-001;-3.421554341912270E-002;-1.960326917469502E-004;4.293891601264477E-003;
2.415000000000000E+009;1.942699551582336E-001;-3.534513711929321E-002;2.943011895695236E-005;4.211844410747290E-003;
2.415166666666667E+009;1.952921599149704E-001;-3.643991425633431E-002;3.739702515304089E-005;4.248892888426781E-003;
2.415333333333334E+009;1.962679028511047E-001;-3.729128465056419E-002;3.551768022589386E-004;4.120693542063236E-003;
2.415500000000000E+009;1.973064988851547E-001;-3.802536427974701E-002;3.952898259740323E-004;4.052872303873301E-003;
2.415666666666667E+009;1.981150805950165E-001;-3.902324661612511E-002;3.965842770412564E-004;3.985350020229816E-003;
2.415833333333334E+009;1.987219154834747E-001;-3.965075686573982E-002;6.314517231658101E-004;4.081958904862404E-003;
2.416000000000000E+009;1.994811594486237E-001;-4.020440950989723E-002;5.385067779570818E-004;4.012309946119785E-003;
2.416166666666667E+009;2.000703364610672E-001;-4.074539244174957E-002;8.272078703157604E-004;4.045186098664999E-003;
2.416333333333334E+009;2.006050199270248E-001;-4.109784588217735E-002;8.327306713908911E-004;3.989914897829294E-003;
2.416500000000000E+009;2.008489519357681E-001;-4.156090691685677E-002;1.021517091430724E-003;3.874177578836680E-003;
2.416666666666667E+009;2.011316120624542E-001;-4.184748232364655E-002;1.097132102586329E-003;4.043474793434143E-003;
2.416833333333334E+009;2.011033743619919E-001;-4.206905886530876E-002;1.262226374819875E-003;3.933063242584467E-003;
2.417000000000000E+009;2.011160999536514E-001;-4.232782870531082E-002;1.476107630878687E-003;3.960201516747475E-003;
2.417166666666667E+009;2.007403969764710E-001;-4.234191775321960E-002;1.445233472622931E-003;3.893478075042367E-003;
2.417333333333334E+009;2.006411254405975E-001;-4.225651919841766E-002;1.647532102651894E-003;4.112227819859982E-003;
2.417500000000000E+009;2.002000212669373E-001;-4.256185889244080E-002;1.871464075520635E-003;3.925344906747341E-003;
2.417666666666667E+009;1.995850056409836E-001;-4.229058325290680E-002;1.827708678320050E-003;3.880124306306243E-003;
2.417833333333334E+009;1.991908848285675E-001;-4.229716956615448E-002;2.201274270191789E-003;3.908909391611815E-003;
2.418000000000000E+009;1.985135674476624E-001;-4.222010076045990E-002;2.272906247526407E-003;3.685010597109795E-003;
2.418166666666667E+009;1.978686898946762E-001;-4.233017936348915E-002;2.494806190952659E-003;3.663697279989719E-003;
2.418333333333334E+009;1.968975365161896E-001;-4.231480509042740E-002;2.526997355744243E-003;3.426475450396538E-003;
2.418500000000000E+009;1.958917677402496E-001;-4.248528555035591E-002;2.624533604830504E-003;3.386401105672121E-003;
2.418666666666667E+009;1.950823962688446E-001;-4.253532364964485E-002;2.915007295086980E-003;3.120110835880041E-003;
2.418833333333334E+009;1.939757615327835E-001;-4.273303225636482E-002;2.711733337491751E-003;3.024553880095482E-003;
2.419000000000000E+009;1.926517039537430E-001;-4.311012849211693E-002;2.837370382621884E-003;2.704055747017264E-003;
2.419166666666667E+009;1.916060298681259E-001;-4.345440119504929E-002;2.947930712252855E-003;2.641583560034633E-003;
2.419333333333334E+009;1.903305351734161E-001;-4.401968792080879E-002;2.904233988374472E-003;2.417315496131778E-003;
2.419500000000000E+009;1.889779567718506E-001;-4.453921318054199E-002;2.991234418004751E-003;2.435547299683094E-003;
2.419666666666667E+009;1.875356584787369E-001;-4.548178985714912E-002;2.832242520526052E-003;2.250675810500979E-003;
2.419833333333334E+009;1.861575841903687E-001;-4.616118967533112E-002;2.766232471913099E-003;2.279023407027125E-003;
2.420000000000000E+009;1.847449243068695E-001;-4.698884859681130E-002;2.826783573254943E-003;2.156835282221437E-003;
2.420166666666667E+009;1.832659095525742E-001;-4.809192940592766E-002;2.732734195888042E-003;2.230508951470256E-003;
2.420333333333334E+009;1.818705499172211E-001;-4.934496432542801E-002;2.802071394398809E-003;2.277310471981764E-003;
2.420500000000000E+009;1.802525073289871E-001;-5.053414404392242E-002;2.853303914889693E-003;2.303911605849862E-003;
2.420666666666667E+009;1.788385659456253E-001;-5.171265825629234E-002;2.787065226584673E-003;2.376172225922346E-003;
2.420833333333334E+009;1.773962527513504E-001;-5.319788679480553E-002;2.982586855068803E-003;2.241506008431315E-003;
2.421000000000000E+009;1.762123554944992E-001;-5.481185391545296E-002;3.071038052439690E-003;2.201348310336471E-003;
2.421166666666667E+009;1.748663932085037E-001;-5.629821866750717E-002;3.192973323166370E-003;2.366652479395270E-003;
2.421333333333334E+009;1.735106259584427E-001;-5.769823491573334E-002;3.145107533782721E-003;2.210532780736685E-003;
2.421500000000000E+009;1.721997708082199E-001;-5.965084210038185E-002;3.340595168992877E-003;1.975156832486391E-003;
2.421666666666667E+009;1.711249500513077E-001;-6.145989149808884E-002;3.421674482524395E-003;1.982421847060323E-003;
2.421833333333334E+009;1.700434684753418E-001;-6.321708858013153E-002;3.573797177523375E-003;1.820264733396471E-003;
2.422000000000000E+009;1.689426302909851E-001;-6.485664844512940E-002;3.618996823206544E-003;1.670071040280163E-003;
2.422166666666667E+009;1.682790815830231E-001;-6.691697239875794E-002;3.746786387637258E-003;1.454240875318646E-003;
2.422333333333334E+009;1.672662049531937E-001;-6.883632391691208E-002;3.868776606395841E-003;1.306295278482139E-003;
2.422500000000000E+009;1.666258275508881E-001;-7.051415741443634E-002;3.811835311353207E-003;1.289494568482041E-003;
2.422666666666667E+009;1.658258438110352E-001;-7.244382053613663E-002;3.777939127758145E-003;1.164541463367641E-003;
2.422833333333334E+009;1.655547022819519E-001;-7.436358183622360E-002;3.911242354661226E-003;1.080729300156236E-003;
2.423000000000000E+009;1.649646610021591E-001;-7.633543014526367E-002;3.901112126186490E-003;9.400437702424824E-004;
2.423166666666667E+009;1.646673232316971E-001;-7.802380621433258E-002;3.858269890770316E-003;6.563971983268857E-004;
2.423333333333334E+009;1.643375605344772E-001;-7.996468991041184E-002;3.848745021969080E-003;6.577787571586669E-004;
2.423500000000000E+009;1.642754375934601E-001;-8.166504651308060E-002;3.783464897423983E-003;5.153680685907602E-004;
2.423666666666667E+009;1.642247289419174E-001;-8.335827291011810E-002;3.907661885023117E-003;4.953893949277699E-004;
2.423833333333334E+009;1.640401780605316E-001;-8.504607528448105E-002;3.814348252490163E-003;2.368411514908075E-004;
2.424000000000000E+009;1.640330106019974E-001;-8.666855841875076E-002;3.883504541590810E-003;2.056606899714097E-004;
2.424166666666667E+009;1.641738116741180E-001;-8.808991312980652E-002;3.776013385504484E-003;1.989342563319951E-004;
2.424333333333334E+009;1.643644571304321E-001;-8.948141336441040E-002;3.948046360164881E-003;-2.105725070578046E-005;
2.424500000000000E+009;1.644504517316818E-001;-9.101307392120361E-002;3.822589991614223E-003;2.566478724475019E-005;
2.424666666666667E+009;1.645998358726502E-001;-9.237016737461090E-002;3.778573591262102E-003;-1.706465081952047E-005;
2.424833333333334E+009;1.649348735809326E-001;-9.348421543836594E-002;3.787680063396692E-003;-2.911053888965398E-004;
2.425000000000000E+009;1.652473211288452E-001;-9.460800886154175E-002;3.947492223232985E-003;-1.524920080555603E-004;
2.425166666666667E+009;1.654714345932007E-001;-9.582254290580750E-002;3.850329201668501E-003;-4.893106524832547E-004;
2.425333333333334E+009;1.657367497682571E-001;-9.669108688831329E-002;3.976247273385525E-003;-5.595727125182748E-004;
2.425500000000000E+009;1.659669131040573E-001;-9.755585342645645E-002;3.844935446977615E-003;-6.847444456070662E-004;
2.425666666666667E+009;1.662843823432922E-001;-9.827199578285217E-002;4.029493313282728E-003;-7.976526394486427E-004;
2.425833333333334E+009;1.664629876613617E-001;-9.919140487909317E-002;3.798834746703506E-003;-9.259866201318800E-004;
2.426000000000000E+009;1.669006496667862E-001;-9.952843189239502E-002;3.822230268269777E-003;-1.007411279715598E-003;
2.426166666666667E+009;1.669686883687973E-001;-1.001786887645721E-001;4.020268097519875E-003;-1.323903445154429E-003;
2.426333333333334E+009;1.670774519443512E-001;-1.006918624043465E-001;3.870243439450860E-003;-1.285493839532137E-003;
2.426500000000000E+009;1.673332005739212E-001;-1.010614931583405E-001;3.843475598841906E-003;-1.310390420258045E-003;
2.426666666666667E+009;1.674179732799530E-001;-1.013947054743767E-001;3.854206763207912E-003;-1.598844770342112E-003;
2.426833333333334E+009;1.676174402236939E-001;-1.018459349870682E-001;3.775262972339988E-003;-1.680902787484229E-003;
2.427000000000000E+009;1.674531549215317E-001;-1.020912230014801E-001;3.804574487730861E-003;-1.804952742531896E-003;
2.427166666666667E+009;1.674636453390122E-001;-1.024288088083267E-001;3.684292081743479E-003;-2.012917771935463E-003;
2.427333333333334E+009;1.672052741050720E-001;-1.027095317840576E-001;3.624828997999430E-003;-2.078133868053556E-003;
2.427500000000000E+009;1.669320911169052E-001;-1.029284223914146E-001;3.474320983514190E-003;-2.078848192468286E-003;
2.427666666666667E+009;1.665533781051636E-001;-1.032262295484543E-001;3.460388397797942E-003;-2.373755443841219E-003;
2.427833333333334E+009;1.660635918378830E-001;-1.034160777926445E-001;3.353845560923219E-003;-2.453559078276157E-003;
