# Version 1.00
#
freq[Hz];re:Trc1_S11;im:Trc1_S11;re:Trc2_S21;im:Trc2_S21;
2.400000000000000E+009;1.554712206125259E-001;1.046947836875916E-001;-2.373581519350410E-003;-3.328778780996800E-003;
2.400166666666667E+009;1.553910374641419E-001;1.023815795779228E-001;-2.198531059548259E-003;-3.059035632759333E-003;
2.400333333333334E+009;1.555597633123398E-001;1.001494824886322E-001;-2.257608110085130E-003;-3.084535012021661E-003;
2.400500000000000E+009;1.556182652711868E-001;9.771962463855743E-002;-2.252071630209684E-003;-3.097924171015620E-003;
2.400666666666667E+009;1.560667455196381E-001;9.521232545375824E-002;-2.156213857233524E-003;-3.037079935893416E-003;
2.400833333333334E+009;1.560125648975372E-001;9.255962818861008E-002;-2.139610704034567E-003;-3.047053702175617E-003;
2.401000000000000E+009;1.565032899379730E-001;8.977737277746201E-002;-2.215760760009289E-003;-2.956605749204755E-003;
2.401166666666667E+009;1.565995067358017E-001;8.719505369663239E-002;-2.139982068911195E-003;-3.094878047704697E-003;
2.401333333333334E+009;1.571577936410904E-001;8.463787287473679E-002;-2.336106263101101E-003;-3.188236616551876E-003;
2.401500000000000E+009;1.575815379619598E-001;8.197540044784546E-002;-2.518590306863189E-003;-3.120280103757978E-003;
2.401666666666667E+009;1.580611914396286E-001;7.919701933860779E-002;-2.675619907677174E-003;-3.245910862460733E-003;
2.401833333333334E+009;1.587346047163010E-001;7.673181593418121E-002;-2.772588981315494E-003;-3.075113520026207E-003;
2.402000000000000E+009;1.594631820917130E-001;7.410832494497299E-002;-2.928800415247679E-003;-3.227125387638807E-003;
2.402166666666667E+009;1.602294594049454E-001;7.190226763486862E-002;-3.230100963264704E-003;-3.128820797428489E-003;
2.402333333333334E+009;1.611316800117493E-001;6.928728520870209E-002;-3.509646980091929E-003;-2.918994054198265E-003;
2.402500000000000E+009;1.622781157493591E-001;6.686419248580933E-002;-3.379206405952573E-003;-2.837641397491098E-003;
2.402666666666667E+009;1.635159403085709E-001;6.455457210540772E-002;-3.605934325605631E-003;-2.622777130454779E-003;
2.402833333333334E+009;1.646464467048645E-001;6.249554827809334E-002;-3.668438410386443E-003;-2.708375686779618E-003;
2.403000000000000E+009;1.660688966512680E-001;6.020312756299973E-002;-3.702480345964432E-003;-2.431733300909400E-003;
2.403166666666667E+009;1.675683110952377E-001;5.831286311149597E-002;-3.837279975414276E-003;-2.252602018415928E-003;
2.403333333333334E+009;1.690329611301422E-001;5.607566982507706E-002;-3.964974544942379E-003;-2.051303628832102E-003;
2.403500000000000E+009;1.705257296562195E-001;5.409898236393929E-002;-4.134105518460274E-003;-1.822686870582402E-003;
2.403666666666667E+009;1.721824556589127E-001;5.235935747623444E-002;-4.109315574169159E-003;-1.803806517273188E-003;
2.403833333333334E+009;1.736422032117844E-001;5.060289427638054E-002;-4.259541630744934E-003;-1.650114194490016E-003;
2.404000000000000E+009;1.750061213970184E-001;4.907581210136414E-002;-4.264715593308210E-003;-1.190318027511239E-003;
2.404166666666667E+009;1.767713278532028E-001;4.758420214056969E-002;-4.047480411827564E-003;-1.148474868386984E-003;
2.404333333333334E+009;1.781567335128784E-001;4.615454748272896E-002;-3.989651333540678E-003;-1.062943716533482E-003;
2.404500000000000E+009;1.793750077486038E-001;4.455635324120522E-002;-4.140810109674931E-003;-8.670651586726308E-004;
2.404666666666667E+009;1.810049116611481E-001;4.369089379906654E-002;-4.007496405392885E-003;-7.014645379967988E-004;
2.404833333333334E+009;1.826571673154831E-001;4.270788654685020E-002;-4.100735299289227E-003;-4.996760399080813E-004;
2.405000000000000E+009;1.836709678173065E-001;4.189848154783249E-002;-4.038257058709860E-003;-4.629726172424853E-004;
2.405166666666667E+009;1.849843114614487E-001;4.117910936474800E-002;-3.922482486814261E-003;-4.188017919659615E-004;
2.405333333333334E+009;1.862878799438477E-001;4.070385172963142E-002;-3.836094168946147E-003;-4.716762341558933E-004;
2.405500000000000E+009;1.875158995389938E-001;4.007310420274735E-002;-3.833522321656346E-003;-2.114902745233849E-004;
2.405666666666667E+009;1.884901225566864E-001;3.959092497825623E-002;-3.846527775749564E-003;-1.810342509998009E-004;
2.405833333333334E+009;1.896355152130127E-001;3.932937979698181E-002;-3.879393916577101E-003;-2.790072903735563E-005;
2.406000000000000E+009;1.905730217695236E-001;3.907744213938713E-002;-3.880186937749386E-003;-7.314574304473354E-006;
2.406166666666667E+009;1.914424300193787E-001;3.879577666521072E-002;-3.881591605022550E-003;1.296011396334507E-005;
2.406333333333334E+009;1.922737658023834E-001;3.845332562923431E-002;-3.987656906247139E-003;3.101678157690913E-005;
2.406500000000000E+009;1.929529309272766E-001;3.849210590124130E-002;-3.982981201261282E-003;1.422882342012599E-004;
2.406666666666667E+009;1.934968233108521E-001;3.838090971112251E-002;-3.846133593469858E-003;2.968568587675691E-004;
2.406833333333334E+009;1.938727796077728E-001;3.825586661696434E-002;-3.836263203993440E-003;3.205582033842802E-004;
2.407000000000000E+009;1.940964609384537E-001;3.828964754939079E-002;-4.079116042703390E-003;4.930818104185164E-004;
2.407166666666667E+009;1.943953633308411E-001;3.787242248654366E-002;-3.944785799831152E-003;5.486870650202036E-004;
2.407333333333334E+009;1.944442093372345E-001;3.789443522691727E-002;-3.891681320965290E-003;6.309523014351726E-004;
2.407500000000000E+009;1.943529993295670E-001;3.778327628970146E-002;-3.889088751748204E-003;6.604394293390214E-004;
2.407666666666667E+009;1.944485753774643E-001;3.744816407561302E-002;-3.938075155019760E-003;8.792246226221323E-004;
2.407833333333334E+009;1.939871907234192E-001;3.713110834360123E-002;-3.927083220332861E-003;9.864314924925566E-004;
2.408000000000000E+009;1.940424591302872E-001;3.694957494735718E-002;-3.905167337507010E-003;1.078322529792786E-003;
2.408166666666667E+009;1.933554261922836E-001;3.646529465913773E-002;-4.032869357615709E-003;1.099502667784691E-003;
2.408333333333334E+009;1.930211186408997E-001;3.574853762984276E-002;-3.900729352608323E-003;1.125858980230987E-003;
2.408500000000000E+009;1.923917233943939E-001;3.527650609612465E-002;-4.086649976670742E-003;1.340001705102623E-003;
2.408666666666667E+009;1.919860541820526E-001;3.458510339260101E-002;-4.008204676210880E-003;1.496554701589048E-003;
2.408833333333334E+009;1.913764327764511E-001;3.369109705090523E-002;-4.060643725097179E-003;1.646588556468487E-003;
2.409000000000000E+009;1.905217617750168E-001;3.270168974995613E-002;-3.991358913481236E-003;1.703561283648014E-003;
2.409166666666667E+009;1.896174401044846E-001;3.172148391604424E-002;-3.813633229583502E-003;1.888180035166442E-003;
2.409333333333334E+009;1.889753639698029E-001;3.055658191442490E-002;-4.038607235997915E-003;2.149692969396710E-003;
2.409500000000000E+009;1.880402863025665E-001;2.917585335671902E-002;-3.992537036538124E-003;2.176178386434913E-003;
2.409666666666667E+009;1.871305555105209E-001;2.773268520832062E-002;-3.923040814697743E-003;2.458207774907351E-003;
2.409833333333334E+009;1.860506683588028E-001;2.615676634013653E-002;-3.757908241823316E-003;2.586749149486423E-003;
2.410000000000000E+009;1.854006946086884E-001;2.469318173825741E-002;-3.680950030684471E-003;2.777236979454756E-003;
2.410166666666667E+009;1.846328228712082E-001;2.277262508869171E-002;-3.651259932667017E-003;2.962811617180705E-003;
2.410333333333334E+009;1.838270872831345E-001;2.116711623966694E-002;-3.469850169494748E-003;3.136406885460019E-003;
2.410500000000000E+009;1.827998459339142E-001;1.916298642754555E-002;-3.330209525302053E-003;3.377299755811691E-003;
2.410666666666667E+009;1.822233349084854E-001;1.703533716499806E-002;-3.218449885025621E-003;3.445806214585900E-003;
2.410833333333334E+009;1.818616092205048E-001;1.486974395811558E-002;-3.030512947589159E-003;3.506692359223962E-003;
2.411000000000000E+009;1.811748892068863E-001;1.276089437305927E-002;-2.737391274422407E-003;3.659947775304318E-003;
2.411166666666667E+009;1.805733293294907E-001;1.072116661816835E-002;-2.706814324483275E-003;3.589442232623696E-003;
2.411333333333334E+009;1.803363114595413E-001;8.321650326251984E-003;-2.474712207913399E-003;3.622100688517094E-003;
2.411500000000000E+009;1.799412667751312E-001;6.064466666430235E-003;-2.470758743584156E-003;3.652302082628012E-003;
2.411666666666667E+009;1.797864884138107E-001;3.856734605506063E-003;-2.196761313825846E-003;3.653454827144742E-003;
2.411833333333334E+009;1.796498298645020E-001;1.597525784745812E-003;-2.142270328477025E-003;3.644417971372604E-003;
2.412000000000000E+009;1.796910762786865E-001;-9.688222780823708E-004;-1.894270302727819E-003;3.671726211905479E-003;
2.412166666666667E+009;1.798691749572754E-001;-3.069334197789431E-003;-1.895092544145882E-003;3.704064060002565E-003;
2.412333333333334E+009;1.801632642745972E-001;-5.348313599824905E-003;-1.842139638029039E-003;3.920618444681168E-003;
2.412500000000000E+009;1.805977672338486E-001;-7.564402185380459E-003;-1.654679304920137E-003;3.792879171669483E-003;
2.412666666666667E+009;1.810278594493866E-001;-1.003922894597054E-002;-1.563195954076946E-003;3.724701469764113E-003;
2.412833333333334E+009;1.818057447671890E-001;-1.214014086872339E-002;-1.509561669081450E-003;3.822944359853864E-003;
2.413000000000000E+009;1.825065314769745E-001;-1.419395208358765E-002;-1.367600634694099E-003;3.840255318209529E-003;
2.413166666666667E+009;1.830023080110550E-001;-1.649991795420647E-002;-1.291538588702679E-003;3.948680590838194E-003;
2.413333333333334E+009;1.842287629842758E-001;-1.851479895412922E-002;-1.105328439734876E-003;3.932469524443150E-003;
2.413500000000000E+009;1.849156022071838E-001;-2.053212746977806E-002;-1.165138208307326E-003;3.898534923791885E-003;
2.413666666666667E+009;1.859577298164368E-001;-2.270903997123241E-002;-9.328278829343617E-004;3.953559324145317E-003;
2.413833333333334E+009;1.869680881500244E-001;-2.457357570528984E-002;-8.406648412346840E-004;3.968437202274799E-003;
2.414000000000000E+009;1.879035085439682E-001;-2.644021436572075E-002;-7.142768590711057E-004;4.161339718848467E-003;
2.414166666666667E+009;1.889926046133041E-001;-2.803697995841503E-002;-6.562590133398771E-004;4.154307302087545E-003;
2.414333333333334E+009;1.901246160268784E-001;-2.998362109065056E-002;-5.424452247098088E-004;4.223142284899950E-003;
2.414500000000000E+009;1.911236196756363E-001;-3.125533089041710E-002;-3.106684016529471E-004;4.211730789393187E-003;
2.414666666666667E+009;1.921352148056030E-001;-3.270924836397171E-002;-2.699991455301642E-004;4.105792380869389E-003;
2.414833333333334E+009;1.931413561105728E-001;-3.404485061764717E-002;-1.510805159341544E-004;4.275585059076548E-003;
2.415000000000000E+009;1.939287930727005E-001;-3.525763005018234E-002;2.301241038367152E-004;4.076214972883463E-003;
2.415166666666667E+009;1.950657665729523E-001;-3.641899675130844E-002;1.330700470134616E-004;4.036327358335257E-003;
2.415333333333334E+009;1.961193531751633E-001;-3.723952174186707E-002;3.604080411605537E-004;4.060324747115374E-003;
2.415500000000000E+009;1.971285194158554E-001;-3.794099763035774E-002;4.937023040838540E-004;3.973043989390135E-003;
2.415666666666667E+009;1.979705244302750E-001;-3.887709602713585E-002;6.166023085825145E-004;3.969183191657066E-003;
2.415833333333334E+009;1.985860019922257E-001;-3.948523476719856E-002;7.511958247050643E-004;3.942466340959072E-003;
2.416000000000000E+009;1.993339359760284E-001;-4.003916680812836E-002;8.263915078714490E-004;4.011313896626234E-003;
2.416166666666667E+009;1.998731493949890E-001;-4.075226560235024E-002;9.021719451993704E-004;3.992745187133551E-003;
2.416333333333334E+009;2.004443258047104E-001;-4.109989106655121E-002;1.090978039428592E-003;3.921258728951216E-003;
2.416500000000000E+009;2.007807642221451E-001;-4.139719903469086E-002;1.037502544932067E-003;4.018404521048069E-003;
2.416666666666667E+009;2.009373009204865E-001;-4.190347716212273E-002;1.066052936948836E-003;3.991536330431700E-003;
2.416833333333334E+009;2.009806334972382E-001;-4.192405939102173E-002;1.156720449216664E-003;3.836982185021043E-003;
2.417000000000000E+009;2.009606659412384E-001;-4.224321991205216E-002;1.479995553381741E-003;3.963130526244640E-003;
2.417166666666667E+009;2.007202357053757E-001;-4.214150086045265E-002;1.576017704792321E-003;3.972714766860008E-003;
2.417333333333334E+009;2.003975063562393E-001;-4.215817153453827E-002;1.702131237834692E-003;3.849315922707319E-003;
2.417500000000000E+009;2.000563740730286E-001;-4.233339056372643E-002;1.928291516378522E-003;3.911181818693876E-003;
2.417666666666667E+009;1.995891928672791E-001;-4.231337085366249E-002;1.937890308909118E-003;3.617750015109778E-003;
2.417833333333334E+009;1.991422325372696E-001;-4.219030588865280E-002;2.115505514666438E-003;3.676260821521282E-003;
2.418000000000000E+009;1.983984559774399E-001;-4.215097054839134E-002;2.361159073188901E-003;3.569703083485365E-003;
2.418166666666667E+009;1.975942999124527E-001;-4.223921149969101E-002;2.531673526391387E-003;3.469919553026557E-003;
2.418333333333334E+009;1.968110352754593E-001;-4.213454574346542E-002;2.667536027729511E-003;3.363816766068339E-003;
2.418500000000000E+009;1.958556026220322E-001;-4.232318699359894E-002;2.847513649612665E-003;3.282760502770543E-003;
2.418666666666667E+009;1.949197500944138E-001;-4.237041994929314E-002;2.907391404733062E-003;3.057055408135057E-003;
2.418833333333334E+009;1.938487291336060E-001;-4.270595312118530E-002;3.015134250745177E-003;2.849975600838661E-003;
2.419000000000000E+009;1.926861256361008E-001;-4.296923801302910E-002;3.098248736932874E-003;2.785646589472890E-003;
2.419166666666667E+009;1.915299296379089E-001;-4.326429590582848E-002;3.145246300846338E-003;2.664581872522831E-003;
2.419333333333334E+009;1.902943551540375E-001;-4.378980398178101E-002;2.929564332589507E-003;2.533543854951859E-003;
2.419500000000000E+009;1.888437271118164E-001;-4.442056640982628E-002;2.978728152811527E-003;2.320161787793040E-003;
2.419666666666667E+009;1.874346733093262E-001;-4.533588141202927E-002;2.905893372371793E-003;2.169972518458962E-003;
2.419833333333334E+009;1.859896332025528E-001;-4.600579664111137E-002;2.816587220877409E-003;2.010522177442908E-003;
2.420000000000000E+009;1.846616566181183E-001;-4.700336977839470E-002;2.760832663625479E-003;1.954681705683470E-003;
2.420166666666667E+009;1.831327676773071E-001;-4.773766547441483E-002;2.922641346231103E-003;2.218282315880060E-003;
2.420333333333334E+009;1.817293763160706E-001;-4.912399500608444E-002;2.740180818364024E-003;2.265416551381350E-003;
2.420500000000000E+009;1.802697479724884E-001;-5.040410906076431E-002;2.760261064395309E-003;2.217006403952837E-003;
2.420666666666667E+009;1.787163466215134E-001;-5.160989984869957E-002;2.920403843745589E-003;2.097175689414144E-003;
2.420833333333334E+009;1.774971783161163E-001;-5.306706950068474E-002;2.794414525851607E-003;2.151160268113017E-003;
2.421000000000000E+009;1.760541200637817E-001;-5.454034358263016E-002;3.054719185456634E-003;2.254356397315860E-003;
2.421166666666667E+009;1.748213022947311E-001;-5.630145967006683E-002;3.185567446053028E-003;1.980986678972840E-003;
2.421333333333334E+009;1.733957082033157E-001;-5.756463855504990E-002;3.179403720423579E-003;1.982019748538733E-003;
2.421500000000000E+009;1.722503453493118E-001;-5.958728119730949E-002;3.420609515160322E-003;1.812460017390549E-003;
2.421666666666667E+009;1.711109876632690E-001;-6.119757890701294E-002;3.555671079084277E-003;1.894219894893467E-003;
2.421833333333334E+009;1.699460893869400E-001;-6.293619424104691E-002;3.707672236487269E-003;1.723113353364170E-003;
2.422000000000000E+009;1.689954400062561E-001;-6.474389880895615E-002;3.619847353547812E-003;1.491254894062877E-003;
2.422166666666667E+009;1.681967228651047E-001;-6.672313809394836E-002;3.693883772939444E-003;1.428578747436404E-003;
2.422333333333334E+009;1.673850119113922E-001;-6.877921521663666E-002;3.830355359241366E-003;1.299101510085166E-003;
2.422500000000000E+009;1.665221452713013E-001;-7.043250650167465E-002;3.793652867898345E-003;1.089129946194589E-003;
2.422666666666667E+009;1.659476310014725E-001;-7.228995859622955E-002;3.721539862453938E-003;1.150720869190991E-003;
2.422833333333334E+009;1.653840988874435E-001;-7.431095838546753E-002;3.828080836683512E-003;9.651888976804912E-004;
2.423000000000000E+009;1.650258749723434E-001;-7.615295052528381E-002;3.694258397445083E-003;6.494402186945081E-004;
2.423166666666667E+009;1.645398736000061E-001;-7.799004763364792E-002;3.854263573884964E-003;4.594936035573483E-004;
2.423333333333334E+009;1.642908751964569E-001;-7.988394796848297E-002;3.777900245040655E-003;4.390821850392968E-004;
2.423500000000000E+009;1.642405688762665E-001;-8.149616420269013E-002;3.770500887185335E-003;4.449917178135365E-004;
2.423666666666667E+009;1.642215400934219E-001;-8.315276354551315E-002;3.726921975612640E-003;3.993019345216453E-004;
2.423833333333334E+009;1.640783697366715E-001;-8.485173434019089E-002;3.838498378172517E-003;4.245780583005399E-004;
2.424000000000000E+009;1.640921980142593E-001;-8.649304509162903E-002;3.664580406621099E-003;1.314926776103675E-004;
2.424166666666667E+009;1.641020327806473E-001;-8.794019371271133E-002;3.662092378363013E-003;-3.952877250412712E-006;
2.424333333333334E+009;1.642679274082184E-001;-8.929869532585144E-002;3.630851395428181E-003;-6.386927907442441E-006;
2.424500000000000E+009;1.644548326730728E-001;-9.106806665658951E-002;3.830159781500697E-003;-5.166944174561650E-005;
2.424666666666667E+009;1.646557152271271E-001;-9.225174784660339E-002;3.709676209837198E-003;-2.835628401953727E-004;
2.424833333333334E+009;1.651204824447632E-001;-9.352503716945648E-002;3.763810032978654E-003;-2.460807445459068E-004;
2.425000000000000E+009;1.653668880462647E-001;-9.456722438335419E-002;3.738524625077844E-003;-4.983426188118756E-004;
2.425166666666667E+009;1.655734926462174E-001;-9.575919806957245E-002;3.653739579021931E-003;-5.359395872801542E-004;
2.425333333333334E+009;1.657624393701553E-001;-9.657374769449234E-002;3.795030992478132E-003;-5.897540831938386E-004;
2.425500000000000E+009;1.660315245389938E-001;-9.763362258672714E-002;3.828566288575530E-003;-8.058462408371270E-004;
2.425666666666667E+009;1.663694083690643E-001;-9.827424585819244E-002;3.879181109368801E-003;-8.489818428643048E-004;
2.425833333333334E+009;1.666290462017059E-001;-9.914624691009522E-002;3.735812613740563E-003;-1.061922404915094E-003;
2.426000000000000E+009;1.667967438697815E-001;-9.943459928035736E-002;3.706520656123757E-003;-1.114134094677866E-003;
2.426166666666667E+009;1.670727431774139E-001;-1.001208946108818E-001;3.803427098318934E-003;-1.317728543654084E-003;
2.426333333333334E+009;1.670840829610825E-001;-1.007140874862671E-001;3.595626680180430E-003;-1.398748951032758E-003;
2.426500000000000E+009;1.673662215471268E-001;-1.010667234659195E-001;3.684549592435360E-003;-1.396182109601796E-003;
2.426666666666667E+009;1.674361377954483E-001;-1.014577150344849E-001;3.660495858639479E-003;-1.601697993464768E-003;
2.426833333333334E+009;1.676127761602402E-001;-1.018285006284714E-001;3.566629951819778E-003;-1.700681634247303E-003;
2.427000000000000E+009;1.674058288335800E-001;-1.020088940858841E-001;3.540081670507789E-003;-1.695387298241258E-003;
2.427166666666667E+009;1.673649400472641E-001;-1.022622957825661E-001;3.449655137956142E-003;-1.954610692337155E-003;
2.427333333333334E+009;1.671417206525803E-001;-1.026317402720451E-001;3.485653549432755E-003;-2.106618834659457E-003;
2.427500000000000E+009;1.668975055217743E-001;-1.029244437813759E-001;3.299494273960590E-003;-2.133866306394339E-003;
2.427666666666667E+009;1.665654182434082E-001;-1.031144335865974E-001;3.356178523972631E-003;-2.346651395782828E-003;
2.427833333333334E+009;1.661688387393951E-001;-1.032953634858131E-001;3.296770388260484E-003;-2.437103306874633E-003;
