# Version 1.00
#
freq[Hz];re:Trc1_S11;im:Trc1_S11;re:Trc2_S21;im:Trc2_S21;
2.400000000000000E+009;1.553767323493958E-001;1.046385541558266E-001;-2.266530413180590E-003;-3.390168538317084E-003;
2.400166666666667E+009;1.553620100021362E-001;1.023198664188385E-001;-2.143456367775798E-003;-3.123719478026032E-003;
2.400333333333334E+009;1.556929945945740E-001;1.001181080937386E-001;-2.178301801905036E-003;-3.076979657635093E-003;
2.400500000000000E+009;1.558715254068375E-001;9.760313481092453E-002;-2.085553715005517E-003;-2.989312168210745E-003;
2.400666666666667E+009;1.561024934053421E-001;9.513999521732330E-002;-2.026925096288323E-003;-3.130400553345680E-003;
2.400833333333334E+009;1.563015729188919E-001;9.238799661397934E-002;-1.967657357454300E-003;-3.053719643503428E-003;
2.401000000000000E+009;1.565867960453033E-001;8.985240012407303E-002;-2.069982467219234E-003;-3.115761326625943E-003;
2.401166666666667E+009;1.565896421670914E-001;8.713972568511963E-002;-2.008858602494001E-003;-3.089288016781211E-003;
2.401333333333334E+009;1.570365130901337E-001;8.452040702104569E-002;-2.345737069845200E-003;-3.287376835942268E-003;
2.401500000000000E+009;1.575987935066223E-001;8.180450648069382E-002;-2.277046442031860E-003;-3.371774684637785E-003;
2.401666666666667E+009;1.578567624092102E-001;7.909692078828812E-002;-2.592500764876604E-003;-3.352533094584942E-003;
2.401833333333334E+009;1.585721224546433E-001;7.634623348712921E-002;-2.708748914301395E-003;-3.300370881333947E-003;
2.402000000000000E+009;1.594578921794891E-001;7.392296195030212E-002;-2.763546304777265E-003;-3.272942733019590E-003;
2.402166666666667E+009;1.600868403911591E-001;7.164905220270157E-002;-3.020221600309014E-003;-3.113383660092950E-003;
2.402333333333334E+009;1.611112058162689E-001;6.907940655946732E-002;-3.161590546369553E-003;-2.985695842653513E-003;
2.402500000000000E+009;1.622245907783508E-001;6.685319542884827E-002;-3.495098557323217E-003;-2.997017465531826E-003;
2.402666666666667E+009;1.633974611759186E-001;6.476800888776779E-002;-3.322176169604063E-003;-2.585504669696093E-003;
2.402833333333334E+009;1.644913107156754E-001;6.236660107970238E-002;-3.545808605849743E-003;-2.731044776737690E-003;
2.403000000000000E+009;1.660111844539642E-001;6.019681692123413E-002;-3.738570259884000E-003;-2.407005056738854E-003;
2.403166666666667E+009;1.675563454627991E-001;5.811261385679245E-002;-3.722951514646411E-003;-2.402477199211717E-003;
2.403333333333334E+009;1.687231808900833E-001;5.607967451214790E-002;-3.837000112980604E-003;-2.125667408108711E-003;
2.403500000000000E+009;1.704631298780441E-001;5.428135767579079E-002;-3.927153069525957E-003;-1.939159701578319E-003;
2.403666666666667E+009;1.721774041652679E-001;5.237093940377235E-002;-4.009156487882137E-003;-1.912018400616944E-003;
2.403833333333334E+009;1.734875589609146E-001;5.069341138005257E-002;-4.015913233160973E-003;-1.680042245425284E-003;
2.404000000000000E+009;1.749355047941208E-001;4.896970465779305E-002;-4.040791187435389E-003;-1.393318641930819E-003;
2.404166666666667E+009;1.765277683734894E-001;4.773053154349327E-002;-4.108409397304058E-003;-1.263007987290621E-003;
2.404333333333334E+009;1.779446601867676E-001;4.611515626311302E-002;-4.022093955427408E-003;-1.088779186829925E-003;
2.404500000000000E+009;1.794233173131943E-001;4.465924203395844E-002;-4.023880697786808E-003;-1.039263210259378E-003;
2.404666666666667E+009;1.809725463390350E-001;4.359671100974083E-002;-4.061818122863770E-003;-8.552530780434609E-004;
2.404833333333334E+009;1.823640763759613E-001;4.269118607044220E-002;-3.982620313763619E-003;-6.885076873004437E-004;
2.405000000000000E+009;1.836017072200775E-001;4.200039431452751E-002;-3.904070938006043E-003;-6.007418851368129E-004;
2.405166666666667E+009;1.848863810300827E-001;4.117078706622124E-002;-3.967958968132734E-003;-6.346051814034581E-004;
2.405333333333334E+009;1.861431747674942E-001;4.066208004951477E-002;-3.877790877595544E-003;-4.996487987227738E-004;
2.405500000000000E+009;1.873440444469452E-001;4.008955880999565E-002;-3.946424461901188E-003;-4.468580591492355E-004;
2.405666666666667E+009;1.885072141885757E-001;3.970861434936523E-002;-3.799845464527607E-003;-4.321736341807991E-004;
2.405833333333334E+009;1.894601136445999E-001;3.934803977608681E-002;-3.814047900959849E-003;-2.437129442114383E-004;
2.406000000000000E+009;1.905159950256348E-001;3.905153274536133E-002;-3.863259218633175E-003;-1.399614411639050E-004;
2.406166666666667E+009;1.913294047117233E-001;3.881463408470154E-002;-3.773352131247520E-003;-2.380944933975115E-004;
2.406333333333334E+009;1.921451985836029E-001;3.871883824467659E-002;-3.920858725905418E-003;-8.057511877268553E-005;
2.406500000000000E+009;1.928116828203201E-001;3.862060233950615E-002;-3.945663105696440E-003;5.122711081639864E-005;
2.406666666666667E+009;1.934025436639786E-001;3.844626992940903E-002;-3.832719055935741E-003;-9.030959517986048E-006;
2.406833333333334E+009;1.938497424125671E-001;3.823474422097206E-002;-4.001418594270945E-003;2.681235200725496E-004;
2.407000000000000E+009;1.940039098262787E-001;3.825394436717033E-002;-4.063158761709929E-003;2.875062637031078E-004;
2.407166666666667E+009;1.943361014127731E-001;3.795887902379036E-002;-3.960672765970230E-003;3.509392263367772E-004;
2.407333333333334E+009;1.943167001008987E-001;3.790992125868797E-002;-4.155279602855444E-003;2.502019924577326E-004;
2.407500000000000E+009;1.943032145500183E-001;3.789805993437767E-002;-3.999018575996161E-003;4.787027137354016E-004;
2.407666666666667E+009;1.942668110132217E-001;3.766411542892456E-002;-3.974690102040768E-003;6.548225064761937E-004;
2.407833333333334E+009;1.938454955816269E-001;3.733734413981438E-002;-4.036492202430964E-003;8.508214377798140E-004;
2.408000000000000E+009;1.938915550708771E-001;3.705827519297600E-002;-4.001983441412449E-003;9.953476255759597E-004;
2.408166666666667E+009;1.933111846446991E-001;3.649619594216347E-002;-4.128006752580404E-003;1.091836020350456E-003;
2.408333333333334E+009;1.930107772350311E-001;3.587550297379494E-002;-4.122723359614611E-003;1.151749514974654E-003;
2.408500000000000E+009;1.923445761203766E-001;3.537409752607346E-002;-4.063970874994993E-003;1.243743696250022E-003;
2.408666666666667E+009;1.917914450168610E-001;3.456610068678856E-002;-4.137334879487753E-003;1.269071595743299E-003;
2.408833333333334E+009;1.912264525890350E-001;3.392643854022026E-002;-3.957202658057213E-003;1.459714258089662E-003;
2.409000000000000E+009;1.904252618551254E-001;3.280118480324745E-002;-3.987774718552828E-003;1.686296891421080E-003;
2.409166666666667E+009;1.896705627441406E-001;3.176333382725716E-002;-4.072472453117371E-003;1.722535584121943E-003;
2.409333333333334E+009;1.887803375720978E-001;3.059107065200806E-002;-4.098590929061174E-003;2.042013918980956E-003;
2.409500000000000E+009;1.879474371671677E-001;2.945156581699848E-002;-3.963649272918701E-003;2.161585958674550E-003;
2.409666666666667E+009;1.870111525058746E-001;2.783205546438694E-002;-4.083301872014999E-003;2.278547966852784E-003;
2.409833333333334E+009;1.861792504787445E-001;2.630393393337727E-002;-3.992354962974787E-003;2.497104229405522E-003;
2.410000000000000E+009;1.854455620050430E-001;2.482295595109463E-002;-3.872720291838050E-003;2.641465282067657E-003;
2.410166666666667E+009;1.844824105501175E-001;2.299616299569607E-002;-3.790971823036671E-003;2.931923838332295E-003;
2.410333333333334E+009;1.838802099227905E-001;2.124013938009739E-002;-3.599200397729874E-003;3.041414776816964E-003;
2.410500000000000E+009;1.830227524042130E-001;1.910603046417236E-002;-3.454717108979821E-003;3.181429812684655E-003;
2.410666666666667E+009;1.822729259729385E-001;1.715527288615704E-002;-3.269637236371636E-003;3.257259028032422E-003;
2.410833333333334E+009;1.816429048776627E-001;1.509507000446320E-002;-3.197045298293233E-003;3.394194412976503E-003;
2.411000000000000E+009;1.811494529247284E-001;1.283285021781921E-002;-2.971111098304391E-003;3.447860945016146E-003;
2.411166666666667E+009;1.806652694940567E-001;1.088594365864992E-002;-2.885281573981047E-003;3.528471104800701E-003;
2.411333333333334E+009;1.802798956632614E-001;8.458307944238186E-003;-2.683398546651006E-003;3.548781154677272E-003;
2.411500000000000E+009;1.799678355455399E-001;6.067127920687199E-003;-2.668173285201192E-003;3.703598165884614E-003;
2.411666666666667E+009;1.798743903636932E-001;3.938904963433743E-003;-2.362193306908011E-003;3.722274210304022E-003;
2.411833333333334E+009;1.795702725648880E-001;1.703197718597949E-003;-2.352634677663446E-003;3.758030477911234E-003;
2.412000000000000E+009;1.797752082347870E-001;-8.050423930399120E-004;-2.081728074699640E-003;3.805441083386540E-003;
2.412166666666667E+009;1.798053532838821E-001;-2.892633201554418E-003;-2.127706538885832E-003;3.602453740313649E-003;
2.412333333333334E+009;1.801021993160248E-001;-5.272640381008387E-003;-2.067015040665865E-003;3.791204188019037E-003;
2.412500000000000E+009;1.806838512420654E-001;-7.459701038897038E-003;-1.970825251191855E-003;3.736851969733834E-003;
2.412666666666667E+009;1.810079216957092E-001;-9.872796945273876E-003;-1.625157659873366E-003;3.838564036414027E-003;
2.412833333333334E+009;1.817376464605331E-001;-1.199034694582224E-002;-1.604984863661230E-003;4.002078901976347E-003;
2.413000000000000E+009;1.825438886880875E-001;-1.439719926565886E-002;-1.464319997467101E-003;3.795404685661197E-003;
2.413166666666667E+009;1.832038611173630E-001;-1.630829833447933E-002;-1.382545102387667E-003;3.995247650891542E-003;
2.413333333333334E+009;1.841378360986710E-001;-1.839420944452286E-002;-1.372847007587552E-003;3.994165454059839E-003;
2.413500000000000E+009;1.849863231182098E-001;-2.053344622254372E-002;-1.203167834319174E-003;4.119811113923788E-003;
2.413666666666667E+009;1.860397309064865E-001;-2.269341237843037E-002;-1.095817307941616E-003;4.090930335223675E-003;
2.413833333333334E+009;1.869882494211197E-001;-2.446829713881016E-002;-1.033497275784612E-003;4.100318066775799E-003;
2.414000000000000E+009;1.879743784666061E-001;-2.641973644495010E-002;-9.480701992288232E-004;4.059400409460068E-003;
2.414166666666667E+009;1.890093237161636E-001;-2.785909175872803E-002;-6.774034118279815E-004;4.151439759880304E-003;
2.414333333333334E+009;1.901201903820038E-001;-2.997359819710255E-002;-6.547772209160030E-004;4.314443562179804E-003;
2.414500000000000E+009;1.911406368017197E-001;-3.121132589876652E-002;-4.861428460571915E-004;4.165391437709332E-003;
2.414666666666667E+009;1.920178979635239E-001;-3.271987661719322E-002;-2.947107714135200E-004;4.319428931921721E-003;
2.414833333333334E+009;1.931197941303253E-001;-3.403598070144653E-002;-1.458776096114889E-004;4.173539113253355E-003;
2.415000000000000E+009;1.940913051366806E-001;-3.519446030259132E-002;-4.373632691567764E-005;4.269928671419621E-003;
2.415166666666667E+009;1.951543688774109E-001;-3.640527650713921E-002;1.388308883178979E-004;4.387950524687767E-003;
2.415333333333334E+009;1.961983144283295E-001;-3.729325532913208E-002;2.275899896631017E-004;4.276752006262541E-003;
2.415500000000000E+009;1.971592903137207E-001;-3.794246166944504E-002;4.043044173158705E-004;4.088558256626129E-003;
2.415666666666667E+009;1.979659199714661E-001;-3.882162645459175E-002;4.007670213468373E-004;4.099463578313589E-003;
2.415833333333334E+009;1.986252069473267E-001;-3.940994665026665E-002;6.223066011443734E-004;4.059995524585247E-003;
2.416000000000000E+009;1.993973553180695E-001;-3.996261581778526E-002;6.937494617886841E-004;4.078005906194449E-003;
2.416166666666667E+009;1.998892575502396E-001;-4.067184776067734E-002;8.490621112287045E-004;4.000575281679630E-003;
2.416333333333334E+009;2.003892958164215E-001;-4.108013212680817E-002;9.556660079397261E-004;3.990864381194115E-003;
2.416500000000000E+009;2.008278518915176E-001;-4.124951735138893E-002;9.613874135538936E-004;4.022611305117607E-003;
2.416666666666667E+009;2.009364664554596E-001;-4.181111231446266E-002;1.095057697966695E-003;4.037544596940279E-003;
2.416833333333334E+009;2.010178118944168E-001;-4.183834791183472E-002;1.304841367527843E-003;4.015908110886812E-003;
2.417000000000000E+009;2.010002881288528E-001;-4.212443158030510E-002;1.359720481559634E-003;4.014800768345594E-003;
2.417166666666667E+009;2.007624357938767E-001;-4.208286106586456E-002;1.509974012151361E-003;4.091042093932629E-003;
2.417333333333334E+009;2.005027532577515E-001;-4.207898303866386E-002;1.710320240817964E-003;4.037416540086269E-003;
2.417500000000000E+009;2.001204192638397E-001;-4.227397590875626E-002;1.959989313036203E-003;3.848078660666943E-003;
2.417666666666667E+009;1.995684206485748E-001;-4.223284870386124E-002;1.979234395548701E-003;3.912500571459532E-003;
2.417833333333334E+009;1.991102546453476E-001;-4.225792363286018E-002;2.048774855211377E-003;3.786232788115740E-003;
2.418000000000000E+009;1.985255032777786E-001;-4.215457290410996E-002;2.352082403376699E-003;3.589520230889320E-003;
2.418166666666667E+009;1.976449787616730E-001;-4.215981438755989E-002;2.494473708793521E-003;3.598437178879976E-003;
2.418333333333334E+009;1.968804746866226E-001;-4.216524213552475E-002;2.537138527259231E-003;3.421530826017261E-003;
2.418500000000000E+009;1.958118975162506E-001;-4.231726005673409E-002;2.613593824207783E-003;3.246403066441417E-003;
2.418666666666667E+009;1.950901001691818E-001;-4.232550039887428E-002;2.893135184422135E-003;2.998617943376303E-003;
2.418833333333334E+009;1.938904076814652E-001;-4.269367828965187E-002;2.963231178000569E-003;3.062451491132379E-003;
2.419000000000000E+009;1.926269680261612E-001;-4.303535446524620E-002;3.067509969696403E-003;2.804232295602560E-003;
2.419166666666667E+009;1.915191411972046E-001;-4.335131868720055E-002;3.012495813891292E-003;2.786628436297178E-003;
2.419333333333334E+009;1.902439296245575E-001;-4.394096136093140E-002;2.976632909849286E-003;2.469274215400219E-003;
2.419500000000000E+009;1.889510899782181E-001;-4.442657530307770E-002;2.952135866507888E-003;2.442631637677550E-003;
2.419666666666667E+009;1.874569803476334E-001;-4.534718394279480E-002;2.861593849956989E-003;2.285065595060587E-003;
2.419833333333334E+009;1.861567497253418E-001;-4.608964920043945E-002;2.890507224947214E-003;2.123219659551978E-003;
2.420000000000000E+009;1.847485005855560E-001;-4.689700528979302E-002;2.796220360323787E-003;2.232936443760991E-003;
2.420166666666667E+009;1.833047121763229E-001;-4.797841608524323E-002;2.725030062720180E-003;2.206643810495734E-003;
2.420333333333334E+009;1.817237883806229E-001;-4.910069331526756E-002;2.788324607536197E-003;2.107709413394332E-003;
2.420500000000000E+009;1.804446876049042E-001;-5.034538358449936E-002;2.825543750077486E-003;2.319711958989501E-003;
2.420666666666667E+009;1.788299828767777E-001;-5.147413164377213E-002;2.978454809635878E-003;2.303635701537132E-003;
2.420833333333334E+009;1.775213330984116E-001;-5.312618613243103E-002;2.986973384395242E-003;2.307292539626360E-003;
2.421000000000000E+009;1.760899722576141E-001;-5.463614687323570E-002;3.095963271334767E-003;2.165341749787331E-003;
2.421166666666667E+009;1.747599095106125E-001;-5.627586692571640E-002;3.198036924004555E-003;2.158684888854623E-003;
2.421333333333334E+009;1.733894795179367E-001;-5.761302262544632E-002;3.235160373151302E-003;2.186772413551807E-003;
2.421500000000000E+009;1.721545606851578E-001;-5.956397950649262E-002;3.446996910497546E-003;2.095086500048637E-003;
2.421666666666667E+009;1.710204184055328E-001;-6.124690547585487E-002;3.507930785417557E-003;2.077541314065456E-003;
2.421833333333334E+009;1.701388359069824E-001;-6.298819929361343E-002;3.623530734330416E-003;1.849739463068545E-003;
2.422000000000000E+009;1.689976453781128E-001;-6.470856070518494E-002;3.743321634829044E-003;1.614479813724756E-003;
2.422166666666667E+009;1.683618575334549E-001;-6.671213358640671E-002;3.790418384596705E-003;1.485098851844668E-003;
2.422333333333334E+009;1.674135923385620E-001;-6.854725629091263E-002;3.933832049369812E-003;1.560102216899395E-003;
2.422500000000000E+009;1.667125821113586E-001;-7.042104005813599E-002;3.771076444536448E-003;1.245680148713291E-003;
2.422666666666667E+009;1.659549921751022E-001;-7.229794561862946E-002;3.804256906732917E-003;1.083887764252722E-003;
2.422833333333334E+009;1.656199842691422E-001;-7.442096620798111E-002;3.947592340409756E-003;9.811373893171549E-004;
2.423000000000000E+009;1.649222820997238E-001;-7.619962841272354E-002;3.908580169081688E-003;7.911910652182996E-004;
2.423166666666667E+009;1.646749228239059E-001;-7.803624868392944E-002;3.805680666118860E-003;8.189692161977291E-004;
2.423333333333334E+009;1.643526405096054E-001;-7.998523116111755E-002;3.891255473718047E-003;6.844427553005517E-004;
2.423500000000000E+009;1.643951386213303E-001;-8.135014027357101E-002;3.887609578669071E-003;5.151344812475145E-004;
2.423666666666667E+009;1.642203330993652E-001;-8.317496627569199E-002;3.801965620368719E-003;4.641650593839586E-004;
2.423833333333334E+009;1.641286909580231E-001;-8.483226597309113E-002;3.806653665378690E-003;1.799987949198112E-004;
2.424000000000000E+009;1.640968322753906E-001;-8.645433187484741E-002;3.872751025483012E-003;1.875510060926899E-004;
2.424166666666667E+009;1.640617549419403E-001;-8.794695138931274E-002;3.744856221601367E-003;1.648757461225614E-004;
2.424333333333334E+009;1.643725782632828E-001;-8.941618353128433E-002;3.721422282978892E-003;4.003960930276662E-005;
2.424500000000000E+009;1.645458936691284E-001;-9.100607782602310E-002;3.740609856322408E-003;5.789534043287858E-005;
2.424666666666667E+009;1.647446006536484E-001;-9.220791608095169E-002;3.819211851805449E-003;-2.316521713510156E-004;
2.424833333333334E+009;1.650854349136353E-001;-9.331321716308594E-002;3.988414071500301E-003;-1.214799121953547E-004;
2.425000000000000E+009;1.653752624988556E-001;-9.458762407302856E-002;3.837648313492537E-003;-3.446846676524729E-004;
2.425166666666667E+009;1.655965894460678E-001;-9.558805823326111E-002;3.948123194277287E-003;-4.653320356737822E-004;
2.425333333333334E+009;1.656861454248428E-001;-9.662408381700516E-002;3.981850575655699E-003;-6.447944906540215E-004;
2.425500000000000E+009;1.661323904991150E-001;-9.759792685508728E-002;3.986748401075602E-003;-7.056964095681906E-004;
2.425666666666667E+009;1.663814932107925E-001;-9.813997149467468E-002;3.930267412215471E-003;-7.552274619229138E-004;
2.425833333333334E+009;1.666878759860992E-001;-9.899786859750748E-002;3.883609781041741E-003;-9.555554133839905E-004;
2.426000000000000E+009;1.668398082256317E-001;-9.946915507316589E-002;3.811178496107459E-003;-9.009232162497938E-004;
2.426166666666667E+009;1.671167463064194E-001;-1.000138670206070E-001;3.987291827797890E-003;-1.070480677299202E-003;
2.426333333333334E+009;1.671646684408188E-001;-1.006945073604584E-001;3.940059337764978E-003;-1.284273224882782E-003;
2.426500000000000E+009;1.673288792371750E-001;-1.009152606129646E-001;3.848732914775610E-003;-1.441499218344688E-003;
2.426666666666667E+009;1.674472391605377E-001;-1.013191714882851E-001;3.771310672163963E-003;-1.482389750890434E-003;
2.426833333333334E+009;1.677645444869995E-001;-1.017727702856064E-001;3.807913977652788E-003;-1.777725527063012E-003;
2.427000000000000E+009;1.675456315279007E-001;-1.019461899995804E-001;3.621961921453476E-003;-1.937497057951987E-003;
2.427166666666667E+009;1.676150113344193E-001;-1.022498160600662E-001;3.591775195673108E-003;-1.870593172498047E-003;
2.427333333333334E+009;1.672833263874054E-001;-1.026086807250977E-001;3.510420909151435E-003;-2.120007760822773E-003;
2.427500000000000E+009;1.670465916395187E-001;-1.029116585850716E-001;3.589428961277008E-003;-2.117441734299064E-003;
2.427666666666667E+009;1.666392385959625E-001;-1.030588299036026E-001;3.431116230785847E-003;-2.267157658934593E-003;
2.427833333333334E+009;1.662209033966065E-001;-1.032971292734146E-001;3.406368428841233E-003;-2.517840825021267E-003;
