# Version 1.00
#
freq[Hz];re:Trc1_S11;im:Trc1_S11;re:Trc2_S21;im:Trc2_S21;
2.400000000000000E+009;1.588102877140045E-001;6.267826259136200E-002;-8.839157526381314E-004;1.322943367995322E-003;
2.400166666666667E+009;1.586217582225800E-001;6.114879995584488E-002;-4.044350353069603E-004;9.610813576728106E-004;
2.400333333333334E+009;1.584452986717224E-001;5.931321159005165E-002;-3.267642168793827E-004;8.345920359715819E-004;
2.400500000000000E+009;1.584431976079941E-001;5.745348706841469E-002;-4.574334598146379E-004;1.181420288048685E-003;
2.400666666666667E+009;1.581985503435135E-001;5.550340563058853E-002;-1.357445435132831E-004;1.369215315207839E-003;
2.400833333333334E+009;1.582760959863663E-001;5.365272238850594E-002;-1.899779599625617E-004;1.096581923775375E-003;
2.401000000000000E+009;1.582993716001511E-001;5.168921500444412E-002;8.016345236683264E-005;1.308653270825744E-003;
2.401166666666667E+009;1.583822816610336E-001;4.962987825274468E-002;1.497134362580255E-004;1.032296218909323E-003;
2.401333333333334E+009;1.585164070129395E-001;4.763849079608917E-002;2.416400529909879E-004;1.083861687220633E-003;
2.401500000000000E+009;1.588330864906311E-001;4.562530666589737E-002;3.459467261563987E-004;9.038212592713535E-004;
2.401666666666667E+009;1.590367406606674E-001;4.358278959989548E-002;4.281622823327780E-004;1.067879609763622E-003;
2.401833333333334E+009;1.593436449766159E-001;4.145539551973343E-002;4.626866430044174E-004;1.111030811443925E-003;
2.402000000000000E+009;1.596482396125794E-001;3.950265422463417E-002;5.754516460001469E-004;9.431925136595964E-004;
2.402166666666667E+009;1.600860357284546E-001;3.762521222233772E-002;9.622400393709540E-004;9.415666572749615E-004;
2.402333333333334E+009;1.605177074670792E-001;3.568892925977707E-002;7.599725504405797E-004;8.010171004571021E-004;
2.402500000000000E+009;1.612949967384338E-001;3.384764119982719E-002;9.184902301058173E-004;6.236706976778805E-004;
2.402666666666667E+009;1.619811952114105E-001;3.217777982354164E-002;1.095935469493270E-003;6.394341471605003E-004;
2.402833333333334E+009;1.625431478023529E-001;3.021013177931309E-002;1.009188825264573E-003;4.115662595722824E-004;
2.403000000000000E+009;1.631641834974289E-001;2.865229919552803E-002;1.037379144690931E-003;4.733888490591198E-004;
2.403166666666667E+009;1.642409265041351E-001;2.699417248368263E-002;1.145935035310686E-003;3.051953390240669E-004;
2.403333333333334E+009;1.650469899177551E-001;2.555467188358307E-002;1.134794787503779E-003;1.707056508166716E-004;
2.403500000000000E+009;1.658139675855637E-001;2.400188706815243E-002;1.155990990810096E-003;-1.314120454480872E-004;
2.403666666666667E+009;1.667274385690689E-001;2.252158150076866E-002;1.179981860332191E-003;-1.327588688582182E-004;
2.403833333333334E+009;1.678871214389801E-001;2.125728689134121E-002;1.114490441977978E-003;-1.582624390721321E-004;
2.404000000000000E+009;1.688600182533264E-001;2.003534883260727E-002;1.178951002657414E-003;-3.162975772283971E-004;
2.404166666666667E+009;1.696777045726776E-001;1.891975477337837E-002;1.085457275621593E-003;-5.143762682564557E-004;
2.404333333333334E+009;1.707670688629150E-001;1.790523715317249E-002;1.216597855091095E-003;-4.851564881391823E-004;
2.404500000000000E+009;1.716297566890717E-001;1.682060398161411E-002;1.074249274097383E-003;-6.160653429105878E-004;
2.404666666666667E+009;1.725156903266907E-001;1.583251915872097E-002;1.204732572659850E-003;-8.875743951648474E-004;
2.404833333333334E+009;1.734469830989838E-001;1.504809595644474E-002;9.842776926234365E-004;-8.644781191833317E-004;
2.405000000000000E+009;1.744598448276520E-001;1.415163744240999E-002;9.690657607279718E-004;-1.048046164214611E-003;
2.405166666666667E+009;1.752901077270508E-001;1.338227838277817E-002;1.033601467497647E-003;-1.226060674525797E-003;
2.405333333333334E+009;1.762355268001556E-001;1.273149624466896E-002;8.040927350521088E-004;-1.084223389625549E-003;
2.405500000000000E+009;1.770076453685761E-001;1.229228451848030E-002;7.094206521287561E-004;-1.424217247404158E-003;
2.405666666666667E+009;1.776308566331863E-001;1.178651209920645E-002;7.698325207456946E-004;-1.602983102202416E-003;
2.405833333333334E+009;1.781277656555176E-001;1.134075503796339E-002;5.406244890764356E-004;-1.533860573545098E-003;
2.406000000000000E+009;1.788875311613083E-001;1.065074000507593E-002;4.410783003550023E-004;-1.511678448878229E-003;
2.406166666666667E+009;1.792668700218201E-001;1.057707611471415E-002;2.017228980548680E-004;-1.636947970837355E-003;
2.406333333333334E+009;1.798399835824966E-001;1.019652001559734E-002;1.204058498842642E-004;-1.697703730314970E-003;
2.406500000000000E+009;1.803182810544968E-001;9.847458451986313E-003;4.968542998540215E-005;-1.725866110064089E-003;
2.406666666666667E+009;1.803947240114212E-001;9.550839662551880E-003;-1.216368127643364E-005;-1.799118239432573E-003;
2.406833333333334E+009;1.807861477136612E-001;9.294576011598110E-003;-1.806799991754815E-004;-1.837270683608949E-003;
2.407000000000000E+009;1.810056567192078E-001;8.888066746294498E-003;-2.516343083698303E-004;-1.795333111658692E-003;
2.407166666666667E+009;1.811293959617615E-001;8.499212563037872E-003;-2.664470812305808E-004;-1.669862889684737E-003;
2.407333333333334E+009;1.809442788362503E-001;7.921760901808739E-003;-5.177021375857294E-004;-1.581990625709295E-003;
2.407500000000000E+009;1.808241605758667E-001;7.571670226752758E-003;-5.872038891538978E-004;-1.457803067751229E-003;
2.407666666666667E+009;1.808010637760162E-001;7.188520394265652E-003;-6.759829702787101E-004;-1.549216802231967E-003;
2.407833333333334E+009;1.803080737590790E-001;6.522507406771183E-003;-6.718871300108731E-004;-1.512590330094099E-003;
2.408000000000000E+009;1.799757033586502E-001;5.892350804060698E-003;-8.625336922705174E-004;-1.499610021710396E-003;
2.408166666666667E+009;1.795825809240341E-001;5.495529621839523E-003;-9.228904964402318E-004;-1.451186137273908E-003;
2.408333333333334E+009;1.794487535953522E-001;4.766926635056734E-003;-9.947209618985653E-004;-1.388514298014343E-003;
2.408500000000000E+009;1.788434386253357E-001;3.917094785720110E-003;-9.421709692105651E-004;-1.305990852415562E-003;
2.408666666666667E+009;1.782362610101700E-001;3.156224498525262E-003;-1.039593829773367E-003;-1.291022286750376E-003;
2.408833333333334E+009;1.775995045900345E-001;2.238093176856637E-003;-1.076836837455630E-003;-1.207391382195056E-003;
2.409000000000000E+009;1.768772453069687E-001;1.380986999720335E-003;-1.197659526951611E-003;-1.147225033491850E-003;
2.409166666666667E+009;1.763858348131180E-001;1.229778426932171E-004;-1.046517980284989E-003;-1.134407240897417E-003;
2.409333333333334E+009;1.756662875413895E-001;-1.026876387186348E-003;-1.034895190969110E-003;-1.192330732010305E-003;
2.409500000000000E+009;1.749031543731690E-001;-2.417837036773562E-003;-1.221641316078603E-003;-1.262746518477798E-003;
2.409666666666667E+009;1.740541905164719E-001;-3.567148698493838E-003;-1.268541789613664E-003;-1.237739925272763E-003;
2.409833333333334E+009;1.734854578971863E-001;-4.856345709413290E-003;-1.259076176211238E-003;-1.135703059844673E-003;
2.410000000000000E+009;1.727717220783234E-001;-6.312851794064045E-003;-1.189205911941826E-003;-1.036051544360817E-003;
2.410166666666667E+009;1.722391843795776E-001;-7.769516203552485E-003;-1.338445814326406E-003;-9.400348062627018E-004;
2.410333333333334E+009;1.717424690723419E-001;-9.461279027163982E-003;-1.342906849458814E-003;-1.045984332449734E-003;
2.410500000000000E+009;1.710788458585739E-001;-1.104697398841381E-002;-1.344985794275999E-003;-1.125958515331149E-003;
2.410666666666667E+009;1.703579127788544E-001;-1.297575607895851E-002;-1.368178054690361E-003;-1.153101795352995E-003;
2.410833333333334E+009;1.700859665870667E-001;-1.459401845932007E-002;-1.616311725229025E-003;-9.635629248805344E-004;
2.411000000000000E+009;1.696266829967499E-001;-1.650775969028473E-002;-1.494469586759806E-003;-1.079228939488530E-003;
2.411166666666667E+009;1.692131459712982E-001;-1.833084598183632E-002;-1.631269464269280E-003;-1.092111691832542E-003;
2.411333333333334E+009;1.688634902238846E-001;-2.002810128033161E-002;-1.729646231979132E-003;-1.003639074042440E-003;
2.411500000000000E+009;1.685681045055389E-001;-2.214369736611843E-002;-1.722726272419095E-003;-1.142078079283238E-003;
2.411666666666667E+009;1.685824841260910E-001;-2.385584823787212E-002;-1.958656590431929E-003;-1.024378929287195E-003;
2.411833333333334E+009;1.684281080961227E-001;-2.580626308917999E-002;-1.931552193127573E-003;-9.951165411621332E-004;
2.412000000000000E+009;1.684332340955734E-001;-2.770370431244373E-002;-2.080451697111130E-003;-7.700216374360025E-004;
2.412166666666667E+009;1.684492379426956E-001;-2.986989915370941E-002;-2.293692436069250E-003;-8.561071590520442E-004;
2.412333333333334E+009;1.686078459024429E-001;-3.155479952692986E-002;-2.284348942339420E-003;-7.384633645415306E-004;
2.412500000000000E+009;1.686307042837143E-001;-3.358758613467217E-002;-2.368264365941286E-003;-8.390879374928772E-004;
2.412666666666667E+009;1.688040792942047E-001;-3.563286736607552E-002;-2.565313596278429E-003;-5.691493279300630E-004;
2.412833333333334E+009;1.692480444908142E-001;-3.727842867374420E-002;-2.677426207810640E-003;-7.608445012010634E-004;
2.413000000000000E+009;1.696151345968247E-001;-3.913348913192749E-002;-2.672009868547320E-003;-4.390394897200167E-004;
2.413166666666667E+009;1.699544191360474E-001;-4.091931134462357E-002;-2.747058169916272E-003;-2.864508423954248E-004;
2.413333333333334E+009;1.702709943056107E-001;-4.265017807483673E-002;-2.843550173565745E-003;-1.685626193648204E-004;
2.413500000000000E+009;1.708567887544632E-001;-4.430572688579559E-002;-2.994781360030174E-003;-9.356225200463086E-005;
2.413666666666667E+009;1.714948713779450E-001;-4.590471088886261E-002;-3.062976058572531E-003;-3.508168447297067E-005;
2.413833333333334E+009;1.719147562980652E-001;-4.742087796330452E-002;-3.004061058163643E-003;2.628814254421741E-004;
2.414000000000000E+009;1.721848845481873E-001;-4.887433722615242E-002;-3.067919053137302E-003;3.737041552085429E-004;
2.414166666666667E+009;1.729243397712708E-001;-5.009855329990387E-002;-3.023257479071617E-003;6.437842966988683E-004;
2.414333333333334E+009;1.734201759099960E-001;-5.134998261928558E-002;-3.125353483483195E-003;7.860184996388853E-004;
2.414500000000000E+009;1.741867214441299E-001;-5.251960828900337E-002;-3.022641642019153E-003;9.851418435573578E-004;
2.414666666666667E+009;1.744814664125443E-001;-5.349458381533623E-002;-3.017971524968743E-003;1.152811571955681E-003;
2.414833333333334E+009;1.749745607376099E-001;-5.474665388464928E-002;-3.101137932389975E-003;1.220033387653530E-003;
2.415000000000000E+009;1.753803789615631E-001;-5.553980171680450E-002;-3.002854296937585E-003;1.456399448215962E-003;
2.415166666666667E+009;1.758921146392822E-001;-5.633357912302017E-002;-2.818038687109947E-003;1.598502509295940E-003;
2.415333333333334E+009;1.762742847204208E-001;-5.717520415782929E-002;-2.825576113536954E-003;1.900671632029116E-003;
2.415500000000000E+009;1.766204684972763E-001;-5.782068893313408E-002;-2.733183326199651E-003;2.058635000139475E-003;
2.415666666666667E+009;1.769052743911743E-001;-5.842171609401703E-002;-2.680816920474172E-003;2.067601075395942E-003;
2.415833333333334E+009;1.773249655961990E-001;-5.901091918349266E-002;-2.758440095931292E-003;2.222518436610699E-003;
2.416000000000000E+009;1.772735565900803E-001;-5.943134427070618E-002;-2.424695529043675E-003;2.402558922767639E-003;
2.416166666666667E+009;1.775627583265305E-001;-5.981154367327690E-002;-2.366046421229839E-003;2.665605861693621E-003;
2.416333333333334E+009;1.775910258293152E-001;-6.009432300925255E-002;-2.274807076901197E-003;2.709769876673818E-003;
2.416500000000000E+009;1.775139868259430E-001;-6.057923659682274E-002;-2.187511418014765E-003;2.936579054221511E-003;
2.416666666666667E+009;1.773208677768707E-001;-6.079226732254028E-002;-2.192113781347871E-003;2.928850241005421E-003;
2.416833333333334E+009;1.772305965423584E-001;-6.115270033478737E-002;-1.786573207937181E-003;3.069648053497076E-003;
2.417000000000000E+009;1.768382042646408E-001;-6.144977733492851E-002;-1.699393382295966E-003;3.194927005097270E-003;
2.417166666666667E+009;1.763442009687424E-001;-6.159098818898201E-002;-1.622348790988326E-003;3.257511416450143E-003;
2.417333333333334E+009;1.759222447872162E-001;-6.182568892836571E-002;-1.297739800065756E-003;3.253002185374498E-003;
2.417500000000000E+009;1.753898859024048E-001;-6.222356855869293E-002;-1.224750536493957E-003;3.355013905093074E-003;
2.417666666666667E+009;1.747750937938690E-001;-6.233915314078331E-002;-1.071480219252408E-003;3.531856229528785E-003;
2.417833333333334E+009;1.740680634975433E-001;-6.261149048805237E-002;-8.499423856846988E-004;3.417900763452053E-003;
2.418000000000000E+009;1.729917526245117E-001;-6.303320825099945E-002;-7.263172301463783E-004;3.484060289338231E-003;
2.418166666666667E+009;1.722688376903534E-001;-6.310541182756424E-002;-4.727661435026676E-004;3.547279164195061E-003;
2.418333333333334E+009;1.715691536664963E-001;-6.368596106767654E-002;-1.857459137681872E-004;3.601340809836984E-003;
2.418500000000000E+009;1.704239994287491E-001;-6.404700130224228E-002;-2.079187979688868E-004;3.500779159367085E-003;
2.418666666666667E+009;1.694253385066986E-001;-6.458136439323425E-002;1.113725011236966E-004;3.508785739541054E-003;
2.418833333333334E+009;1.682313978672028E-001;-6.506991386413574E-002;9.258234786102548E-005;3.616872243583202E-003;
2.419000000000000E+009;1.671082675457001E-001;-6.560687720775604E-002;3.392680082470179E-004;3.494966309517622E-003;
2.419166666666667E+009;1.660418808460236E-001;-6.619895249605179E-002;5.212870892137289E-004;3.415216458961368E-003;
2.419333333333334E+009;1.646331101655960E-001;-6.683891266584396E-002;5.895270151086152E-004;3.330477979034185E-003;
2.419500000000000E+009;1.635561138391495E-001;-6.781695038080216E-002;7.095759501680732E-004;3.216752083972096E-003;
2.419666666666667E+009;1.624651402235031E-001;-6.860266625881195E-002;1.073424122296274E-003;3.250132780522108E-003;
2.419833333333334E+009;1.611732244491577E-001;-6.953815370798111E-002;1.094506122171879E-003;3.137332387268543E-003;
2.420000000000000E+009;1.600823849439621E-001;-7.057247310876846E-002;1.141105312854052E-003;2.881401916965842E-003;
2.420166666666667E+009;1.590094119310379E-001;-7.163392007350922E-002;1.281002536416054E-003;2.899728016927838E-003;
2.420333333333334E+009;1.578798741102219E-001;-7.281233370304108E-002;1.488375826738775E-003;2.885478781536222E-003;
2.420500000000000E+009;1.568176001310349E-001;-7.383514195680618E-002;1.411718316376209E-003;2.705019665881991E-003;
2.420666666666667E+009;1.558430045843124E-001;-7.512248307466507E-002;1.591161242686212E-003;2.638894366100431E-003;
2.420833333333334E+009;1.550109833478928E-001;-7.658462226390839E-002;1.729616778902710E-003;2.587785013020039E-003;
2.421000000000000E+009;1.540891379117966E-001;-7.791052013635635E-002;1.856053713709116E-003;2.406545449048281E-003;
2.421166666666667E+009;1.531768143177033E-001;-7.948451489210129E-002;1.815696363337338E-003;2.437920542433858E-003;
2.421333333333334E+009;1.526007950305939E-001;-8.111283183097839E-002;1.864307443611324E-003;2.269953722134233E-003;
2.421500000000000E+009;1.519245803356171E-001;-8.259098976850510E-002;1.912991167046130E-003;2.096460899338126E-003;
2.421666666666667E+009;1.512921750545502E-001;-8.426508307456970E-002;1.940609887242317E-003;1.980583183467388E-003;
2.421833333333334E+009;1.508104652166367E-001;-8.573876321315765E-002;1.993394223973155E-003;1.933896332047880E-003;
2.422000000000000E+009;1.504191160202026E-001;-8.744775503873825E-002;2.012631157413125E-003;1.899436232633889E-003;
2.422166666666667E+009;1.499461829662323E-001;-8.934848755598068E-002;2.008535666391254E-003;1.726997550576925E-003;
2.422333333333334E+009;1.498227417469025E-001;-9.092878550291061E-002;2.130472101271153E-003;1.799536519683898E-003;
2.422500000000000E+009;1.497265398502350E-001;-9.249002486467362E-002;2.174009336158633E-003;1.650007208809257E-003;
2.422666666666667E+009;1.493996977806091E-001;-9.424435347318649E-002;2.175057772547007E-003;1.468525035306811E-003;
2.422833333333334E+009;1.496190577745438E-001;-9.605556726455689E-002;1.980486558750272E-003;1.422222820110619E-003;
2.423000000000000E+009;1.494362056255341E-001;-9.755688160657883E-002;2.203836804255843E-003;1.316610025241971E-003;
2.423166666666667E+009;1.497395932674408E-001;-9.930745512247086E-002;2.134673995897174E-003;1.187709509395063E-003;
2.423333333333334E+009;1.500058174133301E-001;-1.007657796144486E-001;2.110621891915798E-003;1.181439845822752E-003;
2.423500000000000E+009;1.502339690923691E-001;-1.022835075855255E-001;2.072546631097794E-003;1.076383516192436E-003;
2.423666666666667E+009;1.502512544393539E-001;-1.040143966674805E-001;2.083274070173502E-003;1.103865448385477E-003;
2.423833333333334E+009;1.509533971548080E-001;-1.055707782506943E-001;1.958224689587951E-003;1.030252431519330E-003;
2.424000000000000E+009;1.511887609958649E-001;-1.066931933164597E-001;2.081019105389714E-003;9.108561789616942E-004;
2.424166666666667E+009;1.517835110425949E-001;-1.080892235040665E-001;1.993376994505525E-003;7.612486951984465E-004;
2.424333333333334E+009;1.521525830030441E-001;-1.092608496546745E-001;2.072376199066639E-003;7.747551426291466E-004;
2.424500000000000E+009;1.525391787290573E-001;-1.105764880776405E-001;2.029421273618937E-003;7.584946579299867E-004;
2.424666666666667E+009;1.531193852424622E-001;-1.113964095711708E-001;2.002191962674260E-003;7.683291332796216E-004;
2.424833333333334E+009;1.534740775823593E-001;-1.125886216759682E-001;2.037391765043140E-003;5.900734104216099E-004;
2.425000000000000E+009;1.540341675281525E-001;-1.135475039482117E-001;1.953242346644402E-003;6.504692719317973E-004;
2.425166666666667E+009;1.542607098817825E-001;-1.143278703093529E-001;2.117757918313146E-003;4.871461424045265E-004;
2.425333333333334E+009;1.546900123357773E-001;-1.151706352829933E-001;2.234213752672076E-003;5.190006340853870E-004;
2.425500000000000E+009;1.551431864500046E-001;-1.158141940832138E-001;2.220273483544588E-003;5.157898413017392E-004;
2.425666666666667E+009;1.554067581892014E-001;-1.164430528879166E-001;2.023608423769474E-003;4.895185120403767E-004;
2.425833333333334E+009;1.556172072887421E-001;-1.170114800333977E-001;2.197953173890710E-003;4.893316072411835E-004;
2.426000000000000E+009;1.558618843555450E-001;-1.175960898399353E-001;2.261117799207568E-003;4.399819299578667E-004;
2.426166666666667E+009;1.562056988477707E-001;-1.179045066237450E-001;2.175905276089907E-003;2.901568950619549E-004;
2.426333333333334E+009;1.561385542154312E-001;-1.182710453867912E-001;2.124825725331903E-003;1.508744171587750E-004;
2.426500000000000E+009;1.561950743198395E-001;-1.185647323727608E-001;2.089960500597954E-003;2.306343667441979E-004;
2.426666666666667E+009;1.562356948852539E-001;-1.186944991350174E-001;2.326802583411336E-003;-1.420074841007590E-004;
2.426833333333334E+009;1.559760868549347E-001;-1.189509853720665E-001;2.157394308596849E-003;7.529548611273640E-007;
2.427000000000000E+009;1.557720899581909E-001;-1.190590336918831E-001;2.073053969070315E-003;-1.425041955371853E-005;
2.427166666666667E+009;1.554236114025116E-001;-1.190635561943054E-001;2.231168327853084E-003;-1.890761050162837E-004;
2.427333333333334E+009;1.549485772848129E-001;-1.193465441465378E-001;2.125808969140053E-003;-9.135476284427568E-005;
2.427500000000000E+009;1.545097678899765E-001;-1.194132491946220E-001;2.178484341129661E-003;-1.994412887142971E-004;
2.427666666666667E+009;1.538335829973221E-001;-1.194203794002533E-001;2.084463601931930E-003;-2.387840359006077E-004;
2.427833333333334E+009;1.530974507331848E-001;-1.195659488439560E-001;2.020874293521047E-003;-2.892596239689738E-004;
