# Version 1.00
#
freq[Hz];re:Trc1_S11;im:Trc1_S11;re:Trc2_S21;im:Trc2_S21;
2.400000000000000E+009;1.586357057094574E-001;6.274770945310593E-002;-6.144421058706939E-004;1.090459991246462E-003;
2.400166666666667E+009;1.585571318864822E-001;6.129315122961998E-002;-3.223885432817042E-004;1.096028834581375E-003;
2.400333333333334E+009;1.584023535251617E-001;5.920215323567390E-002;-3.285057900939137E-004;1.149292103946209E-003;
2.400500000000000E+009;1.584130674600601E-001;5.755143240094185E-002;-2.433344925520942E-004;1.100559369660914E-003;
2.400666666666667E+009;1.581436246633530E-001;5.560217425227165E-002;7.455350441887276E-006;1.174892182461917E-003;
2.400833333333334E+009;1.582201719284058E-001;5.384337529540062E-002;-8.674251148477197E-005;1.211984315887094E-003;
2.401000000000000E+009;1.583704501390457E-001;5.165743827819824E-002;2.369383582845330E-005;1.130051328800619E-003;
2.401166666666667E+009;1.585720032453537E-001;4.954623803496361E-002;1.414578728144988E-004;1.144798821769655E-003;
2.401333333333334E+009;1.583291590213776E-001;4.758774116635323E-002;2.523022994864732E-004;1.143906149081886E-003;
2.401500000000000E+009;1.589391380548477E-001;4.556138068437576E-002;2.990536158904433E-004;1.126320916227996E-003;
2.401666666666667E+009;1.591995656490326E-001;4.353654757142067E-002;4.909177077934146E-004;1.065777847543359E-003;
2.401833333333334E+009;1.593385785818100E-001;4.149200022220612E-002;5.044840509071946E-004;9.738711523823440E-004;
2.402000000000000E+009;1.594190448522568E-001;3.949261829257011E-002;6.273651379160583E-004;1.054139342159033E-003;
2.402166666666667E+009;1.600578576326370E-001;3.755134344100952E-002;8.108093752525747E-004;7.893780129961669E-004;
2.402333333333334E+009;1.605142205953598E-001;3.557973355054855E-002;8.361185900866985E-004;9.043782483786345E-004;
2.402500000000000E+009;1.613536626100540E-001;3.370558097958565E-002;9.656417532823980E-004;7.712689111940563E-004;
2.402666666666667E+009;1.619289815425873E-001;3.197260946035385E-002;1.057452755048871E-003;6.385215674526990E-004;
2.402833333333334E+009;1.626948118209839E-001;3.048600070178509E-002;1.103512127883732E-003;5.278142052702606E-004;
2.403000000000000E+009;1.633675545454025E-001;2.875173650681973E-002;1.151629141531885E-003;4.798403242602944E-004;
2.403166666666667E+009;1.641471683979034E-001;2.697091177105904E-002;1.033657696098089E-003;3.544147184584290E-004;
2.403333333333334E+009;1.650248467922211E-001;2.558253146708012E-002;1.253167865797877E-003;2.523593429941684E-004;
2.403500000000000E+009;1.659549176692963E-001;2.408757619559765E-002;1.342874253168702E-003;4.559225999400951E-005;
2.403666666666667E+009;1.668841093778610E-001;2.254575304687023E-002;1.213939627632499E-003;-2.612464595586062E-005;
2.403833333333334E+009;1.677296906709671E-001;2.123428508639336E-002;1.240507932379842E-003;-1.512918388471007E-004;
2.404000000000000E+009;1.686183214187622E-001;2.009700052440167E-002;1.266573905013502E-003;-4.408367385622114E-004;
2.404166666666667E+009;1.696933656930924E-001;1.886600255966187E-002;1.189064467325807E-003;-2.845734998118132E-004;
2.404333333333334E+009;1.707346141338348E-001;1.781340502202511E-002;1.274666399694979E-003;-5.380167858675122E-004;
2.404500000000000E+009;1.715111583471298E-001;1.672860234975815E-002;1.179548795334995E-003;-7.348242215812206E-004;
2.404666666666667E+009;1.725254207849503E-001;1.587912999093533E-002;1.085218274965882E-003;-8.653199183754623E-004;
2.404833333333334E+009;1.734558641910553E-001;1.501349359750748E-002;1.075231237336993E-003;-9.643551893532276E-004;
2.405000000000000E+009;1.745088398456574E-001;1.425723545253277E-002;1.144435023888946E-003;-1.068714773282409E-003;
2.405166666666667E+009;1.752736568450928E-001;1.340302824974060E-002;9.813777869567275E-004;-1.107243238948286E-003;
2.405333333333334E+009;1.763144433498383E-001;1.279266923666000E-002;1.039488008245826E-003;-1.326593686826527E-003;
2.405500000000000E+009;1.768774837255478E-001;1.235073525458574E-002;8.045980939641595E-004;-1.475749071687460E-003;
2.405666666666667E+009;1.776403486728668E-001;1.180760934948921E-002;8.005763520486653E-004;-1.378419809043407E-003;
2.405833333333334E+009;1.782416105270386E-001;1.129852887243033E-002;4.990220186300576E-004;-1.646679709665477E-003;
2.406000000000000E+009;1.789929121732712E-001;1.094574946910143E-002;5.015338538214564E-004;-1.621662057004869E-003;
2.406166666666667E+009;1.792971789836884E-001;1.057153753936291E-002;3.103050112258643E-004;-1.758847502060235E-003;
2.406333333333334E+009;1.798503994941711E-001;1.028468366712332E-002;1.560841628815979E-004;-1.564212027005851E-003;
2.406500000000000E+009;1.801753640174866E-001;9.867526590824127E-003;6.812044011894614E-005;-1.691523473709822E-003;
2.406666666666667E+009;1.803950965404511E-001;9.554821997880936E-003;-1.461300416849554E-004;-1.782119274139404E-003;
2.406833333333334E+009;1.807020008563995E-001;9.122128598392010E-003;-2.440287353238091E-004;-1.670031575486064E-003;
2.407000000000000E+009;1.809532344341278E-001;8.743101730942726E-003;-2.334169548703358E-004;-1.810956047847867E-003;
2.407166666666667E+009;1.810767799615860E-001;8.532621897757053E-003;-4.814979329239577E-004;-1.660861657001078E-003;
2.407333333333334E+009;1.808635741472244E-001;7.948250509798527E-003;-5.229396629147232E-004;-1.694424194283783E-003;
2.407500000000000E+009;1.808549016714096E-001;7.613433524966240E-003;-5.536629469133914E-004;-1.591918058693409E-003;
2.407666666666667E+009;1.807065606117249E-001;7.205836009234190E-003;-7.057201000861824E-004;-1.574763329699636E-003;
2.407833333333334E+009;1.803329885005951E-001;6.575925741344690E-003;-7.515231845900416E-004;-1.502396888099611E-003;
2.408000000000000E+009;1.799763143062592E-001;5.922599695622921E-003;-8.086777525022626E-004;-1.443595858290792E-003;
2.408166666666667E+009;1.796847283840179E-001;5.514120217412710E-003;-6.148189422674477E-004;-1.363509334623814E-003;
2.408333333333334E+009;1.793512403964996E-001;4.748037084937096E-003;-8.290488622151315E-004;-1.429882016964257E-003;
2.408500000000000E+009;1.787920296192169E-001;3.912333399057388E-003;-8.879540255293250E-004;-1.526085194200277E-003;
2.408666666666667E+009;1.782381385564804E-001;3.122470341622829E-003;-9.886665502563119E-004;-1.361037371680141E-003;
2.408833333333334E+009;1.775130033493042E-001;2.064972883090377E-003;-8.277886081486940E-004;-1.169929862953723E-003;
2.409000000000000E+009;1.768174767494202E-001;1.185254193842411E-003;-1.059809117577970E-003;-1.178552978672087E-003;
2.409166666666667E+009;1.763080060482025E-001;2.405313716735691E-004;-1.091029611416161E-003;-1.170856296084821E-003;
2.409333333333334E+009;1.756450831890106E-001;-1.085582422092557E-003;-1.197338686324656E-003;-1.214296207763255E-003;
2.409500000000000E+009;1.749656498432159E-001;-2.450162312015891E-003;-1.222298596985638E-003;-1.153921708464623E-003;
2.409666666666667E+009;1.741555780172348E-001;-3.613452194258571E-003;-9.940112940967083E-004;-1.216788543388248E-003;
2.409833333333334E+009;1.734091341495514E-001;-4.914333112537861E-003;-1.168196089565754E-003;-1.203601947054267E-003;
2.410000000000000E+009;1.730330288410187E-001;-6.323546171188355E-003;-1.412285608239472E-003;-1.034440589137375E-003;
2.410166666666667E+009;1.721579879522324E-001;-7.701439317315817E-003;-1.338099711574614E-003;-9.385249577462673E-004;
2.410333333333334E+009;1.715480983257294E-001;-9.467338211834431E-003;-1.440015155822039E-003;-1.036806846968830E-003;
2.410500000000000E+009;1.710508912801743E-001;-1.116797886788845E-002;-1.461627543903887E-003;-1.170300529338419E-003;
2.410666666666667E+009;1.701381057500839E-001;-1.293394155800343E-002;-1.470994553528726E-003;-1.021016971208155E-003;
2.410833333333334E+009;1.700392216444016E-001;-1.461828500032425E-002;-1.475766533985734E-003;-1.147972303442657E-003;
2.411000000000000E+009;1.695476919412613E-001;-1.644599251449108E-002;-1.524214516393840E-003;-1.023993710987270E-003;
2.411166666666667E+009;1.691736429929733E-001;-1.842731796205044E-002;-1.718285842798650E-003;-1.046932302415371E-003;
2.411333333333334E+009;1.688109338283539E-001;-2.012505382299423E-002;-1.708385767415166E-003;-1.064682379364967E-003;
2.411500000000000E+009;1.685076951980591E-001;-2.210252918303013E-002;-1.762644271366298E-003;-9.957759175449610E-004;
2.411666666666667E+009;1.683987975120544E-001;-2.397101186215878E-002;-1.864492543973029E-003;-9.176930179819465E-004;
2.411833333333334E+009;1.682802289724350E-001;-2.591529488563538E-002;-1.968711614608765E-003;-9.655319736339152E-004;
2.412000000000000E+009;1.683737635612488E-001;-2.806145139038563E-002;-1.949428929947317E-003;-9.037858690135181E-004;
2.412166666666667E+009;1.681704819202423E-001;-2.982727997004986E-002;-2.269717399030924E-003;-8.105273591354489E-004;
2.412333333333334E+009;1.685319989919663E-001;-3.168827667832375E-002;-2.278112573549151E-003;-7.675386150367558E-004;
2.412500000000000E+009;1.687537580728531E-001;-3.358361124992371E-002;-2.460853662341833E-003;-8.592689991928637E-004;
2.412666666666667E+009;1.688932925462723E-001;-3.549608215689659E-002;-2.476806752383709E-003;-7.222070707939565E-004;
2.412833333333334E+009;1.692883670330048E-001;-3.746386989951134E-002;-2.713464666157961E-003;-4.779775335919112E-004;
2.413000000000000E+009;1.696321368217468E-001;-3.912647068500519E-002;-2.776620443910360E-003;-5.476584192365408E-004;
2.413166666666667E+009;1.700342595577240E-001;-4.078016802668572E-002;-2.675408264622092E-003;-2.593148383311927E-004;
2.413333333333334E+009;1.703071147203445E-001;-4.256309196352959E-002;-2.862943569198251E-003;-1.891787687782198E-004;
2.413500000000000E+009;1.707974076271057E-001;-4.421907290816307E-002;-2.806491684168577E-003;-3.624267992563546E-005;
2.413666666666667E+009;1.712063401937485E-001;-4.605686292052269E-002;-2.983120037242770E-003;6.666427361778915E-005;
2.413833333333334E+009;1.718320548534393E-001;-4.736907407641411E-002;-3.026692895218730E-003;3.238410572521389E-004;
2.414000000000000E+009;1.721414029598236E-001;-4.882586747407913E-002;-3.001104807481170E-003;5.642694886773825E-004;
2.414166666666667E+009;1.729799807071686E-001;-5.012008547782898E-002;-2.935586031526327E-003;5.121348658576608E-004;
2.414333333333334E+009;1.734380424022675E-001;-5.138497054576874E-002;-3.027713857591152E-003;8.301304769702256E-004;
2.414500000000000E+009;1.740058660507202E-001;-5.254606530070305E-002;-2.994892885908485E-003;9.452907834202051E-004;
2.414666666666667E+009;1.744903773069382E-001;-5.349222570657730E-002;-2.952052047476172E-003;1.060918089933693E-003;
2.414833333333334E+009;1.750533580780029E-001;-5.464398860931397E-002;-2.899982267990708E-003;1.421671244315803E-003;
2.415000000000000E+009;1.754253506660461E-001;-5.552867054939270E-002;-2.995700808241963E-003;1.441732165403664E-003;
2.415166666666667E+009;1.757607311010361E-001;-5.646347999572754E-002;-2.869507996365428E-003;1.767297857441008E-003;
2.415333333333334E+009;1.762960553169251E-001;-5.713453888893127E-002;-2.913207979872823E-003;1.789748203009367E-003;
2.415500000000000E+009;1.767307668924332E-001;-5.790552124381065E-002;-2.729031024500728E-003;2.086321357637644E-003;
2.415666666666667E+009;1.769571155309677E-001;-5.826555564999580E-002;-2.704574726521969E-003;2.278151689097285E-003;
2.415833333333334E+009;1.772805899381638E-001;-5.891980975866318E-002;-2.444449812173843E-003;2.275315579026938E-003;
2.416000000000000E+009;1.772854775190353E-001;-5.945473164319992E-002;-2.509375102818012E-003;2.375204348936677E-003;
2.416166666666667E+009;1.776278316974640E-001;-5.984147638082504E-002;-2.338420134037733E-003;2.521836897358298E-003;
2.416333333333334E+009;1.776419132947922E-001;-6.020062789320946E-002;-2.079529687762260E-003;2.692602574825287E-003;
2.416500000000000E+009;1.775515526533127E-001;-6.055053323507309E-002;-2.061044331640005E-003;2.766390331089497E-003;
2.416666666666667E+009;1.773306280374527E-001;-6.069305539131165E-002;-1.938740024343133E-003;3.027623286470771E-003;
2.416833333333334E+009;1.772106140851975E-001;-6.122572720050812E-002;-1.804400817491114E-003;3.149784635752440E-003;
2.417000000000000E+009;1.766833215951920E-001;-6.142630055546761E-002;-1.660730806179345E-003;3.163801273331046E-003;
2.417166666666667E+009;1.764827817678452E-001;-6.155344843864441E-002;-1.472534844651818E-003;3.285391023382545E-003;
2.417333333333334E+009;1.759550273418427E-001;-6.179065629839897E-002;-1.359639922156930E-003;3.330933395773172E-003;
2.417500000000000E+009;1.753111034631729E-001;-6.215087324380875E-002;-1.250567613169551E-003;3.341027768328786E-003;
2.417666666666667E+009;1.747243851423264E-001;-6.230982020497322E-002;-1.093861181288958E-003;3.413989208638668E-003;
2.417833333333334E+009;1.740497648715973E-001;-6.249555572867394E-002;-7.859425968490541E-004;3.500090213492513E-003;
2.418000000000000E+009;1.731235980987549E-001;-6.296621263027191E-002;-5.759223713539541E-004;3.460750682279468E-003;
2.418166666666667E+009;1.723357439041138E-001;-6.323345005512238E-002;-4.588991287164390E-004;3.492654068395495E-003;
2.418333333333334E+009;1.715951561927795E-001;-6.356751173734665E-002;-2.535696839913726E-004;3.336887340992689E-003;
2.418500000000000E+009;1.703511476516724E-001;-6.398823857307434E-002;-5.463538764161058E-005;3.543288214132190E-003;
2.418666666666667E+009;1.694609522819519E-001;-6.457794457674027E-002;5.095107917441055E-005;3.567092353478074E-003;
2.418833333333334E+009;1.683228313922882E-001;-6.502020359039307E-002;2.750721178017557E-004;3.397239837795496E-003;
2.419000000000000E+009;1.670268326997757E-001;-6.558217108249664E-002;3.733400371856988E-004;3.411326557397842E-003;
2.419166666666667E+009;1.659631580114365E-001;-6.617882847785950E-002;4.400362959131599E-004;3.342964919283986E-003;
2.419333333333334E+009;1.646912246942520E-001;-6.669291108846664E-002;6.867488264106214E-004;3.401205176487565E-003;
2.419500000000000E+009;1.636922210454941E-001;-6.777758151292801E-002;8.240758324973285E-004;3.320616437122226E-003;
2.419666666666667E+009;1.625428944826126E-001;-6.871653348207474E-002;9.376086527481675E-004;3.209984861314297E-003;
2.419833333333334E+009;1.612167954444885E-001;-6.943114101886749E-002;1.195118878968060E-003;2.957093529403210E-003;
2.420000000000000E+009;1.601172834634781E-001;-7.054132223129273E-002;1.133878482505679E-003;2.997656119987369E-003;
2.420166666666667E+009;1.589767038822174E-001;-7.165754586458206E-002;1.338801230303943E-003;2.799669513478875E-003;
2.420333333333334E+009;1.580615192651749E-001;-7.283517718315125E-002;1.327004865743220E-003;2.817363478243351E-003;
2.420500000000000E+009;1.569014191627502E-001;-7.386837899684906E-002;1.587982871569693E-003;2.862743102014065E-003;
2.420666666666667E+009;1.558365225791931E-001;-7.512807101011276E-002;1.546637737192214E-003;2.594002056866884E-003;
2.420833333333334E+009;1.550133675336838E-001;-7.664915919303894E-002;1.612791325896978E-003;2.579875290393829E-003;
2.421000000000000E+009;1.540749818086624E-001;-7.801260054111481E-002;1.685954513959587E-003;2.444952260702848E-003;
2.421166666666667E+009;1.532785296440125E-001;-7.952579110860825E-002;1.865640864707530E-003;2.311232034116983E-003;
2.421333333333334E+009;1.526112258434296E-001;-8.113580942153931E-002;1.822600141167641E-003;2.154210815206170E-003;
2.421500000000000E+009;1.516916155815125E-001;-8.248097449541092E-002;1.895891968160868E-003;2.220013411715627E-003;
2.421666666666667E+009;1.512577682733536E-001;-8.412101864814758E-002;1.915469649247825E-003;2.037455094978213E-003;
2.421833333333334E+009;1.509015560150147E-001;-8.585044741630554E-002;2.045700792223215E-003;1.957343192771077E-003;
2.422000000000000E+009;1.503228545188904E-001;-8.749864250421524E-002;2.041036263108254E-003;1.851266599260271E-003;
2.422166666666667E+009;1.500449329614639E-001;-8.934681117534638E-002;2.057440346106887E-003;1.742244116030633E-003;
2.422333333333334E+009;1.498243361711502E-001;-9.076110273599625E-002;1.986057031899691E-003;1.575752627104521E-003;
2.422500000000000E+009;1.495685726404190E-001;-9.249945729970932E-002;2.097130287438631E-003;1.593511668033898E-003;
2.422666666666667E+009;1.494975090026856E-001;-9.420839697122574E-002;1.973863458260894E-003;1.385354087688029E-003;
2.422833333333334E+009;1.495856791734695E-001;-9.589468687772751E-002;1.985081005841494E-003;1.193644013255835E-003;
2.423000000000000E+009;1.495542824268341E-001;-9.748478978872299E-002;2.033498603850603E-003;1.346936216577888E-003;
2.423166666666667E+009;1.499055325984955E-001;-9.922117739915848E-002;2.027588663622737E-003;1.289545209147036E-003;
2.423333333333334E+009;1.499963700771332E-001;-1.008661463856697E-001;2.125403610989451E-003;1.205699052661657E-003;
2.423500000000000E+009;1.503238677978516E-001;-1.024619340896606E-001;2.038699341937900E-003;1.049425452947617E-003;
2.423666666666667E+009;1.504563540220261E-001;-1.039599627256393E-001;2.183728385716677E-003;1.100480090826750E-003;
2.423833333333334E+009;1.509468406438828E-001;-1.054714024066925E-001;2.002610825002194E-003;9.668114944361150E-004;
2.424000000000000E+009;1.510794311761856E-001;-1.067334860563278E-001;2.000461099669337E-003;8.556632674299181E-004;
2.424166666666667E+009;1.515391767024994E-001;-1.080411672592163E-001;2.099892357364297E-003;8.494653739035130E-004;
2.424333333333334E+009;1.521901488304138E-001;-1.092766970396042E-001;2.026109723374248E-003;6.606944953091443E-004;
2.424500000000000E+009;1.525352597236633E-001;-1.106291562318802E-001;2.122318372130394E-003;7.535785553045571E-004;
2.424666666666667E+009;1.531480997800827E-001;-1.114688068628311E-001;2.104700775817037E-003;6.063652108423412E-004;
2.424833333333334E+009;1.534741371870041E-001;-1.125525906682015E-001;2.208828227594495E-003;6.495824782177806E-004;
2.425000000000000E+009;1.539389193058014E-001;-1.136303022503853E-001;2.122266450896859E-003;6.277259672060609E-004;
2.425166666666667E+009;1.542198359966278E-001;-1.143894717097282E-001;2.103539183735848E-003;5.160673754289746E-004;
2.425333333333334E+009;1.546883732080460E-001;-1.151421964168549E-001;2.060113009065390E-003;5.057607195340097E-004;
2.425500000000000E+009;1.550543755292893E-001;-1.159487590193749E-001;2.129616448655725E-003;4.706571344286203E-004;
2.425666666666667E+009;1.552926748991013E-001;-1.164081171154976E-001;2.023409819230437E-003;3.452432574704289E-004;
2.425833333333334E+009;1.556319594383240E-001;-1.171359717845917E-001;2.129749627783895E-003;3.855093964375556E-004;
2.426000000000000E+009;1.558753252029419E-001;-1.176082715392113E-001;2.103589940816164E-003;1.703620073385537E-004;
2.426166666666667E+009;1.561302840709686E-001;-1.180139854550362E-001;2.140840049833059E-003;2.934172516688705E-004;
2.426333333333334E+009;1.560541391372681E-001;-1.183206588029862E-001;2.084096428006887E-003;2.514757798053324E-004;
2.426500000000000E+009;1.561141312122345E-001;-1.185098290443420E-001;2.151589142158628E-003;9.410762868355960E-005;
2.426666666666667E+009;1.562200784683228E-001;-1.187359839677811E-001;2.139542251825333E-003;7.455144077539444E-005;
2.426833333333334E+009;1.559525579214096E-001;-1.189123839139938E-001;2.179114613682032E-003;5.299949407344684E-005;
2.427000000000000E+009;1.556905359029770E-001;-1.192058920860291E-001;2.138153882697225E-003;-3.397282853256911E-005;
2.427166666666667E+009;1.554209738969803E-001;-1.191453188657761E-001;2.180394018068910E-003;1.356268912786618E-004;
2.427333333333334E+009;1.548762768507004E-001;-1.193364933133125E-001;2.203756244853139E-003;-1.509081630501896E-004;
2.427500000000000E+009;1.545336693525314E-001;-1.193330287933350E-001;2.143201883882284E-003;-1.742794847814366E-004;
2.427666666666667E+009;1.538423448801041E-001;-1.194677203893662E-001;2.089421963319182E-003;-1.564323174534366E-004;
2.427833333333334E+009;1.530781537294388E-001;-1.196018755435944E-001;2.205758122727275E-003;-3.215473843738437E-004;
