# Version 1.00
#
freq[Hz];re:Trc1_S11;im:Trc1_S11;re:Trc2_S21;im:Trc2_S21;
2.400000000000000E+009;1.587882488965988E-001;6.319169700145721E-002;-2.979509765282273E-003;-1.169504597783089E-003;
2.400166666666667E+009;1.588351279497147E-001;6.168672814965248E-002;-2.896153600886464E-003;-1.021111500449479E-003;
2.400333333333334E+009;1.584189832210541E-001;5.968454852700234E-002;-2.960229991003871E-003;-1.102315145544708E-003;
2.400500000000000E+009;1.585138738155365E-001;5.780035257339478E-002;-2.913577249273658E-003;-1.032290980219841E-003;
2.400666666666667E+009;1.583383828401566E-001;5.587832257151604E-002;-2.851647557690740E-003;-9.790025651454926E-004;
2.400833333333334E+009;1.584844142198563E-001;5.408847332000732E-002;-2.961459569633007E-003;-1.132077886722982E-003;
2.401000000000000E+009;1.584475189447403E-001;5.197237804532051E-002;-2.971205161884427E-003;-7.748394273221493E-004;
2.401166666666667E+009;1.585891395807266E-001;4.992305859923363E-002;-2.853037323802710E-003;-8.206152706407011E-004;
2.401333333333334E+009;1.587397158145905E-001;4.780738800764084E-002;-3.066890640184283E-003;-7.644480792805553E-004;
2.401500000000000E+009;1.591936349868774E-001;4.592546448111534E-002;-3.089312231168151E-003;-8.985805907286704E-004;
2.401666666666667E+009;1.593245714902878E-001;4.396485537290573E-002;-2.983675803989172E-003;-6.092095281928778E-004;
2.401833333333334E+009;1.596158146858215E-001;4.172591492533684E-002;-3.127494826912880E-003;-6.361671839840710E-004;
2.402000000000000E+009;1.600243300199509E-001;3.976921364665031E-002;-3.244057763367891E-003;-7.402462069876492E-004;
2.402166666666667E+009;1.603956371545792E-001;3.767023980617523E-002;-3.191748168319464E-003;-7.257181569002569E-004;
2.402333333333334E+009;1.609578430652618E-001;3.585454076528549E-002;-3.311432898044586E-003;-4.686179745476693E-004;
2.402500000000000E+009;1.615658253431320E-001;3.402629122138023E-002;-3.258994780480862E-003;-5.958233959972858E-004;
2.402666666666667E+009;1.621550172567368E-001;3.227696940302849E-002;-3.310145111754537E-003;-4.380566533654928E-004;
2.402833333333334E+009;1.628761738538742E-001;3.053734637796879E-002;-3.380506532266736E-003;-3.517865552566946E-004;
2.403000000000000E+009;1.636773496866226E-001;2.869519963860512E-002;-3.426726208999753E-003;-3.568864776752889E-004;
2.403166666666667E+009;1.645619869232178E-001;2.714556641876698E-002;-3.586816601455212E-003;-2.856216451618820E-004;
2.403333333333334E+009;1.655408889055252E-001;2.562047727406025E-002;-3.538434626534581E-003;-1.129369920818135E-004;
2.403500000000000E+009;1.662272363901138E-001;2.416437119245529E-002;-3.817036282271147E-003;-1.725764741422609E-004;
2.403666666666667E+009;1.671299338340759E-001;2.273168042302132E-002;-3.828278742730618E-003;-1.154697201855015E-005;
2.403833333333334E+009;1.681572496891022E-001;2.139280736446381E-002;-3.936852328479290E-003;1.503146195318550E-004;
2.404000000000000E+009;1.691045165061951E-001;2.025604061782360E-002;-4.042081534862518E-003;3.652885206975043E-004;
2.404166666666667E+009;1.701187491416931E-001;1.901089772582054E-002;-3.949304111301899E-003;4.651067720260471E-004;
2.404333333333334E+009;1.711991578340530E-001;1.781745627522469E-002;-3.950588870793581E-003;7.189191528595984E-004;
2.404500000000000E+009;1.718894690275192E-001;1.661656424403191E-002;-4.115707706660032E-003;9.450282668694854E-004;
2.404666666666667E+009;1.730315983295441E-001;1.594312861561775E-002;-4.080007784068584E-003;9.897632990032435E-004;
2.404833333333334E+009;1.739128530025482E-001;1.494106650352478E-002;-4.125173203647137E-003;1.196249271743000E-003;
2.405000000000000E+009;1.750575155019760E-001;1.412638276815414E-002;-3.950073383748531E-003;1.419031526893377E-003;
2.405166666666667E+009;1.756722629070282E-001;1.341209560632706E-002;-3.998371306806803E-003;1.682664384134114E-003;
2.405333333333334E+009;1.765660494565964E-001;1.262823585420847E-002;-3.855043090879917E-003;1.850318047218025E-003;
2.405500000000000E+009;1.774150133132935E-001;1.216714456677437E-002;-3.903171978890896E-003;1.964861061424017E-003;
2.405666666666667E+009;1.779920607805252E-001;1.166404876857996E-002;-3.757802536711097E-003;2.081939950585365E-003;
2.405833333333334E+009;1.786538809537888E-001;1.130834221839905E-002;-3.632578533142805E-003;2.284022513777018E-003;
2.406000000000000E+009;1.791611909866333E-001;1.077720150351524E-002;-3.553578862920404E-003;2.551323268562555E-003;
2.406166666666667E+009;1.795922070741653E-001;1.048452593386173E-002;-3.448165487498045E-003;2.672631526365876E-003;
2.406333333333334E+009;1.802006363868713E-001;1.003533415496349E-002;-3.230735659599304E-003;2.677025739103556E-003;
2.406500000000000E+009;1.804743856191635E-001;9.609584696590900E-003;-3.091020509600639E-003;2.851145109161735E-003;
2.406666666666667E+009;1.805571019649506E-001;9.345151484012604E-003;-2.961274469271302E-003;2.992277266457677E-003;
2.406833333333334E+009;1.809659004211426E-001;8.907263167202473E-003;-2.825141884386540E-003;2.839468419551849E-003;
2.407000000000000E+009;1.811668276786804E-001;8.730102330446243E-003;-2.722697565332055E-003;3.116986015811563E-003;
2.407166666666667E+009;1.812821179628372E-001;8.445736020803452E-003;-2.664376515895128E-003;3.161346772685647E-003;
2.407333333333334E+009;1.811658591032028E-001;7.791205309331417E-003;-2.513748127967119E-003;3.313958412036300E-003;
2.407500000000000E+009;1.810559928417206E-001;7.552172988653183E-003;-2.277024788782001E-003;3.221475752070546E-003;
2.407666666666667E+009;1.807990074157715E-001;7.128608878701925E-003;-2.294722711667419E-003;3.374070161953569E-003;
2.407833333333334E+009;1.806132197380066E-001;6.443396676331759E-003;-2.007546136155725E-003;3.352103987708688E-003;
2.408000000000000E+009;1.802992820739746E-001;5.908691324293613E-003;-1.912357634864748E-003;3.225992666557431E-003;
2.408166666666667E+009;1.797811388969421E-001;5.262479651719332E-003;-1.765186316333711E-003;3.452854230999947E-003;
2.408333333333334E+009;1.795032173395157E-001;4.713601898401976E-003;-1.555897644720972E-003;3.567796200513840E-003;
2.408500000000000E+009;1.788978278636932E-001;3.801611252129078E-003;-1.460239058360457E-003;3.419995773583651E-003;
2.408666666666667E+009;1.784881204366684E-001;2.944073174148798E-003;-1.451042247936130E-003;3.512063529342413E-003;
2.408833333333334E+009;1.777460128068924E-001;2.108520362526178E-003;-1.376867876388133E-003;3.344441764056683E-003;
2.409000000000000E+009;1.769035458564758E-001;1.126756891608238E-003;-1.197731937281787E-003;3.524885280057788E-003;
2.409166666666667E+009;1.765526533126831E-001;-7.701721915509552E-005;-1.122332294471562E-003;3.478254424408078E-003;
2.409333333333334E+009;1.758793741464615E-001;-1.255386509001255E-003;-8.617509156465530E-004;3.724835347384214E-003;
2.409500000000000E+009;1.750410646200180E-001;-2.653296105563641E-003;-7.730282377451658E-004;3.585583996027708E-003;
2.409666666666667E+009;1.744159907102585E-001;-3.789032343775034E-003;-6.565898074768484E-004;3.469152841717005E-003;
2.409833333333334E+009;1.735669970512390E-001;-5.162607412785292E-003;-5.544023588299751E-004;3.620948409661651E-003;
2.410000000000000E+009;1.730024814605713E-001;-6.540443748235703E-003;-5.521530401892960E-004;3.642384661361575E-003;
2.410166666666667E+009;1.724419593811035E-001;-8.072809316217899E-003;-3.646528057288379E-004;3.653448540717363E-003;
2.410333333333334E+009;1.716732680797577E-001;-9.775100275874138E-003;-2.419284865027294E-004;3.526000538840890E-003;
2.410500000000000E+009;1.710776835680008E-001;-1.139988470822573E-002;-2.284852671436966E-004;3.504459979012609E-003;
2.410666666666667E+009;1.705323308706284E-001;-1.337128039449453E-002;-1.813365270209033E-005;3.467495087534189E-003;
2.410833333333334E+009;1.700558960437775E-001;-1.477320399135351E-002;-3.235849135307944E-006;3.415955696254969E-003;
2.411000000000000E+009;1.695243269205093E-001;-1.667899638414383E-002;1.151624674093910E-004;3.292156849056482E-003;
2.411166666666667E+009;1.692458242177963E-001;-1.859661750495434E-002;2.982707228511572E-004;3.507527522742748E-003;
2.411333333333334E+009;1.687895059585571E-001;-2.033083699643612E-002;3.131595149170607E-004;3.539678873494268E-003;
2.411500000000000E+009;1.684620678424835E-001;-2.235949225723743E-002;4.347891081124544E-004;3.508843714371324E-003;
2.411666666666667E+009;1.684022098779678E-001;-2.417756803333759E-002;5.523324944078922E-004;3.444967325776815E-003;
2.411833333333334E+009;1.683223545551300E-001;-2.614877745509148E-002;5.886305007152259E-004;3.446226241067052E-003;
2.412000000000000E+009;1.683960258960724E-001;-2.802721224725246E-002;5.961107090115547E-004;3.494517412036657E-003;
2.412166666666667E+009;1.681980788707733E-001;-3.006615675985813E-002;9.157842723652721E-004;3.481914289295673E-003;
2.412333333333334E+009;1.686297208070755E-001;-3.193581104278565E-002;1.125539536587894E-003;3.446672577410936E-003;
2.412500000000000E+009;1.684813350439072E-001;-3.391481935977936E-002;1.077845226973295E-003;3.351863939315081E-003;
2.412666666666667E+009;1.687425374984741E-001;-3.581993281841278E-002;1.142978901043534E-003;3.137312596663833E-003;
2.412833333333334E+009;1.692854911088944E-001;-3.764854371547699E-002;1.268253545276821E-003;3.331094747409225E-003;
2.413000000000000E+009;1.692751646041870E-001;-3.935545682907105E-002;1.469728536903858E-003;3.447458380833268E-003;
2.413166666666667E+009;1.697828620672226E-001;-4.102651774883270E-002;1.707265269942582E-003;3.336182096973062E-003;
2.413333333333334E+009;1.700291037559509E-001;-4.279590025544167E-002;1.537835691124201E-003;3.180417465046048E-003;
2.413500000000000E+009;1.706634014844894E-001;-4.432215169072151E-002;1.715122023597360E-003;3.239702666178346E-003;
2.413666666666667E+009;1.711811721324921E-001;-4.615954309701920E-002;1.952041522599757E-003;2.916642464697361E-003;
2.413833333333334E+009;1.717482358217239E-001;-4.751913994550705E-002;2.062236890196800E-003;2.900532213971019E-003;
2.414000000000000E+009;1.720083206892014E-001;-4.900909587740898E-002;2.285148715600371E-003;2.796349581331015E-003;
2.414166666666667E+009;1.726587563753128E-001;-5.020374804735184E-002;2.481121802702546E-003;2.706438070163131E-003;
2.414333333333334E+009;1.732398718595505E-001;-5.165015533566475E-002;2.556414809077978E-003;2.572683850303292E-003;
2.414500000000000E+009;1.738847345113754E-001;-5.267799645662308E-002;2.621191088110209E-003;2.421328332275152E-003;
2.414666666666667E+009;1.742898374795914E-001;-5.377836525440216E-002;2.641087397933006E-003;2.433372894302011E-003;
2.414833333333334E+009;1.747731417417526E-001;-5.475743487477303E-002;2.738333307206631E-003;2.229243749752641E-003;
2.415000000000000E+009;1.751683503389359E-001;-5.569435656070709E-002;2.876034704968333E-003;2.132822992280126E-003;
2.415166666666667E+009;1.757041215896606E-001;-5.657231062650681E-002;2.913571195676923E-003;1.861587399616838E-003;
2.415333333333334E+009;1.762238442897797E-001;-5.731622502207756E-002;2.857925835996866E-003;1.608688966371119E-003;
2.415500000000000E+009;1.765174418687820E-001;-5.787964910268784E-002;3.131681587547064E-003;1.527271582745016E-003;
2.415666666666667E+009;1.768008619546890E-001;-5.848161503672600E-002;2.966925967484713E-003;1.346709090285003E-003;
2.415833333333334E+009;1.770551055669785E-001;-5.901097133755684E-002;3.083365038037300E-003;1.153918565250933E-003;
2.416000000000000E+009;1.769826859235764E-001;-5.948340520262718E-002;3.138306085020304E-003;1.071333652362227E-003;
2.416166666666667E+009;1.774328649044037E-001;-5.988886579871178E-002;3.024641890078783E-003;6.808956968598068E-004;
2.416333333333334E+009;1.773942708969116E-001;-6.019949167966843E-002;3.038490191102028E-003;6.771048647351563E-004;
2.416500000000000E+009;1.772772371768951E-001;-6.055256724357605E-002;2.986538223922253E-003;4.699538694694638E-004;
2.416666666666667E+009;1.770850121974945E-001;-6.078232079744339E-002;2.880178391933441E-003;3.092772094532847E-004;
2.416833333333334E+009;1.770473271608353E-001;-6.119018793106079E-002;2.708113053813577E-003;3.302025434095413E-004;
2.417000000000000E+009;1.763697564601898E-001;-6.143882125616074E-002;2.839176449924707E-003;-5.650479579344392E-005;
2.417166666666667E+009;1.761227846145630E-001;-6.158590689301491E-002;2.699701115489006E-003;-4.546625132206827E-005;
2.417333333333334E+009;1.757518202066422E-001;-6.172528490424156E-002;2.596836769953370E-003;-5.304480873746797E-005;
2.417500000000000E+009;1.751234829425812E-001;-6.217289343476296E-002;2.531170146539807E-003;-1.606586592970416E-004;
2.417666666666667E+009;1.745690256357193E-001;-6.227952614426613E-002;2.404353348538280E-003;-1.713380625005812E-004;
2.417833333333334E+009;1.737314015626907E-001;-6.247995421290398E-002;2.392434747889638E-003;-2.595909754745662E-004;
2.418000000000000E+009;1.728489249944687E-001;-6.287290900945664E-002;2.139752032235265E-003;-3.834421513602138E-004;
2.418166666666667E+009;1.720072925090790E-001;-6.296601146459580E-002;1.993153244256973E-003;-4.483921511564404E-004;
2.418333333333334E+009;1.713667511940002E-001;-6.351459771394730E-002;2.100643469020724E-003;-5.544564337469637E-004;
2.418500000000000E+009;1.703334301710129E-001;-6.383495777845383E-002;1.925093820318580E-003;-4.443204379640520E-004;
2.418666666666667E+009;1.693764626979828E-001;-6.437406688928604E-002;1.806213171221316E-003;-4.827988450415433E-004;
2.418833333333334E+009;1.681264042854309E-001;-6.480248272418976E-002;1.680102315731347E-003;-6.846142932772636E-004;
2.419000000000000E+009;1.668740808963776E-001;-6.548316776752472E-002;1.719953841529787E-003;-5.831325543113053E-004;
2.419166666666667E+009;1.657541394233704E-001;-6.607699394226074E-002;1.513303956016898E-003;-5.677969311363995E-004;
2.419333333333334E+009;1.646694540977478E-001;-6.664818525314331E-002;1.391429570503533E-003;-4.977461649104953E-004;
2.419500000000000E+009;1.633972972631455E-001;-6.758550554513931E-002;1.538662821985781E-003;-6.225912948139012E-004;
2.419666666666667E+009;1.623950749635696E-001;-6.842787563800812E-002;1.474154414609075E-003;-6.592681747861207E-004;
2.419833333333334E+009;1.610937267541885E-001;-6.921460479497910E-002;1.394111663103104E-003;-5.218669539317489E-004;
2.420000000000000E+009;1.601016372442246E-001;-7.029455900192261E-002;1.462696469388902E-003;-4.814873391296715E-004;
2.420166666666667E+009;1.588367074728012E-001;-7.155034691095352E-002;1.392469974234700E-003;-6.027125054970384E-004;
2.420333333333334E+009;1.578936427831650E-001;-7.256165891885757E-002;1.277772709727287E-003;-7.051281281746924E-004;
2.420500000000000E+009;1.568049043416977E-001;-7.372784614562988E-002;1.346137258224189E-003;-4.823711933568120E-004;
2.420666666666667E+009;1.559436172246933E-001;-7.484631985425949E-002;1.213019946590066E-003;-4.022002394776791E-004;
2.420833333333334E+009;1.549043953418732E-001;-7.626582682132721E-002;1.291949767619371E-003;-4.795322893187404E-004;
2.421000000000000E+009;1.540382057428360E-001;-7.796061038970947E-002;1.131781493313611E-003;-4.461061325855553E-004;
2.421166666666667E+009;1.532837748527527E-001;-7.930757105350494E-002;1.360822585411370E-003;-4.406225925777108E-004;
2.421333333333334E+009;1.526463180780411E-001;-8.080437034368515E-002;1.229673856869340E-003;-3.682830720208585E-004;
2.421500000000000E+009;1.517970860004425E-001;-8.253023773431778E-002;1.219138968735933E-003;-4.737367562483996E-004;
2.421666666666667E+009;1.514060646295548E-001;-8.404628187417984E-002;1.052089384756982E-003;-3.929079102817923E-004;
2.421833333333334E+009;1.508162021636963E-001;-8.562836796045303E-002;1.196836237795651E-003;-5.266563384793699E-004;
2.422000000000000E+009;1.504716128110886E-001;-8.727122843265533E-002;1.234361552633345E-003;-4.513680469244719E-004;
2.422166666666667E+009;1.501293480396271E-001;-8.914795517921448E-002;1.109626493416727E-003;-3.651558072306216E-004;
2.422333333333334E+009;1.499600708484650E-001;-9.070175141096115E-002;1.282591954804957E-003;-4.625744477380067E-004;
2.422500000000000E+009;1.495905667543411E-001;-9.233220666646957E-002;1.306236954405904E-003;-5.879839882254601E-004;
2.422666666666667E+009;1.496409773826599E-001;-9.415198117494583E-002;1.304290490224958E-003;-4.908915143460035E-004;
2.422833333333334E+009;1.495988070964813E-001;-9.596553444862366E-002;1.301549375057221E-003;-5.614495603367686E-004;
2.423000000000000E+009;1.496178358793259E-001;-9.752940386533737E-002;1.325558521784842E-003;-6.120812031440437E-004;
2.423166666666667E+009;1.499404311180115E-001;-9.908675402402878E-002;1.388197182677686E-003;-5.376068293116987E-004;
2.423333333333334E+009;1.501170694828033E-001;-1.007175669074059E-001;1.297004520893097E-003;-7.568557048216462E-004;
2.423500000000000E+009;1.504207998514175E-001;-1.022473871707916E-001;1.199907157570124E-003;-5.280969198793173E-004;
2.423666666666667E+009;1.506670713424683E-001;-1.038820445537567E-001;1.169038820080459E-003;-7.673446671105921E-004;
2.423833333333334E+009;1.510727703571320E-001;-1.052891910076141E-001;1.202662242576480E-003;-5.858069634996355E-004;
2.424000000000000E+009;1.513674408197403E-001;-1.066252440214157E-001;1.112871337682009E-003;-7.532647578045726E-004;
2.424166666666667E+009;1.517297327518463E-001;-1.080613359808922E-001;1.125709502957761E-003;-6.922325119376183E-004;
2.424333333333334E+009;1.522938013076782E-001;-1.092033535242081E-001;1.050832681357861E-003;-8.436891948804259E-004;
2.424500000000000E+009;1.528252810239792E-001;-1.104561612010002E-001;1.050857594236732E-003;-7.604726706631482E-004;
2.424666666666667E+009;1.533186882734299E-001;-1.112167388200760E-001;1.096136285923421E-003;-1.043578376993537E-003;
2.424833333333334E+009;1.535600125789642E-001;-1.125541403889656E-001;1.129141310229898E-003;-8.483271813020110E-004;
2.425000000000000E+009;1.541990935802460E-001;-1.133998110890389E-001;1.079508103430271E-003;-9.699670481495559E-004;
2.425166666666667E+009;1.542732119560242E-001;-1.142883226275444E-001;9.876801632344723E-004;-9.016626863740385E-004;
2.425333333333334E+009;1.549028158187866E-001;-1.152071356773377E-001;7.755690021440387E-004;-7.880488992668688E-004;
2.425500000000000E+009;1.553631275892258E-001;-1.159081682562828E-001;8.825900731608272E-004;-9.182700305245817E-004;
2.425666666666667E+009;1.554377675056458E-001;-1.165193542838097E-001;7.908585248515010E-004;-8.530121413059533E-004;
2.425833333333334E+009;1.557675302028656E-001;-1.170453876256943E-001;6.087907240726054E-004;-9.282485116273165E-004;
2.426000000000000E+009;1.558698713779450E-001;-1.177074760198593E-001;7.309211650863290E-004;-1.071515027433634E-003;
2.426166666666667E+009;1.562023311853409E-001;-1.180506795644760E-001;6.364600849337876E-004;-8.923652931116521E-004;
2.426333333333334E+009;1.561959534883499E-001;-1.183616369962692E-001;5.637403810396791E-004;-1.018719398416579E-003;
2.426500000000000E+009;1.563383340835571E-001;-1.185548529028893E-001;5.435768980532885E-004;-1.047308323904872E-003;
2.426666666666667E+009;1.563414037227631E-001;-1.187498345971108E-001;5.018403171561658E-004;-9.082734468393028E-004;
2.426833333333334E+009;1.561364829540253E-001;-1.190279722213745E-001;4.821971524506807E-004;-9.512114338576794E-004;
2.427000000000000E+009;1.557185053825378E-001;-1.192113682627678E-001;4.885354428552091E-004;-9.082127944566310E-004;
2.427166666666667E+009;1.555234938859940E-001;-1.192380636930466E-001;2.874180790968239E-004;-8.316597668454051E-004;
2.427333333333334E+009;1.549711227416992E-001;-1.194260045886040E-001;3.363676660228521E-004;-7.828177185729146E-004;
2.427500000000000E+009;1.544878929853439E-001;-1.194807216525078E-001;2.430713502690196E-004;-8.198663708753884E-004;
2.427666666666667E+009;1.539015471935272E-001;-1.196721345186234E-001;2.846883726306260E-004;-7.430124678649008E-004;
