# Version 1.00
#
freq[Hz];re:Trc1_S11;im:Trc1_S11;re:Trc2_S21;im:Trc2_S21;
2.400000000000000E+009;1.587219089269638E-001;6.304360926151276E-002;-2.888356801122427E-003;-1.102998619899154E-003;
2.400166666666667E+009;1.587493568658829E-001;6.160436943173409E-002;-2.830558922141790E-003;-1.035341760143638E-003;
2.400333333333334E+009;1.584615111351013E-001;5.955408513545990E-002;-2.939017722383142E-003;-1.043173135258257E-003;
2.400500000000000E+009;1.584258228540421E-001;5.778848379850388E-002;-2.858721651136875E-003;-1.103738322854042E-003;
2.400666666666667E+009;1.582457274198532E-001;5.595352500677109E-002;-2.876771381124854E-003;-9.354589856229723E-004;
2.400833333333334E+009;1.583999246358872E-001;5.396175384521484E-002;-3.002693876624107E-003;-1.062374445609748E-003;
2.401000000000000E+009;1.583651006221771E-001;5.191072449088097E-002;-2.899575047194958E-003;-7.940474897623062E-004;
2.401166666666667E+009;1.584910154342651E-001;4.999601468443871E-002;-2.974890638142824E-003;-8.884425624273717E-004;
2.401333333333334E+009;1.586461663246155E-001;4.777388274669647E-002;-3.120743669569492E-003;-9.655348258093000E-004;
2.401500000000000E+009;1.589167714118958E-001;4.581234604120255E-002;-3.048875601962209E-003;-8.798063499853015E-004;
2.401666666666667E+009;1.591280400753021E-001;4.371440410614014E-002;-3.088789060711861E-003;-7.854208815842867E-004;
2.401833333333334E+009;1.596130728721619E-001;4.175217077136040E-002;-3.148556221276522E-003;-7.127936696633697E-004;
2.402000000000000E+009;1.597917377948761E-001;3.965355455875397E-002;-3.132451325654984E-003;-8.235152345150709E-004;
2.402166666666667E+009;1.603298038244247E-001;3.768543899059296E-002;-3.293140092864633E-003;-6.076650461181998E-004;
2.402333333333334E+009;1.608581542968750E-001;3.576555848121643E-002;-3.346831537783146E-003;-4.808892845176160E-004;
2.402500000000000E+009;1.616407632827759E-001;3.392857313156128E-002;-3.336090361699462E-003;-5.818661884404719E-004;
2.402666666666667E+009;1.621403545141220E-001;3.219475597143173E-002;-3.319474868476391E-003;-4.134826303925365E-004;
2.402833333333334E+009;1.629358083009720E-001;3.054094500839710E-002;-3.385649994015694E-003;-3.249010187573731E-004;
2.403000000000000E+009;1.635951697826386E-001;2.881051599979401E-002;-3.558754920959473E-003;-1.318774739047512E-004;
2.403166666666667E+009;1.646198481321335E-001;2.711508795619011E-002;-3.676734631881118E-003;-3.733937628567219E-004;
2.403333333333334E+009;1.651898026466370E-001;2.552336268126965E-002;-3.629455110058188E-003;-1.021389325615019E-004;
2.403500000000000E+009;1.660941541194916E-001;2.409911155700684E-002;-3.705134149640799E-003;-1.191534320241772E-004;
2.403666666666667E+009;1.671238392591476E-001;2.271506562829018E-002;-3.755289362743497E-003;3.535114592523314E-005;
2.403833333333334E+009;1.682151407003403E-001;2.134259045124054E-002;-3.971295896917582E-003;1.572941400809214E-004;
2.404000000000000E+009;1.691730767488480E-001;1.993205584585667E-002;-3.897772636264563E-003;4.642905842047185E-004;
2.404166666666667E+009;1.699767857789993E-001;1.877286657691002E-002;-4.036257974803448E-003;4.777431022375822E-004;
2.404333333333334E+009;1.710287779569626E-001;1.781961508095264E-002;-3.936211112886667E-003;7.272265502251685E-004;
2.404500000000000E+009;1.719497591257095E-001;1.670124195516110E-002;-4.003086593002081E-003;8.500629337504506E-004;
2.404666666666667E+009;1.729685664176941E-001;1.575347222387791E-002;-3.902930300682783E-003;1.034202752634883E-003;
2.404833333333334E+009;1.737004071474075E-001;1.492559816688299E-002;-3.893268993124366E-003;1.228983048349619E-003;
2.405000000000000E+009;1.748186647891998E-001;1.412170939147472E-002;-3.850213019177318E-003;1.415092381648719E-003;
2.405166666666667E+009;1.756020486354828E-001;1.338577363640070E-002;-4.051022231578827E-003;1.533790957182646E-003;
2.405333333333334E+009;1.764497905969620E-001;1.257067266851664E-002;-3.930408041924238E-003;1.807035063393414E-003;
2.405500000000000E+009;1.772031038999558E-001;1.228920649737120E-002;-3.726143855601549E-003;1.939652371220291E-003;
2.405666666666667E+009;1.780063807964325E-001;1.166560035198927E-002;-3.677847096696496E-003;2.236469881609082E-003;
2.405833333333334E+009;1.784590780735016E-001;1.126992236822844E-002;-3.630443476140499E-003;2.274366561323404E-003;
2.406000000000000E+009;1.792305260896683E-001;1.072604395449162E-002;-3.404570510610938E-003;2.583836205303669E-003;
2.406166666666667E+009;1.794672608375549E-001;1.058303564786911E-002;-3.303126432001591E-003;2.637340221554041E-003;
2.406333333333334E+009;1.801157593727112E-001;1.008558832108975E-002;-3.326093545183539E-003;2.730666426941752E-003;
2.406500000000000E+009;1.802728027105331E-001;9.725058451294899E-003;-3.057532710954547E-003;2.825341187417507E-003;
2.406666666666667E+009;1.806047558784485E-001;9.408797137439251E-003;-3.055550856515765E-003;3.036858048290014E-003;
2.406833333333334E+009;1.808817088603973E-001;9.041190147399902E-003;-2.775846980512142E-003;2.918972866609693E-003;
2.407000000000000E+009;1.810504496097565E-001;8.727509528398514E-003;-2.649289090186358E-003;3.139613894745708E-003;
2.407166666666667E+009;1.813003271818161E-001;8.270638063549995E-003;-2.591432072222233E-003;3.185890614986420E-003;
2.407333333333334E+009;1.810514777898789E-001;7.884525693953037E-003;-2.348761772736907E-003;3.211589530110359E-003;
2.407500000000000E+009;1.810544580221176E-001;7.442129310220480E-003;-2.334440359845758E-003;3.414609702304006E-003;
2.407666666666667E+009;1.807994991540909E-001;7.134404964745045E-003;-2.165448851883411E-003;3.442465560510755E-003;
2.407833333333334E+009;1.804348230361939E-001;6.460488308221102E-003;-2.285391325131059E-003;3.416802966967225E-003;
2.408000000000000E+009;1.801840066909790E-001;5.812528543174267E-003;-1.858910429291427E-003;3.506862092763186E-003;
2.408166666666667E+009;1.798080205917358E-001;5.411135498434305E-003;-1.706796581856906E-003;3.538284916430712E-003;
2.408333333333334E+009;1.795997470617294E-001;4.618618637323380E-003;-1.871202606707811E-003;3.604527562856674E-003;
2.408500000000000E+009;1.788950115442276E-001;3.710268763825297E-003;-1.636970555409789E-003;3.489499678835273E-003;
2.408666666666667E+009;1.783645302057266E-001;2.971852198243141E-003;-1.425673137418926E-003;3.608556929975748E-003;
2.408833333333334E+009;1.776425987482071E-001;2.010282594710589E-003;-1.285623409785330E-003;3.603532677516341E-003;
2.409000000000000E+009;1.770593076944351E-001;1.085574855096638E-003;-1.303223543800414E-003;3.757934551686049E-003;
2.409166666666667E+009;1.764222979545593E-001;-1.028657279675826E-004;-1.120881293900311E-003;3.712926525622606E-003;
2.409333333333334E+009;1.757349222898483E-001;-1.229885383509100E-003;-9.459829889237881E-004;3.635872853919864E-003;
2.409500000000000E+009;1.749433428049088E-001;-2.630242379382253E-003;-9.014161769300699E-004;3.647948848083615E-003;
2.409666666666667E+009;1.743430495262146E-001;-3.759161802008748E-003;-7.167502772063017E-004;3.869239706546068E-003;
2.409833333333334E+009;1.735340505838394E-001;-5.292433314025402E-003;-7.330380612984300E-004;3.567789681255817E-003;
2.410000000000000E+009;1.729331016540527E-001;-6.590491160750389E-003;-5.448442534543574E-004;3.541842335835099E-003;
2.410166666666667E+009;1.722180843353272E-001;-8.041826076805592E-003;-3.056319546885788E-004;3.835735842585564E-003;
2.410333333333334E+009;1.715741157531738E-001;-9.720202535390854E-003;-3.421325527597219E-004;3.630677703768015E-003;
2.410500000000000E+009;1.710954010486603E-001;-1.130098570138216E-002;-2.054693904938176E-004;3.671350656077266E-003;
2.410666666666667E+009;1.705960184335709E-001;-1.326215267181397E-002;-1.094320032279939E-004;3.523142077028751E-003;
2.410833333333334E+009;1.700377315282822E-001;-1.488688308745623E-002;-3.921542884199880E-005;3.548803040757775E-003;
2.411000000000000E+009;1.694536358118057E-001;-1.663923822343350E-002;8.385958062717691E-005;3.649528371170163E-003;
2.411166666666667E+009;1.691476851701737E-001;-1.849536411464214E-002;2.712417626753449E-004;3.469699528068304E-003;
2.411333333333334E+009;1.687943190336227E-001;-2.040538564324379E-002;3.143681387882680E-004;3.527442226186395E-003;
2.411500000000000E+009;1.683366000652313E-001;-2.236418984830380E-002;3.612871223594993E-004;3.522589802742004E-003;
2.411666666666667E+009;1.683834344148636E-001;-2.412971295416355E-002;4.664174339268357E-004;3.493093419820070E-003;
2.411833333333334E+009;1.683193743228912E-001;-2.602219022810459E-002;5.636964924633503E-004;3.572337795048952E-003;
2.412000000000000E+009;1.683357506990433E-001;-2.810027077794075E-002;6.411643698811531E-004;3.380908165127039E-003;
2.412166666666667E+009;1.682278960943222E-001;-2.998460829257965E-002;9.398690890520811E-004;3.456347389146686E-003;
2.412333333333334E+009;1.685876846313477E-001;-3.174991160631180E-002;1.009947969578207E-003;3.372558858245611E-003;
2.412500000000000E+009;1.684582233428955E-001;-3.362597525119782E-002;1.103303395211697E-003;3.421351080760360E-003;
2.412666666666667E+009;1.687553226947784E-001;-3.558749705553055E-002;1.174867153167725E-003;3.526652464643121E-003;
2.412833333333334E+009;1.690838783979416E-001;-3.760712966322899E-002;1.484610373154283E-003;3.308292711153626E-003;
2.413000000000000E+009;1.694353222846985E-001;-3.933404386043549E-002;1.438351464457810E-003;3.365108743309975E-003;
2.413166666666667E+009;1.697867065668106E-001;-4.099931940436363E-002;1.528537366539240E-003;3.209710353985429E-003;
2.413333333333334E+009;1.700641810894013E-001;-4.262477904558182E-002;1.833859249018133E-003;3.076456720009446E-003;
2.413500000000000E+009;1.706567406654358E-001;-4.439431801438332E-002;1.889667008072138E-003;3.057138063013554E-003;
2.413666666666667E+009;1.711267232894898E-001;-4.599374532699585E-002;1.879191840998828E-003;2.944340230897069E-003;
2.413833333333334E+009;1.716462820768356E-001;-4.744845256209374E-002;2.103702398017049E-003;2.682905644178391E-003;
2.414000000000000E+009;1.720455884933472E-001;-4.892136529088020E-002;2.170997438952327E-003;2.871466567739844E-003;
2.414166666666667E+009;1.727678626775742E-001;-5.012132599949837E-002;2.339738653972745E-003;2.655427437275648E-003;
2.414333333333334E+009;1.732841283082962E-001;-5.141964927315712E-002;2.513330429792404E-003;2.536597196012735E-003;
2.414500000000000E+009;1.741289645433426E-001;-5.257653817534447E-002;2.578628016635776E-003;2.417555777356029E-003;
2.414666666666667E+009;1.742736846208572E-001;-5.361313745379448E-002;2.746273763477802E-003;2.387807238847017E-003;
2.414833333333334E+009;1.746553182601929E-001;-5.475969240069389E-002;2.895358018577099E-003;2.128985477611423E-003;
2.415000000000000E+009;1.751990318298340E-001;-5.564662069082260E-002;2.871504984796047E-003;1.947319018654525E-003;
2.415166666666667E+009;1.756271421909332E-001;-5.642325431108475E-002;3.046738915145397E-003;1.697355532087386E-003;
2.415333333333334E+009;1.762560307979584E-001;-5.721957609057427E-002;2.985223429277539E-003;1.699801068753004E-003;
2.415500000000000E+009;1.765927225351334E-001;-5.784657970070839E-002;3.040737705305219E-003;1.378830755129457E-003;
2.415666666666667E+009;1.767339706420898E-001;-5.844309180974960E-002;3.087281947955489E-003;1.270683365873992E-003;
2.415833333333334E+009;1.770540773868561E-001;-5.897946655750275E-002;3.010173561051488E-003;1.129444921389222E-003;
2.416000000000000E+009;1.770888417959213E-001;-5.954484269022942E-002;2.957204589620233E-003;9.522789041511715E-004;
2.416166666666667E+009;1.773346811532974E-001;-5.981796607375145E-002;2.945215674117208E-003;6.743308040313423E-004;
2.416333333333334E+009;1.774109899997711E-001;-6.020741537213326E-002;3.003622870892286E-003;5.919316317886114E-004;
2.416500000000000E+009;1.773045361042023E-001;-6.051251664757729E-002;2.904582303017378E-003;2.779878268484026E-004;
2.416666666666667E+009;1.771494597196579E-001;-6.079034134745598E-002;2.824394498020411E-003;2.381155936745927E-004;
2.416833333333334E+009;1.770073920488358E-001;-6.110077351331711E-002;2.951610367745161E-003;1.441228960175067E-004;
2.417000000000000E+009;1.765388846397400E-001;-6.148765236139298E-002;2.776875626295805E-003;-8.734256698517129E-005;
2.417166666666667E+009;1.762378662824631E-001;-6.158326938748360E-002;2.627599518746138E-003;6.897326238686219E-005;
2.417333333333334E+009;1.758624464273453E-001;-6.178090721368790E-002;2.532596699893475E-003;-3.079951566178352E-004;
2.417500000000000E+009;1.752116680145264E-001;-6.212664023041725E-002;2.427060157060623E-003;-2.814047038555145E-004;
2.417666666666667E+009;1.746425777673721E-001;-6.220708787441254E-002;2.373316790908575E-003;-3.879399446304888E-004;
2.417833333333334E+009;1.738322675228119E-001;-6.249363347887993E-002;2.262664027512074E-003;-2.787085250020027E-004;
2.418000000000000E+009;1.730260401964188E-001;-6.290896236896515E-002;2.191958250477910E-003;-4.929638234898448E-004;
2.418166666666667E+009;1.720801740884781E-001;-6.300695985555649E-002;1.975525170564652E-003;-4.569274315144867E-004;
2.418333333333334E+009;1.713628023862839E-001;-6.352356076240540E-002;1.915440661832690E-003;-4.187070881016552E-004;
2.418500000000000E+009;1.703235357999802E-001;-6.396573781967163E-002;1.827436382882297E-003;-4.599690437316895E-004;
2.418666666666667E+009;1.694335043430328E-001;-6.443699449300766E-002;1.828776439651847E-003;-4.422565689310432E-004;
2.418833333333334E+009;1.680848747491837E-001;-6.491491198539734E-002;1.613711239770055E-003;-5.401868838816881E-004;
2.419000000000000E+009;1.669147163629532E-001;-6.563576310873032E-002;1.598347327671945E-003;-5.954682128503919E-004;
2.419166666666667E+009;1.657789796590805E-001;-6.608035415410996E-002;1.479856669902802E-003;-5.327370599843562E-004;
2.419333333333334E+009;1.645217239856720E-001;-6.665102392435074E-002;1.367770950309932E-003;-4.972308524884284E-004;
2.419500000000000E+009;1.633823812007904E-001;-6.752910465002060E-002;1.540119410492480E-003;-5.391251179389656E-004;
2.419666666666667E+009;1.623701304197311E-001;-6.856106966733933E-002;1.405092654749751E-003;-3.511992981657386E-004;
2.419833333333334E+009;1.611048877239227E-001;-6.932295858860016E-002;1.303142518736422E-003;-4.246691532898694E-004;
2.420000000000000E+009;1.599971652030945E-001;-7.032971829175949E-002;1.331658568233252E-003;-4.055849567521364E-004;
2.420166666666667E+009;1.588936746120453E-001;-7.144486159086227E-002;1.243314705789089E-003;-3.606436948757619E-004;
2.420333333333334E+009;1.578025519847870E-001;-7.254707813262940E-002;1.184152206405997E-003;-5.043058772571385E-004;
2.420500000000000E+009;1.568715423345566E-001;-7.376188039779663E-002;1.127843977883458E-003;-3.948466619476676E-004;
2.420666666666667E+009;1.557566225528717E-001;-7.501669228076935E-002;1.168011338450015E-003;-4.003081412520260E-004;
2.420833333333334E+009;1.549850702285767E-001;-7.620229572057724E-002;1.225968706421554E-003;-3.491588286124170E-004;
2.421000000000000E+009;1.539354920387268E-001;-7.787998765707016E-002;1.135219004936516E-003;-3.333138010930270E-004;
2.421166666666667E+009;1.532878279685974E-001;-7.931837439537048E-002;1.178027247078717E-003;-3.306838043499738E-004;
2.421333333333334E+009;1.525379717350006E-001;-8.093100041151047E-002;1.204350148327649E-003;-3.691838355734944E-004;
2.421500000000000E+009;1.518288701772690E-001;-8.239581435918808E-002;1.216467819176614E-003;-4.876460297964513E-004;
2.421666666666667E+009;1.512807011604309E-001;-8.384860306978226E-002;1.349817845039070E-003;-5.075505468994379E-004;
2.421833333333334E+009;1.508804559707642E-001;-8.551272004842758E-002;1.047280617058277E-003;-1.793968403944746E-004;
2.422000000000000E+009;1.503765434026718E-001;-8.729081600904465E-002;1.277546398341656E-003;-4.101454396732152E-004;
2.422166666666667E+009;1.501276195049286E-001;-8.918815106153488E-002;1.108555239625275E-003;-3.911628737114370E-004;
2.422333333333334E+009;1.498172432184219E-001;-9.073511511087418E-002;1.254669739864767E-003;-6.029367796145380E-004;
2.422500000000000E+009;1.496219038963318E-001;-9.232296794652939E-002;1.174370991066098E-003;-4.714086535386741E-004;
2.422666666666667E+009;1.496176123619080E-001;-9.413363784551621E-002;1.394130871631205E-003;-4.040407366119325E-004;
2.422833333333334E+009;1.497551500797272E-001;-9.579629451036453E-002;1.263696467503905E-003;-5.765263340435922E-004;
2.423000000000000E+009;1.493971049785614E-001;-9.752117842435837E-002;1.248995773494244E-003;-5.104551091790199E-004;
2.423166666666667E+009;1.499535590410233E-001;-9.932370483875275E-002;1.129691605456173E-003;-4.837739397771657E-004;
2.423333333333334E+009;1.501608937978745E-001;-1.006126850843430E-001;1.095423125661910E-003;-5.669193342328072E-004;
2.423500000000000E+009;1.503737121820450E-001;-1.023552864789963E-001;1.259867334738374E-003;-7.544481777586043E-004;
2.423666666666667E+009;1.506074368953705E-001;-1.039197146892548E-001;1.165486872196198E-003;-8.388735004700720E-004;
2.423833333333334E+009;1.510676294565201E-001;-1.052944511175156E-001;1.059258240275085E-003;-6.557330489158630E-004;
2.424000000000000E+009;1.514665037393570E-001;-1.066902503371239E-001;1.092530903406441E-003;-7.491467986255884E-004;
2.424166666666667E+009;1.517102122306824E-001;-1.080862358212471E-001;9.718073997646570E-004;-8.573303348384798E-004;
2.424333333333334E+009;1.522209197282791E-001;-1.093009337782860E-001;9.645338286645711E-004;-8.084585424512625E-004;
2.424500000000000E+009;1.527814716100693E-001;-1.104467213153839E-001;9.720850503072143E-004;-6.180139607749879E-004;
2.424666666666667E+009;1.533269286155701E-001;-1.113878414034843E-001;8.823944372124970E-004;-7.449916447512806E-004;
2.424833333333334E+009;1.538057327270508E-001;-1.125242710113525E-001;9.549603564664722E-004;-8.516370435245335E-004;
2.425000000000000E+009;1.540293544530869E-001;-1.136297211050987E-001;8.864741539582610E-004;-8.925573201850057E-004;
2.425166666666667E+009;1.543536484241486E-001;-1.144265830516815E-001;8.620709413662553E-004;-8.502440759912133E-004;
2.425333333333334E+009;1.548829376697540E-001;-1.153208911418915E-001;7.887094980105758E-004;-8.132589864544570E-004;
2.425500000000000E+009;1.552442610263825E-001;-1.160782650113106E-001;7.684045704081655E-004;-8.608623174950481E-004;
2.425666666666667E+009;1.552694439888001E-001;-1.166673600673676E-001;8.491598418913782E-004;-9.888622444123030E-004;
2.425833333333334E+009;1.557818800210953E-001;-1.170343160629273E-001;8.306829840876162E-004;-9.403183357790113E-004;
2.426000000000000E+009;1.560009419918060E-001;-1.176806986331940E-001;6.595888407900930E-004;-9.480704902671278E-004;
2.426166666666667E+009;1.563180387020111E-001;-1.181980296969414E-001;5.799556965939701E-004;-1.050935476087034E-003;
2.426333333333334E+009;1.562258154153824E-001;-1.184293627738953E-001;6.207448313944042E-004;-8.746549137867987E-004;
2.426500000000000E+009;1.562949568033218E-001;-1.187155991792679E-001;4.786122881341726E-004;-9.197725448757410E-004;
2.426666666666667E+009;1.564129889011383E-001;-1.187494397163391E-001;4.017294268123806E-004;-8.928976021707058E-004;
2.426833333333334E+009;1.561439335346222E-001;-1.190031915903091E-001;4.786554200109094E-004;-7.840878679417074E-004;
2.427000000000000E+009;1.557072699069977E-001;-1.193013787269592E-001;4.863994836341590E-004;-7.595805800519884E-004;
2.427166666666667E+009;1.553894579410553E-001;-1.192737370729446E-001;3.676812048070133E-004;-7.375366403721273E-004;
2.427333333333334E+009;1.549900621175766E-001;-1.194471865892410E-001;4.386438813526183E-004;-8.813901222310960E-004;
2.427500000000000E+009;1.546061336994171E-001;-1.195407733321190E-001;3.211792791262269E-004;-7.570110610686243E-004;
2.427666666666667E+009;1.538327932357788E-001;-1.196940541267395E-001;3.293850459158421E-004;-6.505094934254885E-004;
2.427833333333334E+009;1.529294699430466E-001;-1.197696998715401E-001;3.413164813537151E-004;-5.650689709000289E-004;
