# Version 1.00
#
freq[Hz];re:Trc1_S11;im:Trc1_S11;re:Trc2_S21;im:Trc2_S21;
2.400000000000000E+009;1.586496531963348E-001;6.312549114227295E-002;-2.791337436065078E-003;-1.148782321251929E-003;
2.400166666666667E+009;1.587905585765839E-001;6.141523644328117E-002;-2.942023798823357E-003;-1.006846898235381E-003;
2.400333333333334E+009;1.584211140871048E-001;5.976348742842674E-002;-3.025701502338052E-003;-1.044556265696883E-003;
2.400500000000000E+009;1.584355682134628E-001;5.784450843930244E-002;-2.855267375707626E-003;-8.925121510401368E-004;
2.400666666666667E+009;1.583102196455002E-001;5.585198849439621E-002;-2.968835877254605E-003;-1.085937372408807E-003;
2.400833333333334E+009;1.582234352827072E-001;5.389311537146568E-002;-3.030773950740695E-003;-1.018505776301026E-003;
2.401000000000000E+009;1.584912985563278E-001;5.191416665911675E-002;-3.053958760574460E-003;-9.333564084954560E-004;
2.401166666666667E+009;1.584635376930237E-001;4.976593703031540E-002;-3.056742949411273E-003;-9.403592557646334E-004;
2.401333333333334E+009;1.585932075977325E-001;4.786204174160957E-002;-3.026991616934538E-003;-7.082527154125273E-004;
2.401500000000000E+009;1.590450108051300E-001;4.589210450649262E-002;-3.247946500778198E-003;-9.040252771228552E-004;
2.401666666666667E+009;1.592928022146225E-001;4.386834800243378E-002;-3.293559420853853E-003;-8.900522370822728E-004;
2.401833333333334E+009;1.595768183469772E-001;4.158989712595940E-002;-3.229078138247132E-003;-5.763195804320276E-004;
2.402000000000000E+009;1.598940044641495E-001;3.975499048829079E-002;-3.190955379977822E-003;-5.911912885494530E-004;
2.402166666666667E+009;1.603979021310806E-001;3.758801147341728E-002;-3.450715448707342E-003;-6.290143937803805E-004;
2.402333333333334E+009;1.608891636133194E-001;3.575332090258598E-002;-3.494652220979333E-003;-6.492487154901028E-004;
2.402500000000000E+009;1.617133468389511E-001;3.393504023551941E-002;-3.353450680151582E-003;-4.930956638418138E-004;
2.402666666666667E+009;1.620084941387177E-001;3.209828957915306E-002;-3.403513226658106E-003;-2.638989535626024E-004;
2.402833333333334E+009;1.627882272005081E-001;3.034821897745132E-002;-3.511514747515321E-003;-2.804893592838198E-004;
2.403000000000000E+009;1.636137068271637E-001;2.864535897970200E-002;-3.701476147398353E-003;-2.969588094856590E-004;
2.403166666666667E+009;1.645964682102203E-001;2.709294855594635E-002;-3.691653721034527E-003;-1.756777928676456E-004;
2.403333333333334E+009;1.654017269611359E-001;2.568607218563557E-002;-3.765399800613523E-003;-1.766837522154674E-004;
2.403500000000000E+009;1.661830991506577E-001;2.414458803832531E-002;-3.787953173741698E-003;-6.145363295217976E-005;
2.403666666666667E+009;1.671834290027618E-001;2.265307679772377E-002;-4.109335597604513E-003;5.916134978178889E-005;
2.403833333333334E+009;1.682198643684387E-001;2.131991460919380E-002;-3.808325622230768E-003;7.762774475850165E-005;
2.404000000000000E+009;1.691643893718720E-001;2.024046331644058E-002;-4.017576575279236E-003;3.668615536298603E-004;
2.404166666666667E+009;1.700581908226013E-001;1.881665177643299E-002;-4.135206807404757E-003;4.885503440164030E-004;
2.404333333333334E+009;1.710320413112640E-001;1.792974211275578E-002;-4.156641662120819E-003;9.036603732965887E-004;
2.404500000000000E+009;1.717704981565476E-001;1.671475358307362E-002;-4.232871811836958E-003;8.038975065574050E-004;
2.404666666666667E+009;1.729341894388199E-001;1.580140739679337E-002;-4.279091954231262E-003;1.142675522714853E-003;
2.404833333333334E+009;1.737489849328995E-001;1.504845917224884E-002;-4.187527578324080E-003;1.270934939384460E-003;
2.405000000000000E+009;1.747306138277054E-001;1.407512091100216E-002;-4.224561620503664E-003;1.417876919731498E-003;
2.405166666666667E+009;1.756934374570847E-001;1.337727159261704E-002;-4.164191428571940E-003;1.782933017238975E-003;
2.405333333333334E+009;1.766050457954407E-001;1.259152777493000E-002;-4.095249343663454E-003;1.726091722957790E-003;
2.405500000000000E+009;1.773017644882202E-001;1.215778011828661E-002;-3.975131083279848E-003;2.104844432324171E-003;
2.405666666666667E+009;1.779595911502838E-001;1.163702178746462E-002;-3.870276501402259E-003;2.327358582988381E-003;
2.405833333333334E+009;1.784167289733887E-001;1.133404858410358E-002;-3.646807279437780E-003;2.324431901797652E-003;
2.406000000000000E+009;1.791649311780930E-001;1.081839762628079E-002;-3.606705926358700E-003;2.670215675607324E-003;
2.406166666666667E+009;1.795253008604050E-001;1.055586803704500E-002;-3.607438411563635E-003;2.553433878347278E-003;
2.406333333333334E+009;1.800689846277237E-001;1.008557528257370E-002;-3.364735981449485E-003;2.903912216424942E-003;
2.406500000000000E+009;1.804170310497284E-001;9.645474143326283E-003;-3.237025812268257E-003;3.062778618186712E-003;
2.406666666666667E+009;1.806007921695709E-001;9.396492503583431E-003;-3.067970043048263E-003;3.096857573837042E-003;
2.406833333333334E+009;1.809257268905640E-001;9.122585877776146E-003;-2.780344104394317E-003;3.246472682803869E-003;
2.407000000000000E+009;1.810480356216431E-001;8.739582262933254E-003;-2.744279336184263E-003;3.328711958602071E-003;
2.407166666666667E+009;1.812414675951004E-001;8.371015079319477E-003;-2.570046111941338E-003;3.318955423310399E-003;
2.407333333333334E+009;1.810123920440674E-001;7.853994145989418E-003;-2.472680993378162E-003;3.461762564256787E-003;
2.407500000000000E+009;1.809312105178833E-001;7.587843574583530E-003;-2.391000045463443E-003;3.324875840917230E-003;
2.407666666666667E+009;1.807629466056824E-001;7.151897531002760E-003;-2.150656655430794E-003;3.508334746584296E-003;
2.407833333333334E+009;1.803047209978104E-001;6.574838422238827E-003;-2.009089104831219E-003;3.475677222013474E-003;
2.408000000000000E+009;1.801335066556931E-001;5.915424320846796E-003;-1.882596174255014E-003;3.576035145670176E-003;
2.408166666666667E+009;1.798103600740433E-001;5.309899803251028E-003;-1.737104728817940E-003;3.805707441642880E-003;
2.408333333333334E+009;1.793723404407501E-001;4.719002172350884E-003;-1.572278910316527E-003;3.646127181127667E-003;
2.408500000000000E+009;1.789976358413696E-001;3.882498713210225E-003;-1.476323115639389E-003;3.684961935505271E-003;
2.408666666666667E+009;1.783119887113571E-001;3.051266074180603E-003;-1.335762906819582E-003;3.801532555371523E-003;
2.408833333333334E+009;1.777059435844421E-001;2.031103242188692E-003;-1.200292143039405E-003;3.662650939077139E-003;
2.409000000000000E+009;1.771123260259628E-001;1.145935617387295E-003;-1.119406195357442E-003;3.618151880800724E-003;
2.409166666666667E+009;1.763878166675568E-001;8.361347136087716E-005;-1.070496975444257E-003;3.703401191160083E-003;
2.409333333333334E+009;1.758200824260712E-001;-1.119413529522717E-003;-9.768782183527947E-004;3.620630363002420E-003;
2.409500000000000E+009;1.750148385763168E-001;-2.574225887656212E-003;-7.306274492293596E-004;3.563710954040289E-003;
2.409666666666667E+009;1.742939203977585E-001;-3.738951869308949E-003;-6.143950740806758E-004;3.545158542692661E-003;
2.409833333333334E+009;1.733957231044769E-001;-4.937150515615940E-003;-5.029678577557206E-004;3.713328856974840E-003;
2.410000000000000E+009;1.729231029748917E-001;-6.513003259897232E-003;-3.186422982253134E-004;3.742252243682742E-003;
2.410166666666667E+009;1.722362637519836E-001;-8.097547106444836E-003;-2.902583219110966E-004;3.730662399902940E-003;
2.410333333333334E+009;1.715438365936279E-001;-9.598751552402973E-003;-1.764883054420352E-004;3.751934738829732E-003;
2.410500000000000E+009;1.710441261529923E-001;-1.127740833908320E-002;8.826963312458247E-005;3.727252362295985E-003;
2.410666666666667E+009;1.704383939504623E-001;-1.307438407093287E-002;-2.495909211575054E-005;3.528864821419120E-003;
2.410833333333334E+009;1.700524687767029E-001;-1.471166033297777E-002;1.144962734542787E-004;3.655781969428062E-003;
2.411000000000000E+009;1.696040034294128E-001;-1.664647273719311E-002;3.014694666489959E-004;3.740306245163083E-003;
2.411166666666667E+009;1.692352592945099E-001;-1.851630210876465E-002;5.451376782730222E-004;3.602677723392844E-003;
2.411333333333334E+009;1.687413603067398E-001;-2.045455388724804E-002;5.236060824245215E-004;3.548675449565053E-003;
2.411500000000000E+009;1.685312837362289E-001;-2.252590656280518E-002;6.565874209627509E-004;3.638518741354346E-003;
2.411666666666667E+009;1.683272123336792E-001;-2.414273098111153E-002;7.143376278690994E-004;3.534310730174184E-003;
2.411833333333334E+009;1.682859659194946E-001;-2.615759335458279E-002;8.075350779108703E-004;3.503663465380669E-003;
2.412000000000000E+009;1.683997362852097E-001;-2.797017432749271E-002;7.420112378895283E-004;3.524711122736335E-003;
2.412166666666667E+009;1.681410670280457E-001;-3.012003935873509E-002;1.135776750743389E-003;3.451563883572817E-003;
2.412333333333334E+009;1.685366332530975E-001;-3.192315250635147E-002;1.123465131968260E-003;3.366571851074696E-003;
2.412500000000000E+009;1.684422194957733E-001;-3.354278951883316E-002;1.168273622170091E-003;3.416174789890647E-003;
2.412666666666667E+009;1.687884181737900E-001;-3.566471859812737E-002;1.316773123107851E-003;3.416417632251978E-003;
2.412833333333334E+009;1.692692935466766E-001;-3.757767006754875E-002;1.374613610096276E-003;3.308084793388844E-003;
2.413000000000000E+009;1.695735305547714E-001;-3.913107141852379E-002;1.435725833289325E-003;3.230285830795765E-003;
2.413166666666667E+009;1.697345972061157E-001;-4.096328839659691E-002;1.792216906324029E-003;3.203261410817504E-003;
2.413333333333334E+009;1.700929254293442E-001;-4.267264157533646E-002;1.925857039168477E-003;3.108404809609056E-003;
2.413500000000000E+009;1.706608831882477E-001;-4.445382580161095E-002;2.060628263279796E-003;3.044689539819956E-003;
2.413666666666667E+009;1.712113469839096E-001;-4.602501913905144E-002;2.095557749271393E-003;2.988411812111735E-003;
2.413833333333334E+009;1.715752780437470E-001;-4.741579294204712E-002;2.370791742578149E-003;2.953963121399283E-003;
2.414000000000000E+009;1.720292121171951E-001;-4.891441389918327E-002;2.416021656244993E-003;2.918499754741788E-003;
2.414166666666667E+009;1.727474778890610E-001;-5.020972713828087E-002;2.502760151401162E-003;2.729158615693450E-003;
2.414333333333334E+009;1.731165349483490E-001;-5.152072012424469E-002;2.695599570870400E-003;2.536135492846370E-003;
2.414500000000000E+009;1.738787740468979E-001;-5.272142589092255E-002;2.802454633638263E-003;2.400241326540709E-003;
2.414666666666667E+009;1.744165122509003E-001;-5.363352596759796E-002;2.994622569531202E-003;2.302426844835281E-003;
2.414833333333334E+009;1.748176664113998E-001;-5.477973818778992E-002;2.880490152165294E-003;2.139710588380694E-003;
2.415000000000000E+009;1.753078252077103E-001;-5.559165775775909E-002;2.972949994727969E-003;1.949485624209046E-003;
2.415166666666667E+009;1.757226437330246E-001;-5.644754692912102E-002;3.142208326607943E-003;1.577831688337028E-003;
2.415333333333334E+009;1.762348115444183E-001;-5.726934224367142E-002;3.115761093795300E-003;1.565111917443574E-003;
2.415500000000000E+009;1.765046268701553E-001;-5.780166760087013E-002;3.112053265795112E-003;1.473293523304164E-003;
2.415666666666667E+009;1.767744421958923E-001;-5.843334272503853E-002;3.145598573610187E-003;1.279287389479578E-003;
2.415833333333334E+009;1.771908998489380E-001;-5.890095233917236E-002;3.245468484237790E-003;1.004647230729461E-003;
2.416000000000000E+009;1.771358400583267E-001;-5.939291417598724E-002;3.262269776314497E-003;7.875586743466556E-004;
2.416166666666667E+009;1.774142235517502E-001;-5.986167117953301E-002;3.033141838386655E-003;7.275561220012605E-004;
2.416333333333334E+009;1.773876994848251E-001;-6.022468581795692E-002;3.014323534443975E-003;4.909384879283607E-004;
2.416500000000000E+009;1.773798912763596E-001;-6.059099361300468E-002;3.034191904589534E-003;4.473227309063077E-004;
2.416666666666667E+009;1.771856248378754E-001;-6.080587580800057E-002;2.980961464345455E-003;2.584261819720268E-004;
2.416833333333334E+009;1.770509183406830E-001;-6.122365966439247E-002;2.935861935839057E-003;7.731522055109963E-005;
2.417000000000000E+009;1.765203475952148E-001;-6.145643442869186E-002;2.800564048811793E-003;-7.482910586986691E-005;
2.417166666666667E+009;1.761889606714249E-001;-6.143648922443390E-002;2.646523760631681E-003;-2.487475867383182E-004;
2.417333333333334E+009;1.757515519857407E-001;-6.163028255105019E-002;2.545928582549095E-003;-1.628525060368702E-004;
2.417500000000000E+009;1.751183718442917E-001;-6.221709027886391E-002;2.440885407850146E-003;-4.739615251310170E-004;
2.417666666666667E+009;1.746071875095367E-001;-6.206714734435082E-002;2.397967735305429E-003;-4.460189084056765E-004;
2.417833333333334E+009;1.739239543676376E-001;-6.251928210258484E-002;2.302972599864006E-003;-6.418695556931198E-004;
2.418000000000000E+009;1.729847341775894E-001;-6.292165070772171E-002;2.194192958995700E-003;-6.277164211496711E-004;
2.418166666666667E+009;1.721410155296326E-001;-6.306923180818558E-002;2.265046583488584E-003;-5.274483701214194E-004;
2.418333333333334E+009;1.713536679744721E-001;-6.354328989982605E-002;1.981449313461781E-003;-5.440599634312093E-004;
2.418500000000000E+009;1.702694147825241E-001;-6.379409134387970E-002;1.877972506918013E-003;-6.666686967946589E-004;
2.418666666666667E+009;1.693602651357651E-001;-6.437270343303680E-002;1.708968309685588E-003;-6.837924593128264E-004;
2.418833333333334E+009;1.680440157651901E-001;-6.489530205726624E-002;1.823768252506852E-003;-7.031687418930233E-004;
2.419000000000000E+009;1.669874936342239E-001;-6.541055440902710E-002;1.594658475369215E-003;-6.389935733750463E-004;
2.419166666666667E+009;1.658814549446106E-001;-6.608183681964874E-002;1.624307245947421E-003;-7.470186101272702E-004;
2.419333333333334E+009;1.646055579185486E-001;-6.670716404914856E-002;1.522390753962100E-003;-7.088386337272823E-004;
2.419500000000000E+009;1.634833365678787E-001;-6.756959855556488E-002;1.359272748231888E-003;-6.092042312957346E-004;
2.419666666666667E+009;1.624017953872681E-001;-6.848086416721344E-002;1.440093386918306E-003;-5.476217484101653E-004;
2.419833333333334E+009;1.611679196357727E-001;-6.927759945392609E-002;1.268251566216350E-003;-5.088017205707729E-004;
2.420000000000000E+009;1.600664556026459E-001;-7.035475224256516E-002;1.167181297205389E-003;-5.289160180836916E-004;
2.420166666666667E+009;1.589812189340591E-001;-7.140073925256729E-002;1.261816243641079E-003;-6.760990363545716E-004;
2.420333333333334E+009;1.579375267028809E-001;-7.274643331766129E-002;1.444497262127698E-003;-5.534062511287630E-004;
2.420500000000000E+009;1.569560468196869E-001;-7.376085221767426E-002;1.247346634045243E-003;-5.199341103434563E-004;
2.420666666666667E+009;1.559378802776337E-001;-7.499852776527405E-002;1.278576906770468E-003;-5.987588665448129E-004;
2.420833333333334E+009;1.550159305334091E-001;-7.638565450906754E-002;1.156797632575035E-003;-5.273416172713041E-004;
2.421000000000000E+009;1.540641784667969E-001;-7.775794714689255E-002;1.092389691621065E-003;-7.124885451048613E-004;
2.421166666666667E+009;1.533019542694092E-001;-7.925894111394882E-002;1.197721576318145E-003;-5.804015672765672E-004;
2.421333333333334E+009;1.526344865560532E-001;-8.087882399559021E-002;1.147161121480167E-003;-5.912004271522164E-004;
2.421500000000000E+009;1.518068164587021E-001;-8.239517360925674E-002;1.125022652558982E-003;-4.993513575755060E-004;
2.421666666666667E+009;1.513416916131973E-001;-8.399774134159088E-002;1.046168268658221E-003;-5.745000671595335E-004;
2.421833333333334E+009;1.509013473987579E-001;-8.561432361602783E-002;1.158113474957645E-003;-4.051300638820976E-004;
2.422000000000000E+009;1.504564732313156E-001;-8.734735101461411E-002;1.118356594815850E-003;-4.935343749821186E-004;
2.422166666666667E+009;1.500387042760849E-001;-8.913286775350571E-002;1.192728057503700E-003;-4.631371994037181E-004;
2.422333333333334E+009;1.498740166425705E-001;-9.072828292846680E-002;1.186179346404970E-003;-4.852189449593425E-004;
2.422500000000000E+009;1.496631503105164E-001;-9.229887276887894E-002;1.212163711898029E-003;-6.043791072443128E-004;
2.422666666666667E+009;1.495936214923859E-001;-9.423708915710449E-002;1.111726043745875E-003;-5.882564582861960E-004;
2.422833333333334E+009;1.496821641921997E-001;-9.594875574111939E-002;1.049110665917397E-003;-4.530544392764568E-004;
2.423000000000000E+009;1.497662961483002E-001;-9.741885215044022E-002;1.157091232016683E-003;-5.667987279593945E-004;
2.423166666666667E+009;1.500260680913925E-001;-9.916625171899796E-002;1.166745671071112E-003;-5.481924163177609E-004;
2.423333333333334E+009;1.502706408500671E-001;-1.006486415863037E-001;1.098723150789738E-003;-7.059647468850017E-004;
2.423500000000000E+009;1.504582464694977E-001;-1.024235188961029E-001;1.265536644496024E-003;-6.854895036667585E-004;
2.423666666666667E+009;1.505756676197052E-001;-1.038270518183708E-001;1.114391488954425E-003;-6.269820150919259E-004;
2.423833333333334E+009;1.510487347841263E-001;-1.052510291337967E-001;1.020065275952220E-003;-7.638348033651710E-004;
2.424000000000000E+009;1.513673514127731E-001;-1.065263077616692E-001;1.058060675859451E-003;-6.572146085090935E-004;
2.424166666666667E+009;1.518362164497376E-001;-1.080555692315102E-001;1.076149870641530E-003;-7.451183046214283E-004;
2.424333333333334E+009;1.522305309772492E-001;-1.092667579650879E-001;1.188207534141839E-003;-6.957516889087856E-004;
2.424500000000000E+009;1.527373492717743E-001;-1.104783862829208E-001;1.099305693060160E-003;-7.072858861647546E-004;
2.424666666666667E+009;1.532878130674362E-001;-1.113789677619934E-001;1.031307503581047E-003;-8.608636562712491E-004;
2.424833333333334E+009;1.535468548536301E-001;-1.125608086585999E-001;8.906159782782197E-004;-8.218436851166189E-004;
2.425000000000000E+009;1.542262285947800E-001;-1.136668920516968E-001;9.262271341867745E-004;-9.670121944509447E-004;
2.425166666666667E+009;1.542779505252838E-001;-1.144162118434906E-001;8.521507843397558E-004;-8.141480502672494E-004;
2.425333333333334E+009;1.548582166433334E-001;-1.151236444711685E-001;8.806858095340431E-004;-7.179271196946502E-004;
2.425500000000000E+009;1.552668064832687E-001;-1.158734112977982E-001;8.550662314519286E-004;-9.027321939356625E-004;
2.425666666666667E+009;1.555327326059341E-001;-1.164891421794891E-001;7.839549216441810E-004;-1.018666196614504E-003;
2.425833333333334E+009;1.558838784694672E-001;-1.170798093080521E-001;7.592872134409845E-004;-1.050446880981326E-003;
2.426000000000000E+009;1.560526341199875E-001;-1.176555454730988E-001;5.646070931106806E-004;-9.536325233057141E-004;
2.426166666666667E+009;1.562823802232742E-001;-1.181729808449745E-001;5.743463407270610E-004;-7.906141108833253E-004;
2.426333333333334E+009;1.561864614486694E-001;-1.184151172637940E-001;5.764160887338221E-004;-8.960863342508674E-004;
2.426500000000000E+009;1.561959087848663E-001;-1.187189146876335E-001;5.264425417408347E-004;-8.472457993775606E-004;
2.426666666666667E+009;1.562431603670120E-001;-1.187596693634987E-001;5.378735368140042E-004;-8.914356585592032E-004;
2.426833333333334E+009;1.560859829187393E-001;-1.190008670091629E-001;4.887649556621909E-004;-8.787826518528163E-004;
2.427000000000000E+009;1.558433622121811E-001;-1.192637011408806E-001;4.602364788297564E-004;-7.628396269865334E-004;
2.427166666666667E+009;1.554829180240631E-001;-1.192329376935959E-001;4.732136439997703E-004;-7.983745308592916E-004;
2.427333333333334E+009;1.550617218017578E-001;-1.194320917129517E-001;2.694856957532466E-004;-7.373489788733423E-004;
2.427500000000000E+009;1.546728610992432E-001;-1.195479780435562E-001;3.748949384316802E-004;-7.905061356723309E-004;
2.427666666666667E+009;1.539013385772705E-001;-1.196417883038521E-001;3.760529507417232E-004;-6.744529237039387E-004;
2.427833333333334E+009;1.529958248138428E-001;-1.197463497519493E-001;2.715794544201344E-004;-7.060083444230259E-004;
