# Version 1.00
#
freq[Hz];re:Trc1_S11;im:Trc1_S11;re:Trc2_S21;im:Trc2_S21;
2.400000000000000E+009;1.586428582668304E-001;6.297841668128967E-002;-2.962925471365452E-003;-1.402266789227724E-003;
2.400166666666667E+009;1.585946530103684E-001;6.161000952124596E-002;-2.891356823965907E-003;-1.217180863022804E-003;
2.400333333333334E+009;1.583487987518311E-001;5.969096347689629E-002;-2.788371173664928E-003;-1.168933114968240E-003;
2.400500000000000E+009;1.583583652973175E-001;5.780910328030586E-002;-2.871045144274831E-003;-1.179064274765551E-003;
2.400666666666667E+009;1.582808196544647E-001;5.590602755546570E-002;-2.850437769666314E-003;-1.182428561151028E-003;
2.400833333333334E+009;1.584144383668900E-001;5.385950952768326E-002;-2.773640910163522E-003;-1.234535709954798E-003;
2.401000000000000E+009;1.582532227039337E-001;5.202542990446091E-002;-3.028224222362042E-003;-1.149544259533286E-003;
2.401166666666667E+009;1.585020869970322E-001;4.988978058099747E-002;-3.031001193448901E-003;-1.003755256533623E-003;
2.401333333333334E+009;1.585624366998673E-001;4.792118072509766E-002;-3.112422069534659E-003;-1.075330772437155E-003;
2.401500000000000E+009;1.588688790798187E-001;4.574687033891678E-002;-3.119214437901974E-003;-8.347895345650613E-004;
2.401666666666667E+009;1.589604169130325E-001;4.397493228316307E-002;-3.067309036850929E-003;-8.894263883121312E-004;
2.401833333333334E+009;1.594439148902893E-001;4.167506471276283E-002;-3.337642876431346E-003;-9.474189137108624E-004;
2.402000000000000E+009;1.596909016370773E-001;3.994167968630791E-002;-3.246968844905496E-003;-9.059792500920594E-004;
2.402166666666667E+009;1.602765470743179E-001;3.788884356617928E-002;-3.381968010216951E-003;-9.309711167588830E-004;
2.402333333333334E+009;1.607216745615006E-001;3.594054654240608E-002;-3.449074458330870E-003;-9.525151690468192E-004;
2.402500000000000E+009;1.616148054599762E-001;3.418648615479469E-002;-3.490935545414686E-003;-7.537617930211127E-004;
2.402666666666667E+009;1.621268987655640E-001;3.229469060897827E-002;-3.605713369324803E-003;-7.553516770713031E-004;
2.402833333333334E+009;1.628658473491669E-001;3.050863184034824E-002;-3.664103103801608E-003;-6.898479769006372E-004;
2.403000000000000E+009;1.636990159749985E-001;2.886915951967239E-002;-3.695040242746472E-003;-6.307344301603735E-004;
2.403166666666667E+009;1.643471866846085E-001;2.715825848281384E-002;-3.631264436990023E-003;-3.868250350933522E-004;
2.403333333333334E+009;1.653377115726471E-001;2.563529647886753E-002;-3.891060594469309E-003;-4.505995020736009E-004;
2.403500000000000E+009;1.662564277648926E-001;2.431708388030529E-002;-3.918610047549009E-003;-3.299677337054163E-004;
2.403666666666667E+009;1.672002822160721E-001;2.262312546372414E-002;-4.082249477505684E-003;-1.963409704330843E-005;
2.403833333333334E+009;1.681372672319412E-001;2.135594934225082E-002;-4.027400165796280E-003;1.013203436741605E-004;
2.404000000000000E+009;1.690900623798370E-001;2.009936235845089E-002;-4.165574442595244E-003;2.446115249767900E-004;
2.404166666666667E+009;1.700492203235626E-001;1.894037239253521E-002;-4.162403289228678E-003;3.177107428200543E-004;
2.404333333333334E+009;1.710121035575867E-001;1.787909120321274E-002;-4.196661524474621E-003;6.935003912076354E-004;
2.404500000000000E+009;1.720066368579865E-001;1.666589453816414E-002;-4.293215461075306E-003;7.797483704052866E-004;
2.404666666666667E+009;1.729027330875397E-001;1.583898626267910E-002;-4.179457668215036E-003;1.120769535191357E-003;
2.404833333333334E+009;1.739016324281693E-001;1.492585428059101E-002;-4.155726172029972E-003;1.339526264928281E-003;
2.405000000000000E+009;1.747339963912964E-001;1.422144100070000E-002;-4.097837489098311E-003;1.464278204366565E-003;
2.405166666666667E+009;1.755945831537247E-001;1.345676090568304E-002;-4.228024743497372E-003;1.690712175332010E-003;
2.405333333333334E+009;1.763025373220444E-001;1.275113876909018E-002;-4.163825418800116E-003;1.765564084053040E-003;
2.405500000000000E+009;1.771525442600250E-001;1.229845732450485E-002;-3.823345527052879E-003;1.963734859600663E-003;
2.405666666666667E+009;1.778649240732193E-001;1.172399334609509E-002;-3.818654688075185E-003;2.267482457682490E-003;
2.405833333333334E+009;1.785327047109604E-001;1.126921083778143E-002;-3.824856830760837E-003;2.467410638928413E-003;
2.406000000000000E+009;1.791489720344544E-001;1.070798188447952E-002;-3.716914448887110E-003;2.470187377184629E-003;
2.406166666666667E+009;1.795001327991486E-001;1.043186616152525E-002;-3.506371285766363E-003;2.920171478763223E-003;
2.406333333333334E+009;1.800691783428192E-001;1.011588983237743E-002;-3.352514002472162E-003;2.860635286197066E-003;
2.406500000000000E+009;1.804340332746506E-001;9.681368246674538E-003;-3.238210687413812E-003;3.066778415814042E-003;
2.406666666666667E+009;1.804727315902710E-001;9.517895057797432E-003;-3.070858540013433E-003;3.206066321581602E-003;
2.406833333333334E+009;1.808376014232636E-001;8.964671753346920E-003;-2.758681774139404E-003;3.284415695816279E-003;
2.407000000000000E+009;1.809474378824234E-001;8.782784454524517E-003;-2.813575789332390E-003;3.311095526441932E-003;
2.407166666666667E+009;1.811886876821518E-001;8.392844349145889E-003;-2.726298524066806E-003;3.321373835206032E-003;
2.407333333333334E+009;1.810432970523834E-001;7.889757864177227E-003;-2.522380324080586E-003;3.382212948054075E-003;
2.407500000000000E+009;1.808980405330658E-001;7.614873815327883E-003;-2.359367674216628E-003;3.462969325482845E-003;
2.407666666666667E+009;1.808005422353745E-001;7.168109528720379E-003;-2.225012052804232E-003;3.533276263624430E-003;
2.407833333333334E+009;1.804677695035934E-001;6.630624178797007E-003;-2.161005744710565E-003;3.716873005032539E-003;
2.408000000000000E+009;1.801204234361649E-001;5.861658602952957E-003;-1.976785017177463E-003;3.834259929135442E-003;
2.408166666666667E+009;1.797566115856171E-001;5.518622230738401E-003;-1.826843363232911E-003;3.749519586563110E-003;
2.408333333333334E+009;1.793877482414246E-001;4.685291089117527E-003;-1.735617988742888E-003;3.623912110924721E-003;
2.408500000000000E+009;1.788534373044968E-001;3.892115782946348E-003;-1.591083128005266E-003;3.723709378391504E-003;
2.408666666666667E+009;1.783028095960617E-001;3.029962768778205E-003;-1.493004965595901E-003;3.851320594549179E-003;
2.408833333333334E+009;1.776195913553238E-001;2.275145379826427E-003;-1.306770485825837E-003;3.754283767193556E-003;
2.409000000000000E+009;1.770005673170090E-001;1.122804824262857E-003;-1.215178752318025E-003;3.740029409527779E-003;
2.409166666666667E+009;1.763244569301605E-001;1.458754413761199E-004;-1.070788013748825E-003;3.792416770011187E-003;
2.409333333333334E+009;1.756217330694199E-001;-1.114541664719582E-003;-9.946264326572418E-004;3.762481734156609E-003;
2.409500000000000E+009;1.749573647975922E-001;-2.451854059472680E-003;-7.759653963148594E-004;3.864837111905217E-003;
2.409666666666667E+009;1.742061823606491E-001;-3.722365479916334E-003;-7.455429295077920E-004;3.758987411856651E-003;
2.409833333333334E+009;1.735837459564209E-001;-4.946053959429264E-003;-5.176233826205134E-004;3.709110897034407E-003;
2.410000000000000E+009;1.729096770286560E-001;-6.316448561847210E-003;-3.980495966970921E-004;3.690957557410002E-003;
2.410166666666667E+009;1.723298579454422E-001;-7.974136620759964E-003;-3.503293264657259E-004;3.789966693148017E-003;
2.410333333333334E+009;1.716342419385910E-001;-9.775800630450249E-003;-2.181469317292795E-004;3.707363037392497E-003;
2.410500000000000E+009;1.711616516113281E-001;-1.128966547548771E-002;-7.936226029414684E-005;3.672799328342080E-003;
2.410666666666667E+009;1.704803258180618E-001;-1.295430865138769E-002;3.085504067712463E-005;3.703027497977018E-003;
2.410833333333334E+009;1.701102256774902E-001;-1.465790998190641E-002;1.277300325455144E-004;3.723685862496495E-003;
2.411000000000000E+009;1.695000380277634E-001;-1.640464738011360E-002;1.860687043517828E-004;3.646219382062554E-003;
2.411166666666667E+009;1.692033410072327E-001;-1.855959929525852E-002;3.640605427790433E-004;3.678885987028480E-003;
2.411333333333334E+009;1.688519269227982E-001;-2.029778249561787E-002;4.431861161720008E-004;3.648197976872325E-003;
2.411500000000000E+009;1.684582978487015E-001;-2.222570776939392E-002;5.196465644985437E-004;3.644511569291353E-003;
2.411666666666667E+009;1.683460026979446E-001;-2.420573867857456E-002;5.959185073152185E-004;3.651154693216085E-003;
2.411833333333334E+009;1.682897210121155E-001;-2.594239264726639E-002;7.384202908724546E-004;3.525180742144585E-003;
2.412000000000000E+009;1.683729887008667E-001;-2.814601920545101E-002;7.707530166953802E-004;3.566715167835355E-003;
2.412166666666667E+009;1.683327108621597E-001;-3.005119226872921E-002;9.149812394753099E-004;3.525373758748174E-003;
2.412333333333334E+009;1.684857457876205E-001;-3.169058263301849E-002;1.178984763100743E-003;3.490149509161711E-003;
2.412500000000000E+009;1.684992313385010E-001;-3.360681608319283E-002;1.284188707359135E-003;3.454986726865172E-003;
2.412666666666667E+009;1.688448935747147E-001;-3.566145524382591E-002;1.468784525059164E-003;3.483946202322841E-003;
2.412833333333334E+009;1.692762672901154E-001;-3.747555613517761E-002;1.447006943635643E-003;3.455855185166001E-003;
2.413000000000000E+009;1.694545298814774E-001;-3.925502300262451E-002;1.637706765905023E-003;3.394253319129348E-003;
2.413166666666667E+009;1.697642654180527E-001;-4.103122651576996E-002;1.868274062871933E-003;3.265659091994166E-003;
2.413333333333334E+009;1.700893193483353E-001;-4.275398701429367E-002;2.050379291176796E-003;3.326256293803453E-003;
2.413500000000000E+009;1.706727296113968E-001;-4.440377652645111E-002;2.200455171987414E-003;3.170948475599289E-003;
2.413666666666667E+009;1.710611879825592E-001;-4.593835026025772E-002;2.223045332357287E-003;3.175695426762104E-003;
2.413833333333334E+009;1.717044413089752E-001;-4.747161641716957E-002;2.298830775544047E-003;2.929366193711758E-003;
2.414000000000000E+009;1.720654219388962E-001;-4.882660508155823E-002;2.351260976865888E-003;2.710085595026612E-003;
2.414166666666667E+009;1.725383847951889E-001;-5.014561861753464E-002;2.547814976423979E-003;2.747473306953907E-003;
2.414333333333334E+009;1.733418554067612E-001;-5.154484510421753E-002;2.700900193303824E-003;2.591595752164722E-003;
2.414500000000000E+009;1.739872694015503E-001;-5.252939090132713E-002;2.822004025802016E-003;2.491518156602979E-003;
2.414666666666667E+009;1.743746697902679E-001;-5.373581871390343E-002;2.990956883877516E-003;2.499795518815517E-003;
2.414833333333334E+009;1.747534424066544E-001;-5.474944040179253E-002;2.995330141857266E-003;2.080709440633655E-003;
2.415000000000000E+009;1.752748489379883E-001;-5.552222207188606E-002;3.108342876657844E-003;2.057284116744995E-003;
2.415166666666667E+009;1.757260411977768E-001;-5.645001679658890E-002;3.178504062816501E-003;1.908626407384872E-003;
2.415333333333334E+009;1.762561947107315E-001;-5.724298581480980E-002;3.157208440825343E-003;1.718292594887316E-003;
2.415500000000000E+009;1.765621602535248E-001;-5.785658210515976E-002;3.146945033222437E-003;1.390514080412686E-003;
2.415666666666667E+009;1.768162250518799E-001;-5.849512293934822E-002;3.189101582393050E-003;1.325331744737923E-003;
2.415833333333334E+009;1.770982742309570E-001;-5.894320830702782E-002;3.185370238497853E-003;1.037059468217194E-003;
2.416000000000000E+009;1.771637648344040E-001;-5.941644310951233E-002;3.200057428330183E-003;7.532438612543047E-004;
2.416166666666667E+009;1.774383783340454E-001;-5.977130308747292E-002;3.257596166804433E-003;6.136915762908757E-004;
2.416333333333334E+009;1.773913502693176E-001;-6.009393185377121E-002;3.154628444463015E-003;5.745035014115274E-004;
2.416500000000000E+009;1.773285418748856E-001;-6.055076047778130E-002;3.108157310634852E-003;2.731270797085017E-004;
2.416666666666667E+009;1.771963387727737E-001;-6.061850488185883E-002;3.012041328474879E-003;1.259714626939967E-004;
2.416833333333334E+009;1.771360933780670E-001;-6.108605489134789E-002;2.945076907053590E-003;2.012222103076056E-004;
2.417000000000000E+009;1.765625178813934E-001;-6.136780977249146E-002;2.949196146801114E-003;-1.242162979906425E-004;
2.417166666666667E+009;1.763284653425217E-001;-6.151457130908966E-002;2.908841706812382E-003;-2.599233412183821E-004;
2.417333333333334E+009;1.758645474910736E-001;-6.172596290707588E-002;2.698839642107487E-003;-2.682671474758536E-004;
2.417500000000000E+009;1.752351224422455E-001;-6.202379986643791E-002;2.580457367002964E-003;-4.491041181609035E-004;
2.417666666666667E+009;1.747243106365204E-001;-6.222262978553772E-002;2.589429728686810E-003;-5.449729505926371E-004;
2.417833333333334E+009;1.738723069429398E-001;-6.247638538479805E-002;2.502311719581485E-003;-4.845506045967341E-004;
2.418000000000000E+009;1.730182021856308E-001;-6.280381977558136E-002;2.184529090300202E-003;-6.563558708876371E-004;
2.418166666666667E+009;1.721685379743576E-001;-6.304778158664703E-002;2.123867860063911E-003;-7.094802567735314E-004;
2.418333333333334E+009;1.713925451040268E-001;-6.360282748937607E-002;2.201293595135212E-003;-7.804695633240044E-004;
2.418500000000000E+009;1.703555434942246E-001;-6.390774995088577E-002;1.992426579818130E-003;-7.118654903024435E-004;
2.418666666666667E+009;1.694706082344055E-001;-6.446515023708344E-002;1.815982279367745E-003;-8.143005543388426E-004;
2.418833333333334E+009;1.681131720542908E-001;-6.493794918060303E-002;1.826542196795344E-003;-8.146024192683399E-004;
2.419000000000000E+009;1.669414937496185E-001;-6.537438929080963E-002;1.721029984764755E-003;-6.930792587809265E-004;
2.419166666666667E+009;1.658130884170532E-001;-6.609628349542618E-002;1.681012101471424E-003;-6.389071932062507E-004;
2.419333333333334E+009;1.646242886781693E-001;-6.672288477420807E-002;1.546929473988712E-003;-7.690658676438034E-004;
2.419500000000000E+009;1.633317023515701E-001;-6.760936230421066E-002;1.456469763070345E-003;-7.159337401390076E-004;
2.419666666666667E+009;1.623620390892029E-001;-6.843955069780350E-002;1.322693540714681E-003;-7.709149504080415E-004;
2.419833333333334E+009;1.611271947622299E-001;-6.932253390550613E-002;1.347685349173844E-003;-6.709457957185805E-004;
2.420000000000000E+009;1.599876433610916E-001;-7.031835615634918E-002;1.436619902960956E-003;-5.865410785190761E-004;
2.420166666666667E+009;1.589017063379288E-001;-7.146456837654114E-002;1.290670363232493E-003;-6.521776667796075E-004;
2.420333333333334E+009;1.577984541654587E-001;-7.258138060569763E-002;1.382519723847508E-003;-4.667181929107755E-004;
2.420500000000000E+009;1.568834781646729E-001;-7.364732772111893E-002;1.247813343070447E-003;-5.503221764229238E-004;
2.420666666666667E+009;1.558981090784073E-001;-7.507576793432236E-002;1.145436312071979E-003;-6.187212420627475E-004;
2.420833333333334E+009;1.548392623662949E-001;-7.628420740365982E-002;1.207228866405785E-003;-5.326422979123890E-004;
2.421000000000000E+009;1.539069563150406E-001;-7.793879508972168E-002;1.085523515939713E-003;-3.809723129961640E-004;
2.421166666666667E+009;1.532330960035324E-001;-7.937336713075638E-002;1.151806209236383E-003;-5.801946972496808E-004;
2.421333333333334E+009;1.525346040725708E-001;-8.094196766614914E-002;1.221261918544769E-003;-5.929947365075350E-004;
2.421500000000000E+009;1.516957134008408E-001;-8.238370716571808E-002;1.092047663405538E-003;-6.453585228882730E-004;
2.421666666666667E+009;1.514184474945068E-001;-8.392096310853958E-002;1.110378187149763E-003;-4.984401166439056E-004;
2.421833333333334E+009;1.507638543844223E-001;-8.571302145719528E-002;1.010198029689491E-003;-5.269514513202012E-004;
2.422000000000000E+009;1.502816826105118E-001;-8.731730282306671E-002;1.122385030612350E-003;-5.112933577038348E-004;
2.422166666666667E+009;1.500457674264908E-001;-8.929046988487244E-002;1.045870943926275E-003;-4.944268730469048E-004;
2.422333333333334E+009;1.498394161462784E-001;-9.074769169092178E-002;1.045522396452725E-003;-4.704518942162395E-004;
2.422500000000000E+009;1.495087295770645E-001;-9.224353730678558E-002;1.007043407298625E-003;-6.546354852616787E-004;
2.422666666666667E+009;1.495321542024612E-001;-9.396330267190933E-002;1.299386261962354E-003;-4.914300516247749E-004;
2.422833333333334E+009;1.495716869831085E-001;-9.585341811180115E-002;1.087177544832230E-003;-6.103467312641442E-004;
2.423000000000000E+009;1.495863199234009E-001;-9.759059548377991E-002;1.082391827367246E-003;-5.527347093448043E-004;
2.423166666666667E+009;1.497991234064102E-001;-9.918540716171265E-002;1.006920239888132E-003;-3.983523929491639E-004;
2.423333333333334E+009;1.501346826553345E-001;-1.006175726652145E-001;1.037036417983472E-003;-4.945924738422036E-004;
2.423500000000000E+009;1.503536403179169E-001;-1.023011207580566E-001;1.077465363778174E-003;-6.096813012845814E-004;
2.423666666666667E+009;1.506137102842331E-001;-1.037590056657791E-001;1.149541116319597E-003;-8.361607324331999E-004;
2.423833333333334E+009;1.509597003459930E-001;-1.053155139088631E-001;1.120538450777531E-003;-6.687321583740413E-004;
2.424000000000000E+009;1.513834744691849E-001;-1.065217107534409E-001;9.432264487259090E-004;-6.231220904737711E-004;
2.424166666666667E+009;1.517739295959473E-001;-1.079416349530220E-001;1.055518630892038E-003;-7.170852622948587E-004;
2.424333333333334E+009;1.523954570293427E-001;-1.091888025403023E-001;9.945539059117436E-004;-8.392024901695550E-004;
2.424500000000000E+009;1.527994275093079E-001;-1.103986874222755E-001;1.127692172303796E-003;-7.562166429124773E-004;
2.424666666666667E+009;1.532882004976273E-001;-1.113432645797730E-001;8.972010691650212E-004;-6.185823585838080E-004;
2.424833333333334E+009;1.535064280033112E-001;-1.124996393918991E-001;9.677825728431344E-004;-8.784392266534269E-004;
2.425000000000000E+009;1.540671736001968E-001;-1.134566813707352E-001;9.043501340784133E-004;-9.518188307993114E-004;
2.425166666666667E+009;1.543933004140854E-001;-1.143742129206657E-001;9.191523422487080E-004;-9.018441778607667E-004;
2.425333333333334E+009;1.548897325992584E-001;-1.151235476136208E-001;7.871726993471384E-004;-8.159386925399303E-004;
2.425500000000000E+009;1.552349179983139E-001;-1.158173903822899E-001;7.002188358455896E-004;-9.577067685313523E-004;
2.425666666666667E+009;1.554940640926361E-001;-1.164798215031624E-001;7.571468013338745E-004;-9.530675015412271E-004;
2.425833333333334E+009;1.556814312934876E-001;-1.170347109436989E-001;7.989087025634944E-004;-8.555143140256405E-004;
2.426000000000000E+009;1.559404134750366E-001;-1.176758408546448E-001;5.153372185304761E-004;-8.808748680166900E-004;
2.426166666666667E+009;1.562060564756393E-001;-1.180417835712433E-001;7.369477534666657E-004;-8.771056309342384E-004;
2.426333333333334E+009;1.561872810125351E-001;-1.184073388576508E-001;5.324392695911229E-004;-7.910222630016506E-004;
2.426500000000000E+009;1.563179790973663E-001;-1.186329349875450E-001;4.812792467419058E-004;-8.532110950909555E-004;
2.426666666666667E+009;1.563391238451004E-001;-1.187308281660080E-001;5.183348548598588E-004;-9.372157510370016E-004;
2.426833333333334E+009;1.559935957193375E-001;-1.189084351062775E-001;4.080896324012429E-004;-8.098565740510821E-004;
2.427000000000000E+009;1.557736694812775E-001;-1.192316189408302E-001;3.832290531136096E-004;-7.586579304188490E-004;
2.427166666666667E+009;1.555011421442032E-001;-1.192075461149216E-001;4.466107930056751E-004;-6.887827184982598E-004;
2.427333333333334E+009;1.549846827983856E-001;-1.193724647164345E-001;3.126182127743959E-004;-8.107197354547679E-004;
2.427500000000000E+009;1.545254439115524E-001;-1.194568425416946E-001;4.043863737024367E-004;-7.059578201733530E-004;
2.427666666666667E+009;1.538982838392258E-001;-1.196369081735611E-001;2.566225302871317E-004;-6.398771074600518E-004;
2.427833333333334E+009;1.530865430831909E-001;-1.196378916501999E-001;2.814367180690169E-004;-6.931222742423415E-004;
