# Version 1.00
#
freq[Hz];re:Trc1_S11;im:Trc1_S11;re:Trc2_S21;im:Trc2_S21;
2.400000000000000E+009;1.587427407503128E-001;6.312187016010284E-002;-2.703092060983181E-003;-1.238139346241951E-003;
2.400166666666667E+009;1.585971713066101E-001;6.161614879965782E-002;-2.563059329986572E-003;-1.263981568627060E-003;
2.400333333333334E+009;1.583575308322907E-001;5.982192978262901E-002;-2.694849157705903E-003;-1.140108797699213E-003;
2.400500000000000E+009;1.584532260894775E-001;5.784781649708748E-002;-2.793996129184961E-003;-1.182729029096663E-003;
2.400666666666667E+009;1.582661122083664E-001;5.578442662954330E-002;-2.825872506946325E-003;-1.055797096341848E-003;
2.400833333333334E+009;1.582443416118622E-001;5.413399264216423E-002;-2.835238352417946E-003;-1.056014792993665E-003;
2.401000000000000E+009;1.584429144859314E-001;5.196121335029602E-002;-2.841113368049264E-003;-1.034305430948734E-003;
2.401166666666667E+009;1.586364358663559E-001;4.993633553385735E-002;-2.845100127160549E-003;-8.596587576903403E-004;
2.401333333333334E+009;1.584405899047852E-001;4.791459441184998E-002;-2.841379726305604E-003;-9.765342692844570E-004;
2.401500000000000E+009;1.589665561914444E-001;4.567225277423859E-002;-2.939804689958692E-003;-7.445546798408032E-004;
2.401666666666667E+009;1.593880057334900E-001;4.391851276159287E-002;-2.890267409384251E-003;-7.329708314500749E-004;
2.401833333333334E+009;1.595471054315567E-001;4.199997708201408E-002;-3.049656050279737E-003;-9.039712022058666E-004;
2.402000000000000E+009;1.598478555679321E-001;3.983826562762260E-002;-3.036780748516321E-003;-6.685319240204990E-004;
2.402166666666667E+009;1.603175699710846E-001;3.763827681541443E-002;-3.112735925242305E-003;-7.475143065676093E-004;
2.402333333333334E+009;1.606740355491638E-001;3.587974235415459E-002;-3.126518335193396E-003;-7.330633234232664E-004;
2.402500000000000E+009;1.615773439407349E-001;3.407425805926323E-002;-3.174774581566453E-003;-7.941629737615585E-004;
2.402666666666667E+009;1.622491180896759E-001;3.225004300475121E-002;-3.391083097085357E-003;-5.005315179005265E-004;
2.402833333333334E+009;1.628917008638382E-001;3.055392764508724E-002;-3.435162594541907E-003;-4.548886208795011E-004;
2.403000000000000E+009;1.637585312128067E-001;2.867990359663963E-002;-3.576801624149084E-003;-4.027271352242678E-004;
2.403166666666667E+009;1.644782423973084E-001;2.706114947795868E-002;-3.460701322183013E-003;-3.422713489271700E-004;
2.403333333333334E+009;1.653218269348145E-001;2.566235698759556E-002;-3.557546529918909E-003;-2.598362916614860E-004;
2.403500000000000E+009;1.662017703056335E-001;2.407710254192352E-002;-3.634388325735927E-003;-2.163323515560478E-004;
2.403666666666667E+009;1.670744866132736E-001;2.258072607219219E-002;-3.674936946481466E-003;1.132982797571458E-004;
2.403833333333334E+009;1.681787222623825E-001;2.134430222213268E-002;-3.804006380960345E-003;1.385931245749816E-004;
2.404000000000000E+009;1.690261214971542E-001;2.006886340677738E-002;-3.887622151523829E-003;3.158465551678091E-004;
2.404166666666667E+009;1.699683070182800E-001;1.887057535350323E-002;-3.868316998705268E-003;4.071524308528751E-004;
2.404333333333334E+009;1.710056513547897E-001;1.779638975858688E-002;-4.045007284730673E-003;7.304726168513298E-004;
2.404500000000000E+009;1.718708127737045E-001;1.660047657787800E-002;-3.963344264775515E-003;9.180203778669238E-004;
2.404666666666667E+009;1.728520393371582E-001;1.583991944789887E-002;-4.150762688368559E-003;1.099482527934015E-003;
2.404833333333334E+009;1.736982613801956E-001;1.489838119596243E-002;-3.903262550011277E-003;1.112952362746000E-003;
2.405000000000000E+009;1.746957898139954E-001;1.413316931575537E-002;-3.908532671630383E-003;1.434325706213713E-003;
2.405166666666667E+009;1.755336523056030E-001;1.344525162130594E-002;-3.921369090676308E-003;1.673032762482762E-003;
2.405333333333334E+009;1.762941181659699E-001;1.260113529860973E-002;-3.927967976778746E-003;1.693022786639631E-003;
2.405500000000000E+009;1.772872209548950E-001;1.219922211021185E-002;-3.866228740662336E-003;1.790669397450984E-003;
2.405666666666667E+009;1.779570579528809E-001;1.178922969847918E-002;-3.497414523735642E-003;1.895744586363435E-003;
2.405833333333334E+009;1.784983277320862E-001;1.131825614720583E-002;-3.735283855348826E-003;2.223842544481158E-003;
2.406000000000000E+009;1.790945380926132E-001;1.074192393571138E-002;-3.507841145619750E-003;2.564321039244533E-003;
2.406166666666667E+009;1.794693171977997E-001;1.052274089306593E-002;-3.281223354861140E-003;2.568659139797092E-003;
2.406333333333334E+009;1.800827980041504E-001;9.967621415853500E-003;-3.137150546535850E-003;2.798436675220728E-003;
2.406500000000000E+009;1.804632544517517E-001;9.621085599064827E-003;-2.970600500702858E-003;2.865015063434839E-003;
2.406666666666667E+009;1.805417984724045E-001;9.353240951895714E-003;-2.964357146993280E-003;2.916593570262194E-003;
2.406833333333334E+009;1.808962374925613E-001;9.111619554460049E-003;-2.765932818874717E-003;2.963557373732328E-003;
2.407000000000000E+009;1.810180693864822E-001;8.673384785652161E-003;-2.596595557406545E-003;3.048924030736089E-003;
2.407166666666667E+009;1.812230348587036E-001;8.396544493734837E-003;-2.600674284622073E-003;3.128177952021360E-003;
2.407333333333334E+009;1.810974031686783E-001;7.857172749936581E-003;-2.560504246503115E-003;3.215092932805419E-003;
2.407500000000000E+009;1.810010522603989E-001;7.418606430292130E-003;-2.362250350415707E-003;3.169507952407002E-003;
2.407666666666667E+009;1.808217465877533E-001;7.188803050667048E-003;-2.270074561238289E-003;3.247602609917522E-003;
2.407833333333334E+009;1.805153042078018E-001;6.622040178626776E-003;-1.913261949084699E-003;3.259462304413319E-003;
2.408000000000000E+009;1.801483929157257E-001;5.913899745792151E-003;-1.930248341523111E-003;3.463316243141890E-003;
2.408166666666667E+009;1.797425895929337E-001;5.430761724710465E-003;-1.743849832564592E-003;3.407063661143184E-003;
2.408333333333334E+009;1.794491112232208E-001;4.590057302266359E-003;-1.607256592251360E-003;3.416985506191850E-003;
2.408500000000000E+009;1.789066791534424E-001;3.853089641779661E-003;-1.614755834452808E-003;3.338391892611980E-003;
2.408666666666667E+009;1.783898174762726E-001;3.055098466575146E-003;-1.389370416291058E-003;3.425965085625649E-003;
2.408833333333334E+009;1.776922494173050E-001;2.066693967208266E-003;-1.357157831080258E-003;3.564585233107209E-003;
2.409000000000000E+009;1.770373135805130E-001;1.019587158225477E-003;-1.246953266672790E-003;3.514186479151249E-003;
2.409166666666667E+009;1.765255182981491E-001;4.879979314864613E-006;-1.102611189708114E-003;3.535233438014984E-003;
2.409333333333334E+009;1.757721006870270E-001;-1.187124871648848E-003;-9.125898941420019E-004;3.539819968864322E-003;
2.409500000000000E+009;1.750324219465256E-001;-2.589198527857661E-003;-9.023041347973049E-004;3.595003625378013E-003;
2.409666666666667E+009;1.743086129426956E-001;-3.777115372940898E-003;-7.477179751731455E-004;3.688115393742919E-003;
2.409833333333334E+009;1.735998541116715E-001;-4.982779268175364E-003;-5.564811872318387E-004;3.477248596027494E-003;
2.410000000000000E+009;1.729793995618820E-001;-6.461449898779392E-003;-5.407241405919194E-004;3.432609373703599E-003;
2.410166666666667E+009;1.722733229398727E-001;-8.151377551257610E-003;-4.608385206665844E-004;3.581745084375143E-003;
2.410333333333334E+009;1.717037260532379E-001;-9.736554697155953E-003;-2.818256616592407E-004;3.596262540668249E-003;
2.410500000000000E+009;1.711370199918747E-001;-1.142932754009962E-002;-1.406613300787285E-004;3.824407234787941E-003;
2.410666666666667E+009;1.704837530851364E-001;-1.310073863714933E-002;-9.762418630998582E-005;3.558502066880465E-003;
2.410833333333334E+009;1.701304018497467E-001;-1.487703528255224E-002;-1.072776212822646E-004;3.535639727488160E-003;
2.411000000000000E+009;1.696241497993469E-001;-1.679010316729546E-002;-3.051452222280204E-005;3.619227325543761E-003;
2.411166666666667E+009;1.692387014627457E-001;-1.855083554983139E-002;2.170014486182481E-004;3.483081236481667E-003;
2.411333333333334E+009;1.688347607851028E-001;-2.029644697904587E-002;2.395509800408036E-004;3.635307308286429E-003;
2.411500000000000E+009;1.685030013322830E-001;-2.239885181188583E-002;2.559428976383060E-004;3.531699767336249E-003;
2.411666666666667E+009;1.684331893920898E-001;-2.442312426865101E-002;4.321287851780653E-004;3.529309295117855E-003;
2.411833333333334E+009;1.683028489351273E-001;-2.618233300745487E-002;6.357540260069072E-004;3.515802789479494E-003;
2.412000000000000E+009;1.682140976190567E-001;-2.804409153759480E-002;6.471741944551468E-004;3.530028974637389E-003;
2.412166666666667E+009;1.682174801826477E-001;-3.004028834402561E-002;7.399701280519366E-004;3.570932894945145E-003;
2.412333333333334E+009;1.684500426054001E-001;-3.194631263613701E-002;8.714356808923185E-004;3.472287207841873E-003;
2.412500000000000E+009;1.684276312589645E-001;-3.379208222031593E-002;1.015157904475927E-003;3.541038604453206E-003;
2.412666666666667E+009;1.687157005071640E-001;-3.569620102643967E-002;1.174908713437617E-003;3.469611750915647E-003;
2.412833333333334E+009;1.690253913402557E-001;-3.738428652286530E-002;1.351673272438347E-003;3.461508080363274E-003;
2.413000000000000E+009;1.693005710840225E-001;-3.923328220844269E-002;1.285521662794054E-003;3.280377713963389E-003;
2.413166666666667E+009;1.698071509599686E-001;-4.095210880041122E-002;1.589683233760297E-003;3.264426486566663E-003;
2.413333333333334E+009;1.700951606035233E-001;-4.263371229171753E-002;1.818406279198825E-003;3.239510813727975E-003;
2.413500000000000E+009;1.705060005187988E-001;-4.423886537551880E-002;1.855049049481750E-003;3.183680120855570E-003;
2.413666666666667E+009;1.711898148059845E-001;-4.599492624402046E-002;1.919854898005724E-003;3.049359191209078E-003;
2.413833333333334E+009;1.715042442083359E-001;-4.732061177492142E-002;2.107296139001846E-003;3.031148342415690E-003;
2.414000000000000E+009;1.719128787517548E-001;-4.895187541842461E-002;2.235630992799997E-003;2.865111222490668E-003;
2.414166666666667E+009;1.727042943239212E-001;-5.022091418504715E-002;2.331250580027700E-003;2.801122143864632E-003;
2.414333333333334E+009;1.731870770454407E-001;-5.143062770366669E-002;2.503039082512260E-003;2.634841715916991E-003;
2.414500000000000E+009;1.737727969884872E-001;-5.263298377394676E-002;2.586286980658770E-003;2.452518558129668E-003;
2.414666666666667E+009;1.742482632398605E-001;-5.363552644848824E-002;2.607589587569237E-003;2.320114988833666E-003;
2.414833333333334E+009;1.746419370174408E-001;-5.471184477210045E-002;2.749748295173049E-003;2.332417992874980E-003;
2.415000000000000E+009;1.751850098371506E-001;-5.561619997024536E-002;2.903544344007969E-003;2.032481133937836E-003;
2.415166666666667E+009;1.755923032760620E-001;-5.632594600319862E-002;2.883099019527435E-003;1.999219879508019E-003;
2.415333333333334E+009;1.760926544666290E-001;-5.719764903187752E-002;2.882735570892692E-003;1.733692013658583E-003;
2.415500000000000E+009;1.764556914567947E-001;-5.786283314228058E-002;3.023311030119658E-003;1.573914894834161E-003;
2.415666666666667E+009;1.768340170383453E-001;-5.839268863201141E-002;2.868536394089460E-003;1.436051446944475E-003;
2.415833333333334E+009;1.771584600210190E-001;-5.897568911314011E-002;3.145124530419707E-003;1.206387998536229E-003;
2.416000000000000E+009;1.770505458116531E-001;-5.955608561635017E-002;3.023246070370078E-003;9.771407349035144E-004;
2.416166666666667E+009;1.773661077022553E-001;-5.987004935741425E-002;3.012708388268948E-003;8.681975305080414E-004;
2.416333333333334E+009;1.774084866046906E-001;-6.014024093747139E-002;2.901453524827957E-003;7.156188949011266E-004;
2.416500000000000E+009;1.773411035537720E-001;-6.055160239338875E-002;2.894994802772999E-003;5.491077317856252E-004;
2.416666666666667E+009;1.770232319831848E-001;-6.088180094957352E-002;2.871642354875803E-003;4.111021698918194E-004;
2.416833333333334E+009;1.769943982362747E-001;-6.115038320422173E-002;2.832633210346103E-003;9.892520029097796E-005;
2.417000000000000E+009;1.765998154878616E-001;-6.143958866596222E-002;2.799908630549908E-003;-2.976743189719855E-006;
2.417166666666667E+009;1.762119382619858E-001;-6.152664124965668E-002;2.540459856390953E-003;-7.281707803485915E-005;
2.417333333333334E+009;1.757204979658127E-001;-6.166427955031395E-002;2.625986933708191E-003;-5.942901771049947E-005;
2.417500000000000E+009;1.750577986240387E-001;-6.219552457332611E-002;2.458556555211544E-003;-1.138259976869449E-004;
2.417666666666667E+009;1.745709925889969E-001;-6.224035844206810E-002;2.424072707071900E-003;-3.090588434133679E-004;
2.417833333333334E+009;1.738454252481461E-001;-6.255006045103073E-002;2.167654922232032E-003;-3.879490832332522E-004;
2.418000000000000E+009;1.729025989770889E-001;-6.288198381662369E-002;1.945027033798397E-003;-4.982593818567693E-004;
2.418166666666667E+009;1.719697415828705E-001;-6.306640803813934E-002;2.036650432273746E-003;-4.895362653769553E-004;
2.418333333333334E+009;1.713164001703262E-001;-6.351838260889053E-002;2.029828494414687E-003;-5.064990837126970E-004;
2.418500000000000E+009;1.702537834644318E-001;-6.387823820114136E-002;2.021238207817078E-003;-4.120443481951952E-004;
2.418666666666667E+009;1.692704111337662E-001;-6.440641731023789E-002;1.734455581754446E-003;-4.536551423370838E-004;
2.418833333333334E+009;1.680570095777512E-001;-6.497188657522202E-002;1.709671691060066E-003;-4.254371742717922E-004;
2.419000000000000E+009;1.667973846197128E-001;-6.547471135854721E-002;1.580079668201506E-003;-4.624014254659414E-004;
2.419166666666667E+009;1.659107655286789E-001;-6.613996624946594E-002;1.464168075472117E-003;-4.258940462023020E-004;
2.419333333333334E+009;1.643530130386353E-001;-6.660470366477966E-002;1.497522578574717E-003;-2.247489755973220E-004;
2.419500000000000E+009;1.634419411420822E-001;-6.770863384008408E-002;1.342651783488691E-003;-5.004497943446040E-004;
2.419666666666667E+009;1.623048633337021E-001;-6.844311207532883E-002;1.380022149533033E-003;-4.443668876774609E-004;
2.419833333333334E+009;1.608869582414627E-001;-6.928675621747971E-002;1.355098327621818E-003;-4.584217094816268E-004;
2.420000000000000E+009;1.599785983562470E-001;-7.024479657411575E-002;1.292363740503788E-003;-4.697349504567683E-004;
2.420166666666667E+009;1.587963402271271E-001;-7.138790190219879E-002;1.283373218029738E-003;-3.015227557625622E-004;
2.420333333333334E+009;1.577214747667313E-001;-7.265176624059677E-002;1.213011564686894E-003;-3.261797537561506E-004;
2.420500000000000E+009;1.568495631217957E-001;-7.362415641546249E-002;1.234511611983180E-003;-3.953430568799377E-004;
2.420666666666667E+009;1.557049602270126E-001;-7.495893537998200E-002;1.148850540630519E-003;-2.704806101974100E-004;
2.420833333333334E+009;1.546115875244141E-001;-7.646019011735916E-002;1.238827593624592E-003;-1.036934772855602E-004;
2.421000000000000E+009;1.538314521312714E-001;-7.790790498256683E-002;1.304728677496314E-003;-1.941342052305117E-004;
2.421166666666667E+009;1.533527374267578E-001;-7.927075028419495E-002;1.079521607607603E-003;-3.014111425727606E-004;
2.421333333333334E+009;1.525182574987412E-001;-8.084370195865631E-002;1.182241016067565E-003;-3.521454636938870E-004;
2.421500000000000E+009;1.517962217330933E-001;-8.246307820081711E-002;1.248280284926295E-003;-3.316880320198834E-004;
2.421666666666667E+009;1.512896567583084E-001;-8.409889787435532E-002;1.319568720646203E-003;-2.533839433453977E-004;
2.421833333333334E+009;1.508749127388001E-001;-8.561514317989349E-002;1.237311982549727E-003;-2.461526892147958E-004;
2.422000000000000E+009;1.502351015806198E-001;-8.724310994148254E-002;1.301828073337674E-003;-4.122475802432746E-004;
2.422166666666667E+009;1.500681787729263E-001;-8.920243382453919E-002;1.234405208379030E-003;-2.720021584536880E-004;
2.422333333333334E+009;1.498034000396729E-001;-9.075530618429184E-002;1.453592674806714E-003;-2.658221928868443E-004;
2.422500000000000E+009;1.496218591928482E-001;-9.243386983871460E-002;1.160319312475622E-003;-3.788134781643748E-004;
2.422666666666667E+009;1.494689285755158E-001;-9.417105466127396E-002;1.394626218825579E-003;-3.887849743478000E-004;
2.422833333333334E+009;1.495748907327652E-001;-9.607230126857758E-002;1.181745436042547E-003;-3.902028256561607E-004;
2.423000000000000E+009;1.496646404266357E-001;-9.744039177894592E-002;1.244683400727809E-003;-5.260082543827593E-004;
2.423166666666667E+009;1.498613208532333E-001;-9.906377643346787E-002;1.351198880001903E-003;-4.380773170851171E-004;
2.423333333333334E+009;1.502049863338471E-001;-1.004083082079887E-001;1.342042465694249E-003;-5.176676786504686E-004;
2.423500000000000E+009;1.505788713693619E-001;-1.021696999669075E-001;1.254330854862928E-003;-5.506824236363173E-004;
2.423666666666667E+009;1.506471335887909E-001;-1.038405969738960E-001;1.248091110028327E-003;-5.787726840935648E-004;
2.423833333333334E+009;1.510981172323227E-001;-1.053204387426376E-001;1.356865977868438E-003;-5.212139803916216E-004;
2.424000000000000E+009;1.513992547988892E-001;-1.065994128584862E-001;1.255867187865078E-003;-6.874378304928541E-004;
2.424166666666667E+009;1.517727226018906E-001;-1.079035326838493E-001;1.227042870596051E-003;-7.221170817501843E-004;
2.424333333333334E+009;1.523293852806091E-001;-1.092538386583328E-001;1.165464520454407E-003;-6.769460742361844E-004;
2.424500000000000E+009;1.527711749076843E-001;-1.104130148887634E-001;1.157725229859352E-003;-7.292249356396496E-004;
2.424666666666667E+009;1.532792598009110E-001;-1.114058271050453E-001;1.002906239591539E-003;-6.747334264218807E-004;
2.424833333333334E+009;1.536279767751694E-001;-1.124771386384964E-001;9.137896704487503E-004;-8.981755818240345E-004;
2.425000000000000E+009;1.542604714632034E-001;-1.135170906782150E-001;1.056932727806270E-003;-7.544838590547442E-004;
2.425166666666667E+009;1.544206887483597E-001;-1.143430769443512E-001;8.479239186272025E-004;-1.003251993097365E-003;
2.425333333333334E+009;1.548262834548950E-001;-1.151596456766129E-001;9.221232612617314E-004;-9.787073358893395E-004;
2.425500000000000E+009;1.553277224302292E-001;-1.159139052033424E-001;7.689000340178609E-004;-8.683007326908410E-004;
2.425666666666667E+009;1.554319858551025E-001;-1.165738105773926E-001;7.704395684413612E-004;-9.342627017758787E-004;
2.425833333333334E+009;1.557401418685913E-001;-1.170273199677467E-001;7.369620143435895E-004;-8.261662442237139E-004;
2.426000000000000E+009;1.559971123933792E-001;-1.176714152097702E-001;7.614463102072477E-004;-9.024839964695275E-004;
2.426166666666667E+009;1.563568413257599E-001;-1.180745363235474E-001;5.039022653363645E-004;-9.781875414773822E-004;
2.426333333333334E+009;1.561568677425385E-001;-1.184086427092552E-001;5.580991855822504E-004;-8.428011788055301E-004;
2.426500000000000E+009;1.563729494810104E-001;-1.186758279800415E-001;6.092175026424229E-004;-9.820956038311124E-004;
2.426666666666667E+009;1.563064754009247E-001;-1.187716796994209E-001;5.972084472887218E-004;-9.236044134013355E-004;
2.426833333333334E+009;1.560851037502289E-001;-1.190156415104866E-001;4.943861276842654E-004;-8.823826792649925E-004;
2.427000000000000E+009;1.558176279067993E-001;-1.192850023508072E-001;5.590373766608536E-004;-8.433801122009754E-004;
2.427166666666667E+009;1.555036902427673E-001;-1.193349063396454E-001;4.287477931939066E-004;-8.132691727951169E-004;
2.427333333333334E+009;1.549511551856995E-001;-1.194896921515465E-001;3.886524646077305E-004;-7.686627795919776E-004;
2.427500000000000E+009;1.545763909816742E-001;-1.196029111742973E-001;4.955237382091582E-004;-8.294250583276153E-004;
2.427666666666667E+009;1.539045870304108E-001;-1.197456568479538E-001;3.755000361707062E-004;-7.358574657700956E-004;
