# Version 1.00
#
freq[Hz];re:Trc1_S11;im:Trc1_S11;re:Trc2_S21;im:Trc2_S21;
2.400000000000000E+009;1.562914252281189E-001;6.179463490843773E-002;-8.228630758821964E-004;4.726148676127195E-003;
2.400166666666667E+009;1.562155634164810E-001;6.006697192788124E-002;-7.892179419286549E-004;4.768615122884512E-003;
2.400333333333334E+009;1.561289727687836E-001;5.786530673503876E-002;-5.104760639369488E-004;4.625716712325811E-003;
2.400500000000000E+009;1.562295407056809E-001;5.576150491833687E-002;-4.711643559858203E-004;4.825208801776171E-003;
2.400666666666667E+009;1.562221646308899E-001;5.366244912147522E-002;-3.110967518296093E-004;4.841009620577097E-003;
2.400833333333334E+009;1.564088761806488E-001;5.174801871180534E-002;-2.183592587243766E-004;4.743432626128197E-003;
2.401000000000000E+009;1.566502600908279E-001;4.938845336437225E-002;-7.455330342054367E-005;4.738472402095795E-003;
2.401166666666667E+009;1.567649543285370E-001;4.737393558025360E-002;2.091689239023253E-004;4.682843107730150E-003;
2.401333333333334E+009;1.571886986494064E-001;4.512234032154083E-002;8.066661393968388E-005;4.951654933393002E-003;
2.401500000000000E+009;1.577285081148148E-001;4.316462203860283E-002;3.175149904564023E-004;4.764462355524302E-003;
2.401666666666667E+009;1.582291871309280E-001;4.125210270285606E-002;3.995130828116089E-004;4.593438934534788E-003;
2.401833333333334E+009;1.586532294750214E-001;3.893371298909187E-002;5.953367217443883E-004;4.743815399706364E-003;
2.402000000000000E+009;1.590359508991242E-001;3.701530769467354E-002;7.764013134874404E-004;4.824039060622454E-003;
2.402166666666667E+009;1.598676294088364E-001;3.489546105265617E-002;7.330923690460622E-004;4.874798469245434E-003;
2.402333333333334E+009;1.605435311794281E-001;3.318831324577332E-002;1.013977336697280E-003;4.769955761730671E-003;
2.402500000000000E+009;1.616052240133286E-001;3.136743232607842E-002;1.190721173770726E-003;4.579292610287666E-003;
2.402666666666667E+009;1.626360118389130E-001;2.968459762632847E-002;1.229157438501716E-003;4.742566496133804E-003;
2.402833333333334E+009;1.631859093904495E-001;2.808659709990025E-002;1.447143382392824E-003;4.814414307475090E-003;
2.403000000000000E+009;1.643635630607605E-001;2.654538676142693E-002;1.422821194864810E-003;4.629947710782290E-003;
2.403166666666667E+009;1.652099341154099E-001;2.500870637595654E-002;1.627021119929850E-003;4.685316700488329E-003;
2.403333333333334E+009;1.662901937961578E-001;2.381719462573528E-002;1.576181966811419E-003;4.726100713014603E-003;
2.403500000000000E+009;1.673593074083328E-001;2.238482236862183E-002;2.007456496357918E-003;4.650054033845663E-003;
2.403666666666667E+009;1.682343482971191E-001;2.091534808278084E-002;2.164677716791630E-003;4.482425283640623E-003;
2.403833333333334E+009;1.695355921983719E-001;1.994667574763298E-002;2.171106636524200E-003;4.600131418555975E-003;
2.404000000000000E+009;1.705150902271271E-001;1.894799619913101E-002;2.415913389995694E-003;4.599580541253090E-003;
2.404166666666667E+009;1.715563982725143E-001;1.786192320287228E-002;2.455711131915450E-003;4.500635899603367E-003;
2.404333333333334E+009;1.724362224340439E-001;1.706309989094734E-002;2.739452058449388E-003;4.542170092463493E-003;
2.404500000000000E+009;1.733985692262650E-001;1.614174619317055E-002;2.787631703540683E-003;4.460755269974470E-003;
2.404666666666667E+009;1.744288951158524E-001;1.550474017858505E-002;3.071974497288466E-003;4.364462103694677E-003;
2.404833333333334E+009;1.753855645656586E-001;1.491138432174921E-002;3.246612381190062E-003;4.218106623739004E-003;
2.405000000000000E+009;1.762612909078598E-001;1.437599118798971E-002;3.158851293846965E-003;4.444408230483532E-003;
2.405166666666667E+009;1.770301610231400E-001;1.386273652315140E-002;3.591360757127404E-003;4.002912435680628E-003;
2.405333333333334E+009;1.778672784566879E-001;1.312574651092291E-002;3.717767307534814E-003;4.100618883967400E-003;
2.405500000000000E+009;1.784180253744125E-001;1.296527497470379E-002;3.745795460417867E-003;3.919943701475859E-003;
2.405666666666667E+009;1.791546046733856E-001;1.276309415698052E-002;3.997340798377991E-003;3.896475303918123E-003;
2.405833333333334E+009;1.796055734157562E-001;1.248621381819248E-002;4.145333077758551E-003;3.619546070694923E-003;
2.406000000000000E+009;1.800767630338669E-001;1.215864531695843E-002;4.181627184152603E-003;3.503130516037345E-003;
2.406166666666667E+009;1.803664565086365E-001;1.200251094996929E-002;4.367942921817303E-003;3.491368843242526E-003;
2.406333333333334E+009;1.808103471994400E-001;1.180683169513941E-002;4.588764160871506E-003;3.252218244597316E-003;
2.406500000000000E+009;1.808737367391586E-001;1.155250519514084E-002;4.838599357753992E-003;3.181648673489690E-003;
2.406666666666667E+009;1.808200478553772E-001;1.153080165386200E-002;4.670090973377228E-003;2.986835082992911E-003;
2.406833333333334E+009;1.809751242399216E-001;1.121208630502224E-002;4.908209666609764E-003;2.690673572942615E-003;
2.407000000000000E+009;1.808650195598602E-001;1.097390521317720E-002;5.193716846406460E-003;2.679699100553989E-003;
2.407166666666667E+009;1.808383762836456E-001;1.069216243922710E-002;5.074608139693737E-003;2.444785088300705E-003;
2.407333333333334E+009;1.805391907691956E-001;1.030323654413223E-002;5.207298323512077E-003;2.112018177285790E-003;
2.407500000000000E+009;1.802154928445816E-001;9.917683899402618E-003;4.997054114937782E-003;2.084450330585241E-003;
2.407666666666667E+009;1.798420250415802E-001;9.408317506313324E-003;5.240677855908871E-003;2.047689398750663E-003;
2.407833333333334E+009;1.792789697647095E-001;8.820020593702793E-003;5.397811997681856E-003;1.644354197196662E-003;
2.408000000000000E+009;1.787976175546646E-001;8.139857091009617E-003;5.348768085241318E-003;1.467028167098761E-003;
2.408166666666667E+009;1.781788766384125E-001;7.714191451668739E-003;5.327908322215080E-003;1.293876557610929E-003;
2.408333333333334E+009;1.777725815773010E-001;6.768404971808195E-003;5.500041879713535E-003;1.073266030289233E-003;
2.408500000000000E+009;1.769520342350006E-001;5.853499285876751E-003;5.387479905039072E-003;9.243975509889424E-004;
2.408666666666667E+009;1.761533617973328E-001;4.951073322445154E-003;5.303283687680960E-003;8.679619641043246E-004;
2.408833333333334E+009;1.754675358533859E-001;3.825932741165161E-003;5.404850002378225E-003;5.220433813519776E-004;
2.409000000000000E+009;1.746161133050919E-001;2.678050659596920E-003;5.544974934309721E-003;2.697321178857237E-004;
2.409166666666667E+009;1.739127337932587E-001;1.585441525094211E-003;5.326057784259319E-003;3.278624208178371E-004;
2.409333333333334E+009;1.733144223690033E-001;-1.488059479015647E-005;5.454944446682930E-003;7.424699288094416E-005;
2.409500000000000E+009;1.725492477416992E-001;-1.453135628253222E-003;5.292660556733608E-003;-2.201669267378748E-004;
2.409666666666667E+009;1.717145293951035E-001;-2.892430638894439E-003;5.389114841818810E-003;-2.575727121438831E-004;
2.409833333333334E+009;1.709732562303543E-001;-4.458409734070301E-003;5.355648230761290E-003;-4.432834102772176E-004;
2.410000000000000E+009;1.702004522085190E-001;-5.899419542402029E-003;5.136838648468256E-003;-6.734885391779244E-004;
2.410166666666667E+009;1.696534454822540E-001;-7.739348337054253E-003;5.177503451704979E-003;-8.237088331952691E-004;
2.410333333333334E+009;1.689691841602325E-001;-9.476673789322376E-003;5.221485160291195E-003;-9.921678574755788E-004;
2.410500000000000E+009;1.685482561588287E-001;-1.148945279419422E-002;5.093210842460394E-003;-1.085357391275466E-003;
2.410666666666667E+009;1.680502146482468E-001;-1.339900493621826E-002;4.918296355754137E-003;-1.214998774230480E-003;
2.410833333333334E+009;1.677416861057282E-001;-1.526935584843159E-002;4.816093016415834E-003;-1.355464686639607E-003;
2.411000000000000E+009;1.676111966371536E-001;-1.732686534523964E-002;4.870591685175896E-003;-1.558235730044544E-003;
2.411166666666667E+009;1.673212796449661E-001;-1.945255883038044E-002;4.835778847336769E-003;-1.666335621848702E-003;
2.411333333333334E+009;1.669826060533524E-001;-2.136134542524815E-002;4.769087769091129E-003;-1.769186812452972E-003;
2.411500000000000E+009;1.667875200510025E-001;-2.345460280776024E-002;4.586802329868078E-003;-2.037727506831288E-003;
2.411666666666667E+009;1.670163869857788E-001;-2.548664994537830E-002;4.545520059764385E-003;-1.995924161747098E-003;
2.411833333333334E+009;1.670376807451248E-001;-2.753536589443684E-002;4.513595718890429E-003;-2.281189896166325E-003;
2.412000000000000E+009;1.674139797687531E-001;-2.954105474054813E-002;4.315668717026711E-003;-2.372049260884523E-003;
2.412166666666667E+009;1.673779040575028E-001;-3.150846809148789E-002;4.309854935854673E-003;-2.393620554357767E-003;
2.412333333333334E+009;1.680604666471481E-001;-3.356082364916802E-002;4.146948922425509E-003;-2.559673739597201E-003;
2.412500000000000E+009;1.680188328027725E-001;-3.536255285143852E-002;4.035187419503927E-003;-2.540384652093053E-003;
2.412666666666667E+009;1.687060743570328E-001;-3.747966885566711E-002;3.853211412206292E-003;-2.743374556303024E-003;
2.412833333333334E+009;1.692984551191330E-001;-3.938149288296700E-002;3.909420222043991E-003;-2.794862026348710E-003;
2.413000000000000E+009;1.697551608085632E-001;-4.110532253980637E-002;3.694946179166436E-003;-2.748296596109867E-003;
2.413166666666667E+009;1.703908294439316E-001;-4.290897026658058E-002;3.597637405619025E-003;-3.104822477325797E-003;
2.413333333333334E+009;1.708795577287674E-001;-4.448116943240166E-002;3.592207562178373E-003;-3.088795579969883E-003;
2.413500000000000E+009;1.713342368602753E-001;-4.594707489013672E-002;3.516466356813908E-003;-3.121446818113327E-003;
2.413666666666667E+009;1.721966862678528E-001;-4.753158986568451E-002;3.291827160865068E-003;-3.192974952980876E-003;
2.413833333333334E+009;1.729416400194168E-001;-4.883878678083420E-002;3.069345373660326E-003;-3.341945586726070E-003;
2.414000000000000E+009;1.733691245317459E-001;-5.037239566445351E-002;3.163144923746586E-003;-3.274428658187389E-003;
2.414166666666667E+009;1.741171330213547E-001;-5.140474438667297E-002;2.951949834823608E-003;-3.473231568932533E-003;
2.414333333333334E+009;1.746578663587570E-001;-5.264198035001755E-002;2.841362729668617E-003;-3.600560827180743E-003;
2.414500000000000E+009;1.755906045436859E-001;-5.360122770071030E-002;2.756082452833653E-003;-3.651699516922236E-003;
2.414666666666667E+009;1.761350631713867E-001;-5.447340011596680E-002;2.610580762848258E-003;-3.566099796444178E-003;
2.414833333333334E+009;1.764949858188629E-001;-5.536118522286415E-002;2.453203778713942E-003;-3.766590030863881E-003;
2.415000000000000E+009;1.770157814025879E-001;-5.598064512014389E-002;2.364929765462875E-003;-3.715298604220152E-003;
2.415166666666667E+009;1.775308251380920E-001;-5.674496293067932E-002;2.290741307660937E-003;-3.914528060704470E-003;
2.415333333333334E+009;1.780835986137390E-001;-5.736558511853218E-002;2.253562677651644E-003;-3.942694514989853E-003;
2.415500000000000E+009;1.784128993749619E-001;-5.763352289795876E-002;2.062109997496009E-003;-3.963558934628964E-003;
2.415666666666667E+009;1.784950643777847E-001;-5.807410553097725E-002;2.061308827251196E-003;-3.991171251982451E-003;
2.415833333333334E+009;1.787967979907990E-001;-5.849762633442879E-002;1.879689283668995E-003;-4.041389562189579E-003;
2.416000000000000E+009;1.786389201879501E-001;-5.879120901226997E-002;1.784998341463506E-003;-4.181092139333487E-003;
2.416166666666667E+009;1.789315938949585E-001;-5.894698202610016E-002;1.565639744512737E-003;-4.088256973773241E-003;
2.416333333333334E+009;1.787615418434143E-001;-5.911950767040253E-002;1.452813739888370E-003;-4.235653206706047E-003;
2.416500000000000E+009;1.786769032478333E-001;-5.945560336112976E-002;1.305965008214116E-003;-4.218443762511015E-003;
2.416666666666667E+009;1.783238500356674E-001;-5.946690216660500E-002;1.172907068394125E-003;-4.253082443028688E-003;
2.416833333333334E+009;1.780712604522705E-001;-5.972129106521606E-002;1.104995608329773E-003;-4.114802926778793E-003;
2.417000000000000E+009;1.773858070373535E-001;-5.974242091178894E-002;7.585617131553590E-004;-4.267707932740450E-003;
2.417166666666667E+009;1.768193542957306E-001;-5.978344380855560E-002;6.868897471576929E-004;-4.164332523941994E-003;
2.417333333333334E+009;1.762399673461914E-001;-5.989490449428558E-002;6.484559271484613E-004;-4.167314618825913E-003;
2.417500000000000E+009;1.753971427679062E-001;-6.032045558094978E-002;4.790999519173056E-004;-4.077299498021603E-003;
2.417666666666667E+009;1.746308803558350E-001;-6.023072451353073E-002;3.929550293833017E-004;-4.091077949851751E-003;
2.417833333333334E+009;1.737672239542007E-001;-6.059603393077850E-002;2.741899515967816E-004;-4.149386193603277E-003;
2.418000000000000E+009;1.726223230361939E-001;-6.102507561445236E-002;2.419800730422139E-004;-4.020745866000652E-003;
2.418166666666667E+009;1.715259402990341E-001;-6.100215390324593E-002;-1.345316559309140E-004;-3.892733948305249E-003;
2.418333333333334E+009;1.707700937986374E-001;-6.143007427453995E-002;-1.613597851246595E-004;-3.888078732416034E-003;
2.418500000000000E+009;1.694581061601639E-001;-6.199507787823677E-002;-1.676053216215223E-004;-4.019626416265965E-003;
2.418666666666667E+009;1.683593094348908E-001;-6.255734711885452E-002;-3.773022617679089E-004;-3.920010756701231E-003;
2.418833333333334E+009;1.668881326913834E-001;-6.308609247207642E-002;-3.282360848970711E-004;-3.875900059938431E-003;
2.419000000000000E+009;1.655106544494629E-001;-6.384941935539246E-002;-4.645294684451073E-004;-3.864536061882973E-003;
2.419166666666667E+009;1.642974019050598E-001;-6.457117944955826E-002;-5.561877042055130E-004;-3.710745600983501E-003;
2.419333333333334E+009;1.627083569765091E-001;-6.517396122217178E-002;-7.180689135566354E-004;-3.742614062502980E-003;
2.419500000000000E+009;1.616269648075104E-001;-6.617100536823273E-002;-7.413377170450985E-004;-3.658246947452426E-003;
2.419666666666667E+009;1.604973226785660E-001;-6.727172434329987E-002;-8.082898566499353E-004;-3.609642153605819E-003;
2.419833333333334E+009;1.590152382850647E-001;-6.806858628988266E-002;-8.420105441473424E-004;-3.524644533172250E-003;
2.420000000000000E+009;1.579712778329849E-001;-6.932019442319870E-002;-8.412076276727021E-004;-3.474342403933406E-003;
2.420166666666667E+009;1.566933393478394E-001;-7.081924378871918E-002;-9.904556209221482E-004;-3.573505906388164E-003;
2.420333333333334E+009;1.557525545358658E-001;-7.190752029418945E-002;-1.124618109315634E-003;-3.429311560466886E-003;
2.420500000000000E+009;1.548103988170624E-001;-7.317283749580383E-002;-1.119629712775350E-003;-3.305389778688550E-003;
2.420666666666667E+009;1.536432057619095E-001;-7.474026083946228E-002;-1.318032620474696E-003;-3.242747858166695E-003;
2.420833333333334E+009;1.528807878494263E-001;-7.621088624000549E-002;-1.291974913328886E-003;-3.240060294046998E-003;
2.421000000000000E+009;1.518625915050507E-001;-7.797257602214813E-002;-1.379891647957265E-003;-3.243961371481419E-003;
2.421166666666667E+009;1.513745337724686E-001;-7.948252558708191E-002;-1.246050116606057E-003;-2.990379696711898E-003;
2.421333333333334E+009;1.506928950548172E-001;-8.114399760961533E-002;-1.447216724045575E-003;-3.078575478866696E-003;
2.421500000000000E+009;1.499405801296234E-001;-8.279930800199509E-002;-1.609756844118238E-003;-3.071196610108018E-003;
2.421666666666667E+009;1.494914442300797E-001;-8.457533270120621E-002;-1.673719729296863E-003;-2.930685412138701E-003;
2.421833333333334E+009;1.492051929235458E-001;-8.630330115556717E-002;-1.646709162741900E-003;-2.951059723272920E-003;
2.422000000000000E+009;1.488315463066101E-001;-8.813389390707016E-002;-1.756795216351748E-003;-3.048585029318929E-003;
2.422166666666667E+009;1.487090289592743E-001;-9.002026915550232E-002;-1.751573523506522E-003;-2.768073463812470E-003;
2.422333333333334E+009;1.486403346061707E-001;-9.166411310434341E-002;-1.779949991032481E-003;-2.794566564261913E-003;
2.422500000000000E+009;1.486027389764786E-001;-9.345617145299912E-002;-2.008996671065688E-003;-2.782862400636077E-003;
2.422666666666667E+009;1.486773043870926E-001;-9.534329175949097E-002;-1.971719320863485E-003;-2.669882727786899E-003;
2.422833333333334E+009;1.488254666328430E-001;-9.706443548202515E-002;-1.948337070643902E-003;-2.669651992619038E-003;
2.423000000000000E+009;1.489763706922531E-001;-9.866742789745331E-002;-2.117832656949759E-003;-2.680190140381455E-003;
2.423166666666667E+009;1.493567526340485E-001;-1.003353968262672E-001;-2.253945218399167E-003;-2.365778665989637E-003;
2.423333333333334E+009;1.498675942420960E-001;-1.018319651484489E-001;-2.321763895452023E-003;-2.580146538093686E-003;
2.423500000000000E+009;1.501478105783463E-001;-1.033884808421135E-001;-2.250119345262647E-003;-2.400131663307548E-003;
2.423666666666667E+009;1.505541801452637E-001;-1.050559431314468E-001;-2.553641330450773E-003;-2.268637996166945E-003;
2.423833333333334E+009;1.511117666959763E-001;-1.063872650265694E-001;-2.460720716044307E-003;-2.462702803313732E-003;
2.424000000000000E+009;1.515447348356247E-001;-1.074915975332260E-001;-2.571573015302420E-003;-1.994688296690583E-003;
2.424166666666667E+009;1.522732824087143E-001;-1.088919341564179E-001;-2.596926642581821E-003;-2.097159856930375E-003;
2.424333333333334E+009;1.527827829122543E-001;-1.099489033222199E-001;-2.649244386702776E-003;-1.888102968223393E-003;
2.424500000000000E+009;1.533679664134979E-001;-1.110876649618149E-001;-2.746906597167254E-003;-1.798810320906341E-003;
2.424666666666667E+009;1.540227085351944E-001;-1.119752451777458E-001;-2.809951780363917E-003;-1.663868548348546E-003;
2.424833333333334E+009;1.543962657451630E-001;-1.128702312707901E-001;-2.978545380756259E-003;-1.681918511167169E-003;
2.425000000000000E+009;1.550518870353699E-001;-1.137106865644455E-001;-2.883049892261624E-003;-1.431100536137819E-003;
2.425166666666667E+009;1.553135216236115E-001;-1.144495904445648E-001;-2.921798964962363E-003;-1.317924587056041E-003;
2.425333333333334E+009;1.558272689580917E-001;-1.151535585522652E-001;-2.894504461437464E-003;-1.363840885460377E-003;
2.425500000000000E+009;1.563817262649536E-001;-1.157157272100449E-001;-2.848365576937795E-003;-9.803000139072537E-004;
2.425666666666667E+009;1.564661860466003E-001;-1.162307038903236E-001;-2.949018031358719E-003;-1.084695919416845E-003;
2.425833333333334E+009;1.569128632545471E-001;-1.166668236255646E-001;-2.972391201183200E-003;-9.048098581843078E-004;
2.426000000000000E+009;1.570123732089996E-001;-1.171982884407044E-001;-2.927812514826655E-003;-7.043806836009026E-004;
2.426166666666667E+009;1.573240011930466E-001;-1.173295080661774E-001;-2.817306900396943E-003;-6.428654305636883E-004;
2.426333333333334E+009;1.571314483880997E-001;-1.175694987177849E-001;-2.785344375297427E-003;-5.632631364278495E-004;
2.426500000000000E+009;1.571872383356094E-001;-1.177019178867340E-001;-2.642199164256454E-003;-4.289969219826162E-004;
2.426666666666667E+009;1.571133136749268E-001;-1.176441162824631E-001;-2.644359599798918E-003;-3.346331650391221E-004;
2.426833333333334E+009;1.567476093769074E-001;-1.178048029541969E-001;-2.602116204798222E-003;-3.480832965578884E-004;
2.427000000000000E+009;1.564884483814240E-001;-1.179594770073891E-001;-2.613485092297196E-003;-2.462998963892460E-004;
2.427166666666667E+009;1.559324711561203E-001;-1.178381294012070E-001;-2.612742595374584E-003;-4.496942347032018E-005;
2.427333333333334E+009;1.553885489702225E-001;-1.180166155099869E-001;-2.477191155776382E-003;-2.049762770184316E-005;
2.427500000000000E+009;1.548798531293869E-001;-1.179510653018951E-001;-2.444238401949406E-003;1.044657474267297E-004;
2.427666666666667E+009;1.541325300931931E-001;-1.181285753846169E-001;-2.374128205701709E-003;-5.065753430244513E-005;
