# Version 1.00
#
freq[Hz];re:Trc1_S11;im:Trc1_S11;re:Trc2_S21;im:Trc2_S21;
2.400000000000000E+009;1.561754494905472E-001;6.171448156237602E-002;-7.776485290378332E-004;4.636482335627079E-003;
2.400166666666667E+009;1.564070582389832E-001;5.979699641466141E-002;-8.150943322107196E-004;4.875798244029284E-003;
2.400333333333334E+009;1.558602303266525E-001;5.781136825680733E-002;-6.389683112502098E-004;4.783969838172197E-003;
2.400500000000000E+009;1.561018824577332E-001;5.583629757165909E-002;-3.911717212758958E-004;4.729142412543297E-003;
2.400666666666667E+009;1.560708135366440E-001;5.372839793562889E-002;-3.962123591918498E-004;4.800225142389536E-003;
2.400833333333334E+009;1.564989537000656E-001;5.174754932522774E-002;-3.527535882312805E-004;4.744165111333132E-003;
2.401000000000000E+009;1.564053446054459E-001;4.937939345836639E-002;-4.566700590658002E-005;4.798141308128834E-003;
2.401166666666667E+009;1.568188220262528E-001;4.733224213123322E-002;-6.703074905090034E-005;4.617897793650627E-003;
2.401333333333334E+009;1.570924520492554E-001;4.516426473855972E-002;1.302344317082316E-004;4.690580070018768E-003;
2.401500000000000E+009;1.576950997114182E-001;4.313354194164276E-002;2.067293971776962E-004;4.627137444913387E-003;
2.401666666666667E+009;1.580532938241959E-001;4.109200462698937E-002;2.990698267240077E-004;4.801304079592228E-003;
2.401833333333334E+009;1.586147695779800E-001;3.893099725246429E-002;5.756131722591817E-004;4.715865943580866E-003;
2.402000000000000E+009;1.592223048210144E-001;3.689222782850266E-002;5.265815998427570E-004;4.873136058449745E-003;
2.402166666666667E+009;1.598381102085114E-001;3.481512144207954E-002;7.758336723782122E-004;4.814041312783957E-003;
2.402333333333334E+009;1.605211496353149E-001;3.314220532774925E-002;8.067300659604371E-004;4.827732685953379E-003;
2.402500000000000E+009;1.613825708627701E-001;3.132930025458336E-002;8.847606950439513E-004;4.798531997948885E-003;
2.402666666666667E+009;1.623776257038117E-001;2.949127554893494E-002;1.225608517415822E-003;4.749543499201536E-003;
2.402833333333334E+009;1.632413119077683E-001;2.808600291609764E-002;1.095205079764128E-003;4.755171481519938E-003;
2.403000000000000E+009;1.640837788581848E-001;2.642881684005261E-002;1.413351856172085E-003;4.720858298242092E-003;
2.403166666666667E+009;1.651270836591721E-001;2.489597722887993E-002;1.391798723489046E-003;4.632448777556419E-003;
2.403333333333334E+009;1.659502089023590E-001;2.371495030820370E-002;1.557966228574514E-003;4.717902280390263E-003;
2.403500000000000E+009;1.672536879777908E-001;2.231716178357601E-002;1.713903038762510E-003;4.897756036370993E-003;
2.403666666666667E+009;1.680601686239243E-001;2.072538249194622E-002;2.108162967488170E-003;4.596722777932882E-003;
2.403833333333334E+009;1.692063659429550E-001;1.986106485128403E-002;1.950365141965449E-003;4.560645669698715E-003;
2.404000000000000E+009;1.704328954219818E-001;1.877976395189762E-002;2.230627229437232E-003;4.606942180544138E-003;
2.404166666666667E+009;1.714110076427460E-001;1.784384623169899E-002;2.467053011059761E-003;4.457061178982258E-003;
2.404333333333334E+009;1.724333167076111E-001;1.711580716073513E-002;2.354625612497330E-003;4.427948500961065E-003;
2.404500000000000E+009;1.732643246650696E-001;1.611727662384510E-002;2.808236517012119E-003;4.362113308161497E-003;
2.404666666666667E+009;1.743824183940888E-001;1.548936031758785E-002;2.994295209646225E-003;4.452764056622982E-003;
2.404833333333334E+009;1.751980483531952E-001;1.495880540460348E-002;3.039487637579441E-003;4.413102287799120E-003;
2.405000000000000E+009;1.761310249567032E-001;1.428472623229027E-002;3.289415035396814E-003;4.211620427668095E-003;
2.405166666666667E+009;1.770766824483872E-001;1.375660020858049E-002;3.324216930195689E-003;4.287074785679579E-003;
2.405333333333334E+009;1.777348667383194E-001;1.329194474965334E-002;3.562076017260552E-003;3.974645864218473E-003;
2.405500000000000E+009;1.784034222364426E-001;1.303170062601566E-002;3.706132993102074E-003;4.107938613742590E-003;
2.405666666666667E+009;1.791158467531204E-001;1.274390239268541E-002;3.841894445940852E-003;3.792851930484176E-003;
2.405833333333334E+009;1.795630306005478E-001;1.262571103870869E-002;4.053769167512655E-003;3.789620241150260E-003;
2.406000000000000E+009;1.799813956022263E-001;1.225129142403603E-002;4.272023215889931E-003;3.525318577885628E-003;
2.406166666666667E+009;1.803298592567444E-001;1.199427805840969E-002;4.449424799531698E-003;3.402590751647949E-003;
2.406333333333334E+009;1.807214319705963E-001;1.184928975999355E-002;4.450768232345581E-003;3.289405955001712E-003;
2.406500000000000E+009;1.807550340890884E-001;1.162739191204310E-002;4.439891781657934E-003;3.165818285197020E-003;
2.406666666666667E+009;1.808624416589737E-001;1.153565570712090E-002;4.542649723589420E-003;3.117260057479143E-003;
2.406833333333334E+009;1.809981614351273E-001;1.113581750541925E-002;4.745877347886562E-003;2.845033770427108E-003;
2.407000000000000E+009;1.809278428554535E-001;1.098845712840557E-002;4.871813114732504E-003;2.684080041944981E-003;
2.407166666666667E+009;1.807976663112640E-001;1.073075365275145E-002;5.021654535084963E-003;2.494867192581296E-003;
2.407333333333334E+009;1.804618984460831E-001;1.029827538877726E-002;4.967618267983198E-003;2.300539053976536E-003;
2.407500000000000E+009;1.801565736532211E-001;9.869496338069439E-003;5.202041473239660E-003;2.157426439225674E-003;
2.407666666666667E+009;1.797669231891632E-001;9.535736404359341E-003;5.262127146124840E-003;1.955310814082623E-003;
2.407833333333334E+009;1.791787743568420E-001;8.873555809259415E-003;5.114004947245121E-003;1.711887773126364E-003;
2.408000000000000E+009;1.787122488021851E-001;8.235197514295578E-003;5.282361526042223E-003;1.576384645886719E-003;
2.408166666666667E+009;1.781935393810272E-001;7.630527019500732E-003;5.310091655701399E-003;1.329290680587292E-003;
2.408333333333334E+009;1.776649951934815E-001;6.796197500079870E-003;5.345864687114954E-003;1.169009832665324E-003;
2.408500000000000E+009;1.770515888929367E-001;5.933236796408892E-003;5.320942960679531E-003;1.075690146535635E-003;
2.408666666666667E+009;1.762336045503616E-001;4.906852263957262E-003;5.247629713267088E-003;9.186695679090917E-004;
2.408833333333334E+009;1.753800809383392E-001;3.881942247971892E-003;5.352993495762348E-003;7.031880086287856E-004;
2.409000000000000E+009;1.746407896280289E-001;2.653900301083922E-003;5.519380792975426E-003;6.128774839453399E-004;
2.409166666666667E+009;1.738453358411789E-001;1.325023244135082E-003;5.494150333106518E-003;4.028294351883233E-004;
2.409333333333334E+009;1.732251942157745E-001;2.228951925644651E-004;5.273890215903521E-003;8.272789273178205E-005;
2.409500000000000E+009;1.723454296588898E-001;-1.461598440073431E-003;5.268111824989319E-003;-6.381257844623178E-005;
2.409666666666667E+009;1.714625656604767E-001;-2.895549405366182E-003;5.383237730711699E-003;-1.802067272365093E-004;
2.409833333333334E+009;1.708464324474335E-001;-4.336421377956867E-003;5.194616969674826E-003;-3.247272979933769E-004;
2.410000000000000E+009;1.702351868152618E-001;-5.856317933648825E-003;5.222400650382042E-003;-5.164733156561852E-004;
2.410166666666667E+009;1.696643680334091E-001;-7.793144788593054E-003;5.250104237347841E-003;-6.102784536778927E-004;
2.410333333333334E+009;1.689804345369339E-001;-9.475952014327049E-003;5.060140043497086E-003;-9.035778930410743E-004;
2.410500000000000E+009;1.685576438903809E-001;-1.142700947821140E-002;5.070128943771124E-003;-8.548320620320737E-004;
2.410666666666667E+009;1.679361760616303E-001;-1.336659956723452E-002;4.960787948220968E-003;-1.065380056388676E-003;
2.410833333333334E+009;1.676884889602661E-001;-1.523337885737419E-002;4.978279583156109E-003;-1.269182772375643E-003;
2.411000000000000E+009;1.673811525106430E-001;-1.723821461200714E-002;4.817110020667315E-003;-1.481409068219364E-003;
2.411166666666667E+009;1.671625524759293E-001;-1.939193904399872E-002;4.863672424107790E-003;-1.613573986105621E-003;
2.411333333333334E+009;1.669939756393433E-001;-2.140536345541477E-002;4.679037723690271E-003;-1.737814163789153E-003;
2.411500000000000E+009;1.666637510061264E-001;-2.344362437725067E-002;4.555474501103163E-003;-1.814332907088101E-003;
2.411666666666667E+009;1.668397933244705E-001;-2.558721415698528E-002;4.394166171550751E-003;-1.921310438774526E-003;
2.411833333333334E+009;1.670349240303040E-001;-2.752367779612541E-002;4.509642720222473E-003;-2.045092172920704E-003;
2.412000000000000E+009;1.671244502067566E-001;-2.960367500782013E-002;4.253525752574205E-003;-2.089027548208833E-003;
2.412166666666667E+009;1.671969294548035E-001;-3.148701041936874E-002;4.199564922600985E-003;-2.205520169809461E-003;
2.412333333333334E+009;1.678027361631393E-001;-3.350031003355980E-002;4.002648405730724E-003;-2.434228314086795E-003;
2.412500000000000E+009;1.679966002702713E-001;-3.543998673558235E-002;3.977160435169935E-003;-2.417089650407434E-003;
2.412666666666667E+009;1.686110496520996E-001;-3.734892234206200E-002;3.856155322864652E-003;-2.546167699620128E-003;
2.412833333333334E+009;1.691430062055588E-001;-3.907099366188049E-002;3.905260469764471E-003;-2.718199277296662E-003;
2.413000000000000E+009;1.696482747793198E-001;-4.102060571312904E-002;3.652029205113649E-003;-2.814079169183970E-003;
2.413166666666667E+009;1.702960878610611E-001;-4.277114570140839E-002;3.551663598045707E-003;-2.885372843593359E-003;
2.413333333333334E+009;1.707617491483688E-001;-4.444610327482224E-002;3.361093346029520E-003;-2.944922307506204E-003;
2.413500000000000E+009;1.715105921030045E-001;-4.589102417230606E-002;3.368938574567437E-003;-3.108856035396457E-003;
2.413666666666667E+009;1.720213592052460E-001;-4.744048044085503E-002;3.343331627547741E-003;-3.111638827249408E-003;
2.413833333333334E+009;1.727025955915451E-001;-4.876352474093437E-002;3.304415615275502E-003;-3.231123322620988E-003;
2.414000000000000E+009;1.733583509922028E-001;-5.017337203025818E-002;3.086365293711424E-003;-3.325693076476455E-003;
2.414166666666667E+009;1.740379631519318E-001;-5.131941661238670E-002;3.112647216767073E-003;-3.361017908900976E-003;
2.414333333333334E+009;1.747038960456848E-001;-5.236357077956200E-002;2.979536307975650E-003;-3.383228089660406E-003;
2.414500000000000E+009;1.754621863365173E-001;-5.348870158195496E-002;2.869851421564817E-003;-3.517479868605733E-003;
2.414666666666667E+009;1.760939657688141E-001;-5.432084947824478E-002;2.741686999797821E-003;-3.512776223942637E-003;
2.414833333333334E+009;1.766625493764877E-001;-5.519981682300568E-002;2.707952633500099E-003;-3.534332383424044E-003;
2.415000000000000E+009;1.769602596759796E-001;-5.584786832332611E-002;2.514586783945561E-003;-3.563029458746314E-003;
2.415166666666667E+009;1.774663180112839E-001;-5.656146630644798E-002;2.443537581712008E-003;-3.919201437383890E-003;
2.415333333333334E+009;1.779321581125259E-001;-5.720943212509155E-002;2.356253564357758E-003;-3.954984247684479E-003;
2.415500000000000E+009;1.782366484403610E-001;-5.761810392141342E-002;2.142815850675106E-003;-3.832916961982846E-003;
2.415666666666667E+009;1.784775108098984E-001;-5.799158662557602E-002;2.033532829955220E-003;-3.914215136319399E-003;
2.415833333333334E+009;1.787424087524414E-001;-5.846690386533737E-002;1.899166963994503E-003;-4.133000504225493E-003;
2.416000000000000E+009;1.788621246814728E-001;-5.865751206874847E-002;1.777039375156164E-003;-4.105992615222931E-003;
2.416166666666667E+009;1.789146065711975E-001;-5.887816473841667E-002;1.649408950470388E-003;-4.134887829422951E-003;
2.416333333333334E+009;1.788555234670639E-001;-5.913337692618370E-002;1.475268974900246E-003;-4.192379303276539E-003;
2.416500000000000E+009;1.786164790391922E-001;-5.939321219921112E-002;1.330964616499841E-003;-4.193074069917202E-003;
2.416666666666667E+009;1.782498806715012E-001;-5.940907076001167E-002;1.302808872424066E-003;-4.173067398369312E-003;
2.416833333333334E+009;1.779577881097794E-001;-5.961885303258896E-002;1.120270462706685E-003;-4.222655203193426E-003;
2.417000000000000E+009;1.774263083934784E-001;-5.980363115668297E-002;8.817145135253668E-004;-4.279923625290394E-003;
2.417166666666667E+009;1.768497675657272E-001;-5.985083803534508E-002;8.866746211424470E-004;-4.266209900379181E-003;
2.417333333333334E+009;1.764163374900818E-001;-6.002706661820412E-002;7.319435244426131E-004;-4.223526455461979E-003;
2.417500000000000E+009;1.755406558513641E-001;-6.036900356411934E-002;4.157111397944391E-004;-4.187332000583410E-003;
2.417666666666667E+009;1.747323870658875E-001;-6.036464497447014E-002;3.727708244696260E-004;-4.207359626889229E-003;
2.417833333333334E+009;1.737723350524902E-001;-6.057231500744820E-002;3.390871570445597E-004;-4.119146615266800E-003;
2.418000000000000E+009;1.726499795913696E-001;-6.098096072673798E-002;1.633418432902545E-004;-4.220282658934593E-003;
2.418166666666667E+009;1.717082411050797E-001;-6.107690557837486E-002;1.494647149229422E-004;-4.179112613201141E-003;
2.418333333333334E+009;1.707226186990738E-001;-6.145310401916504E-002;-2.251279802294448E-004;-3.983151167631149E-003;
2.418500000000000E+009;1.694989949464798E-001;-6.207086518406868E-002;-2.817557251546532E-004;-3.879970638081431E-003;
2.418666666666667E+009;1.682686805725098E-001;-6.252411007881165E-002;-4.139812372159213E-004;-4.057631827890873E-003;
2.418833333333334E+009;1.667882800102234E-001;-6.316591054201126E-002;-3.480524756014347E-004;-3.992261830717325E-003;
2.419000000000000E+009;1.656186133623123E-001;-6.365025788545609E-002;-5.454531637951732E-004;-3.837906057015061E-003;
2.419166666666667E+009;1.643549948930740E-001;-6.451097875833511E-002;-5.744747468270361E-004;-3.866682294756174E-003;
2.419333333333334E+009;1.629233807325363E-001;-6.515837460756302E-002;-6.859760615043342E-004;-3.770809620618820E-003;
2.419500000000000E+009;1.617222428321838E-001;-6.629317253828049E-002;-7.534009637311101E-004;-3.850532462820411E-003;
2.419666666666667E+009;1.604466140270233E-001;-6.725397706031799E-002;-8.395868353545666E-004;-3.546116873621941E-003;
2.419833333333334E+009;1.590102016925812E-001;-6.818444281816483E-002;-8.761603967286646E-004;-3.607779974117875E-003;
2.420000000000000E+009;1.579733937978745E-001;-6.939654052257538E-002;-9.788788156583905E-004;-3.562607802450657E-003;
2.420166666666667E+009;1.567640900611877E-001;-7.080241292715073E-002;-1.241493038833141E-003;-3.459938801825047E-003;
2.420333333333334E+009;1.557722538709641E-001;-7.201663404703140E-002;-9.175641462206841E-004;-3.530077403411269E-003;
2.420500000000000E+009;1.547663956880570E-001;-7.325803488492966E-002;-1.193508272990584E-003;-3.441197099164128E-003;
2.420666666666667E+009;1.535862237215042E-001;-7.475818693637848E-002;-1.310401363298297E-003;-3.251455025747418E-003;
2.420833333333334E+009;1.527015119791031E-001;-7.628756761550903E-002;-1.290049869567156E-003;-3.179554594680667E-003;
2.421000000000000E+009;1.519463658332825E-001;-7.785823196172714E-002;-1.321895280852914E-003;-3.120737383142114E-003;
2.421166666666667E+009;1.511783003807068E-001;-7.958504557609558E-002;-1.303033903241158E-003;-3.030149266123772E-003;
2.421333333333334E+009;1.507033258676529E-001;-8.122386783361435E-002;-1.484750071540475E-003;-3.105872077867389E-003;
2.421500000000000E+009;1.499973982572556E-001;-8.279505372047424E-002;-1.380676170811057E-003;-2.954689553007484E-003;
2.421666666666667E+009;1.495049297809601E-001;-8.477222174406052E-002;-1.584055367857218E-003;-2.821433125063777E-003;
2.421833333333334E+009;1.491544544696808E-001;-8.652303367853165E-002;-1.672614831477404E-003;-2.949306508526206E-003;
2.422000000000000E+009;1.488410979509354E-001;-8.823193609714508E-002;-1.655024476349354E-003;-2.869362477213144E-003;
2.422166666666667E+009;1.486111879348755E-001;-9.017024934291840E-002;-1.763946027494967E-003;-2.965648891404271E-003;
2.422333333333334E+009;1.485511660575867E-001;-9.159219264984131E-002;-1.854360802099109E-003;-2.930792514234781E-003;
2.422500000000000E+009;1.486013233661652E-001;-9.346865862607956E-002;-1.962973969057202E-003;-2.763194032013416E-003;
2.422666666666667E+009;1.486184000968933E-001;-9.528169035911560E-002;-1.919645816087723E-003;-2.768930513411760E-003;
2.422833333333334E+009;1.487013399600983E-001;-9.703546762466431E-002;-1.968302996829152E-003;-2.732547931373119E-003;
2.423000000000000E+009;1.490375846624374E-001;-9.868674725294113E-002;-2.075772965326905E-003;-2.799583831802011E-003;
2.423166666666667E+009;1.493767201900482E-001;-1.003974303603172E-001;-2.097462303936482E-003;-2.649847418069840E-003;
2.423333333333334E+009;1.497961878776550E-001;-1.017628833651543E-001;-2.216563792899251E-003;-2.512973500415683E-003;
2.423500000000000E+009;1.501526832580566E-001;-1.034968495368958E-001;-2.277759369462729E-003;-2.393454080447555E-003;
2.423666666666667E+009;1.505257785320282E-001;-1.050723865628243E-001;-2.330265939235687E-003;-2.286043250933290E-003;
2.423833333333334E+009;1.512551456689835E-001;-1.063370108604431E-001;-2.449366031214595E-003;-2.204482909291983E-003;
2.424000000000000E+009;1.515630185604096E-001;-1.075159236788750E-001;-2.642052015289664E-003;-2.230026759207249E-003;
2.424166666666667E+009;1.521612405776978E-001;-1.089165806770325E-001;-2.550440141931176E-003;-2.025856403633952E-003;
2.424333333333334E+009;1.528468132019043E-001;-1.099687218666077E-001;-2.745762933045626E-003;-2.158499090000987E-003;
2.424500000000000E+009;1.533170640468597E-001;-1.110771819949150E-001;-2.753302920609713E-003;-1.918528345413506E-003;
2.424666666666667E+009;1.540781557559967E-001;-1.119583100080490E-001;-2.909217728301883E-003;-1.706178882159293E-003;
2.424833333333334E+009;1.545149534940720E-001;-1.129279956221581E-001;-2.721985569223762E-003;-1.652066712267697E-003;
2.425000000000000E+009;1.550491899251938E-001;-1.137936115264893E-001;-2.825406845659018E-003;-1.555325346998870E-003;
2.425166666666667E+009;1.553881764411926E-001;-1.145266070961952E-001;-2.895709360018373E-003;-1.434281701222062E-003;
2.425333333333334E+009;1.558822691440582E-001;-1.150978654623032E-001;-2.910752082243562E-003;-1.279011834412813E-003;
2.425500000000000E+009;1.563722193241119E-001;-1.157755777239800E-001;-2.922514453530312E-003;-1.240308745764196E-003;
2.425666666666667E+009;1.564582735300064E-001;-1.162879094481468E-001;-2.884968416765332E-003;-1.151915639638901E-003;
2.425833333333334E+009;1.567627042531967E-001;-1.166354045271874E-001;-2.853201003745198E-003;-1.187587040476501E-003;
2.426000000000000E+009;1.569733470678330E-001;-1.170468553900719E-001;-2.885610563680530E-003;-9.023901075124741E-004;
2.426166666666667E+009;1.572727710008621E-001;-1.175188645720482E-001;-2.839416963979602E-003;-6.121983751654625E-004;
2.426333333333334E+009;1.572548896074295E-001;-1.176522150635719E-001;-2.695556031540036E-003;-6.273832404986024E-004;
2.426500000000000E+009;1.571644842624664E-001;-1.177212074398994E-001;-2.679936820641160E-003;-4.267835174687207E-004;
2.426666666666667E+009;1.571335196495056E-001;-1.177789717912674E-001;-2.904207212850452E-003;-4.798569716513157E-004;
2.426833333333334E+009;1.567395180463791E-001;-1.179497987031937E-001;-2.698489697650075E-003;-2.845568233169615E-004;
2.427000000000000E+009;1.564397215843201E-001;-1.180920600891113E-001;-2.692585112527013E-003;-3.233164025004953E-004;
2.427166666666667E+009;1.560257971286774E-001;-1.179797947406769E-001;-2.564238850027323E-003;-2.473695494700223E-004;
2.427333333333334E+009;1.554101854562759E-001;-1.180136799812317E-001;-2.667441032826901E-003;-1.317539281444624E-004;
2.427500000000000E+009;1.548246741294861E-001;-1.180586218833923E-001;-2.597311045974493E-003;-1.918461020977702E-005;
2.427666666666667E+009;1.540454179048538E-001;-1.182777807116509E-001;-2.548666903749108E-003;-1.027944963425398E-004;
