# Version 1.00
#
freq[Hz];re:Trc1_S11;im:Trc1_S11;re:Trc2_S21;im:Trc2_S21;
2.400000000000000E+009;1.561298221349716E-001;6.173367053270340E-002;-7.709947531111538E-004;4.663808271288872E-003;
2.400166666666667E+009;1.561971306800842E-001;6.004367396235466E-002;-6.654940661974251E-004;4.672766663134098E-003;
2.400333333333334E+009;1.559839695692062E-001;5.795861035585403E-002;-5.316967144608498E-004;4.727006889879704E-003;
2.400500000000000E+009;1.560097187757492E-001;5.591461062431335E-002;-4.468954866752029E-004;4.750375635921955E-003;
2.400666666666667E+009;1.561723649501801E-001;5.394339188933373E-002;-1.415013830410317E-004;4.584933631122112E-003;
2.400833333333334E+009;1.563358306884766E-001;5.191844701766968E-002;-1.563920668559149E-004;4.802857991307974E-003;
2.401000000000000E+009;1.565248966217041E-001;4.948846995830536E-002;5.107678589411080E-005;4.734241403639317E-003;
2.401166666666667E+009;1.567723006010056E-001;4.741890728473663E-002;1.475291792303324E-004;4.706534557044506E-003;
2.401333333333334E+009;1.571963280439377E-001;4.517776519060135E-002;2.167927887057886E-004;4.890407435595989E-003;
2.401500000000000E+009;1.576101481914520E-001;4.309200495481491E-002;3.428547643125057E-004;4.628406371921301E-003;
2.401666666666667E+009;1.581859290599823E-001;4.121926426887512E-002;3.664247051347047E-004;4.758909344673157E-003;
2.401833333333334E+009;1.586772352457047E-001;3.889226913452148E-002;4.841219633817673E-004;4.786386154592037E-003;
2.402000000000000E+009;1.589628159999847E-001;3.714083507657051E-002;5.863918922841549E-004;4.694762639701366E-003;
2.402166666666667E+009;1.598242670297623E-001;3.503768146038055E-002;7.821746985428035E-004;4.977254662662745E-003;
2.402333333333334E+009;1.604226678609848E-001;3.297426924109459E-002;9.598638862371445E-004;4.965065978467464E-003;
2.402500000000000E+009;1.614878475666046E-001;3.125998750329018E-002;9.521036408841610E-004;4.739564377814531E-003;
2.402666666666667E+009;1.622574329376221E-001;2.955482527613640E-002;1.226335065439344E-003;4.700530786067247E-003;
2.402833333333334E+009;1.632924526929855E-001;2.802470326423645E-002;1.291224034503102E-003;4.764709156006575E-003;
2.403000000000000E+009;1.641664803028107E-001;2.637143246829510E-002;1.518395147286356E-003;4.821764305233955E-003;
2.403166666666667E+009;1.650689244270325E-001;2.501927129924297E-002;1.633421401493251E-003;4.639830905944109E-003;
2.403333333333334E+009;1.662851870059967E-001;2.364150993525982E-002;1.775637734681368E-003;4.665781743824482E-003;
2.403500000000000E+009;1.672309935092926E-001;2.228002808988094E-002;1.755297533236444E-003;4.531932994723320E-003;
2.403666666666667E+009;1.680659204721451E-001;2.102217078208923E-002;1.975338207557797E-003;4.567186348140240E-003;
2.403833333333334E+009;1.695202440023422E-001;1.987429521977902E-002;2.216219436377287E-003;4.725069273263216E-003;
2.404000000000000E+009;1.704039424657822E-001;1.884345524013042E-002;2.221359638497233E-003;4.678303841501474E-003;
2.404166666666667E+009;1.714816838502884E-001;1.789611019194126E-002;2.418803749606013E-003;4.530837293714285E-003;
2.404333333333334E+009;1.725379824638367E-001;1.701302267611027E-002;2.711683278903365E-003;4.698456265032291E-003;
2.404500000000000E+009;1.734192222356796E-001;1.617183536291122E-002;3.061261726543307E-003;4.506860394030809E-003;
2.404666666666667E+009;1.743998974561691E-001;1.565511897206307E-002;2.916504396125674E-003;4.439726937562227E-003;
2.404833333333334E+009;1.753309667110443E-001;1.482930127531290E-002;2.958775497972965E-003;4.150272812694311E-003;
2.405000000000000E+009;1.762598454952240E-001;1.440525613725185E-002;3.406363772228360E-003;4.147137515246868E-003;
2.405166666666667E+009;1.769253611564636E-001;1.390350889414549E-002;3.591246204450727E-003;4.309284966439009E-003;
2.405333333333334E+009;1.776835024356842E-001;1.327378209680319E-002;3.475881414487958E-003;4.044331610202789E-003;
2.405500000000000E+009;1.784607172012329E-001;1.300971489399672E-002;3.787940135225654E-003;4.077226854860783E-003;
2.405666666666667E+009;1.790951192378998E-001;1.277713198214769E-002;3.816035808995366E-003;3.928286954760552E-003;
2.405833333333334E+009;1.795267313718796E-001;1.253024954348803E-002;4.099368583410978E-003;3.751923795789480E-003;
2.406000000000000E+009;1.800857633352280E-001;1.207513082772493E-002;4.126325249671936E-003;3.554408904165030E-003;
2.406166666666667E+009;1.803613752126694E-001;1.216426678001881E-002;4.260065034031868E-003;3.238375298678875E-003;
2.406333333333334E+009;1.807838082313538E-001;1.185955014079809E-002;4.414922092109919E-003;3.358968999236822E-003;
2.406500000000000E+009;1.809078305959702E-001;1.157909166067839E-002;4.725708160549402E-003;3.130492521449924E-003;
2.406666666666667E+009;1.808155477046967E-001;1.155402604490519E-002;4.704060964286327E-003;2.918364014476538E-003;
2.406833333333334E+009;1.809649169445038E-001;1.113962568342686E-002;4.907600115984678E-003;2.823004964739084E-003;
2.407000000000000E+009;1.808869987726212E-001;1.101586967706680E-002;4.957378841936588E-003;2.759734168648720E-003;
2.407166666666667E+009;1.809290498495102E-001;1.069479528814554E-002;5.067463498562574E-003;2.453516004607081E-003;
2.407333333333334E+009;1.804677695035934E-001;1.032383926212788E-002;5.161398090422154E-003;2.257001353427768E-003;
2.407500000000000E+009;1.801577508449554E-001;9.919077157974243E-003;5.229085218161345E-003;2.083247294649482E-003;
2.407666666666667E+009;1.797021180391312E-001;9.435635991394520E-003;5.342837888747454E-003;1.831764704547823E-003;
2.407833333333334E+009;1.792170852422714E-001;8.749991655349731E-003;5.309359636157751E-003;1.731058582663536E-003;
2.408000000000000E+009;1.786817759275436E-001;8.271394297480583E-003;5.167125258594751E-003;1.446350477635860E-003;
2.408166666666667E+009;1.781900972127914E-001;7.620604243129492E-003;5.235290620476008E-003;1.374192535877228E-003;
2.408333333333334E+009;1.777171045541763E-001;6.820450536906719E-003;5.315034184604883E-003;1.088076038286090E-003;
2.408500000000000E+009;1.767983585596085E-001;5.894547328352928E-003;5.381353199481964E-003;1.019322779029608E-003;
2.408666666666667E+009;1.761798411607742E-001;4.795657470822334E-003;5.458450876176357E-003;6.779708201065660E-004;
2.408833333333334E+009;1.753812432289124E-001;3.900478826835752E-003;5.474626086652279E-003;4.991350579075515E-004;
2.409000000000000E+009;1.744464784860611E-001;2.684904728084803E-003;5.296928808093071E-003;3.959672758355737E-004;
2.409166666666667E+009;1.738881170749664E-001;1.424113288521767E-003;5.270188674330711E-003;2.951270435005426E-004;
2.409333333333334E+009;1.732786744832993E-001;1.283282472286373E-004;5.439126864075661E-003;2.442305594740901E-005;
2.409500000000000E+009;1.722586899995804E-001;-1.493353862315416E-003;5.371388513594866E-003;-2.555910905357450E-004;
2.409666666666667E+009;1.715408265590668E-001;-2.883552573621273E-003;5.298478994518518E-003;-3.846789768431336E-004;
2.409833333333334E+009;1.707790493965149E-001;-4.260117188096046E-003;5.374934989959002E-003;-4.808522353414446E-004;
2.410000000000000E+009;1.702680289745331E-001;-6.089720875024796E-003;5.152393598109484E-003;-6.626119720749557E-004;
2.410166666666667E+009;1.695858538150787E-001;-7.660997565835714E-003;5.261773709207773E-003;-8.934317156672478E-004;
2.410333333333334E+009;1.691087186336517E-001;-9.596757590770721E-003;5.083833355456591E-003;-9.880661964416504E-004;
2.410500000000000E+009;1.685168743133545E-001;-1.157827302813530E-002;4.957675468176603E-003;-1.075585372745991E-003;
2.410666666666667E+009;1.680830419063568E-001;-1.354155130684376E-002;5.060942377895117E-003;-1.133438199758530E-003;
2.410833333333334E+009;1.676311343908310E-001;-1.523898448795080E-002;4.945424385368824E-003;-1.474217977374792E-003;
2.411000000000000E+009;1.674349009990692E-001;-1.717751473188400E-002;4.912355449050665E-003;-1.539366436190903E-003;
2.411166666666667E+009;1.672077625989914E-001;-1.942643895745277E-002;4.729129839688540E-003;-1.677961321547627E-003;
2.411333333333334E+009;1.669398695230484E-001;-2.139134518802166E-002;4.721154458820820E-003;-1.800772850401700E-003;
2.411500000000000E+009;1.669385880231857E-001;-2.339093200862408E-002;4.532061517238617E-003;-1.947549870237708E-003;
2.411666666666667E+009;1.670356839895248E-001;-2.541447058320046E-002;4.583279136568308E-003;-1.997120911255479E-003;
2.411833333333334E+009;1.670815795660019E-001;-2.746952883899212E-002;4.465877544134855E-003;-2.195911714807153E-003;
2.412000000000000E+009;1.672533452510834E-001;-2.951342053711414E-002;4.424078390002251E-003;-2.323043299838901E-003;
2.412166666666667E+009;1.674470901489258E-001;-3.143931552767754E-002;4.225892014801502E-003;-2.462613163515925E-003;
2.412333333333334E+009;1.678878217935562E-001;-3.348733857274056E-002;4.245452117174864E-003;-2.480834256857634E-003;
2.412500000000000E+009;1.682028770446777E-001;-3.542559221386910E-002;3.981977701187134E-003;-2.738790353760123E-003;
2.412666666666667E+009;1.687278151512146E-001;-3.741119801998138E-002;3.920728806406260E-003;-2.639696234837174E-003;
2.412833333333334E+009;1.692694276571274E-001;-3.919161856174469E-002;3.881886601448059E-003;-2.847181633114815E-003;
2.413000000000000E+009;1.697001904249191E-001;-4.099712148308754E-002;3.538482822477818E-003;-2.860939363017678E-003;
2.413166666666667E+009;1.702624112367630E-001;-4.271185025572777E-002;3.542886581271887E-003;-2.862404100596905E-003;
2.413333333333334E+009;1.707217693328857E-001;-4.452204704284668E-002;3.648928832262754E-003;-3.073599888011813E-003;
2.413500000000000E+009;1.714894026517868E-001;-4.596328735351563E-002;3.304375568404794E-003;-3.201998071745038E-003;
2.413666666666667E+009;1.723010987043381E-001;-4.755948856472969E-002;3.362039104104042E-003;-3.189630573615432E-003;
2.413833333333334E+009;1.727553457021713E-001;-4.887676611542702E-002;3.122900845482945E-003;-3.313367953523994E-003;
2.414000000000000E+009;1.733137965202332E-001;-5.026690289378166E-002;2.956434385851026E-003;-3.380917245522142E-003;
2.414166666666667E+009;1.741092205047607E-001;-5.140662193298340E-002;2.983013633638620E-003;-3.324458142742515E-003;
2.414333333333334E+009;1.747213602066040E-001;-5.250886082649231E-002;2.920788479968905E-003;-3.401370486244559E-003;
2.414500000000000E+009;1.755300611257553E-001;-5.352757126092911E-002;2.754807705059648E-003;-3.701947629451752E-003;
2.414666666666667E+009;1.760914772748947E-001;-5.431821942329407E-002;2.549040364101529E-003;-3.622826887294650E-003;
2.414833333333334E+009;1.765975803136826E-001;-5.534844100475311E-002;2.358067082241178E-003;-3.574331756681204E-003;
2.415000000000000E+009;1.769675463438034E-001;-5.596308037638664E-002;2.431956585496664E-003;-3.639663802459836E-003;
2.415166666666667E+009;1.774907410144806E-001;-5.664916709065437E-002;2.319183666259050E-003;-3.679354675114155E-003;
2.415333333333334E+009;1.781080365180969E-001;-5.734127014875412E-002;2.354950411245227E-003;-3.713455516844988E-003;
2.415500000000000E+009;1.783648431301117E-001;-5.760370194911957E-002;2.039065118879080E-003;-3.816303098574281E-003;
2.415666666666667E+009;1.786074340343475E-001;-5.812745541334152E-002;1.886415062472224E-003;-3.854315495118499E-003;
2.415833333333334E+009;1.787574887275696E-001;-5.848281085491180E-002;1.815642579458654E-003;-4.009350202977657E-003;
2.416000000000000E+009;1.788356155157089E-001;-5.878782644867897E-002;1.713269506581128E-003;-3.958346787840128E-003;
2.416166666666667E+009;1.788434535264969E-001;-5.888293310999870E-002;1.695983228273690E-003;-3.969249315559864E-003;
2.416333333333334E+009;1.788704693317413E-001;-5.919907987117767E-002;1.411022501997650E-003;-4.183542914688587E-003;
2.416500000000000E+009;1.786793023347855E-001;-5.934723839163780E-002;1.297347946092486E-003;-4.068935289978981E-003;
2.416666666666667E+009;1.782202869653702E-001;-5.938829109072685E-002;1.206635730341077E-003;-4.200445022433996E-003;
2.416833333333334E+009;1.779972761869431E-001;-5.966828763484955E-002;9.747925214469433E-004;-4.116001538932324E-003;
2.417000000000000E+009;1.773717254400253E-001;-5.975952371954918E-002;9.150261757895351E-004;-4.169635474681854E-003;
2.417166666666667E+009;1.768823117017746E-001;-5.994610860943794E-002;7.431709091179073E-004;-4.130697809159756E-003;
2.417333333333334E+009;1.762090027332306E-001;-5.999702587723732E-002;7.371360552497208E-004;-4.170017782598734E-003;
2.417500000000000E+009;1.754839271306992E-001;-6.028559058904648E-002;5.283316713757813E-004;-4.012406338006258E-003;
2.417666666666667E+009;1.747284382581711E-001;-6.029716506600380E-002;2.996604598592967E-004;-4.141900688409805E-003;
2.417833333333334E+009;1.737546771764755E-001;-6.048201397061348E-002;1.749578950693831E-004;-4.036060068756342E-003;
2.418000000000000E+009;1.727051287889481E-001;-6.088279560208321E-002;6.477513670688495E-005;-4.110311623662710E-003;
2.418166666666667E+009;1.716453135013580E-001;-6.110230460762978E-002;-4.123618418816477E-005;-3.956117201596499E-003;
2.418333333333334E+009;1.707160770893097E-001;-6.162467598915100E-002;-2.411134919384494E-004;-4.040452651679516E-003;
2.418500000000000E+009;1.693806797266007E-001;-6.195004284381867E-002;-2.204728516517207E-004;-4.085122607648373E-003;
2.418666666666667E+009;1.682601124048233E-001;-6.255628168582916E-002;-3.501231840346009E-004;-3.767723217606545E-003;
2.418833333333334E+009;1.669643670320511E-001;-6.315891444683075E-002;-3.202666412107647E-004;-4.003207664936781E-003;
2.419000000000000E+009;1.654815375804901E-001;-6.363431364297867E-002;-7.239416008815169E-004;-3.754648845642805E-003;
2.419166666666667E+009;1.642782688140869E-001;-6.465107202529907E-002;-4.920503124594688E-004;-3.670103149488568E-003;
2.419333333333334E+009;1.628701984882355E-001;-6.525666266679764E-002;-8.440687088295817E-004;-3.743714420124888E-003;
2.419500000000000E+009;1.616342812776566E-001;-6.625174731016159E-002;-8.640242740511894E-004;-3.607247490435839E-003;
2.419666666666667E+009;1.605109721422195E-001;-6.721536815166473E-002;-8.872516336850822E-004;-3.548570210114121E-003;
2.419833333333334E+009;1.590328365564346E-001;-6.826515495777130E-002;-8.750164997763932E-004;-3.593087429180741E-003;
2.420000000000000E+009;1.579906791448593E-001;-6.950094550848007E-002;-1.026692916639149E-003;-3.612219356000423E-003;
2.420166666666667E+009;1.567898541688919E-001;-7.071334123611450E-002;-1.031112158671022E-003;-3.466899273917079E-003;
2.420333333333334E+009;1.556878983974457E-001;-7.200319319963455E-002;-1.073182327672839E-003;-3.314043628051877E-003;
2.420500000000000E+009;1.546554565429688E-001;-7.327519357204437E-002;-1.287255785427988E-003;-3.247072687372565E-003;
2.420666666666667E+009;1.537836194038391E-001;-7.475241273641586E-002;-1.286766258999705E-003;-3.370196092873812E-003;
2.420833333333334E+009;1.527342051267624E-001;-7.616087049245834E-002;-1.384960487484932E-003;-3.292376641184092E-003;
2.421000000000000E+009;1.518397927284241E-001;-7.792611420154572E-002;-1.423672423698008E-003;-3.311002161353827E-003;
2.421166666666667E+009;1.510247886180878E-001;-7.949285209178925E-002;-1.421311288140714E-003;-3.058953210711479E-003;
2.421333333333334E+009;1.505184918642044E-001;-8.133138716220856E-002;-1.528224325738847E-003;-3.010162850841880E-003;
2.421500000000000E+009;1.498990505933762E-001;-8.291249722242355E-002;-1.541772275231779E-003;-2.876196289435029E-003;
2.421666666666667E+009;1.495185047388077E-001;-8.465296775102615E-002;-1.610944978892803E-003;-2.981699304655194E-003;
2.421833333333334E+009;1.490924358367920E-001;-8.630809932947159E-002;-1.809994922950864E-003;-2.993875648826361E-003;
2.422000000000000E+009;1.487013995647430E-001;-8.816886693239212E-002;-1.698698964901269E-003;-2.812662394717336E-003;
2.422166666666667E+009;1.485617309808731E-001;-9.009292721748352E-002;-1.724249799735844E-003;-2.887627575546503E-003;
2.422333333333334E+009;1.484985351562500E-001;-9.173919260501862E-002;-1.660911133512855E-003;-2.798552159219980E-003;
2.422500000000000E+009;1.484969109296799E-001;-9.331990033388138E-002;-1.890106126666069E-003;-2.714979229494929E-003;
2.422666666666667E+009;1.485090404748917E-001;-9.521363675594330E-002;-1.949857571162283E-003;-2.684038598090410E-003;
2.422833333333334E+009;1.487016528844833E-001;-9.694524854421616E-002;-2.155975438654423E-003;-2.660795813426375E-003;
2.423000000000000E+009;1.489441394805908E-001;-9.856318682432175E-002;-2.116638934239745E-003;-2.531287726014853E-003;
2.423166666666667E+009;1.493592709302902E-001;-1.002599969506264E-001;-2.258866326883435E-003;-2.632203279063106E-003;
2.423333333333334E+009;1.497937887907028E-001;-1.016909182071686E-001;-2.158475108444691E-003;-2.431830391287804E-003;
2.423500000000000E+009;1.501844525337219E-001;-1.034006476402283E-001;-2.386664971709251E-003;-2.449916442856193E-003;
2.423666666666667E+009;1.505099385976791E-001;-1.050048992037773E-001;-2.517811954021454E-003;-2.402536338195205E-003;
2.423833333333334E+009;1.511700302362442E-001;-1.063159033656120E-001;-2.489625476300716E-003;-2.150605199858546E-003;
2.424000000000000E+009;1.517174690961838E-001;-1.076470166444778E-001;-2.573438920080662E-003;-2.220220165327191E-003;
2.424166666666667E+009;1.520862281322479E-001;-1.088449805974960E-001;-2.550939330831170E-003;-2.103552920743823E-003;
2.424333333333334E+009;1.527561992406845E-001;-1.100253015756607E-001;-2.639499027282000E-003;-2.032152144238353E-003;
2.424500000000000E+009;1.534633189439774E-001;-1.111055389046669E-001;-2.813346683979034E-003;-2.004407811909914E-003;
2.424666666666667E+009;1.539473831653595E-001;-1.119252219796181E-001;-2.851201454177499E-003;-1.806229702197015E-003;
2.424833333333334E+009;1.542925983667374E-001;-1.129395142197609E-001;-2.815040992572904E-003;-1.688513904809952E-003;
2.425000000000000E+009;1.549844145774841E-001;-1.137976571917534E-001;-2.832062775269151E-003;-1.420743530616164E-003;
2.425166666666667E+009;1.553622186183929E-001;-1.144232898950577E-001;-2.918213605880737E-003;-1.258130767382681E-003;
2.425333333333334E+009;1.558816432952881E-001;-1.150565072894096E-001;-2.794077387079597E-003;-1.154478290118277E-003;
2.425500000000000E+009;1.563413292169571E-001;-1.157359406352043E-001;-3.002099459990859E-003;-1.110747922211886E-003;
2.425666666666667E+009;1.564628332853317E-001;-1.162719801068306E-001;-2.982867881655693E-003;-1.036381348967552E-003;
2.425833333333334E+009;1.567554771900177E-001;-1.165271848440170E-001;-2.738460898399353E-003;-9.347063023597002E-004;
2.426000000000000E+009;1.569754034280777E-001;-1.169425472617149E-001;-2.791694831103087E-003;-7.726040785200894E-004;
2.426166666666667E+009;1.572619974613190E-001;-1.172985658049583E-001;-2.838208340108395E-003;-6.247615674510598E-004;
2.426333333333334E+009;1.571662724018097E-001;-1.174913123250008E-001;-2.825186820700765E-003;-5.934237851761282E-004;
2.426500000000000E+009;1.571858525276184E-001;-1.176896616816521E-001;-2.693905960768461E-003;-4.851221747230738E-004;
2.426666666666667E+009;1.571289449930191E-001;-1.176606640219688E-001;-2.733306027948856E-003;-2.575299004092813E-004;
2.426833333333334E+009;1.568502634763718E-001;-1.178862750530243E-001;-2.583984285593033E-003;-2.050048206001520E-004;
2.427000000000000E+009;1.564480364322662E-001;-1.180657520890236E-001;-2.655122196301818E-003;-4.431093111634255E-005;
2.427166666666667E+009;1.560269743204117E-001;-1.179084852337837E-001;-2.417729934677482E-003;-1.142252876888961E-004;
2.427333333333334E+009;1.554763317108154E-001;-1.179398298263550E-001;-2.425216138362885E-003;-2.598222090455238E-005;
2.427500000000000E+009;1.549460440874100E-001;-1.179891750216484E-001;-2.494170563295484E-003;-1.638290123082697E-004;
2.427666666666667E+009;1.539999544620514E-001;-1.181237250566483E-001;-2.377268625423312E-003;1.279608659388032E-005;
