# Version 1.00
#
freq[Hz];re:Trc1_S11;im:Trc1_S11;re:Trc2_S21;im:Trc2_S21;
2.400000000000000E+009;1.562824696302414E-001;6.168143451213837E-002;-8.430922753177583E-004;4.698182921856642E-003;
2.400166666666667E+009;1.561159491539002E-001;5.995614826679230E-002;-7.091262377798557E-004;4.803070798516274E-003;
2.400333333333334E+009;1.561134755611420E-001;5.786775797605515E-002;-6.913170800544322E-004;4.667394794523716E-003;
2.400500000000000E+009;1.563239097595215E-001;5.591260269284248E-002;-4.316371341701597E-004;4.808806814253330E-003;
2.400666666666667E+009;1.561730504035950E-001;5.377716571092606E-002;-3.895558184012771E-004;4.741320852190256E-003;
2.400833333333334E+009;1.564697474241257E-001;5.179024115204811E-002;-3.163770306855440E-004;4.728463478386402E-003;
2.401000000000000E+009;1.565716415643692E-001;4.944846779108048E-002;-1.549176231492311E-004;4.732034634798765E-003;
2.401166666666667E+009;1.568747311830521E-001;4.731517657637596E-002;7.626562728546560E-005;4.835644271224737E-003;
2.401333333333334E+009;1.572594642639160E-001;4.507113620638847E-002;2.496765409887303E-005;4.768575541675091E-003;
2.401500000000000E+009;1.576082110404968E-001;4.305265471339226E-002;1.811745314626023E-004;4.785826895385981E-003;
2.401666666666667E+009;1.580985784530640E-001;4.101518169045448E-002;4.857733729295433E-004;4.673596937209368E-003;
2.401833333333334E+009;1.586305499076843E-001;3.891133144497871E-002;2.707611711230129E-004;4.819971509277821E-003;
2.402000000000000E+009;1.588896661996841E-001;3.683111444115639E-002;6.431031506508589E-004;4.782703239470720E-003;
2.402166666666667E+009;1.599416285753250E-001;3.497466817498207E-002;7.842694758437574E-004;4.878177307546139E-003;
2.402333333333334E+009;1.604906767606735E-001;3.300536423921585E-002;8.983156876638532E-004;4.842988215386868E-003;
2.402500000000000E+009;1.615329384803772E-001;3.132973983883858E-002;9.802818531170487E-004;4.729154985398054E-003;
2.402666666666667E+009;1.622528135776520E-001;2.962303906679153E-002;1.247885520569980E-003;4.791775252670050E-003;
2.402833333333334E+009;1.632142066955566E-001;2.774361707270145E-002;1.258456148207188E-003;4.734019748866558E-003;
2.403000000000000E+009;1.641613394021988E-001;2.638282440602779E-002;1.411686185747385E-003;4.732951987534761E-003;
2.403166666666667E+009;1.651695072650909E-001;2.480851113796234E-002;1.581587828695774E-003;4.566625691950321E-003;
2.403333333333334E+009;1.662381291389465E-001;2.347419969737530E-002;1.725540147162974E-003;4.446839913725853E-003;
2.403500000000000E+009;1.671122908592224E-001;2.223647944629192E-002;1.733836834318936E-003;4.846890922635794E-003;
2.403666666666667E+009;1.681525409221649E-001;2.100982517004013E-002;1.997966319322586E-003;4.721890203654766E-003;
2.403833333333334E+009;1.694814711809158E-001;1.976185105741024E-002;2.232337603345513E-003;4.756844602525234E-003;
2.404000000000000E+009;1.702928096055985E-001;1.874904893338680E-002;2.376418327912688E-003;4.497921094298363E-003;
2.404166666666667E+009;1.713835597038269E-001;1.776430569589138E-002;2.495859749615192E-003;4.454415757209063E-003;
2.404333333333334E+009;1.724571883678436E-001;1.706979610025883E-002;2.531033009290695E-003;4.399833269417286E-003;
2.404500000000000E+009;1.733123958110809E-001;1.609643362462521E-002;2.847215859219432E-003;4.316068254411221E-003;
2.404666666666667E+009;1.743257939815521E-001;1.548129133880138E-002;2.911788178607822E-003;4.318561404943466E-003;
2.404833333333334E+009;1.752735078334808E-001;1.486089732497931E-002;3.045525867491961E-003;4.243355710059404E-003;
2.405000000000000E+009;1.761408746242523E-001;1.433231495320797E-002;3.248592140153050E-003;4.340713378041983E-003;
2.405166666666667E+009;1.769713461399078E-001;1.381809823215008E-002;3.279967699199915E-003;4.164951853454113E-003;
2.405333333333334E+009;1.777904927730560E-001;1.322969514876604E-002;3.601745702326298E-003;3.927828744053841E-003;
2.405500000000000E+009;1.783965378999710E-001;1.305538695305586E-002;3.692680737003684E-003;4.116819240152836E-003;
2.405666666666667E+009;1.790798455476761E-001;1.277779042720795E-002;3.902513999491930E-003;3.817859571427107E-003;
2.405833333333334E+009;1.794507950544357E-001;1.258223131299019E-002;3.958468791097403E-003;3.687724238261581E-003;
2.406000000000000E+009;1.799618750810623E-001;1.217452157288790E-002;4.110857378691435E-003;3.628504229709506E-003;
2.406166666666667E+009;1.802826523780823E-001;1.216320041567087E-002;4.467476624995470E-003;3.511221613734961E-003;
2.406333333333334E+009;1.806690692901611E-001;1.193413045257330E-002;4.402812570333481E-003;3.390071680769324E-003;
2.406500000000000E+009;1.807379424571991E-001;1.161258853971958E-002;4.646319895982742E-003;3.226989880204201E-003;
2.406666666666667E+009;1.807458698749542E-001;1.151791494339705E-002;4.743660800158978E-003;3.029428422451019E-003;
2.406833333333334E+009;1.808739751577377E-001;1.124913338571787E-002;4.731880035251379E-003;2.863424364477396E-003;
2.407000000000000E+009;1.808556765317917E-001;1.082967873662710E-002;4.843654576689005E-003;2.677826443687081E-003;
2.407166666666667E+009;1.807082146406174E-001;1.070326194167137E-002;4.916825797408819E-003;2.577885752543807E-003;
2.407333333333334E+009;1.804317533969879E-001;1.025075372308493E-002;4.999099299311638E-003;2.313781995326281E-003;
2.407500000000000E+009;1.801490187644959E-001;9.884621948003769E-003;5.261857528239489E-003;2.070063492283225E-003;
2.407666666666667E+009;1.797933727502823E-001;9.501401335000992E-003;5.254955962300301E-003;1.952185411937535E-003;
2.407833333333334E+009;1.792278736829758E-001;8.793989196419716E-003;5.278002005070448E-003;1.617163419723511E-003;
2.408000000000000E+009;1.787759959697723E-001;8.157262578606606E-003;5.434333346784115E-003;1.371551887132227E-003;
2.408166666666667E+009;1.782029122114182E-001;7.715601008385420E-003;5.351394414901733E-003;1.240355661138892E-003;
2.408333333333334E+009;1.776966899633408E-001;6.707228720188141E-003;5.339651368558407E-003;1.171163283288479E-003;
2.408500000000000E+009;1.769278645515442E-001;5.792931187897921E-003;5.391065031290054E-003;8.992783841677010E-004;
2.408666666666667E+009;1.760946810245514E-001;4.877917002886534E-003;5.248737987130880E-003;6.962122861295939E-004;
2.408833333333334E+009;1.753470897674561E-001;3.803358878940344E-003;5.278850439935923E-003;5.467427545227110E-004;
2.409000000000000E+009;1.745557636022568E-001;2.654999727383256E-003;5.422263871878386E-003;4.946571425534785E-004;
2.409166666666667E+009;1.739632487297058E-001;1.278155832551420E-003;5.316214635968208E-003;2.669746463652700E-004;
2.409333333333334E+009;1.731236875057221E-001;4.856373561779037E-005;5.289687775075436E-003;-6.151859906822210E-006;
2.409500000000000E+009;1.723194569349289E-001;-1.387372845783830E-003;5.198906175792217E-003;-9.213380690198392E-005;
2.409666666666667E+009;1.715229302644730E-001;-2.881311811506748E-003;5.268197041004896E-003;-1.279048301512376E-004;
2.409833333333334E+009;1.707521975040436E-001;-4.432640504091978E-003;5.226376466453075E-003;-3.229159046895802E-004;
2.410000000000000E+009;1.701728105545044E-001;-6.005423143506050E-003;5.090592429041863E-003;-5.846633575856686E-004;
2.410166666666667E+009;1.695446372032166E-001;-7.912719622254372E-003;5.047958809882402E-003;-7.618498639203608E-004;
2.410333333333334E+009;1.688648015260696E-001;-9.583338163793087E-003;5.085524171590805E-003;-1.007681130431593E-003;
2.410500000000000E+009;1.684922873973846E-001;-1.162002701312304E-002;4.991338588297367E-003;-1.142555032856762E-003;
2.410666666666667E+009;1.680169105529785E-001;-1.352628786116839E-002;4.854964092373848E-003;-1.259914366528392E-003;
2.410833333333334E+009;1.677179336547852E-001;-1.523120701313019E-002;4.878698848187923E-003;-1.387220923788846E-003;
2.411000000000000E+009;1.672262400388718E-001;-1.733420416712761E-002;4.787585698068142E-003;-1.520724035799503E-003;
2.411166666666667E+009;1.672035604715347E-001;-1.937342993915081E-002;4.678071476519108E-003;-1.780994469299913E-003;
2.411333333333334E+009;1.669154763221741E-001;-2.127634175121784E-002;4.522515926510096E-003;-1.755594857968390E-003;
2.411500000000000E+009;1.668364852666855E-001;-2.361354976892471E-002;4.390784073621035E-003;-2.064894651994109E-003;
2.411666666666667E+009;1.669397354125977E-001;-2.545218169689179E-002;4.341790918260813E-003;-2.031371463090181E-003;
2.411833333333334E+009;1.667750924825668E-001;-2.745430171489716E-002;4.551178310066462E-003;-2.172421431168914E-003;
2.412000000000000E+009;1.673200726509094E-001;-2.952777408063412E-002;4.414113238453865E-003;-2.359612612053752E-003;
2.412166666666667E+009;1.673012226819992E-001;-3.144988790154457E-002;4.130010493099690E-003;-2.422204008325934E-003;
2.412333333333334E+009;1.678377389907837E-001;-3.346303850412369E-002;4.062660969793797E-003;-2.516546752303839E-003;
2.412500000000000E+009;1.680436730384827E-001;-3.547695279121399E-002;4.004765301942825E-003;-2.724812598899007E-003;
2.412666666666667E+009;1.685417592525482E-001;-3.747853264212608E-002;3.861079690977931E-003;-2.563264686614275E-003;
2.412833333333334E+009;1.692584753036499E-001;-3.923235088586807E-002;3.725323593243957E-003;-2.821651520207524E-003;
2.413000000000000E+009;1.696254909038544E-001;-4.098457843065262E-002;3.614822868257761E-003;-2.763714175671339E-003;
2.413166666666667E+009;1.702260822057724E-001;-4.281055182218552E-002;3.683723509311676E-003;-2.913387026637793E-003;
2.413333333333334E+009;1.706905364990234E-001;-4.445340856909752E-002;3.438404295593500E-003;-3.018540330231190E-003;
2.413500000000000E+009;1.713735461235046E-001;-4.600383341312408E-002;3.363527590408921E-003;-3.139715641736984E-003;
2.413666666666667E+009;1.722413450479507E-001;-4.738000035285950E-002;3.338117850944400E-003;-3.170794807374477E-003;
2.413833333333334E+009;1.728760302066803E-001;-4.903553798794746E-002;3.137359395623207E-003;-3.299745265394449E-003;
2.414000000000000E+009;1.733393669128418E-001;-5.022123083472252E-002;3.223158186301589E-003;-3.368864301592112E-003;
2.414166666666667E+009;1.741556525230408E-001;-5.134558305144310E-002;2.911432646214962E-003;-3.497678786516190E-003;
2.414333333333334E+009;1.747936010360718E-001;-5.261675640940666E-002;2.897454425692558E-003;-3.481954336166382E-003;
2.414500000000000E+009;1.755751967430115E-001;-5.351888015866280E-002;2.720955293625593E-003;-3.542916383594275E-003;
2.414666666666667E+009;1.761246621608734E-001;-5.446954444050789E-002;2.766641322523356E-003;-3.701036795973778E-003;
2.414833333333334E+009;1.765174567699432E-001;-5.533743649721146E-002;2.618758473545313E-003;-3.594661364331842E-003;
2.415000000000000E+009;1.771455109119415E-001;-5.595809221267700E-002;2.492584055289626E-003;-3.753992496058345E-003;
2.415166666666667E+009;1.775711327791214E-001;-5.670111626386643E-002;2.334040822461247E-003;-3.892416367307305E-003;
2.415333333333334E+009;1.779921948909760E-001;-5.731898918747902E-002;2.336446661502123E-003;-3.951014485210180E-003;
2.415500000000000E+009;1.783480346202850E-001;-5.761725455522537E-002;2.159405732527375E-003;-3.922983072698116E-003;
2.415666666666667E+009;1.785377562046051E-001;-5.805966630578041E-002;2.008254872635007E-003;-3.962045069783926E-003;
2.415833333333334E+009;1.787338852882385E-001;-5.854145810008049E-002;1.913994667120278E-003;-4.156501963734627E-003;
2.416000000000000E+009;1.786945462226868E-001;-5.874419584870338E-002;1.677209511399269E-003;-4.065693356096745E-003;
2.416166666666667E+009;1.790101677179337E-001;-5.907404422760010E-002;1.604669028893113E-003;-4.102366976439953E-003;
2.416333333333334E+009;1.787860095500946E-001;-5.926813185214996E-002;1.418743282556534E-003;-4.273820202797651E-003;
2.416500000000000E+009;1.786504983901978E-001;-5.928624048829079E-002;1.338432659395039E-003;-4.135370720177889E-003;
2.416666666666667E+009;1.783370822668076E-001;-5.938895046710968E-002;1.154938014224172E-003;-4.196920897811651E-003;
2.416833333333334E+009;1.780823767185211E-001;-5.964443087577820E-002;1.061759772710502E-003;-4.124362953007221E-003;
2.417000000000000E+009;1.774090528488159E-001;-5.985125899314880E-002;9.566291118972004E-004;-4.153207875788212E-003;
2.417166666666667E+009;1.769168674945831E-001;-5.980818346142769E-002;5.872902111150324E-004;-4.110248293727636E-003;
2.417333333333334E+009;1.761362552642822E-001;-5.999454483389854E-002;6.012849044054747E-004;-4.236417822539806E-003;
2.417500000000000E+009;1.754620969295502E-001;-6.039664894342423E-002;5.053282948210836E-004;-4.063958302140236E-003;
2.417666666666667E+009;1.747528761625290E-001;-6.040217727422714E-002;3.139016916975379E-004;-4.244124051183462E-003;
2.417833333333334E+009;1.737348586320877E-001;-6.057487428188324E-002;2.652199182193726E-004;-4.235015250742436E-003;
2.418000000000000E+009;1.726959347724915E-001;-6.100866571068764E-002;-2.127006382579566E-006;-4.157841671258211E-003;
2.418166666666667E+009;1.715100407600403E-001;-6.113127246499062E-002;-5.333084845915437E-005;-4.125004634261131E-003;
2.418333333333334E+009;1.707645356655121E-001;-6.159791722893715E-002;-5.721028355765156E-005;-4.049045033752918E-003;
2.418500000000000E+009;1.695256233215332E-001;-6.190431490540505E-002;-2.835351915564388E-004;-3.958200104534626E-003;
2.418666666666667E+009;1.682878434658051E-001;-6.249528005719185E-002;-3.990543482359499E-004;-3.999333828687668E-003;
2.418833333333334E+009;1.668644249439240E-001;-6.313027441501617E-002;-3.916831046808511E-004;-3.940253984183073E-003;
2.419000000000000E+009;1.655461192131043E-001;-6.382263451814652E-002;-5.637403810396791E-004;-3.789064241573215E-003;
2.419166666666667E+009;1.641684472560883E-001;-6.464843451976776E-002;-6.312836776487529E-004;-3.838565200567246E-003;
2.419333333333334E+009;1.629243493080139E-001;-6.522678583860397E-002;-7.375063723884523E-004;-3.705421695485711E-003;
2.419500000000000E+009;1.615300774574280E-001;-6.627125293016434E-002;-7.585114799439907E-004;-3.723946399986744E-003;
2.419666666666667E+009;1.605227738618851E-001;-6.737272441387177E-002;-8.240323513746262E-004;-3.583975834771991E-003;
2.419833333333334E+009;1.590568721294403E-001;-6.819376349449158E-002;-1.123888534493744E-003;-3.553009824827313E-003;
2.420000000000000E+009;1.579889655113220E-001;-6.955414265394211E-002;-1.044496893882752E-003;-3.482518251985312E-003;
2.420166666666667E+009;1.567775905132294E-001;-7.081501185894013E-002;-1.051719649694860E-003;-3.416114486753941E-003;
2.420333333333334E+009;1.556399464607239E-001;-7.214049994945526E-002;-1.123866415582597E-003;-3.409318393096328E-003;
2.420500000000000E+009;1.546573340892792E-001;-7.329531013965607E-002;-1.236360636539757E-003;-3.307661274448037E-003;
2.420666666666667E+009;1.536805480718613E-001;-7.482800632715225E-002;-1.314533059485257E-003;-3.207042114809156E-003;
2.420833333333334E+009;1.527460515499115E-001;-7.633365690708160E-002;-1.383038819767535E-003;-3.316896269097924E-003;
2.421000000000000E+009;1.518158465623856E-001;-7.792819291353226E-002;-1.282887649722397E-003;-3.046047408133745E-003;
2.421166666666667E+009;1.511584520339966E-001;-7.964421063661575E-002;-1.475790282711387E-003;-3.083893563598394E-003;
2.421333333333334E+009;1.505640894174576E-001;-8.127806335687637E-002;-1.495208707638085E-003;-3.150407923385501E-003;
2.421500000000000E+009;1.498326510190964E-001;-8.288215100765228E-002;-1.530765672214329E-003;-3.107832977548242E-003;
2.421666666666667E+009;1.496048420667648E-001;-8.462952077388763E-002;-1.692844205535948E-003;-2.959407400339842E-003;
2.421833333333334E+009;1.492434889078140E-001;-8.656378835439682E-002;-1.561210025101900E-003;-2.924311906099320E-003;
2.422000000000000E+009;1.488314121961594E-001;-8.814662694931030E-002;-1.692636054940522E-003;-2.962169935926795E-003;
2.422166666666667E+009;1.486447900533676E-001;-8.998124301433563E-002;-1.692302641458809E-003;-2.745813224464655E-003;
2.422333333333334E+009;1.485157459974289E-001;-9.166514128446579E-002;-1.782272476702929E-003;-2.821445930749178E-003;
2.422500000000000E+009;1.484794318675995E-001;-9.341631084680557E-002;-1.787318498827517E-003;-2.803113078698516E-003;
2.422666666666667E+009;1.485018730163574E-001;-9.533050656318665E-002;-1.965135801583529E-003;-2.723305718973279E-003;
2.422833333333334E+009;1.488440930843353E-001;-9.706500917673111E-002;-2.072041155770421E-003;-2.685980871319771E-003;
2.423000000000000E+009;1.491138190031052E-001;-9.862165153026581E-002;-2.130535896867514E-003;-2.613282296806574E-003;
2.423166666666667E+009;1.493787616491318E-001;-1.003442257642746E-001;-2.152771223336458E-003;-2.487821271643043E-003;
2.423333333333334E+009;1.498554944992065E-001;-1.017463430762291E-001;-2.198187867179513E-003;-2.618647180497646E-003;
2.423500000000000E+009;1.501895636320114E-001;-1.033662185072899E-001;-2.265880582854152E-003;-2.634469186887145E-003;
2.423666666666667E+009;1.505556702613831E-001;-1.048707067966461E-001;-2.368904650211334E-003;-2.384450286626816E-003;
2.423833333333334E+009;1.513559222221375E-001;-1.063853651285172E-001;-2.437756629660726E-003;-2.229106379672885E-003;
2.424000000000000E+009;1.516759991645813E-001;-1.076592803001404E-001;-2.548201242461801E-003;-2.283331705257297E-003;
2.424166666666667E+009;1.520535498857498E-001;-1.088960468769074E-001;-2.670459216460586E-003;-2.148767700418830E-003;
2.424333333333334E+009;1.529656946659088E-001;-1.098828613758087E-001;-2.570451702922583E-003;-2.076185075566173E-003;
2.424500000000000E+009;1.534487903118134E-001;-1.111358180642128E-001;-2.862360561266542E-003;-1.904415083117783E-003;
2.424666666666667E+009;1.541599631309509E-001;-1.120072752237320E-001;-2.835721708834171E-003;-1.845024060457945E-003;
2.424833333333334E+009;1.544996798038483E-001;-1.130246296525002E-001;-2.810333156958222E-003;-1.561389304697514E-003;
2.425000000000000E+009;1.549924015998840E-001;-1.138873845338821E-001;-2.853345591574907E-003;-1.521825091913343E-003;
2.425166666666667E+009;1.554112434387207E-001;-1.145430058240891E-001;-2.881276188418269E-003;-1.502073602750897E-003;
2.425333333333334E+009;1.559147685766220E-001;-1.152971833944321E-001;-2.793075749650598E-003;-1.251847599633038E-003;
2.425500000000000E+009;1.562320142984390E-001;-1.157961934804916E-001;-3.032582812011242E-003;-1.309717772528529E-003;
2.425666666666667E+009;1.565212756395340E-001;-1.163318380713463E-001;-2.990447916090488E-003;-1.227093627676368E-003;
2.425833333333334E+009;1.567954123020172E-001;-1.166481748223305E-001;-2.919059479609132E-003;-1.069338759407401E-003;
2.426000000000000E+009;1.569777727127075E-001;-1.171924248337746E-001;-2.969940192997456E-003;-8.640975574962795E-004;
2.426166666666667E+009;1.573138236999512E-001;-1.174729391932488E-001;-2.742874436080456E-003;-7.203291170299053E-004;
2.426333333333334E+009;1.571848392486572E-001;-1.175624206662178E-001;-2.850565360859036E-003;-6.907834322191775E-004;
2.426500000000000E+009;1.571511775255203E-001;-1.178485825657845E-001;-2.917320700362325E-003;-5.538091645576060E-004;
2.426666666666667E+009;1.571179777383804E-001;-1.177890598773956E-001;-2.772462787106633E-003;-4.040181229356676E-004;
2.426833333333334E+009;1.567434817552567E-001;-1.178587749600411E-001;-2.694017719477415E-003;-3.377607208676636E-004;
2.427000000000000E+009;1.564528942108154E-001;-1.180702820420265E-001;-2.618429018184543E-003;-2.105986495735124E-004;
2.427166666666667E+009;1.559679955244064E-001;-1.179580911993980E-001;-2.579541644081473E-003;-2.360253420192748E-004;
2.427333333333334E+009;1.553529947996140E-001;-1.180463880300522E-001;-2.434158697724342E-003;-8.613872341811657E-005;
2.427500000000000E+009;1.548349410295487E-001;-1.179812699556351E-001;-2.463049022480846E-003;-1.921605435200036E-004;
2.427666666666667E+009;1.540708541870117E-001;-1.180785074830055E-001;-2.396141877397895E-003;4.316474223742262E-005;
