# Version 1.00
#
freq[Hz];re:Trc1_S11;im:Trc1_S11;re:Trc2_S21;im:Trc2_S21;
2.400000000000000E+009;1.605160832405090E-001;5.706919357180595E-002;3.154362319037318E-003;-2.113043796271086E-003;
2.400166666666667E+009;1.605799347162247E-001;5.551765114068985E-002;3.142256988212466E-003;-1.989501994103193E-003;
2.400333333333334E+009;1.605522185564041E-001;5.358453840017319E-002;3.139965701848269E-003;-2.143932739272714E-003;
2.400500000000000E+009;1.607849895954132E-001;5.179471522569656E-002;3.121443092823029E-003;-2.070360817015171E-003;
2.400666666666667E+009;1.608281284570694E-001;5.018363893032074E-002;3.104315605014563E-003;-2.117041498422623E-003;
2.400833333333334E+009;1.611513942480087E-001;4.833621904253960E-002;3.214312950149179E-003;-2.128621097654104E-003;
2.401000000000000E+009;1.613022089004517E-001;4.633276909589768E-002;3.132113954052329E-003;-2.161461859941483E-003;
2.401166666666667E+009;1.614748090505600E-001;4.444961994886398E-002;3.278722986578941E-003;-2.177114365622401E-003;
2.401333333333334E+009;1.618115156888962E-001;4.260439798235893E-002;3.059507813304663E-003;-2.193621592596173E-003;
2.401500000000000E+009;1.622618883848190E-001;4.055755957961083E-002;3.254596609622240E-003;-2.171630039811134E-003;
2.401666666666667E+009;1.626022011041641E-001;3.902291506528854E-002;3.206847468391061E-003;-2.165633486583829E-003;
2.401833333333334E+009;1.631074249744415E-001;3.704687952995300E-002;3.317724913358688E-003;-2.263724338263273E-003;
2.402000000000000E+009;1.634268164634705E-001;3.542932122945786E-002;3.119521774351597E-003;-2.433927729725838E-003;
2.402166666666667E+009;1.638265550136566E-001;3.337926045060158E-002;3.261579666286707E-003;-2.589648356661201E-003;
2.402333333333334E+009;1.644111722707748E-001;3.187940269708633E-002;3.357627196237445E-003;-2.611853182315826E-003;
2.402500000000000E+009;1.652083843946457E-001;3.035431914031506E-002;3.370482008904219E-003;-2.801858354359865E-003;
2.402666666666667E+009;1.657139807939529E-001;2.860716171562672E-002;3.400756279006600E-003;-2.924212720245123E-003;
2.402833333333334E+009;1.664669513702393E-001;2.710259146988392E-002;3.477920545265079E-003;-3.015124937519431E-003;
2.403000000000000E+009;1.670839637517929E-001;2.570843324065208E-002;3.564437851309776E-003;-3.102893475443125E-003;
2.403166666666667E+009;1.679192334413528E-001;2.430842258036137E-002;3.484255634248257E-003;-3.344808239489794E-003;
2.403333333333334E+009;1.686742305755615E-001;2.298915572464466E-002;3.580251475796104E-003;-3.375310916453600E-003;
2.403500000000000E+009;1.692808866500855E-001;2.170334383845329E-002;3.295765025541186E-003;-3.752122167497873E-003;
2.403666666666667E+009;1.699984073638916E-001;2.054345421493053E-002;3.450112417340279E-003;-3.772403113543987E-003;
2.403833333333334E+009;1.708506792783737E-001;1.937007158994675E-002;3.633083077147603E-003;-3.974202554672957E-003;
2.404000000000000E+009;1.716081351041794E-001;1.821918599307537E-002;3.183325985446572E-003;-4.076852463185787E-003;
2.404166666666667E+009;1.722726523876190E-001;1.693426817655563E-002;3.185713430866599E-003;-4.478242713958025E-003;
2.404333333333334E+009;1.728221625089645E-001;1.632777974009514E-002;3.075289539992809E-003;-4.707560874521732E-003;
2.404500000000000E+009;1.734040528535843E-001;1.531551126390696E-002;2.981190336868167E-003;-4.864618647843599E-003;
2.404666666666667E+009;1.743200421333313E-001;1.465336047112942E-002;2.804902847856283E-003;-5.046897102147341E-003;
2.404833333333334E+009;1.749396473169327E-001;1.384840067476034E-002;2.569692675024271E-003;-5.144072696566582E-003;
2.405000000000000E+009;1.755426377058029E-001;1.316262222826481E-002;2.601174870505929E-003;-5.391944665461779E-003;
2.405166666666667E+009;1.759359538555145E-001;1.252733822911978E-002;2.370791509747505E-003;-5.362590774893761E-003;
2.405333333333334E+009;1.766787767410278E-001;1.188357453793287E-002;2.164002973586321E-003;-5.608400795608759E-003;
2.405500000000000E+009;1.771691888570786E-001;1.139271352440119E-002;1.925959484651685E-003;-5.850514862686396E-003;
2.405666666666667E+009;1.775489002466202E-001;1.091385632753372E-002;1.673144637607038E-003;-5.774947814643383E-003;
2.405833333333334E+009;1.777344048023224E-001;1.053263247013092E-002;1.398102962411940E-003;-5.964143201708794E-003;
2.406000000000000E+009;1.782036274671555E-001;9.977417066693306E-003;1.257583149708808E-003;-6.032268051058054E-003;
2.406166666666667E+009;1.783191710710526E-001;9.721480309963226E-003;1.048718229867518E-003;-6.298302207142115E-003;
2.406333333333334E+009;1.787114441394806E-001;9.172604419291019E-003;6.800242699682713E-004;-6.203831173479557E-003;
2.406500000000000E+009;1.786953657865524E-001;8.896050974726677E-003;5.937385139986873E-004;-6.149842403829098E-003;
2.406666666666667E+009;1.785707622766495E-001;8.574654348194599E-003;4.226108139846474E-004;-6.381116341799498E-003;
2.406833333333334E+009;1.787500977516174E-001;7.919217459857464E-003;4.617641025106423E-005;-6.231895647943020E-003;
2.407000000000000E+009;1.786751747131348E-001;7.430561352521181E-003;-1.811294932849705E-004;-6.382761523127556E-003;
2.407166666666667E+009;1.786114126443863E-001;7.155943196266890E-003;-4.082086379639804E-004;-6.288860458880663E-003;
2.407333333333334E+009;1.782648861408234E-001;6.548505276441574E-003;-6.915032863616943E-004;-6.341794505715370E-003;
2.407500000000000E+009;1.780334264039993E-001;5.857593845576048E-003;-8.225009078159928E-004;-6.414862349629402E-003;
2.407666666666667E+009;1.778166443109512E-001;5.344156175851822E-003;-1.132737030275166E-003;-6.262237206101418E-003;
2.407833333333334E+009;1.772707402706146E-001;4.572893958538771E-003;-1.325733959674835E-003;-6.219288334250450E-003;
2.408000000000000E+009;1.769215762615204E-001;3.809617599472404E-003;-1.425934606231749E-003;-6.102883722633123E-003;
2.408166666666667E+009;1.765327304601669E-001;3.136142157018185E-003;-1.632113126106560E-003;-6.030033808201551E-003;
2.408333333333334E+009;1.760877221822739E-001;2.383390674367547E-003;-1.952858758158982E-003;-5.997013766318560E-003;
2.408500000000000E+009;1.754536628723145E-001;1.242328085936606E-003;-2.048760885372758E-003;-5.940722301602364E-003;
2.408666666666667E+009;1.751124262809753E-001;2.478786045685411E-004;-2.424176083877683E-003;-5.923158954828978E-003;
2.408833333333334E+009;1.743233054876328E-001;-7.198199164122343E-004;-2.615577774122357E-003;-5.809662397950888E-003;
2.409000000000000E+009;1.738039404153824E-001;-1.963159535080195E-003;-2.676989184692502E-003;-5.600565113127232E-003;
2.409166666666667E+009;1.732998788356781E-001;-3.210298949852586E-003;-2.915412653237581E-003;-5.647728685289621E-003;
2.409333333333334E+009;1.728447973728180E-001;-4.642526153475046E-003;-3.124910173937678E-003;-5.441168323159218E-003;
2.409500000000000E+009;1.720617860555649E-001;-6.053165066987276E-003;-3.223456675186753E-003;-5.334530025720596E-003;
2.409666666666667E+009;1.714453846216202E-001;-7.377993781119585E-003;-3.287242492660880E-003;-5.318674724549055E-003;
2.409833333333334E+009;1.708388626575470E-001;-8.919692598283291E-003;-3.411575686186552E-003;-4.993301350623369E-003;
2.410000000000000E+009;1.704010218381882E-001;-1.029729936271906E-002;-3.423140151426196E-003;-4.919350147247315E-003;
2.410166666666667E+009;1.699179559946060E-001;-1.206596847623587E-002;-3.599003190174699E-003;-4.780375398695469E-003;
2.410333333333334E+009;1.695340722799301E-001;-1.374232489615679E-002;-3.795040305703878E-003;-4.536246880888939E-003;
2.410500000000000E+009;1.691507101058960E-001;-1.549920253455639E-002;-3.888915991410613E-003;-4.493472166359425E-003;
2.410666666666667E+009;1.685768812894821E-001;-1.724508032202721E-002;-3.954924643039703E-003;-4.484402015805244E-003;
2.410833333333334E+009;1.682468056678772E-001;-1.901244185864925E-002;-4.060552455484867E-003;-4.251901526004076E-003;
2.411000000000000E+009;1.681908071041107E-001;-2.080244757235050E-002;-4.130897577852011E-003;-4.148815758526325E-003;
2.411166666666667E+009;1.679347753524780E-001;-2.277353778481484E-002;-4.307450260967016E-003;-4.179327283054590E-003;
2.411333333333334E+009;1.676983237266541E-001;-2.450871653854847E-002;-4.273859318345785E-003;-4.011923447251320E-003;
2.411500000000000E+009;1.674349755048752E-001;-2.665746212005615E-002;-4.339942242950201E-003;-4.104404710233212E-003;
2.411666666666667E+009;1.676756292581558E-001;-2.841806225478649E-002;-4.478958435356617E-003;-3.755259327590466E-003;
2.411833333333334E+009;1.678130626678467E-001;-3.024728037416935E-002;-4.468342754989862E-003;-3.795571392402053E-003;
2.412000000000000E+009;1.680597960948944E-001;-3.209173306822777E-002;-4.687659442424774E-003;-3.682254347950220E-003;
2.412166666666667E+009;1.678915172815323E-001;-3.396441787481308E-002;-4.777762107551098E-003;-3.684366587549448E-003;
2.412333333333334E+009;1.684075891971588E-001;-3.579786047339439E-002;-4.940934013575316E-003;-3.510921960696578E-003;
2.412500000000000E+009;1.684498935937882E-001;-3.750364482402802E-002;-5.059706978499889E-003;-3.507312620058656E-003;
2.412666666666667E+009;1.687829941511154E-001;-3.941078111529350E-002;-5.157222505658865E-003;-3.357546404004097E-003;
2.412833333333334E+009;1.691921055316925E-001;-4.119065403938294E-002;-5.226030480116606E-003;-3.222116734832525E-003;
2.413000000000000E+009;1.694640815258026E-001;-4.268581792712212E-002;-5.467391572892666E-003;-3.182089421898127E-003;
2.413166666666667E+009;1.700299531221390E-001;-4.436962679028511E-002;-5.644913297146559E-003;-2.923873485997319E-003;
2.413333333333334E+009;1.703232824802399E-001;-4.574460908770561E-002;-5.738840438425541E-003;-3.011893248185515E-003;
2.413500000000000E+009;1.710024774074554E-001;-4.733759909868240E-002;-5.998426117002964E-003;-2.703723497688770E-003;
2.413666666666667E+009;1.713396459817886E-001;-4.873570427298546E-002;-5.849886219948530E-003;-2.513675950467587E-003;
2.413833333333334E+009;1.718995124101639E-001;-5.006286129355431E-002;-6.078305654227734E-003;-2.577608916908503E-003;
2.414000000000000E+009;1.722329109907150E-001;-5.129154399037361E-002;-6.532241124659777E-003;-2.279829001054168E-003;
2.414166666666667E+009;1.730441302061081E-001;-5.247841775417328E-002;-6.654915865510702E-003;-2.093153540045023E-003;
2.414333333333334E+009;1.733471006155014E-001;-5.356556549668312E-002;-6.816911045461893E-003;-1.958426553755999E-003;
2.414500000000000E+009;1.741257160902023E-001;-5.457556247711182E-002;-6.908411625772715E-003;-1.571682281792164E-003;
2.414666666666667E+009;1.745315790176392E-001;-5.530765652656555E-002;-6.880113855004311E-003;-1.408464391715825E-003;
2.414833333333334E+009;1.748772561550140E-001;-5.625920370221138E-002;-6.954826880246401E-003;-1.008186838589609E-003;
2.415000000000000E+009;1.752463281154633E-001;-5.690434947609901E-002;-7.108433172106743E-003;-9.047616622410715E-004;
2.415166666666667E+009;1.755290478467941E-001;-5.782077461481094E-002;-7.197671104222536E-003;-5.583520978689194E-004;
2.415333333333334E+009;1.758749336004257E-001;-5.842912569642067E-002;-7.161304354667664E-003;-1.833950664149597E-004;
2.415500000000000E+009;1.762832105159760E-001;-5.890867486596108E-002;-7.366188336163759E-003;-3.414712045923807E-005;
2.415666666666667E+009;1.763942688703537E-001;-5.931305140256882E-002;-7.391030434519053E-003;2.126919280271977E-004;
2.415833333333334E+009;1.767372190952301E-001;-5.974728986620903E-002;-7.429297082126141E-003;7.885688100941479E-004;
2.416000000000000E+009;1.764893829822540E-001;-6.012346968054771E-002;-7.450986187905073E-003;8.546313038095832E-004;
2.416166666666667E+009;1.766201853752136E-001;-6.052520126104355E-002;-7.399150636047125E-003;1.451649004593492E-003;
2.416333333333334E+009;1.765414178371429E-001;-6.070302426815033E-002;-7.403853815048933E-003;1.563684665597975E-003;
2.416500000000000E+009;1.763207614421845E-001;-6.116489320993424E-002;-7.308660540729761E-003;2.050417242571712E-003;
2.416666666666667E+009;1.759879440069199E-001;-6.122900918126106E-002;-7.213679607957602E-003;2.282517496496439E-003;
2.416833333333334E+009;1.758799999952316E-001;-6.162597984075546E-002;-7.072675507515669E-003;2.564020920544863E-003;
2.417000000000000E+009;1.753173768520355E-001;-6.183797493577004E-002;-6.977525074034929E-003;2.744872588664293E-003;
2.417166666666667E+009;1.747611165046692E-001;-6.203846633434296E-002;-6.800629198551178E-003;3.186970716342330E-003;
2.417333333333334E+009;1.742184311151505E-001;-6.200978159904480E-002;-6.644149776548147E-003;3.347374033182859E-003;
2.417500000000000E+009;1.735336333513260E-001;-6.247216463088989E-002;-6.689119618386030E-003;3.732613055035472E-003;
2.417666666666667E+009;1.728496104478836E-001;-6.257244944572449E-002;-6.456699687987566E-003;3.919747658073902E-003;
2.417833333333334E+009;1.719482243061066E-001;-6.286214292049408E-002;-6.186903920024633E-003;4.077973309904337E-003;
2.418000000000000E+009;1.710083484649658E-001;-6.339927017688751E-002;-5.917306523770094E-003;4.390058107674122E-003;
2.418166666666667E+009;1.701124459505081E-001;-6.344029307365418E-002;-5.886303260922432E-003;4.590337164700031E-003;
2.418333333333334E+009;1.693011522293091E-001;-6.408517062664032E-002;-5.778617691248655E-003;4.705339670181274E-003;
2.418500000000000E+009;1.680758148431778E-001;-6.436566263437271E-002;-5.449182353913784E-003;4.800428170710802E-003;
2.418666666666667E+009;1.671822965145111E-001;-6.497258692979813E-002;-5.232173949480057E-003;5.200814455747604E-003;
2.418833333333334E+009;1.657866686582565E-001;-6.539731472730637E-002;-5.021985620260239E-003;5.271643865853548E-003;
2.419000000000000E+009;1.645889729261398E-001;-6.627956032752991E-002;-4.752004053443670E-003;5.368376150727272E-003;
2.419166666666667E+009;1.634531617164612E-001;-6.683468073606491E-002;-4.688696004450321E-003;5.404271185398102E-003;
2.419333333333334E+009;1.621533036231995E-001;-6.741191446781158E-002;-4.268598277121782E-003;5.513179581612349E-003;
2.419500000000000E+009;1.610170304775238E-001;-6.854529678821564E-002;-4.168346058577299E-003;5.752561613917351E-003;
2.419666666666667E+009;1.599247455596924E-001;-6.955349445343018E-002;-4.046901129186153E-003;5.756479222327471E-003;
2.419833333333334E+009;1.585804671049118E-001;-7.043440639972687E-002;-3.795596770942211E-003;6.003572139889002E-003;
2.420000000000000E+009;1.575496196746826E-001;-7.141580432653427E-002;-3.562681609764695E-003;6.030538119375706E-003;
2.420166666666667E+009;1.565751135349274E-001;-7.259340584278107E-002;-3.336273832246661E-003;6.162733770906925E-003;
2.420333333333334E+009;1.553099453449249E-001;-7.388876378536224E-002;-3.201434388756752E-003;6.210238207131624E-003;
2.420500000000000E+009;1.543738394975662E-001;-7.505868375301361E-002;-3.000406315550208E-003;6.268009543418884E-003;
2.420666666666667E+009;1.532163172960281E-001;-7.636895775794983E-002;-2.695814007893205E-003;6.408677436411381E-003;
2.420833333333334E+009;1.523729115724564E-001;-7.794518768787384E-002;-2.509378828108311E-003;6.460515316575766E-003;
2.421000000000000E+009;1.514680385589600E-001;-7.941447198390961E-002;-2.338847145438194E-003;6.553445477038622E-003;
2.421166666666667E+009;1.506299823522568E-001;-8.085821568965912E-002;-1.987755764275789E-003;6.632451899349690E-003;
2.421333333333334E+009;1.501253992319107E-001;-8.247094601392746E-002;-1.867756713181734E-003;6.543832365423441E-003;
2.421500000000000E+009;1.493084877729416E-001;-8.400862663984299E-002;-1.496604643762112E-003;6.753135472536087E-003;
2.421666666666667E+009;1.487296074628830E-001;-8.557650446891785E-002;-1.305692712776363E-003;6.539579946547747E-003;
2.421833333333334E+009;1.482692956924439E-001;-8.728569000959396E-002;-1.057115150615573E-003;6.657422985881567E-003;
2.422000000000000E+009;1.478105783462524E-001;-8.905944228172302E-002;-8.125675376504660E-004;6.692928727716208E-003;
2.422166666666667E+009;1.475086361169815E-001;-9.090880304574966E-002;-6.148010143078864E-004;6.784065626561642E-003;
2.422333333333334E+009;1.473581045866013E-001;-9.255005419254303E-002;-3.599199117161334E-004;6.804179865866900E-003;
2.422500000000000E+009;1.470019668340683E-001;-9.415134042501450E-002;-2.414954651612788E-004;6.712892558425665E-003;
2.422666666666667E+009;1.468247473239899E-001;-9.578436613082886E-002;5.289789623930119E-005;6.724935024976730E-003;
2.422833333333334E+009;1.469270437955856E-001;-9.769334644079208E-002;4.051533760502935E-004;6.536787841469050E-003;
2.423000000000000E+009;1.469450294971466E-001;-9.925044327974320E-002;5.529916379600763E-004;6.676967721432447E-003;
2.423166666666667E+009;1.470107138156891E-001;-1.009403243660927E-001;8.813913445919752E-004;6.431940477341414E-003;
2.423333333333334E+009;1.472607403993607E-001;-1.022831872105598E-001;1.292003784328699E-003;6.506234407424927E-003;
2.423500000000000E+009;1.473027765750885E-001;-1.040510758757591E-001;1.336711575277150E-003;6.310592405498028E-003;
2.423666666666667E+009;1.475357115268707E-001;-1.056440770626068E-001;1.690190518274903E-003;6.247040815651417E-003;
2.423833333333334E+009;1.479404121637344E-001;-1.071891784667969E-001;1.818350632674992E-003;6.159061100333929E-003;
2.424000000000000E+009;1.481040716171265E-001;-1.083417385816574E-001;2.092936076223850E-003;6.104399915784597E-003;
2.424166666666667E+009;1.485213637351990E-001;-1.096796467900276E-001;2.129329834133387E-003;5.985117051750422E-003;
2.424333333333334E+009;1.490401774644852E-001;-1.108577251434326E-001;2.321389736607671E-003;5.782059393823147E-003;
2.424500000000000E+009;1.492335051298142E-001;-1.121751889586449E-001;2.528194570913911E-003;5.597257521003485E-003;
2.424666666666667E+009;1.496127694845200E-001;-1.130067855119705E-001;2.779716392979026E-003;5.646045319736004E-003;
2.424833333333334E+009;1.498756110668182E-001;-1.141712069511414E-001;2.953633200377226E-003;5.321486387401819E-003;
2.425000000000000E+009;1.502801477909088E-001;-1.151594743132591E-001;3.197457408532500E-003;5.302963312715292E-003;
2.425166666666667E+009;1.503971070051193E-001;-1.159368753433228E-001;3.239787183701992E-003;5.077830981463194E-003;
2.425333333333334E+009;1.508203446865082E-001;-1.167994588613510E-001;3.435866674408317E-003;4.847141448408365E-003;
2.425500000000000E+009;1.512009054422379E-001;-1.175489500164986E-001;3.831173526123166E-003;4.798450041562319E-003;
2.425666666666667E+009;1.512302011251450E-001;-1.180801019072533E-001;3.722743596881628E-003;4.650438670068979E-003;
2.425833333333334E+009;1.513437330722809E-001;-1.185988187789917E-001;3.936380613595247E-003;4.578004125505686E-003;
2.426000000000000E+009;1.515815705060959E-001;-1.192719116806984E-001;4.010715056210756E-003;4.310580901801586E-003;
2.426166666666667E+009;1.518975645303726E-001;-1.197350621223450E-001;4.084877669811249E-003;4.069535061717033E-003;
2.426333333333334E+009;1.516970992088318E-001;-1.200234591960907E-001;4.213630221784115E-003;3.806230146437883E-003;
2.426500000000000E+009;1.516914069652557E-001;-1.203136220574379E-001;4.123121034353972E-003;3.656112588942051E-003;
2.426666666666667E+009;1.517932862043381E-001;-1.203981190919876E-001;4.403797909617424E-003;3.500842722132802E-003;
2.426833333333334E+009;1.514484584331513E-001;-1.207099482417107E-001;4.546013660728931E-003;3.204386914148927E-003;
2.427000000000000E+009;1.510939896106720E-001;-1.209616959095001E-001;4.498154390603304E-003;3.209802554920316E-003;
2.427166666666667E+009;1.507985442876816E-001;-1.209803298115730E-001;4.561399575322866E-003;2.924582920968533E-003;
2.427333333333334E+009;1.502564847469330E-001;-1.211263388395309E-001;4.588450305163860E-003;2.584315137937665E-003;
2.427500000000000E+009;1.498827040195465E-001;-1.212241947650909E-001;4.648467991501093E-003;2.580055501312017E-003;
2.427666666666667E+009;1.491822004318237E-001;-1.213298514485359E-001;4.561346024274826E-003;2.454794943332672E-003;
