# Version 1.00
#
freq[Hz];re:Trc1_S11;im:Trc1_S11;re:Trc2_S21;im:Trc2_S21;
2.400000000000000E+009;1.566193699836731E-001;5.940467864274979E-002;9.993375279009342E-004;3.339748596772552E-003;
2.400166666666667E+009;1.568870544433594E-001;5.759347975254059E-002;1.099725486710668E-003;3.075313521549106E-003;
2.400333333333334E+009;1.567548513412476E-001;5.560789629817009E-002;1.257277210243046E-003;3.195333061739802E-003;
2.400500000000000E+009;1.571867465972900E-001;5.359042063355446E-002;1.374859246425331E-003;3.022448625415564E-003;
2.400666666666667E+009;1.572603285312653E-001;5.162012204527855E-002;1.443779678083956E-003;2.962788101285696E-003;
2.400833333333334E+009;1.577112227678299E-001;4.961247369647026E-002;1.466410118155181E-003;3.012395929545164E-003;
2.401000000000000E+009;1.578191965818405E-001;4.753763228654862E-002;1.552450819872320E-003;2.729752566665411E-003;
2.401166666666667E+009;1.583149433135986E-001;4.531338438391686E-002;1.815192401409149E-003;2.762570278719068E-003;
2.401333333333334E+009;1.586132198572159E-001;4.345884546637535E-002;1.777428784407675E-003;2.801678376272321E-003;
2.401500000000000E+009;1.594827920198441E-001;4.143038764595985E-002;1.782760373316705E-003;2.613113494589925E-003;
2.401666666666667E+009;1.599097549915314E-001;3.958882763981819E-002;1.724039553664625E-003;2.486612880602479E-003;
2.401833333333334E+009;1.604391485452652E-001;3.766510263085365E-002;1.855848124250770E-003;2.570034237578511E-003;
2.402000000000000E+009;1.610587686300278E-001;3.578807413578033E-002;2.002661814913154E-003;2.430427819490433E-003;
2.402166666666667E+009;1.618680953979492E-001;3.406015411019325E-002;1.870006788522005E-003;2.400278812274337E-003;
2.402333333333334E+009;1.623501926660538E-001;3.237548470497131E-002;2.019241917878389E-003;2.445417689159513E-003;
2.402500000000000E+009;1.634609252214432E-001;3.080653958022595E-002;2.029336756095290E-003;2.223154529929161E-003;
2.402666666666667E+009;1.643242835998535E-001;2.936578728258610E-002;2.013681456446648E-003;2.386162057518959E-003;
2.402833333333334E+009;1.651028841733933E-001;2.804891578853130E-002;2.142450772225857E-003;2.262076362967491E-003;
2.403000000000000E+009;1.661710590124130E-001;2.666561119258404E-002;2.058474346995354E-003;2.263962058350444E-003;
2.403166666666667E+009;1.668978780508041E-001;2.505641989409924E-002;2.095460426062346E-003;2.144920639693737E-003;
2.403333333333334E+009;1.679474413394928E-001;2.414666302502155E-002;2.174183726310730E-003;2.184969605877996E-003;
2.403500000000000E+009;1.687120646238327E-001;2.294301800429821E-002;2.179868519306183E-003;2.060381695628166E-003;
2.403666666666667E+009;1.697202920913696E-001;2.179525606334209E-002;2.222553128376603E-003;1.908016158267856E-003;
2.403833333333334E+009;1.707100719213486E-001;2.087715826928616E-002;2.339272759854794E-003;2.129544969648123E-003;
2.404000000000000E+009;1.715450435876846E-001;1.992174796760082E-002;2.385253785178065E-003;2.107728039845824E-003;
2.404166666666667E+009;1.725323200225830E-001;1.899079792201519E-002;2.439684234559536E-003;1.983150141313672E-003;
2.404333333333334E+009;1.733297258615494E-001;1.838344894349575E-002;2.284684451296926E-003;2.034681383520365E-003;
2.404500000000000E+009;1.740317195653915E-001;1.769423857331276E-002;2.311629476025701E-003;1.925226068124175E-003;
2.404666666666667E+009;1.749505251646042E-001;1.699570752680302E-002;2.442533615976572E-003;2.093451097607613E-003;
2.404833333333334E+009;1.756117045879364E-001;1.636383309960365E-002;2.464117715135217E-003;1.917333924211562E-003;
2.405000000000000E+009;1.763402968645096E-001;1.590330898761749E-002;2.562960609793663E-003;1.813587616197765E-003;
2.405166666666667E+009;1.769232153892517E-001;1.539878919720650E-002;2.587628317996860E-003;1.901186886243522E-003;
2.405333333333334E+009;1.776227951049805E-001;1.496030855923891E-002;2.567080548033118E-003;1.871120999567211E-003;
2.405500000000000E+009;1.780690997838974E-001;1.471394579857588E-002;2.784593496471643E-003;1.814638148061931E-003;
2.405666666666667E+009;1.784982979297638E-001;1.440101489424706E-002;2.697410760447383E-003;1.847201958298683E-003;
2.405833333333334E+009;1.786903887987137E-001;1.410647295415402E-002;3.042511409148574E-003;1.811099704355001E-003;
2.406000000000000E+009;1.790360957384110E-001;1.356297917664051E-002;2.967708976939321E-003;1.808859291486442E-003;
2.406166666666667E+009;1.792088001966476E-001;1.350378524512053E-002;2.965763676911593E-003;1.840431708842516E-003;
2.406333333333334E+009;1.795380711555481E-001;1.311682164669037E-002;3.050085157155991E-003;1.800984842702746E-003;
2.406500000000000E+009;1.794312596321106E-001;1.268546842038631E-002;3.130278550088406E-003;1.768535352312028E-003;
2.406666666666667E+009;1.791683882474899E-001;1.247328706085682E-002;3.298219060525298E-003;1.739470986649394E-003;
2.406833333333334E+009;1.791983246803284E-001;1.197759341448546E-002;3.401595633476973E-003;1.412985962815583E-003;
2.407000000000000E+009;1.791518181562424E-001;1.150116324424744E-002;3.368837758898735E-003;1.298399874940515E-003;
2.407166666666667E+009;1.789801716804504E-001;1.112366840243340E-002;3.683384740725160E-003;1.539611024782062E-003;
2.407333333333334E+009;1.786156594753265E-001;1.058790553361177E-002;3.605339210480452E-003;1.343600917607546E-003;
2.407500000000000E+009;1.780873537063599E-001;9.944052435457707E-003;3.742705099284649E-003;1.363942981697619E-003;
2.407666666666667E+009;1.777331531047821E-001;9.226328693330288E-003;3.915480803698301E-003;1.157607301138341E-003;
2.407833333333334E+009;1.772710084915161E-001;8.488281629979610E-003;3.917139954864979E-003;9.723296388983727E-004;
2.408000000000000E+009;1.766812503337860E-001;7.707981392741203E-003;4.036590456962585E-003;9.703758405521512E-004;
2.408166666666667E+009;1.761495620012283E-001;6.981911603361368E-003;4.072562325745821E-003;8.368562557734549E-004;
2.408333333333334E+009;1.756879687309265E-001;5.921250209212303E-003;4.207759164273739E-003;8.066662121564150E-004;
2.408500000000000E+009;1.750833094120026E-001;4.790171515196562E-003;4.307971335947514E-003;7.085166289471090E-004;
2.408666666666667E+009;1.744042038917542E-001;3.697602543979883E-003;4.385977052152157E-003;4.593461635522544E-004;
2.408833333333334E+009;1.736458837985992E-001;2.513457788154483E-003;4.444505553692579E-003;5.189265357330442E-004;
2.409000000000000E+009;1.729561388492584E-001;1.151623902842403E-003;4.577004350721836E-003;2.629022055771202E-004;
2.409166666666667E+009;1.724173873662949E-001;-1.421680499333888E-004;4.589427728205919E-003;1.267692277906463E-004;
2.409333333333334E+009;1.718706190586090E-001;-1.662792288698256E-003;4.556879401206970E-003;1.522484853921924E-005;
2.409500000000000E+009;1.713700294494629E-001;-3.250348148867488E-003;4.671524278819561E-003;-7.678414840484038E-005;
2.409666666666667E+009;1.705250740051270E-001;-4.924173001199961E-003;4.706748761236668E-003;-3.011258086189628E-004;
2.409833333333334E+009;1.699109971523285E-001;-6.376223638653755E-003;4.771572072058916E-003;-5.089970072731376E-004;
2.410000000000000E+009;1.696759760379791E-001;-8.066455833613873E-003;4.827221855521202E-003;-5.844337283633649E-004;
2.410166666666667E+009;1.691424399614334E-001;-9.808347560465336E-003;4.832277540117502E-003;-8.723951177671552E-004;
2.410333333333334E+009;1.687057167291641E-001;-1.164489053189755E-002;4.876893945038319E-003;-1.120037864893675E-003;
2.410500000000000E+009;1.684890687465668E-001;-1.354502979665995E-002;4.866187926381826E-003;-1.253394992090762E-003;
2.410666666666667E+009;1.681645065546036E-001;-1.549112331122160E-002;4.870914388448000E-003;-1.420867629349232E-003;
2.410833333333334E+009;1.679778695106506E-001;-1.729078218340874E-002;4.892767872661352E-003;-1.764538697898388E-003;
2.411000000000000E+009;1.677708625793457E-001;-1.928743720054627E-002;4.716966301202774E-003;-1.908436417579651E-003;
2.411166666666667E+009;1.677303463220596E-001;-2.125464379787445E-002;4.783897195011377E-003;-2.062083920463920E-003;
2.411333333333334E+009;1.676141619682312E-001;-2.316532470285893E-002;4.825172945857048E-003;-2.249830635264516E-003;
2.411500000000000E+009;1.678306311368942E-001;-2.514439821243286E-002;4.711398854851723E-003;-2.437273971736431E-003;
2.411666666666667E+009;1.679730862379074E-001;-2.703445404767990E-002;4.546249751001597E-003;-2.769851125776768E-003;
2.411833333333334E+009;1.682898104190826E-001;-2.887592464685440E-002;4.495720379054546E-003;-2.989434404298663E-003;
2.412000000000000E+009;1.686562001705170E-001;-3.082171641290188E-002;4.492835141718388E-003;-3.237347584217787E-003;
2.412166666666667E+009;1.688860058784485E-001;-3.274588659405708E-002;4.312225151807070E-003;-3.205576911568642E-003;
2.412333333333334E+009;1.694864034652710E-001;-3.441698476672173E-002;3.980096429586411E-003;-3.521600970998406E-003;
2.412500000000000E+009;1.696591675281525E-001;-3.608646243810654E-002;3.999631851911545E-003;-3.678461769595742E-003;
2.412666666666667E+009;1.702356785535812E-001;-3.807858750224114E-002;3.760780440643430E-003;-3.675671294331551E-003;
2.412833333333334E+009;1.708513647317886E-001;-3.970569372177124E-002;3.793277777731419E-003;-4.071996081620455E-003;
2.413000000000000E+009;1.713522523641586E-001;-4.116282984614372E-002;3.408293705433607E-003;-4.156890325248241E-003;
2.413166666666667E+009;1.718354672193527E-001;-4.285363107919693E-002;3.304775571450591E-003;-4.196922760456801E-003;
2.413333333333334E+009;1.723539680242539E-001;-4.420888423919678E-002;3.217977937310934E-003;-4.291230347007513E-003;
2.413500000000000E+009;1.732041984796524E-001;-4.579164832830429E-002;2.935459371656179E-003;-4.572515841573477E-003;
2.413666666666667E+009;1.738320142030716E-001;-4.727039858698845E-002;2.833936829119921E-003;-4.584815818816423E-003;
2.413833333333334E+009;1.742001324892044E-001;-4.837321490049362E-002;2.492517465725541E-003;-4.501434974372387E-003;
2.414000000000000E+009;1.747030615806580E-001;-4.951605573296547E-002;2.304790075868368E-003;-4.688133485615253E-003;
2.414166666666667E+009;1.753410100936890E-001;-5.055000633001328E-002;2.246977528557181E-003;-4.610025789588690E-003;
2.414333333333334E+009;1.758220940828323E-001;-5.158291757106781E-002;1.997925108298659E-003;-4.762653261423111E-003;
2.414500000000000E+009;1.765408217906952E-001;-5.240141972899437E-002;1.725348178297281E-003;-4.888728260993958E-003;
2.414666666666667E+009;1.768452823162079E-001;-5.328403785824776E-002;1.596798305399716E-003;-4.882609006017447E-003;
2.414833333333334E+009;1.772198826074600E-001;-5.412577837705612E-002;1.422906061634421E-003;-4.966534208506346E-003;
2.415000000000000E+009;1.774867922067642E-001;-5.458183959126473E-002;1.206520362757146E-003;-4.888581577688456E-003;
2.415166666666667E+009;1.778525114059448E-001;-5.531865358352661E-002;1.164935179986060E-003;-4.981965757906437E-003;
2.415333333333334E+009;1.783283352851868E-001;-5.581214651465416E-002;1.028907485306263E-003;-5.070935934782028E-003;
2.415500000000000E+009;1.783316731452942E-001;-5.620653927326202E-002;7.767674978822470E-004;-4.936032462865114E-003;
2.415666666666667E+009;1.783518046140671E-001;-5.666555836796761E-002;4.494916938710958E-004;-4.971210379153490E-003;
2.415833333333334E+009;1.785238534212112E-001;-5.708265304565430E-002;3.942537296097726E-004;-4.858905449509621E-003;
2.416000000000000E+009;1.782386302947998E-001;-5.730069056153297E-002;2.117263211403042E-004;-4.929712973535061E-003;
2.416166666666667E+009;1.783367693424225E-001;-5.772471055388451E-002;-3.625185127020814E-005;-4.913456737995148E-003;
2.416333333333334E+009;1.778234541416168E-001;-5.782733485102654E-002;-7.460510096279904E-005;-4.856233485043049E-003;
2.416500000000000E+009;1.776294410228729E-001;-5.816638097167015E-002;-3.075218410231173E-004;-4.915579687803984E-003;
2.416666666666667E+009;1.772460788488388E-001;-5.830999091267586E-002;-3.309470484964550E-004;-4.649629350751638E-003;
2.416833333333334E+009;1.768041253089905E-001;-5.857098475098610E-002;-5.255950381979346E-004;-4.716470837593079E-003;
2.417000000000000E+009;1.759705394506455E-001;-5.896547436714172E-002;-7.098714704625309E-004;-4.609149415045977E-003;
2.417166666666667E+009;1.753119230270386E-001;-5.913904681801796E-002;-7.054056623019278E-004;-4.593304358422756E-003;
2.417333333333334E+009;1.746476292610169E-001;-5.933165922760963E-002;-1.022500451654196E-003;-4.522194154560566E-003;
2.417500000000000E+009;1.737260669469833E-001;-5.978840589523315E-002;-9.517417056486011E-004;-4.465535748749971E-003;
2.417666666666667E+009;1.729669868946075E-001;-6.000644713640213E-002;-1.196572789922357E-003;-4.545927047729492E-003;
2.417833333333334E+009;1.719323098659515E-001;-6.050036847591400E-002;-1.350750564597547E-003;-4.491954576224089E-003;
2.418000000000000E+009;1.707755029201508E-001;-6.106049194931984E-002;-1.327569829300046E-003;-4.348989576101303E-003;
2.418166666666667E+009;1.695815473794937E-001;-6.135397404432297E-002;-1.469085691496730E-003;-4.450726322829723E-003;
2.418333333333334E+009;1.688206046819687E-001;-6.203536689281464E-002;-1.631485880352557E-003;-4.246925003826618E-003;
2.418500000000000E+009;1.674748212099075E-001;-6.247046217322350E-002;-1.689846627414227E-003;-4.300451371818781E-003;
2.418666666666667E+009;1.663607507944107E-001;-6.317859143018723E-002;-1.670268480665982E-003;-4.273795057088137E-003;
2.418833333333334E+009;1.650537252426148E-001;-6.410570442676544E-002;-1.760548213496804E-003;-4.040917381644249E-003;
2.419000000000000E+009;1.636548787355423E-001;-6.503777205944061E-002;-1.940891030244529E-003;-4.118583165109158E-003;
2.419166666666667E+009;1.625885516405106E-001;-6.571509689092636E-002;-2.042324049398303E-003;-4.092064686119556E-003;
2.419333333333334E+009;1.612181812524796E-001;-6.653413921594620E-002;-2.062810119241476E-003;-4.060096573084593E-003;
2.419500000000000E+009;1.600559502840042E-001;-6.776897609233856E-002;-2.277303952723742E-003;-4.059717059135437E-003;
2.419666666666667E+009;1.591395586729050E-001;-6.892640143632889E-002;-2.386169508099556E-003;-3.858512733131647E-003;
2.419833333333334E+009;1.578412652015686E-001;-6.994426250457764E-002;-2.447743434458971E-003;-3.972574137151241E-003;
2.420000000000000E+009;1.570261865854263E-001;-7.109290361404419E-002;-2.474969020113349E-003;-3.941860049962997E-003;
2.420166666666667E+009;1.557672768831253E-001;-7.235845178365707E-002;-2.695138333365321E-003;-3.739982843399048E-003;
2.420333333333334E+009;1.550144404172897E-001;-7.392997294664383E-002;-2.767747035250068E-003;-3.669010242447257E-003;
2.420500000000000E+009;1.541135758161545E-001;-7.512664049863815E-002;-2.842366928234696E-003;-3.670667763799429E-003;
2.420666666666667E+009;1.532431840896606E-001;-7.653369754552841E-002;-2.933455165475607E-003;-3.728624898940325E-003;
2.420833333333334E+009;1.525608301162720E-001;-7.815376669168472E-002;-3.085086122155190E-003;-3.465728135779500E-003;
2.421000000000000E+009;1.517661660909653E-001;-7.981336116790772E-002;-3.160919062793255E-003;-3.389003686606884E-003;
2.421166666666667E+009;1.513785123825073E-001;-8.132744580507278E-002;-3.203320549800992E-003;-3.423576476052404E-003;
2.421333333333334E+009;1.508527398109436E-001;-8.299256116151810E-002;-3.432433819398284E-003;-3.421830013394356E-003;
2.421500000000000E+009;1.504167765378952E-001;-8.463605493307114E-002;-3.626734716817737E-003;-3.234175266698003E-003;
2.421666666666667E+009;1.500627249479294E-001;-8.630638569593430E-002;-3.642407245934010E-003;-3.192076226696372E-003;
2.421833333333334E+009;1.499279439449310E-001;-8.794536441564560E-002;-3.804257139563561E-003;-3.102833172306418E-003;
2.422000000000000E+009;1.497115194797516E-001;-8.953318744897842E-002;-4.056572914123535E-003;-2.954392926767469E-003;
2.422166666666667E+009;1.496286094188690E-001;-9.136422723531723E-002;-4.117685835808516E-003;-2.684745239093900E-003;
2.422333333333334E+009;1.496460735797882E-001;-9.283127635717392E-002;-4.244087729603052E-003;-2.658642129972577E-003;
2.422500000000000E+009;1.495511233806610E-001;-9.444347023963928E-002;-4.420476499944925E-003;-2.551805460825563E-003;
2.422666666666667E+009;1.498170346021652E-001;-9.599468857049942E-002;-4.492602776736021E-003;-2.226947573944926E-003;
2.422833333333334E+009;1.501727998256683E-001;-9.779955446720123E-002;-4.747953731566668E-003;-2.031467854976654E-003;
2.423000000000000E+009;1.502996534109116E-001;-9.925071150064468E-002;-4.774833563715220E-003;-2.011062577366829E-003;
2.423166666666667E+009;1.508221030235291E-001;-1.008112058043480E-001;-4.536073189228773E-003;-1.794755342416465E-003;
2.423333333333334E+009;1.512287855148315E-001;-1.021386310458183E-001;-4.828110337257385E-003;-1.477370271459222E-003;
2.423500000000000E+009;1.516303122043610E-001;-1.036052703857422E-001;-5.072194151580334E-003;-1.244779676198959E-003;
2.423666666666667E+009;1.520352959632874E-001;-1.050360500812531E-001;-4.875082988291979E-003;-1.023589982651174E-003;
2.423833333333334E+009;1.526645272970200E-001;-1.061637327075005E-001;-5.109691992402077E-003;-7.870007539168000E-004;
2.424000000000000E+009;1.530715078115463E-001;-1.071739494800568E-001;-5.002988968044519E-003;-6.291007739491761E-004;
2.424166666666667E+009;1.534132808446884E-001;-1.082886010408402E-001;-5.043891258537769E-003;-4.758099094033241E-004;
2.424333333333334E+009;1.539303809404373E-001;-1.092348247766495E-001;-5.077398847788572E-003;-7.554111653007567E-005;
2.424500000000000E+009;1.543539315462112E-001;-1.103479042649269E-001;-5.159822758287191E-003;2.114437120326329E-005;
2.424666666666667E+009;1.550187617540360E-001;-1.111103072762489E-001;-4.947860259562731E-003;2.408449072390795E-004;
2.424833333333334E+009;1.552756577730179E-001;-1.119319200515747E-001;-4.995642229914665E-003;3.397399850655347E-004;
2.425000000000000E+009;1.556895077228546E-001;-1.126891896128655E-001;-4.996645729988813E-003;8.080149418674409E-004;
2.425166666666667E+009;1.558829694986343E-001;-1.132028028368950E-001;-4.790854174643755E-003;7.490146090276539E-004;
2.425333333333334E+009;1.562178581953049E-001;-1.138612851500511E-001;-4.832497332245112E-003;9.845884051173925E-004;
2.425500000000000E+009;1.566345691680908E-001;-1.144175380468369E-001;-4.746885504573584E-003;1.370621845126152E-003;
2.425666666666667E+009;1.566511839628220E-001;-1.147501394152641E-001;-4.645814653486013E-003;1.364934723824263E-003;
2.425833333333334E+009;1.566865593194962E-001;-1.151579543948174E-001;-4.312175326049328E-003;1.576507580466569E-003;
2.426000000000000E+009;1.567874103784561E-001;-1.156169474124908E-001;-4.266340751200914E-003;1.708666095510125E-003;
2.426166666666667E+009;1.569123268127441E-001;-1.160227358341217E-001;-4.160356242209673E-003;1.843286561779678E-003;
2.426333333333334E+009;1.566333621740341E-001;-1.161993369460106E-001;-3.969001118093729E-003;1.983890542760491E-003;
2.426500000000000E+009;1.565064191818237E-001;-1.162640377879143E-001;-3.678489476442337E-003;2.179071772843599E-003;
2.426666666666667E+009;1.563320606946945E-001;-1.163845956325531E-001;-3.641768125817180E-003;2.077030017971993E-003;
2.426833333333334E+009;1.558050513267517E-001;-1.165494993329048E-001;-3.460459876805544E-003;2.233281731605530E-003;
2.427000000000000E+009;1.553410738706589E-001;-1.168070957064629E-001;-3.364304080605507E-003;2.370391972362995E-003;
2.427166666666667E+009;1.548625379800797E-001;-1.168019846081734E-001;-3.154038917273283E-003;2.328668953850865E-003;
2.427333333333334E+009;1.540770381689072E-001;-1.169795840978622E-001;-3.166517009958625E-003;2.361832652240992E-003;
2.427500000000000E+009;1.534141451120377E-001;-1.171517446637154E-001;-2.959538949653506E-003;2.472252584993839E-003;
2.427666666666667E+009;1.525043994188309E-001;-1.173716410994530E-001;-2.707281149923801E-003;2.548381220549345E-003;
