# Version 1.00
#
freq[Hz];re:Trc1_S11;im:Trc1_S11;re:Trc2_S21;im:Trc2_S21;
2.400000000000000E+009;1.554079651832581E-001;1.067563742399216E-001;-5.105641670525074E-003;5.200544837862253E-003;
2.400166666666667E+009;1.550890952348709E-001;1.043951585888863E-001;-5.080816801637411E-003;5.405944306403399E-003;
2.400333333333334E+009;1.550182551145554E-001;1.021709516644478E-001;-4.997727926820517E-003;5.792564246803522E-003;
2.400500000000000E+009;1.549430638551712E-001;9.927561879158020E-002;-5.088972393423319E-003;5.944590084254742E-003;
2.400666666666667E+009;1.551978886127472E-001;9.659935534000397E-002;-4.955033771693707E-003;6.392276845872402E-003;
2.400833333333334E+009;1.550845056772232E-001;9.385447204113007E-002;-4.798489157110453E-003;6.629297044128180E-003;
2.401000000000000E+009;1.552344262599945E-001;9.118779748678207E-002;-4.638714250177145E-003;6.916264537721872E-003;
2.401166666666667E+009;1.553357690572739E-001;8.821704983711243E-002;-4.582489375025034E-003;7.268652319908142E-003;
2.401333333333334E+009;1.558423489332199E-001;8.521014451980591E-002;-4.136010538786650E-003;7.692437618970871E-003;
2.401500000000000E+009;1.562458127737045E-001;8.238352835178375E-002;-4.039244726300240E-003;7.927843369543552E-003;
2.401666666666667E+009;1.565630584955216E-001;7.958436012268066E-002;-3.771012881770730E-003;8.010034449398518E-003;
2.401833333333334E+009;1.571084856987000E-001;7.663107663393021E-002;-3.497750731185079E-003;8.326455019414425E-003;
2.402000000000000E+009;1.578718423843384E-001;7.389070093631744E-002;-3.084742231294513E-003;8.547302335500717E-003;
2.402166666666667E+009;1.586535871028900E-001;7.137119770050049E-002;-2.845717826858163E-003;8.870483376085758E-003;
2.402333333333334E+009;1.596126407384872E-001;6.867758929729462E-002;-2.274344209581614E-003;9.106018580496311E-003;
2.402500000000000E+009;1.607364416122437E-001;6.608679890632629E-002;-1.914984197355807E-003;9.280548430979252E-003;
2.402666666666667E+009;1.618123054504395E-001;6.360399723052979E-002;-1.597994356416166E-003;9.456944651901722E-003;
2.402833333333334E+009;1.631068736314774E-001;6.114423274993897E-002;-1.117817941121757E-003;9.700439870357513E-003;
2.403000000000000E+009;1.646092683076859E-001;5.881389975547791E-002;-7.477671606466174E-004;9.921039454638958E-003;
2.403166666666667E+009;1.662320643663406E-001;5.659862607717514E-002;-2.257574378745630E-004;9.814578108489513E-003;
2.403333333333334E+009;1.676817834377289E-001;5.432862415909767E-002;3.134396392852068E-004;9.822911582887173E-003;
2.403500000000000E+009;1.693349331617355E-001;5.227870494127274E-002;7.289025816135109E-004;9.870720095932484E-003;
2.403666666666667E+009;1.710316538810730E-001;5.041149258613586E-002;1.400001347064972E-003;9.703603573143482E-003;
2.403833333333334E+009;1.725797057151794E-001;4.838057234883308E-002;1.835872419178486E-003;9.657972492277622E-003;
2.404000000000000E+009;1.740820407867432E-001;4.667908325791359E-002;2.390658250078559E-003;9.531372226774693E-003;
2.404166666666667E+009;1.758085191249847E-001;4.517946019768715E-002;2.763667143881321E-003;9.269792586565018E-003;
2.404333333333334E+009;1.774714291095734E-001;4.370384290814400E-002;3.182838438078761E-003;9.044574573636055E-003;
2.404500000000000E+009;1.790065765380859E-001;4.210450127720833E-002;3.864947007969022E-003;8.780064061284065E-003;
2.404666666666667E+009;1.806498169898987E-001;4.118210449814796E-002;3.972315229475498E-003;8.477223105728626E-003;
2.404833333333334E+009;1.823659986257553E-001;4.017752408981323E-002;4.364502616226673E-003;8.143898099660873E-003;
2.405000000000000E+009;1.835303455591202E-001;3.952170908451080E-002;4.619236104190350E-003;7.951112464070320E-003;
2.405166666666667E+009;1.850370615720749E-001;3.885495662689209E-002;4.895844496786594E-003;7.564387749880552E-003;
2.405333333333334E+009;1.865110248327255E-001;3.837399557232857E-002;5.132477264851332E-003;7.146879099309444E-003;
2.405500000000000E+009;1.878465116024017E-001;3.791201859712601E-002;5.236535798758268E-003;6.765558850020170E-003;
2.405666666666667E+009;1.891720294952393E-001;3.755034506320953E-002;5.480067338794470E-003;6.716575939208269E-003;
2.405833333333334E+009;1.902203410863876E-001;3.729093819856644E-002;5.573372822254896E-003;6.262098904699087E-003;
2.406000000000000E+009;1.913340538740158E-001;3.718974068760872E-002;5.870356690138578E-003;5.965172778815031E-003;
2.406166666666667E+009;1.922410130500794E-001;3.710306435823441E-002;5.779928993433714E-003;5.620412994176149E-003;
2.406333333333334E+009;1.931808739900589E-001;3.724187240004540E-002;6.022982764989138E-003;5.340509116649628E-003;
2.406500000000000E+009;1.940021663904190E-001;3.716182336211205E-002;6.053848657757044E-003;5.065282341092825E-003;
2.406666666666667E+009;1.944603621959686E-001;3.735148906707764E-002;6.062907632440329E-003;4.705736413598061E-003;
2.406833333333334E+009;1.950569003820419E-001;3.741611167788506E-002;6.141082383692265E-003;4.446668550372124E-003;
2.407000000000000E+009;1.953875571489334E-001;3.764146566390991E-002;6.123397499322891E-003;4.146401770412922E-003;
2.407166666666667E+009;1.956882625818253E-001;3.754477947950363E-002;6.234099157154560E-003;3.858515992760658E-003;
2.407333333333334E+009;1.957208961248398E-001;3.775402531027794E-002;6.062807049602270E-003;3.707402152940631E-003;
2.407500000000000E+009;1.956194043159485E-001;3.790389001369476E-002;6.225356366485357E-003;3.391989273950458E-003;
2.407666666666667E+009;1.957839578390122E-001;3.782927989959717E-002;6.168122403323650E-003;3.097160719335079E-003;
2.407833333333334E+009;1.952360123395920E-001;3.769624233245850E-002;6.015964318066835E-003;2.959123114123941E-003;
2.408000000000000E+009;1.951446831226349E-001;3.767770156264305E-002;5.728925578296185E-003;2.623758045956492E-003;
2.408166666666667E+009;1.945544183254242E-001;3.742375224828720E-002;5.744478199630976E-003;2.767909551039338E-003;
2.408333333333334E+009;1.941682696342468E-001;3.687386959791184E-002;5.978087428957224E-003;2.446086145937443E-003;
2.408500000000000E+009;1.934227049350739E-001;3.658436238765717E-002;5.783703178167343E-003;2.294972073286772E-003;
2.408666666666667E+009;1.927961707115173E-001;3.615109249949455E-002;5.775579717010260E-003;2.062856685370207E-003;
2.408833333333334E+009;1.921741217374802E-001;3.540305420756340E-002;5.775835365056992E-003;1.912469975650311E-003;
2.409000000000000E+009;1.913157254457474E-001;3.446246683597565E-002;5.437343381345272E-003;1.955499406903982E-003;
2.409166666666667E+009;1.901866942644119E-001;3.354753553867340E-002;5.430720280855894E-003;1.702369539998472E-003;
2.409333333333334E+009;1.892853975296021E-001;3.262968361377716E-002;5.267290398478508E-003;1.745300949551165E-003;
2.409500000000000E+009;1.880639046430588E-001;3.130168467760086E-002;5.045779980719090E-003;1.518095261417329E-003;
2.409666666666667E+009;1.872375905513763E-001;2.980963513255119E-002;5.137066356837750E-003;1.503966283053160E-003;
2.409833333333334E+009;1.861181408166885E-001;2.836458571255207E-002;4.987619817256928E-003;1.691368292085826E-003;
2.410000000000000E+009;1.852281689643860E-001;2.674366533756256E-002;4.995003342628479E-003;1.474496559239924E-003;
2.410166666666667E+009;1.840482503175736E-001;2.487752027809620E-002;5.022161640226841E-003;1.605917816050351E-003;
2.410333333333334E+009;1.831006705760956E-001;2.330817282199860E-002;5.047989077866077E-003;1.504385378211737E-003;
2.410500000000000E+009;1.821923553943634E-001;2.122455090284348E-002;4.988451953977346E-003;1.445271540433168E-003;
2.410666666666667E+009;1.812718659639359E-001;1.887563243508339E-002;5.140319466590881E-003;1.487510511651635E-003;
2.410833333333334E+009;1.808015704154968E-001;1.689790934324265E-002;5.105313844978809E-003;1.450262265279889E-003;
2.411000000000000E+009;1.799716800451279E-001;1.459849625825882E-002;5.132391583174467E-003;1.499257748946548E-003;
2.411166666666667E+009;1.794210672378540E-001;1.244333665817976E-002;5.235230550169945E-003;1.426405040547252E-003;
2.411333333333334E+009;1.786009669303894E-001;9.869551286101341E-003;5.189380608499050E-003;1.418880303390324E-003;
2.411500000000000E+009;1.783891916275024E-001;7.444192655384541E-003;5.374828819185495E-003;1.239760895259678E-003;
2.411666666666667E+009;1.781943142414093E-001;5.202134605497122E-003;5.253183189779520E-003;1.090237405151129E-003;
2.411833333333334E+009;1.777293980121613E-001;2.840398577973247E-003;5.475959274917841E-003;1.108309137634933E-003;
2.412000000000000E+009;1.779631078243256E-001;1.989299053093419E-004;5.328711122274399E-003;9.258020436391234E-004;
2.412166666666667E+009;1.781420409679413E-001;-2.083169296383858E-003;5.517518613487482E-003;9.138655732385814E-004;
2.412333333333334E+009;1.782949268817902E-001;-4.617517348378897E-003;5.486605223268271E-003;7.513487362302840E-004;
2.412500000000000E+009;1.785196065902710E-001;-6.856564432382584E-003;5.524088628590107E-003;8.400894585065544E-004;
2.412666666666667E+009;1.792507916688919E-001;-9.399536065757275E-003;5.530117079615593E-003;6.977641023695469E-004;
2.412833333333334E+009;1.800678223371506E-001;-1.191698573529720E-002;5.702330730855465E-003;5.662929033860564E-004;
2.413000000000000E+009;1.808853000402451E-001;-1.437411177903414E-002;5.608705338090658E-003;5.885728751309216E-004;
2.413166666666667E+009;1.816129684448242E-001;-1.664583198726177E-002;5.919006187468767E-003;4.665590240620077E-004;
2.413333333333334E+009;1.826315224170685E-001;-1.878999732434750E-002;5.884550977498293E-003;2.846050192601979E-004;
2.413500000000000E+009;1.833981871604919E-001;-2.126106433570385E-002;6.066572852432728E-003;2.318017359357327E-004;
2.413666666666667E+009;1.846997290849686E-001;-2.334365993738174E-002;6.118355784565210E-003;8.317229367094114E-005;
2.413833333333334E+009;1.858676224946976E-001;-2.521086484193802E-002;6.162546109408140E-003;-2.467872945999261E-005;
2.414000000000000E+009;1.868898719549179E-001;-2.739763818681240E-002;6.315878592431545E-003;-2.003227273235098E-004;
2.414166666666667E+009;1.883000135421753E-001;-2.907232195138931E-002;6.317257881164551E-003;-4.923972301185131E-004;
2.414333333333334E+009;1.892436742782593E-001;-3.115314058959484E-002;6.314659025520086E-003;-7.090826402418315E-004;
2.414500000000000E+009;1.906082779169083E-001;-3.254359215497971E-002;6.318082101643086E-003;-9.445701725780964E-004;
2.414666666666667E+009;1.916816979646683E-001;-3.399996459484100E-002;6.382306572049856E-003;-1.145570771768689E-003;
2.414833333333334E+009;1.930174231529236E-001;-3.550827130675316E-002;6.295036990195513E-003;-1.583392266184092E-003;
2.415000000000000E+009;1.941160410642624E-001;-3.674878180027008E-002;6.329636555165052E-003;-1.750982948578894E-003;
2.415166666666667E+009;1.954247653484345E-001;-3.788160160183907E-002;6.347350776195526E-003;-1.857771188952029E-003;
2.415333333333334E+009;1.966436505317688E-001;-3.880588710308075E-002;6.330534350126982E-003;-2.043020445853472E-003;
2.415500000000000E+009;1.977717727422714E-001;-3.946992382407188E-002;6.192973349243403E-003;-2.261458197608590E-003;
2.415666666666667E+009;1.987215131521225E-001;-4.025367274880409E-002;6.196200381964445E-003;-2.316700527444482E-003;
2.415833333333334E+009;1.995391845703125E-001;-4.089197888970375E-002;6.308167707175016E-003;-2.581965178251267E-003;
2.416000000000000E+009;2.003829479217529E-001;-4.149667546153069E-002;6.150038447231054E-003;-2.743776189163327E-003;
2.416166666666667E+009;2.011267393827438E-001;-4.203763604164124E-002;6.016998551785946E-003;-3.028510371223092E-003;
2.416333333333334E+009;2.017824947834015E-001;-4.224389418959618E-002;6.078084930777550E-003;-3.141101915389299E-003;
2.416500000000000E+009;2.022155523300171E-001;-4.249333590269089E-002;5.845834501087666E-003;-3.395423758774996E-003;
2.416666666666667E+009;2.025784999132156E-001;-4.277312755584717E-002;6.005575414747000E-003;-3.623011987656355E-003;
2.416833333333334E+009;2.027734071016312E-001;-4.275853186845779E-002;5.787014029920101E-003;-3.771601710468531E-003;
2.417000000000000E+009;2.029220908880234E-001;-4.293401539325714E-002;5.775180179625750E-003;-4.213371779769659E-003;
2.417166666666667E+009;2.025169581174851E-001;-4.274342581629753E-002;5.652684718370438E-003;-4.259192384779453E-003;
2.417333333333334E+009;2.023724168539047E-001;-4.253474622964859E-002;5.454402882605791E-003;-4.358299542218447E-003;
2.417500000000000E+009;2.021086364984512E-001;-4.246916994452477E-002;5.484647117555141E-003;-4.664429929107428E-003;
2.417666666666667E+009;2.016290575265884E-001;-4.231827333569527E-002;5.375857464969158E-003;-4.845409188419581E-003;
2.417833333333334E+009;2.012388855218887E-001;-4.215830191969872E-002;5.043875891715288E-003;-4.927711561322212E-003;
2.418000000000000E+009;2.005829960107803E-001;-4.182977974414825E-002;4.787886515259743E-003;-5.171254742890596E-003;
2.418166666666667E+009;1.996714919805527E-001;-4.183156415820122E-002;4.654578864574432E-003;-5.301787052303553E-003;
2.418333333333334E+009;1.988275647163391E-001;-4.164225608110428E-002;4.576800856739283E-003;-5.494059063494206E-003;
2.418500000000000E+009;1.978693902492523E-001;-4.155214875936508E-002;4.383987281471491E-003;-5.738992709666491E-003;
2.418666666666667E+009;1.970613151788712E-001;-4.154396429657936E-002;4.190929234027863E-003;-5.674693267792463E-003;
2.418833333333334E+009;1.957017183303833E-001;-4.178286716341972E-002;4.018611740320921E-003;-5.978990811854601E-003;
2.419000000000000E+009;1.944371461868286E-001;-4.204159975051880E-002;3.764658933505416E-003;-6.101602222770453E-003;
2.419166666666667E+009;1.931777596473694E-001;-4.237168654799461E-002;3.492466639727354E-003;-6.123783998191357E-003;
2.419333333333334E+009;1.917289346456528E-001;-4.276166483759880E-002;3.361064707860351E-003;-6.325459107756615E-003;
2.419500000000000E+009;1.902896016836166E-001;-4.329590126872063E-002;3.254992421716452E-003;-6.263753399252892E-003;
2.419666666666667E+009;1.887255758047104E-001;-4.405137524008751E-002;2.810635836794972E-003;-6.418520584702492E-003;
2.419833333333334E+009;1.871141046285629E-001;-4.477313905954361E-002;2.688649343326688E-003;-6.514851469546557E-003;
2.420000000000000E+009;1.854358017444611E-001;-4.560180008411408E-002;2.414701040834189E-003;-6.702783051878214E-003;
2.420166666666667E+009;1.837137192487717E-001;-4.659295827150345E-002;2.247158205136657E-003;-6.665328983217478E-003;
2.420333333333334E+009;1.822453141212463E-001;-4.779731854796410E-002;1.903262105770409E-003;-6.729384884238243E-003;
2.420500000000000E+009;1.803905218839645E-001;-4.913174733519554E-002;1.760038896463811E-003;-6.702154409140348E-003;
2.420666666666667E+009;1.788023561239243E-001;-5.024541169404984E-002;1.591933309100568E-003;-6.801289506256580E-003;
2.420833333333334E+009;1.772657334804535E-001;-5.185258388519287E-002;1.363466260954738E-003;-6.721506826579571E-003;
2.421000000000000E+009;1.755647361278534E-001;-5.343739315867424E-002;1.122686080634594E-003;-6.823719944804907E-003;
2.421166666666667E+009;1.743223667144775E-001;-5.525182187557221E-002;1.021332107484341E-003;-6.960084196180105E-003;
2.421333333333334E+009;1.725906282663345E-001;-5.668424069881439E-002;8.511876221746206E-004;-6.839240901172161E-003;
2.421500000000000E+009;1.712539643049240E-001;-5.856002867221832E-002;4.817376029677689E-004;-6.747270934283733E-003;
2.421666666666667E+009;1.700362116098404E-001;-6.045204401016235E-002;3.841186116915196E-004;-6.897853221744299E-003;
2.421833333333334E+009;1.687858402729034E-001;-6.237700581550598E-002;1.673196238698438E-004;-6.777301896363497E-003;
2.422000000000000E+009;1.677422374486923E-001;-6.434043496847153E-002;-1.235452218679711E-004;-6.711027119308710E-003;
2.422166666666667E+009;1.668478995561600E-001;-6.632427126169205E-002;-3.443491877987981E-004;-6.757466588169336E-003;
2.422333333333334E+009;1.659220904111862E-001;-6.847669929265976E-002;-5.772997392341495E-004;-6.773947738111019E-003;
2.422500000000000E+009;1.649540662765503E-001;-7.032027095556259E-002;-7.789216469973326E-004;-6.642403081059456E-003;
2.422666666666667E+009;1.643581092357636E-001;-7.243307679891586E-002;-1.096545369364321E-003;-6.512815598398447E-003;
2.422833333333334E+009;1.639544367790222E-001;-7.468397170305252E-002;-1.288459170609713E-003;-6.544379517436028E-003;
2.423000000000000E+009;1.634442806243897E-001;-7.659588754177094E-002;-1.668279874138534E-003;-6.265820004045963E-003;
2.423166666666667E+009;1.631119400262833E-001;-7.850430160760880E-002;-1.785062602721155E-003;-6.206897087395191E-003;
2.423333333333334E+009;1.629098653793335E-001;-8.054272830486298E-002;-1.897956943139434E-003;-6.023886147886515E-003;
2.423500000000000E+009;1.627538800239563E-001;-8.238479495048523E-002;-2.088681794703007E-003;-5.688163451850414E-003;
2.423666666666667E+009;1.629124879837036E-001;-8.431930840015411E-002;-2.509042620658875E-003;-5.700414534658194E-003;
2.423833333333334E+009;1.628370434045792E-001;-8.616922795772553E-002;-2.495472785085440E-003;-5.459560547024012E-003;
2.424000000000000E+009;1.629726290702820E-001;-8.790874481201172E-002;-2.664185361936688E-003;-5.237055476754904E-003;
2.424166666666667E+009;1.630328893661499E-001;-8.946565538644791E-002;-2.690241439267993E-003;-4.901509732007980E-003;
2.424333333333334E+009;1.634479910135269E-001;-9.119042754173279E-002;-2.868185052648187E-003;-4.703278653323650E-003;
2.424500000000000E+009;1.637116372585297E-001;-9.284393489360809E-002;-2.887549577280879E-003;-4.630112089216709E-003;
2.424666666666667E+009;1.639944314956665E-001;-9.424072504043579E-002;-2.867366187274456E-003;-4.409687593579292E-003;
2.424833333333334E+009;1.645221859216690E-001;-9.547303617000580E-002;-2.916197758167982E-003;-4.240126814693213E-003;
2.425000000000000E+009;1.649049222469330E-001;-9.674192965030670E-002;-3.068404970690608E-003;-4.055530764162540E-003;
2.425166666666667E+009;1.652672886848450E-001;-9.779889881610870E-002;-2.937288954854012E-003;-3.902621334418654E-003;
2.425333333333334E+009;1.656606942415237E-001;-9.866254776716232E-002;-2.962390659376979E-003;-3.868486266583204E-003;
2.425500000000000E+009;1.660462915897369E-001;-9.963908791542053E-002;-2.982806647196412E-003;-3.583997022360563E-003;
2.425666666666667E+009;1.664980947971344E-001;-1.002862676978111E-001;-2.948008943349123E-003;-3.349247388541699E-003;
2.425833333333334E+009;1.669091731309891E-001;-1.012113243341446E-001;-2.847319934517145E-003;-3.424885915592313E-003;
2.426000000000000E+009;1.673547327518463E-001;-1.016564741730690E-001;-2.804129151627421E-003;-3.193464828655124E-003;
2.426166666666667E+009;1.677741259336472E-001;-1.020977273583412E-001;-2.729961648583412E-003;-3.227498149499297E-003;
2.426333333333334E+009;1.679298877716065E-001;-1.025815904140472E-001;-2.676583128049970E-003;-3.203420899808407E-003;
2.426500000000000E+009;1.683191806077957E-001;-1.029508933424950E-001;-2.591683994978666E-003;-3.074821550399065E-003;
2.426666666666667E+009;1.685306727886200E-001;-1.032402440905571E-001;-2.627365756779909E-003;-3.164788242429495E-003;
2.426833333333334E+009;1.688459813594818E-001;-1.035842522978783E-001;-2.639006357640028E-003;-3.315798938274384E-003;
2.427000000000000E+009;1.687634438276291E-001;-1.037483736872673E-001;-2.611973788589239E-003;-3.183824243023992E-003;
2.427166666666667E+009;1.689025163650513E-001;-1.038675680756569E-001;-2.598594874143601E-003;-3.124958835542202E-003;
2.427333333333334E+009;1.687664389610291E-001;-1.040887087583542E-001;-2.603270113468170E-003;-3.141017397865653E-003;
2.427500000000000E+009;1.685338020324707E-001;-1.041987687349320E-001;-2.620398532599211E-003;-3.229206893593073E-003;
2.427666666666667E+009;1.681652367115021E-001;-1.042203307151794E-001;-2.677112817764282E-003;-3.148545278236270E-003;
2.427833333333334E+009;1.677231490612030E-001;-1.044222339987755E-001;-2.731021028012037E-003;-3.306175116449595E-003;
