# Version 1.00
#
freq[Hz];re:Trc1_S11;im:Trc1_S11;re:Trc2_S21;im:Trc2_S21;
2.400000000000000E+009;1.552274674177170E-001;1.068776175379753E-001;-5.163213238120079E-003;5.097461864352226E-003;
2.400166666666667E+009;1.548464298248291E-001;1.043720468878746E-001;-5.172096192836762E-003;5.288671236485243E-003;
2.400333333333334E+009;1.551063060760498E-001;1.020705029368401E-001;-5.258571822196245E-003;5.603130441159010E-003;
2.400500000000000E+009;1.550113558769226E-001;9.916334599256516E-002;-5.182586144655943E-003;5.923863966017962E-003;
2.400666666666667E+009;1.548903882503510E-001;9.673979878425598E-002;-4.931642673909664E-003;6.357723847031593E-003;
2.400833333333334E+009;1.549540013074875E-001;9.385742992162705E-002;-4.944537766277790E-003;6.594382692128420E-003;
2.401000000000000E+009;1.552278846502304E-001;9.101713448762894E-002;-4.787957761436701E-003;6.824956275522709E-003;
2.401166666666667E+009;1.552013903856278E-001;8.825258910655975E-002;-4.597697872668505E-003;7.255000062286854E-003;
2.401333333333334E+009;1.555406451225281E-001;8.532068133354187E-002;-4.387154243886471E-003;7.630123756825924E-003;
2.401500000000000E+009;1.559276133775711E-001;8.245926350355148E-002;-4.324398934841156E-003;7.708595134317875E-003;
2.401666666666667E+009;1.563458293676376E-001;7.955020666122437E-002;-3.821507561951876E-003;7.997602224349976E-003;
2.401833333333334E+009;1.567778289318085E-001;7.682394981384277E-002;-3.583207260817289E-003;8.361889049410820E-003;
2.402000000000000E+009;1.577440500259399E-001;7.401399314403534E-002;-3.353891428560019E-003;8.586551994085312E-003;
2.402166666666667E+009;1.585592329502106E-001;7.158014178276062E-002;-2.858558902516961E-003;8.810785599052906E-003;
2.402333333333334E+009;1.593665778636932E-001;6.864854693412781E-002;-2.557253465056419E-003;9.161900728940964E-003;
2.402500000000000E+009;1.604916155338287E-001;6.614605337381363E-002;-2.048338763415813E-003;9.400974027812481E-003;
2.402666666666667E+009;1.618393361568451E-001;6.372127681970596E-002;-1.641021342948079E-003;9.572163224220276E-003;
2.402833333333334E+009;1.629070788621903E-001;6.114155054092407E-002;-1.391031895764172E-003;9.542819112539291E-003;
2.403000000000000E+009;1.644867807626724E-001;5.897332355380058E-002;-7.244912558235228E-004;9.599894285202026E-003;
2.403166666666667E+009;1.660908758640289E-001;5.665981024503708E-002;-3.344510623719543E-004;9.695684537291527E-003;
2.403333333333334E+009;1.675911843776703E-001;5.427485331892967E-002;2.731392451096326E-004;9.767588227987289E-003;
2.403500000000000E+009;1.693158596754074E-001;5.238345265388489E-002;8.066245936788619E-004;9.926146827638149E-003;
2.403666666666667E+009;1.709822863340378E-001;5.017178133130074E-002;1.407511881552637E-003;9.766027331352234E-003;
2.403833333333334E+009;1.726958453655243E-001;4.841222614049912E-002;1.773127354681492E-003;9.750735014677048E-003;
2.404000000000000E+009;1.740580946207047E-001;4.671166837215424E-002;2.366377739235759E-003;9.449193254113197E-003;
2.404166666666667E+009;1.759313941001892E-001;4.506034031510353E-002;2.713316818699241E-003;9.361377917230129E-003;
2.404333333333334E+009;1.773637235164642E-001;4.355648159980774E-002;3.244582330808044E-003;9.047209285199642E-003;
2.404500000000000E+009;1.789883822202683E-001;4.219864308834076E-002;3.662128699943423E-003;8.697827346622944E-003;
2.404666666666667E+009;1.807311028242111E-001;4.119695723056793E-002;3.978210501372814E-003;8.549941703677177E-003;
2.404833333333334E+009;1.823694705963135E-001;4.007399454712868E-002;4.191360436379910E-003;8.212699554860592E-003;
2.405000000000000E+009;1.835455149412155E-001;3.936032578349114E-002;4.602060187608004E-003;7.821049541234970E-003;
2.405166666666667E+009;1.851146370172501E-001;3.886769339442253E-002;4.916831851005554E-003;7.550091017037630E-003;
2.405333333333334E+009;1.864617615938187E-001;3.834036737680435E-002;4.952416755259037E-003;7.191519252955914E-003;
2.405500000000000E+009;1.878581792116165E-001;3.786780685186386E-002;5.281674209982157E-003;6.923173088580370E-003;
2.405666666666667E+009;1.891167163848877E-001;3.767300024628639E-002;5.478103179484606E-003;6.649139337241650E-003;
2.405833333333334E+009;1.902162283658981E-001;3.730526193976402E-002;5.643517244607210E-003;6.347928661853075E-003;
2.406000000000000E+009;1.912518292665482E-001;3.729087114334106E-002;5.638211965560913E-003;6.045191083103418E-003;
2.406166666666667E+009;1.922313570976257E-001;3.712710738182068E-002;5.750142037868500E-003;5.728307180106640E-003;
2.406333333333334E+009;1.932220309972763E-001;3.706296160817146E-002;5.989920813590288E-003;5.363004747778177E-003;
2.406500000000000E+009;1.939737349748612E-001;3.725112229585648E-002;5.943663418292999E-003;5.120914429426193E-003;
2.406666666666667E+009;1.945267021656036E-001;3.734363988041878E-002;5.974085535854101E-003;4.821964539587498E-003;
2.406833333333334E+009;1.949320882558823E-001;3.743351250886917E-002;6.114135961979628E-003;4.456065129488707E-003;
2.407000000000000E+009;1.952856928110123E-001;3.775854408740997E-002;6.083679851144552E-003;4.203564487397671E-003;
2.407166666666667E+009;1.957445442676544E-001;3.750359266996384E-002;6.043809000402689E-003;3.982834517955780E-003;
2.407333333333334E+009;1.957330852746964E-001;3.779355436563492E-002;6.045478861778975E-003;3.686865558847785E-003;
2.407500000000000E+009;1.956132203340530E-001;3.809408843517304E-002;5.865400657057762E-003;3.652681596577168E-003;
2.407666666666667E+009;1.955977678298950E-001;3.777667135000229E-002;6.053157616406679E-003;3.179301973432303E-003;
2.407833333333334E+009;1.952785253524780E-001;3.796985745429993E-002;5.798157770186663E-003;3.075586631894112E-003;
2.408000000000000E+009;1.951823681592941E-001;3.783752769231796E-002;5.912995897233486E-003;3.058653557673097E-003;
2.408166666666667E+009;1.945824772119522E-001;3.741758689284325E-002;5.948444828391075E-003;2.652023220434785E-003;
2.408333333333334E+009;1.940836757421494E-001;3.703604266047478E-002;5.953515414148569E-003;2.510357182472944E-003;
2.408500000000000E+009;1.933628469705582E-001;3.672684729099274E-002;5.772380623966456E-003;2.352848649024963E-003;
2.408666666666667E+009;1.926742494106293E-001;3.633169457316399E-002;5.545190535485745E-003;2.282193861901760E-003;
2.408833333333334E+009;1.921213120222092E-001;3.550234809517860E-002;5.685079842805862E-003;1.982301007956266E-003;
2.409000000000000E+009;1.911537796258926E-001;3.464291617274284E-002;5.511445458978415E-003;1.899634022265673E-003;
2.409166666666667E+009;1.901705116033554E-001;3.359282389283180E-002;5.413905717432499E-003;1.916218549013138E-003;
2.409333333333334E+009;1.893128603696823E-001;3.274364396929741E-002;5.277198739349842E-003;1.729560201056302E-003;
2.409500000000000E+009;1.882472783327103E-001;3.144742920994759E-002;5.160312168300152E-003;1.686854404397309E-003;
2.409666666666667E+009;1.871744394302368E-001;3.009741008281708E-002;5.113332532346249E-003;1.719059539027512E-003;
2.409833333333334E+009;1.862674057483673E-001;2.857988514006138E-002;4.965825006365776E-003;1.703002606518567E-003;
2.410000000000000E+009;1.850723177194595E-001;2.690832689404488E-002;4.990455694496632E-003;1.685059396550059E-003;
2.410166666666667E+009;1.842132061719894E-001;2.507155016064644E-002;4.976891446858645E-003;1.595633453689516E-003;
2.410333333333334E+009;1.832142323255539E-001;2.327478490769863E-002;5.062906537204981E-003;1.477555953897536E-003;
2.410500000000000E+009;1.822996437549591E-001;2.135617285966873E-002;5.018119234591723E-003;1.470421790145338E-003;
2.410666666666667E+009;1.812215000391007E-001;1.913997344672680E-002;5.035331938415766E-003;1.553084002807736E-003;
2.410833333333334E+009;1.806134581565857E-001;1.695696823298931E-002;5.084014963358641E-003;1.451824209652841E-003;
2.411000000000000E+009;1.798740625381470E-001;1.476598996669054E-002;5.098780151456595E-003;1.421064604073763E-003;
2.411166666666667E+009;1.792503595352173E-001;1.264699269086123E-002;5.056095309555531E-003;1.312496839091182E-003;
2.411333333333334E+009;1.787357926368713E-001;1.005348376929760E-002;5.153578240424395E-003;1.211388036608696E-003;
2.411500000000000E+009;1.783492565155029E-001;7.568242959678173E-003;5.268403328955174E-003;1.212826231494546E-003;
2.411666666666667E+009;1.781306415796280E-001;5.249365698546171E-003;5.197275895625353E-003;1.196844852529466E-003;
2.411833333333334E+009;1.777817755937576E-001;2.793955150991678E-003;5.232858005911112E-003;1.122083165682852E-003;
2.412000000000000E+009;1.780809760093689E-001;2.278249885421246E-004;5.446344614028931E-003;9.624139638617635E-004;
2.412166666666667E+009;1.780498027801514E-001;-2.103442559018731E-003;5.450275260955095E-003;9.695267654024065E-004;
2.412333333333334E+009;1.783331036567688E-001;-4.583652596920729E-003;5.368091166019440E-003;8.996892720460892E-004;
2.412500000000000E+009;1.788715422153473E-001;-7.171601988375187E-003;5.526456981897354E-003;7.853587740100920E-004;
2.412666666666667E+009;1.793743669986725E-001;-9.525031782686710E-003;5.454010330140591E-003;7.400722242891789E-004;
2.412833333333334E+009;1.800839304924011E-001;-1.203280035406351E-002;5.608574487268925E-003;6.797316018491983E-004;
2.413000000000000E+009;1.806358397006989E-001;-1.433768682181835E-002;5.715528968721628E-003;6.247503915801644E-004;
2.413166666666667E+009;1.815133541822434E-001;-1.655282638967037E-002;5.658038426190615E-003;4.454323498066515E-004;
2.413333333333334E+009;1.826706081628799E-001;-1.888658665120602E-002;5.781866144388914E-003;4.148267034906894E-004;
2.413500000000000E+009;1.834318786859512E-001;-2.119278535246849E-002;5.928786937147379E-003;1.484913518652320E-004;
2.413666666666667E+009;1.846857964992523E-001;-2.330693043768406E-002;5.927334073930979E-003;3.393299630261026E-005;
2.413833333333334E+009;1.859125643968582E-001;-2.537349052727222E-002;6.203813944011927E-003;-2.323961525689811E-004;
2.414000000000000E+009;1.869257241487503E-001;-2.720536291599274E-002;6.241517607122660E-003;-2.718312607612461E-004;
2.414166666666667E+009;1.882230043411255E-001;-2.913405746221542E-002;6.139380391687155E-003;-5.473567289300263E-004;
2.414333333333334E+009;1.894075423479080E-001;-3.106902353465557E-002;6.371225696057081E-003;-6.873575039207935E-004;
2.414500000000000E+009;1.908628344535828E-001;-3.262420371174812E-002;6.417871452867985E-003;-9.342448320239782E-004;
2.414666666666667E+009;1.919111162424088E-001;-3.408218175172806E-002;6.448475643992424E-003;-1.125678652897477E-003;
2.414833333333334E+009;1.930643469095230E-001;-3.535637632012367E-002;6.332418881356716E-003;-1.420451444573700E-003;
2.415000000000000E+009;1.942875534296036E-001;-3.668079152703285E-002;6.258782930672169E-003;-1.620095921680331E-003;
2.415166666666667E+009;1.955359578132629E-001;-3.786564990878105E-002;6.311943754553795E-003;-1.640745904296637E-003;
2.415333333333334E+009;1.965821683406830E-001;-3.884086757898331E-002;6.291447207331657E-003;-2.071965951472521E-003;
2.415500000000000E+009;1.977250128984451E-001;-3.950449451804161E-002;6.071539130061865E-003;-2.177802380174398E-003;
2.415666666666667E+009;1.988851577043533E-001;-4.033511504530907E-002;6.089298520237207E-003;-2.449993276968598E-003;
2.415833333333334E+009;1.997636407613754E-001;-4.085653647780418E-002;6.165462546050549E-003;-2.522329101338983E-003;
2.416000000000000E+009;2.004038095474243E-001;-4.145768657326698E-002;6.049083080142736E-003;-2.707041334360838E-003;
2.416166666666667E+009;2.011316865682602E-001;-4.206067323684692E-002;5.972639191895723E-003;-2.875305945053697E-003;
2.416333333333334E+009;2.017600387334824E-001;-4.227550327777863E-002;5.971807986497879E-003;-3.026872640475631E-003;
2.416500000000000E+009;2.023273855447769E-001;-4.247761145234108E-002;5.965795833617449E-003;-3.239766461774707E-003;
2.416666666666667E+009;2.025643289089203E-001;-4.271238297224045E-002;5.933010485023260E-003;-3.442574525251985E-003;
2.416833333333334E+009;2.028062939643860E-001;-4.277362301945686E-002;5.903528071939945E-003;-3.758159466087818E-003;
2.417000000000000E+009;2.029666304588318E-001;-4.287295788526535E-002;5.751096177846193E-003;-4.066920373588800E-003;
2.417166666666667E+009;2.026906162500382E-001;-4.276075959205627E-002;5.661892239004374E-003;-4.175845999270678E-003;
2.417333333333334E+009;2.024453431367874E-001;-4.254176467657089E-002;5.527888890355825E-003;-4.314796533435583E-003;
2.417500000000000E+009;2.021743655204773E-001;-4.246013611555100E-002;5.474603734910488E-003;-4.583758302032948E-003;
2.417666666666667E+009;2.017537653446198E-001;-4.235968738794327E-002;5.203770939260721E-003;-4.778853617608547E-003;
2.417833333333334E+009;2.013363987207413E-001;-4.223163798451424E-002;5.096975248306990E-003;-5.024462472647429E-003;
2.418000000000000E+009;2.007390409708023E-001;-4.180120304226875E-002;4.923567641526461E-003;-5.067152902483940E-003;
2.418166666666667E+009;1.999715417623520E-001;-4.188586026430130E-002;4.798125941306353E-003;-5.244605243206024E-003;
2.418333333333334E+009;1.989853531122208E-001;-4.166426509618759E-002;4.501715768128634E-003;-5.545926280319691E-003;
2.418500000000000E+009;1.979814022779465E-001;-4.168303683400154E-002;4.382681567221880E-003;-5.705085583031178E-003;
2.418666666666667E+009;1.970280557870865E-001;-4.155603051185608E-002;4.208273254334927E-003;-5.724209360778332E-003;
2.418833333333334E+009;1.958032995462418E-001;-4.185776039958000E-002;4.001008346676827E-003;-5.885975435376167E-003;
2.419000000000000E+009;1.944737732410431E-001;-4.205605015158653E-002;3.911677282303572E-003;-5.915763787925243E-003;
2.419166666666667E+009;1.933505088090897E-001;-4.240619763731957E-002;3.534212242811918E-003;-6.110912188887596E-003;
2.419333333333334E+009;1.919006109237671E-001;-4.274174198508263E-002;3.384416457265616E-003;-6.408010143786669E-003;
2.419500000000000E+009;1.902719736099243E-001;-4.335189238190651E-002;3.086397424340248E-003;-6.286506075412035E-003;
2.419666666666667E+009;1.888854503631592E-001;-4.410163685679436E-002;2.914218930527568E-003;-6.471578963100910E-003;
2.419833333333334E+009;1.870611310005188E-001;-4.477311670780182E-002;2.726773964241147E-003;-6.610564887523651E-003;
2.420000000000000E+009;1.854865401983261E-001;-4.569901525974274E-002;2.453829161822796E-003;-6.618504412472248E-003;
2.420166666666667E+009;1.838388741016388E-001;-4.668301343917847E-002;2.271626377478242E-003;-6.646997760981321E-003;
2.420333333333334E+009;1.822668313980103E-001;-4.791288077831268E-002;2.022791188210249E-003;-6.750898901373148E-003;
2.420500000000000E+009;1.805807501077652E-001;-4.921007528901100E-002;1.843219622969627E-003;-6.685581058263779E-003;
2.420666666666667E+009;1.788504868745804E-001;-5.034069716930389E-002;1.602730131708086E-003;-6.745672319084406E-003;
2.420833333333334E+009;1.770878285169601E-001;-5.183136835694313E-002;1.381334848701954E-003;-6.772567983716726E-003;
2.421000000000000E+009;1.757538765668869E-001;-5.350376293063164E-002;1.284798840060830E-003;-6.736971437931061E-003;
2.421166666666667E+009;1.742210835218430E-001;-5.531836301088333E-002;8.362607331946492E-004;-6.811141036450863E-003;
2.421333333333334E+009;1.724590212106705E-001;-5.672872066497803E-002;8.427161374129355E-004;-6.807907484471798E-003;
2.421500000000000E+009;1.712796390056610E-001;-5.860905721783638E-002;5.240816972218454E-004;-6.765437312424183E-003;
2.421666666666667E+009;1.700376868247986E-001;-6.045426800847054E-002;2.424071717541665E-004;-6.784535013139248E-003;
2.421833333333334E+009;1.690485775470734E-001;-6.233017891645432E-002;1.318608992733061E-004;-6.723788566887379E-003;
2.422000000000000E+009;1.677523702383041E-001;-6.429032236337662E-002;-2.318465558346361E-004;-6.683499086648226E-003;
2.422166666666667E+009;1.669067144393921E-001;-6.635506451129913E-002;-2.779994392767549E-004;-6.630851887166500E-003;
2.422333333333334E+009;1.658518463373184E-001;-6.855826079845429E-002;-5.517710815183818E-004;-6.706416141241789E-003;
2.422500000000000E+009;1.651909798383713E-001;-7.034893333911896E-002;-8.504186407662928E-004;-6.615012884140015E-003;
2.422666666666667E+009;1.643255054950714E-001;-7.243092358112335E-002;-1.104926690459251E-003;-6.583359558135271E-003;
2.422833333333334E+009;1.639667302370071E-001;-7.462168484926224E-002;-1.195900491438806E-003;-6.265052128583193E-003;
2.423000000000000E+009;1.633988022804260E-001;-7.656410336494446E-002;-1.693036756478250E-003;-6.251486949622631E-003;
2.423166666666667E+009;1.632159054279327E-001;-7.859767973423004E-002;-1.701872795820236E-003;-6.190757267177105E-003;
2.423333333333334E+009;1.629776209592819E-001;-8.070343732833862E-002;-1.980413682758808E-003;-5.939587019383907E-003;
2.423500000000000E+009;1.628457158803940E-001;-8.242772519588471E-002;-2.131402259692550E-003;-5.775442812591791E-003;
2.423666666666667E+009;1.627410501241684E-001;-8.439300954341888E-002;-2.308613853529096E-003;-5.584438331425190E-003;
2.423833333333334E+009;1.629342883825302E-001;-8.618871122598648E-002;-2.597328042611480E-003;-5.417514592409134E-003;
2.424000000000000E+009;1.630346029996872E-001;-8.806055039167404E-002;-2.699349308386445E-003;-5.202508997172117E-003;
2.424166666666667E+009;1.630116254091263E-001;-8.961354941129684E-002;-2.749069361016154E-003;-4.933750722557306E-003;
2.424333333333334E+009;1.634178161621094E-001;-9.113255888223648E-002;-2.871389733627439E-003;-4.865375813096762E-003;
2.424500000000000E+009;1.637844741344452E-001;-9.281188994646072E-002;-2.830712124705315E-003;-4.398232325911522E-003;
2.424666666666667E+009;1.638889163732529E-001;-9.416463226079941E-002;-2.930595539510250E-003;-4.430512897670269E-003;
2.424833333333334E+009;1.646039932966232E-001;-9.550254791975021E-002;-2.851653844118118E-003;-4.271495155990124E-003;
2.425000000000000E+009;1.649427413940430E-001;-9.669165313243866E-002;-2.997907577082515E-003;-4.074954893440008E-003;
2.425166666666667E+009;1.652158945798874E-001;-9.788373112678528E-002;-2.952613402158022E-003;-3.971662838011980E-003;
2.425333333333334E+009;1.654781997203827E-001;-9.871879220008850E-002;-3.133477643132210E-003;-3.659623209387064E-003;
2.425500000000000E+009;1.660907417535782E-001;-9.972467273473740E-002;-2.868091454729438E-003;-3.690697019919753E-003;
2.425666666666667E+009;1.664575189352036E-001;-1.004909276962280E-001;-2.882048720493913E-003;-3.516526427119970E-003;
2.425833333333334E+009;1.669620871543884E-001;-1.012737900018692E-001;-2.876116894185543E-003;-3.319341223686934E-003;
2.426000000000000E+009;1.672973930835724E-001;-1.017419546842575E-001;-2.715511713176966E-003;-3.151334123685956E-003;
2.426166666666667E+009;1.677921563386917E-001;-1.021576523780823E-001;-2.667046384885907E-003;-3.139257431030273E-003;
2.426333333333334E+009;1.678642928600311E-001;-1.027187481522560E-001;-2.522372407838702E-003;-3.161422442644835E-003;
2.426500000000000E+009;1.682365685701370E-001;-1.029677838087082E-001;-2.593848388642073E-003;-3.099064342677593E-003;
2.426666666666667E+009;1.686034500598908E-001;-1.033663451671600E-001;-2.390408189967275E-003;-3.192049684002996E-003;
2.426833333333334E+009;1.687977164983749E-001;-1.036530658602715E-001;-2.437769901007414E-003;-3.088197438046336E-003;
2.427000000000000E+009;1.687805950641632E-001;-1.039007902145386E-001;-2.528120065107942E-003;-3.186764428392053E-003;
2.427166666666667E+009;1.688008010387421E-001;-1.039148792624474E-001;-2.481988864019513E-003;-3.169440664350987E-003;
2.427333333333334E+009;1.686387956142426E-001;-1.042090058326721E-001;-2.627030946314335E-003;-3.077166853472590E-003;
2.427500000000000E+009;1.683638840913773E-001;-1.042279228568077E-001;-2.632396062836051E-003;-3.165622008964419E-003;
2.427666666666667E+009;1.680794060230255E-001;-1.044022291898727E-001;-2.760500879958272E-003;-3.113454906269908E-003;
2.427833333333334E+009;1.677680313587189E-001;-1.044361963868141E-001;-2.690060762688518E-003;-3.016473725438118E-003;
