# Version 1.00
#
freq[Hz];re:Trc1_S11;im:Trc1_S11;re:Trc2_S21;im:Trc2_S21;
2.400000000000000E+009;1.576035171747208E-001;6.026638671755791E-002;-2.616873942315579E-003;3.566161030903459E-004;
2.400166666666667E+009;1.575682461261749E-001;5.856784060597420E-002;-2.665722975507379E-003;2.938889374490827E-004;
2.400333333333334E+009;1.576799899339676E-001;5.661986395716667E-002;-2.583935856819153E-003;3.413724189158529E-004;
2.400500000000000E+009;1.578988581895828E-001;5.454100668430328E-002;-2.639778889715672E-003;4.609312454704195E-004;
2.400666666666667E+009;1.580601334571838E-001;5.257796868681908E-002;-2.442659810185432E-003;3.170366398990154E-004;
2.400833333333334E+009;1.586185097694397E-001;5.078270286321640E-002;-2.516898326575756E-003;4.363816988188773E-004;
2.401000000000000E+009;1.586593538522720E-001;4.868294298648834E-002;-2.326615154743195E-003;6.250780425034463E-004;
2.401166666666667E+009;1.590660959482193E-001;4.658834636211395E-002;-2.479638438671827E-003;6.350816693156958E-004;
2.401333333333334E+009;1.594415903091431E-001;4.446154832839966E-002;-2.365393098443747E-003;8.222276810556650E-004;
2.401500000000000E+009;1.599666327238083E-001;4.252561926841736E-002;-2.234935062006116E-003;7.400389295071363E-004;
2.401666666666667E+009;1.604964286088944E-001;4.071161895990372E-002;-2.381483325734735E-003;8.761201170273125E-004;
2.401833333333334E+009;1.607531011104584E-001;3.865550830960274E-002;-2.278705360367894E-003;8.847408462315798E-004;
2.402000000000000E+009;1.614477932453156E-001;3.691318631172180E-002;-2.179723931476474E-003;8.351706201210618E-004;
2.402166666666667E+009;1.620763838291168E-001;3.507739305496216E-002;-2.324889879673719E-003;9.190089185722172E-004;
2.402333333333334E+009;1.627584546804428E-001;3.329874575138092E-002;-2.251057187095285E-003;9.024232276715338E-004;
2.402500000000000E+009;1.636724472045898E-001;3.169915452599526E-002;-2.041623229160905E-003;9.401668212376535E-004;
2.402666666666667E+009;1.641070842742920E-001;3.022437542676926E-002;-2.057010307908058E-003;1.067385775968432E-003;
2.402833333333334E+009;1.649292260408402E-001;2.862214110791683E-002;-1.945380587130785E-003;1.175979268737137E-003;
2.403000000000000E+009;1.658555865287781E-001;2.724469825625420E-002;-1.886356971226633E-003;1.095262123271823E-003;
2.403166666666667E+009;1.667621284723282E-001;2.576469257473946E-002;-1.940542017109692E-003;9.949679952114821E-004;
2.403333333333334E+009;1.677007824182510E-001;2.465901337563992E-002;-1.841752440668643E-003;1.193913514725864E-003;
2.403500000000000E+009;1.684392094612122E-001;2.335668727755547E-002;-1.756938523612917E-003;1.137498300522566E-003;
2.403666666666667E+009;1.692695766687393E-001;2.211536839604378E-002;-1.954494277015328E-003;1.215989934280515E-003;
2.403833333333334E+009;1.701342761516571E-001;2.115060389041901E-002;-1.838862313888967E-003;1.243317965418100E-003;
2.404000000000000E+009;1.710785925388336E-001;2.005357481539249E-002;-1.834308961406350E-003;1.384622533805668E-003;
2.404166666666667E+009;1.717779636383057E-001;1.908256113529205E-002;-1.824658131226897E-003;1.229429617524147E-003;
2.404333333333334E+009;1.725058555603027E-001;1.838366873562336E-002;-1.650504185818136E-003;1.369591453112662E-003;
2.404500000000000E+009;1.732881516218185E-001;1.753330230712891E-002;-1.853354275226593E-003;1.604861579835415E-003;
2.404666666666667E+009;1.740689724683762E-001;1.680253259837627E-002;-1.760077080689371E-003;1.576933078467846E-003;
2.404833333333334E+009;1.750003993511200E-001;1.617472246289253E-002;-1.571351196616888E-003;1.565050450153649E-003;
2.405000000000000E+009;1.757114380598068E-001;1.568046584725380E-002;-1.442437060177326E-003;1.697494066320360E-003;
2.405166666666667E+009;1.763698309659958E-001;1.522525679320097E-002;-1.676374115049839E-003;1.628667465411127E-003;
2.405333333333334E+009;1.768701672554016E-001;1.453331764787436E-002;-1.687614712864161E-003;1.779988408088684E-003;
2.405500000000000E+009;1.773707568645477E-001;1.413588877767324E-002;-1.563814817927778E-003;1.771637005731463E-003;
2.405666666666667E+009;1.778978407382965E-001;1.374492794275284E-002;-1.472668605856597E-003;1.815441530197859E-003;
2.405833333333334E+009;1.780778616666794E-001;1.349673047661781E-002;-1.254383474588394E-003;1.893643522635102E-003;
2.406000000000000E+009;1.785757690668106E-001;1.297190971672535E-002;-1.349563943222165E-003;1.816934556700289E-003;
2.406166666666667E+009;1.786498278379440E-001;1.281737815588713E-002;-1.093877363018692E-003;1.912531326524913E-003;
2.406333333333334E+009;1.789971590042114E-001;1.248886156827211E-002;-1.170868985354900E-003;1.940482645295560E-003;
2.406500000000000E+009;1.790305972099304E-001;1.208856236189604E-002;-8.955220109783113E-004;1.844479818828404E-003;
2.406666666666667E+009;1.788860410451889E-001;1.193824503570795E-002;-1.000012038275600E-003;1.832796726375818E-003;
2.406833333333334E+009;1.790326535701752E-001;1.138070598244667E-002;-8.639921434223652E-004;2.039949409663677E-003;
2.407000000000000E+009;1.789693981409073E-001;1.094906590878964E-002;-7.606145809404552E-004;1.932436018250883E-003;
2.407166666666667E+009;1.788849234580994E-001;1.049599982798100E-002;-7.088162819854915E-004;1.988836796954274E-003;
2.407333333333334E+009;1.785505861043930E-001;9.935338981449604E-003;-6.893597310408950E-004;1.881358330138028E-003;
2.407500000000000E+009;1.782893240451813E-001;9.465786628425121E-003;-6.139509496279061E-004;1.794976182281971E-003;
2.407666666666667E+009;1.779330074787140E-001;8.880157954990864E-003;-6.406396278180182E-004;1.853236462920904E-003;
2.407833333333334E+009;1.775240302085877E-001;8.084266446530819E-003;-5.529854679480195E-004;1.816175645217300E-003;
2.408000000000000E+009;1.770270317792893E-001;7.273502182215452E-003;-5.628831568174064E-004;1.839083968661726E-003;
2.408166666666667E+009;1.765425950288773E-001;6.604941096156836E-003;-4.714328970294446E-004;1.793269533663988E-003;
2.408333333333334E+009;1.762684285640717E-001;5.545099265873432E-003;-5.600464646704495E-004;1.735763042233884E-003;
2.408500000000000E+009;1.756566315889359E-001;4.603904671967030E-003;-4.189929168205708E-004;1.682385802268982E-003;
2.408666666666667E+009;1.751203835010529E-001;3.464821493253112E-003;-3.852912923321128E-004;1.731435651890934E-003;
2.408833333333334E+009;1.743485182523727E-001;2.390227746218443E-003;-3.002253943122923E-004;1.603881944902241E-003;
2.409000000000000E+009;1.738011837005615E-001;1.132913050241768E-003;-3.379189583938569E-004;1.672639860771596E-003;
2.409166666666667E+009;1.732627749443054E-001;-1.697070547379553E-004;-2.124225429724902E-004;1.539233955554664E-003;
2.409333333333334E+009;1.727809160947800E-001;-1.549288281239569E-003;-2.621976600494236E-004;1.578357769176364E-003;
2.409500000000000E+009;1.720823645591736E-001;-3.175215329974890E-003;-2.495227090548724E-004;1.650252845138311E-003;
2.409666666666667E+009;1.714431494474411E-001;-4.546065349131823E-003;-1.345286000287160E-004;1.568258507177234E-003;
2.409833333333334E+009;1.709447205066681E-001;-6.253544241189957E-003;-2.874609781429172E-004;1.709711621515453E-003;
2.410000000000000E+009;1.706122756004334E-001;-7.677236571907997E-003;-2.392194146523252E-004;1.593878027051687E-003;
2.410166666666667E+009;1.699927300214768E-001;-9.451869875192642E-003;-3.092115221079439E-004;1.726469839923084E-003;
2.410333333333334E+009;1.695978045463562E-001;-1.124455407261848E-002;-2.243401977466419E-004;1.655048807151616E-003;
2.410500000000000E+009;1.692331582307816E-001;-1.302213128656149E-002;-1.174080680357292E-004;1.599740586243570E-003;
2.410666666666667E+009;1.690269857645035E-001;-1.492876373231411E-002;-1.883703080238774E-004;1.622157869860530E-003;
2.410833333333334E+009;1.687060445547104E-001;-1.668602973222733E-002;-1.633583888178691E-004;1.512931194156408E-003;
2.411000000000000E+009;1.685386449098587E-001;-1.857196725904942E-002;-2.081963466480374E-004;1.571858651004732E-003;
2.411166666666667E+009;1.684435456991196E-001;-2.041899412870407E-002;-6.307996955001727E-005;1.597708323970437E-003;
2.411333333333334E+009;1.683405190706253E-001;-2.231713570654392E-002;3.524197154547437E-006;1.699626096524298E-003;
2.411500000000000E+009;1.683838665485382E-001;-2.431071735918522E-002;-2.021318359766156E-004;1.469524577260017E-003;
2.411666666666667E+009;1.686056107282639E-001;-2.623902820050716E-002;-1.141650718636811E-004;1.742585911415517E-003;
2.411833333333334E+009;1.685995161533356E-001;-2.791535481810570E-002;3.497095804050332E-006;1.664882642216981E-003;
2.412000000000000E+009;1.689823120832443E-001;-2.992200106382370E-002;1.573821791680530E-004;1.638129120692611E-003;
2.412166666666667E+009;1.692043542861939E-001;-3.167945519089699E-002;-3.860087872453732E-006;1.716663711704314E-003;
2.412333333333334E+009;1.696546822786331E-001;-3.355170413851738E-002;8.718784374650568E-005;1.797184464521706E-003;
2.412500000000000E+009;1.698818802833557E-001;-3.520947322249413E-002;4.343061391409719E-006;1.789566595107317E-003;
2.412666666666667E+009;1.704158037900925E-001;-3.718691319227219E-002;4.320299922255799E-005;1.816491130739451E-003;
2.412833333333334E+009;1.709062904119492E-001;-3.878815844655037E-002;1.871096465038136E-004;1.791862421669066E-003;
2.413000000000000E+009;1.713507175445557E-001;-4.028144851326942E-002;1.603816781425849E-004;1.972377765923739E-003;
2.413166666666667E+009;1.718360036611557E-001;-4.198558256030083E-002;2.311015996383503E-004;1.795339747332037E-003;
2.413333333333334E+009;1.722473949193955E-001;-4.347097128629684E-002;3.343303687870503E-004;1.986887771636248E-003;
2.413500000000000E+009;1.727022826671600E-001;-4.490968212485313E-002;4.676734679378569E-004;1.818879041820765E-003;
2.413666666666667E+009;1.734406501054764E-001;-4.647666960954666E-002;4.336000129114837E-004;1.728613278828561E-003;
2.413833333333334E+009;1.741550117731094E-001;-4.778380319476128E-002;5.024747806601226E-004;2.036414807662368E-003;
2.414000000000000E+009;1.742640733718872E-001;-4.890592396259308E-002;5.568581982515752E-004;1.742406631819904E-003;
2.414166666666667E+009;1.751397699117661E-001;-5.009786412119865E-002;6.050153751857579E-004;1.822329475544393E-003;
2.414333333333334E+009;1.754404604434967E-001;-5.120541155338287E-002;6.402704166248441E-004;1.905188430100679E-003;
2.414500000000000E+009;1.761543899774551E-001;-5.214168876409531E-002;6.778992246836424E-004;1.818781835027039E-003;
2.414666666666667E+009;1.764069646596909E-001;-5.304967239499092E-002;8.371716248802841E-004;1.700536697171629E-003;
2.414833333333334E+009;1.767136156558991E-001;-5.398229137063026E-002;8.245888166129589E-004;1.652027713134885E-003;
2.415000000000000E+009;1.771504580974579E-001;-5.459101125597954E-002;7.474472513422370E-004;1.607811660505831E-003;
2.415166666666667E+009;1.774338334798813E-001;-5.533750355243683E-002;1.051258062943816E-003;1.558602554723620E-003;
2.415333333333334E+009;1.778572946786881E-001;-5.591213330626488E-002;1.231741043739021E-003;1.617154222913086E-003;
2.415500000000000E+009;1.779605150222778E-001;-5.643328279256821E-002;1.123054302297533E-003;1.501455437391996E-003;
2.415666666666667E+009;1.778520643711090E-001;-5.683492869138718E-002;1.208700239658356E-003;1.468941336497665E-003;
2.415833333333334E+009;1.780941039323807E-001;-5.726840719580650E-002;1.204462721943855E-003;1.544603845104575E-003;
2.416000000000000E+009;1.779771149158478E-001;-5.766725540161133E-002;1.298670424148440E-003;1.370016019791365E-003;
2.416166666666667E+009;1.780150532722473E-001;-5.799672380089760E-002;1.303806784562767E-003;1.271534827537835E-003;
2.416333333333334E+009;1.776344776153565E-001;-5.835671722888947E-002;1.301008509472013E-003;1.244618208147585E-003;
2.416500000000000E+009;1.773640364408493E-001;-5.867111682891846E-002;1.379372319206595E-003;1.236442476511002E-003;
2.416666666666667E+009;1.769713163375855E-001;-5.888624861836433E-002;1.263868296518922E-003;9.753388003446162E-004;
2.416833333333334E+009;1.765801757574081E-001;-5.926124379038811E-002;1.389223849400878E-003;9.985759388655424E-004;
2.417000000000000E+009;1.758754849433899E-001;-5.951701849699020E-002;1.307427999563515E-003;9.072868269868195E-004;
2.417166666666667E+009;1.752392053604126E-001;-5.969705805182457E-002;1.305067678913474E-003;8.683335036039352E-004;
2.417333333333334E+009;1.746195256710053E-001;-5.989737063646317E-002;1.377762178890407E-003;7.543533574789763E-004;
2.417500000000000E+009;1.736907809972763E-001;-6.053991988301277E-002;1.415928709320724E-003;7.683511939831078E-004;
2.417666666666667E+009;1.730980724096298E-001;-6.064107269048691E-002;1.300401287153363E-003;6.357930833473802E-004;
2.417833333333334E+009;1.721476167440414E-001;-6.104184314608574E-002;1.448863535188139E-003;6.381194107234478E-004;
2.418000000000000E+009;1.710588783025742E-001;-6.163214519619942E-002;1.297567738220096E-003;7.039133342914283E-004;
2.418166666666667E+009;1.700813174247742E-001;-6.182732060551643E-002;1.209526555612683E-003;5.529920454137027E-004;
2.418333333333334E+009;1.692628115415573E-001;-6.247305124998093E-002;1.312659587711096E-003;6.880667060613632E-004;
2.418500000000000E+009;1.679985821247101E-001;-6.303862482309341E-002;1.117240986786783E-003;3.919024020433426E-004;
2.418666666666667E+009;1.670794636011124E-001;-6.384482234716415E-002;1.096916501410306E-003;4.699732817243785E-004;
2.418833333333334E+009;1.656738221645355E-001;-6.448753923177719E-002;1.063210074789822E-003;4.359911836218089E-004;
2.419000000000000E+009;1.644166857004166E-001;-6.513252854347229E-002;1.115799066610634E-003;4.710936336778104E-004;
2.419166666666667E+009;1.633614450693131E-001;-6.593317538499832E-002;9.807988535612822E-004;5.752205615863204E-004;
2.419333333333334E+009;1.621153652667999E-001;-6.674747914075851E-002;9.169251425191760E-004;5.538678960874677E-004;
2.419500000000000E+009;1.610913723707199E-001;-6.776737421751022E-002;9.581065969541669E-004;5.594701506197453E-004;
2.419666666666667E+009;1.599387973546982E-001;-6.905505806207657E-002;9.325583814643323E-004;6.487583159469068E-004;
2.419833333333334E+009;1.586833745241165E-001;-6.993015855550766E-002;1.003237906843424E-003;6.087098154239357E-004;
2.420000000000000E+009;1.578589528799057E-001;-7.106805592775345E-002;9.595431620255113E-004;6.017239065840840E-004;
2.420166666666667E+009;1.568275094032288E-001;-7.239042967557907E-002;9.699893416836858E-004;4.996366915293038E-004;
2.420333333333334E+009;1.559203714132309E-001;-7.374572753906250E-002;9.255882469005883E-004;6.631452706642449E-004;
2.420500000000000E+009;1.551976054906845E-001;-7.489968836307526E-002;9.360348340123892E-004;6.656119949184358E-004;
2.420666666666667E+009;1.541507840156555E-001;-7.633778452873230E-002;8.766194805502892E-004;7.094818865880370E-004;
2.420833333333334E+009;1.535832881927490E-001;-7.795523852109909E-002;9.962341282516718E-004;7.235797238536179E-004;
2.421000000000000E+009;1.527378112077713E-001;-7.929679751396179E-002;1.097641070373356E-003;6.234463653527200E-004;
2.421166666666667E+009;1.522276848554611E-001;-8.083915710449219E-002;8.181116427294910E-004;6.698782090097666E-004;
2.421333333333334E+009;1.517766416072846E-001;-8.250594884157181E-002;1.001424621790648E-003;6.369430338963866E-004;
2.421500000000000E+009;1.511749178171158E-001;-8.407557010650635E-002;1.031402032822371E-003;6.860514986328781E-004;
2.421666666666667E+009;1.508242934942246E-001;-8.576498925685883E-002;1.075031468644738E-003;6.792884087190032E-004;
2.421833333333334E+009;1.505077034235001E-001;-8.748259395360947E-002;1.076453947462142E-003;7.450009579770267E-004;
2.422000000000000E+009;1.503239125013351E-001;-8.906147629022598E-002;1.138467574492097E-003;6.327498704195023E-004;
2.422166666666667E+009;1.502199918031693E-001;-9.090086817741394E-002;1.181207597255707E-003;5.764669622294605E-004;
2.422333333333334E+009;1.501315236091614E-001;-9.229640662670136E-002;1.233909511938691E-003;6.467592902481556E-004;
2.422500000000000E+009;1.501247435808182E-001;-9.377424418926239E-002;1.275216811336577E-003;7.070319843478501E-004;
2.422666666666667E+009;1.500990688800812E-001;-9.555816650390625E-002;1.359174260869622E-003;6.552290869876742E-004;
2.422833333333334E+009;1.502752453088760E-001;-9.727202355861664E-002;1.233174814842641E-003;6.765989819541574E-004;
2.423000000000000E+009;1.504123657941818E-001;-9.878505766391754E-002;1.482727006077766E-003;7.143720868043602E-004;
2.423166666666667E+009;1.507095396518707E-001;-1.002579629421234E-001;1.342625240795314E-003;6.587753887288272E-004;
2.423333333333334E+009;1.511388868093491E-001;-1.015570461750031E-001;1.479280763305724E-003;5.354902823455632E-004;
2.423500000000000E+009;1.514236479997635E-001;-1.029915139079094E-001;1.607500715181232E-003;4.454456211533397E-004;
2.423666666666667E+009;1.516202390193939E-001;-1.043470799922943E-001;1.402209745720029E-003;4.239283152855933E-004;
2.423833333333334E+009;1.522595435380936E-001;-1.056175455451012E-001;1.591464388184249E-003;7.205719593912363E-004;
2.424000000000000E+009;1.525772362947464E-001;-1.066118553280830E-001;1.685792929492891E-003;4.524788819253445E-004;
2.424166666666667E+009;1.529994308948517E-001;-1.077931895852089E-001;1.667984412051737E-003;5.145126488059759E-004;
2.424333333333334E+009;1.535548418760300E-001;-1.087982952594757E-001;1.805360428988934E-003;4.134732880629599E-004;
2.424500000000000E+009;1.540344208478928E-001;-1.099717989563942E-001;1.713443314656615E-003;3.836299001704902E-004;
2.424666666666667E+009;1.545226424932480E-001;-1.106414943933487E-001;1.788657158613205E-003;3.579988842830062E-004;
2.424833333333334E+009;1.548476219177246E-001;-1.116364076733589E-001;1.763969194144011E-003;1.918221096275374E-004;
2.425000000000000E+009;1.551019996404648E-001;-1.124790832400322E-001;1.608309568837285E-003;1.619136310182512E-004;
2.425166666666667E+009;1.554223299026489E-001;-1.131242737174034E-001;1.887018443085253E-003;5.382000745157711E-005;
2.425333333333334E+009;1.558229178190231E-001;-1.136172562837601E-001;1.830999040976167E-003;-1.460528146708384E-004;
2.425500000000000E+009;1.561799347400665E-001;-1.143323257565498E-001;1.792754745110869E-003;-8.896775398170576E-005;
2.425666666666667E+009;1.560909599065781E-001;-1.148158460855484E-001;1.825285260565579E-003;-1.093646496883594E-004;
2.425833333333334E+009;1.563092321157455E-001;-1.152682155370712E-001;1.808367785997689E-003;-1.303151657339186E-004;
2.426000000000000E+009;1.563546508550644E-001;-1.157758086919785E-001;1.870648935437203E-003;-2.836144703906030E-004;
2.426166666666667E+009;1.565956175327301E-001;-1.160628646612167E-001;1.766167348250747E-003;-2.636837016325444E-004;
2.426333333333334E+009;1.563502252101898E-001;-1.163493916392326E-001;1.798887387849391E-003;-4.246966273058206E-004;
2.426500000000000E+009;1.562885940074921E-001;-1.165659725666046E-001;1.794293522834778E-003;-2.645437198225409E-004;
2.426666666666667E+009;1.561616659164429E-001;-1.166882291436195E-001;1.608941936865449E-003;-3.432938538026065E-004;
2.426833333333334E+009;1.556851118803024E-001;-1.169507279992104E-001;1.796501921489835E-003;-3.826518659479916E-004;
2.427000000000000E+009;1.552440226078033E-001;-1.172300651669502E-001;1.695501850917935E-003;-4.750236985273659E-004;
2.427166666666667E+009;1.547045856714249E-001;-1.172202825546265E-001;1.531299087218940E-003;-5.300873890519142E-004;
2.427333333333334E+009;1.541549414396286E-001;-1.175480186939240E-001;1.513010705821216E-003;-3.493113326840103E-004;
2.427500000000000E+009;1.535864472389221E-001;-1.176338866353035E-001;1.494994736276567E-003;-5.577857955358923E-004;
2.427666666666667E+009;1.526411622762680E-001;-1.179269775748253E-001;1.710012438707054E-003;-4.714851675089449E-004;
2.427833333333334E+009;1.517537683248520E-001;-1.181200891733170E-001;1.509928493760526E-003;-4.997300566174090E-004;
