# Version 1.00
#
freq[Hz];re:Trc1_S11;im:Trc1_S11;re:Trc2_S21;im:Trc2_S21;
2.400000000000000E+009;1.574667543172836E-001;6.034881994128227E-002;-2.565043978393078E-003;5.152054363861680E-004;
2.400166666666667E+009;1.575624793767929E-001;5.873877555131912E-002;-2.681802259758115E-003;3.124280774500221E-004;
2.400333333333334E+009;1.577857285737991E-001;5.661876127123833E-002;-2.722098026424646E-003;3.948536759708077E-004;
2.400500000000000E+009;1.579606235027313E-001;5.456825718283653E-002;-2.602395834401250E-003;5.517395329661667E-004;
2.400666666666667E+009;1.581452041864395E-001;5.255581066012383E-002;-2.521376125514507E-003;5.988655029796064E-004;
2.400833333333334E+009;1.584321260452271E-001;5.079858005046845E-002;-2.571254502981901E-003;7.693982333876193E-004;
2.401000000000000E+009;1.587044000625610E-001;4.871925711631775E-002;-2.495156601071358E-003;7.282258593477309E-004;
2.401166666666667E+009;1.590464562177658E-001;4.670238494873047E-002;-2.447232836857438E-003;9.470356744714081E-004;
2.401333333333334E+009;1.592359393835068E-001;4.464767128229141E-002;-2.428639214485884E-003;1.026792800985277E-003;
2.401500000000000E+009;1.599320173263550E-001;4.250201955437660E-002;-2.444722922518849E-003;8.341927896253765E-004;
2.401666666666667E+009;1.604647040367127E-001;4.088190570473671E-002;-2.439712872728705E-003;1.005863305181265E-003;
2.401833333333334E+009;1.609794795513153E-001;3.889085724949837E-002;-2.355774166062474E-003;9.648988489061594E-004;
2.402000000000000E+009;1.611667573451996E-001;3.695693984627724E-002;-2.387479180470109E-003;1.040033064782620E-003;
2.402166666666667E+009;1.619215011596680E-001;3.506816551089287E-002;-2.168021630495787E-003;1.099404296837747E-003;
2.402333333333334E+009;1.626562476158142E-001;3.344347700476646E-002;-2.088048728182912E-003;1.143973669968545E-003;
2.402500000000000E+009;1.635571569204330E-001;3.178327158093453E-002;-2.209105063229799E-003;1.062875497154892E-003;
2.402666666666667E+009;1.644090265035629E-001;3.027695789933205E-002;-2.214985899627209E-003;1.089460100047290E-003;
2.402833333333334E+009;1.650425493717194E-001;2.874327078461647E-002;-2.071755705401301E-003;1.143101369962096E-003;
2.403000000000000E+009;1.657951325178146E-001;2.729699946939945E-002;-2.139009768143296E-003;1.240959856659174E-003;
2.403166666666667E+009;1.667217910289764E-001;2.582786791026592E-002;-1.952845603227615E-003;1.202744548209012E-003;
2.403333333333334E+009;1.675831079483032E-001;2.460738830268383E-002;-1.864148536697030E-003;1.346909091807902E-003;
2.403500000000000E+009;1.682223230600357E-001;2.348841540515423E-002;-1.828129519708455E-003;1.242149854078889E-003;
2.403666666666667E+009;1.693577617406845E-001;2.204473316669464E-002;-1.896382891573012E-003;1.385573530569673E-003;
2.403833333333334E+009;1.703351587057114E-001;2.112101763486862E-002;-1.919305068440735E-003;1.464334083721042E-003;
2.404000000000000E+009;1.710489541292191E-001;2.015962079167366E-002;-1.880438183434308E-003;1.446650014258921E-003;
2.404166666666667E+009;1.719149649143219E-001;1.921036280691624E-002;-1.842011464759708E-003;1.355337910354137E-003;
2.404333333333334E+009;1.726517528295517E-001;1.843627914786339E-002;-1.811384805478156E-003;1.566025544889271E-003;
2.404500000000000E+009;1.734171062707901E-001;1.740933768451214E-002;-1.877382281236351E-003;1.615405897609890E-003;
2.404666666666667E+009;1.742805987596512E-001;1.674142293632031E-002;-1.709063188172877E-003;1.609422615729272E-003;
2.404833333333334E+009;1.748977899551392E-001;1.617776229977608E-002;-1.435232930816710E-003;1.608840655535460E-003;
2.405000000000000E+009;1.755391359329224E-001;1.564969867467880E-002;-1.625161501578987E-003;1.671613776125014E-003;
2.405166666666667E+009;1.760665178298950E-001;1.514722499996424E-002;-1.447873772121966E-003;1.915754866786301E-003;
2.405333333333334E+009;1.768698245286942E-001;1.467408984899521E-002;-1.490942086093128E-003;1.867290004156530E-003;
2.405500000000000E+009;1.774299144744873E-001;1.420979946851730E-002;-1.340910093858838E-003;1.900281524285674E-003;
2.405666666666667E+009;1.778437644243240E-001;1.384518481791019E-002;-1.346236094832420E-003;1.892587402835488E-003;
2.405833333333334E+009;1.780583709478378E-001;1.355960033833981E-002;-1.353728235699236E-003;1.980477944016457E-003;
2.406000000000000E+009;1.784601658582687E-001;1.303654722869396E-002;-1.188100315630436E-003;2.107014646753669E-003;
2.406166666666667E+009;1.786741316318512E-001;1.287311781197786E-002;-1.093979110009968E-003;1.906608114950359E-003;
2.406333333333334E+009;1.789246499538422E-001;1.251776143908501E-002;-8.958282996900380E-004;2.018184168264270E-003;
2.406500000000000E+009;1.790083348751068E-001;1.209521293640137E-002;-9.373484062962234E-004;1.953203231096268E-003;
2.406666666666667E+009;1.789638102054596E-001;1.187271345406771E-002;-8.302946807816625E-004;1.873488188721240E-003;
2.406833333333334E+009;1.789344251155853E-001;1.143266819417477E-002;-8.763418300077319E-004;1.939479960128665E-003;
2.407000000000000E+009;1.789896488189697E-001;1.109522860497236E-002;-6.973117124289274E-004;1.790640992112458E-003;
2.407166666666667E+009;1.789165139198303E-001;1.067385729402304E-002;-6.450114306062460E-004;1.823653699830174E-003;
2.407333333333334E+009;1.785216778516769E-001;9.984188713133335E-003;-4.887038958258927E-004;1.843851408921182E-003;
2.407500000000000E+009;1.781751662492752E-001;9.536284953355789E-003;-6.075292476452887E-004;1.920406590215862E-003;
2.407666666666667E+009;1.779675930738449E-001;8.847738616168499E-003;-5.384700489230454E-004;1.952987979166210E-003;
2.407833333333334E+009;1.774388253688812E-001;8.084187284111977E-003;-4.508919955696911E-004;1.808615983463824E-003;
2.408000000000000E+009;1.770115941762924E-001;7.334511727094650E-003;-4.858793399762362E-004;1.759144011884928E-003;
2.408166666666667E+009;1.764800846576691E-001;6.583723705261946E-003;-4.208715690765530E-004;1.886876299977303E-003;
2.408333333333334E+009;1.761987209320068E-001;5.591261666268110E-003;-5.093409563414753E-004;1.718112383969128E-003;
2.408500000000000E+009;1.756532490253449E-001;4.736572038382292E-003;-4.613642813637853E-004;1.639513298869133E-003;
2.408666666666667E+009;1.751349866390228E-001;3.624771255999804E-003;-3.786603047046810E-004;1.739733736030757E-003;
2.408833333333334E+009;1.744758933782578E-001;2.269965596497059E-003;-2.859754895325750E-004;1.696297549642623E-003;
2.409000000000000E+009;1.738027483224869E-001;1.311668078415096E-003;-2.171718660974875E-004;1.577918999828398E-003;
2.409166666666667E+009;1.732581853866577E-001;-7.497073966078460E-005;-1.865554513642564E-004;1.633267616853118E-003;
2.409333333333334E+009;1.727304905653000E-001;-1.638133544474840E-003;-2.326815301785246E-004;1.691414974629879E-003;
2.409500000000000E+009;1.721266061067581E-001;-3.112165257334709E-003;-1.328212820226327E-004;1.532226684503257E-003;
2.409666666666667E+009;1.714333146810532E-001;-4.647891037166119E-003;-7.525234104832634E-005;1.754218363203108E-003;
2.409833333333334E+009;1.708921641111374E-001;-5.959289614111185E-003;-1.099403452826664E-004;1.647689728997648E-003;
2.410000000000000E+009;1.705058813095093E-001;-7.784191519021988E-003;-5.052219785284251E-005;1.611469197086990E-003;
2.410166666666667E+009;1.700635701417923E-001;-9.466259740293026E-003;-1.407685631420463E-004;1.648663543164730E-003;
2.410333333333334E+009;1.696439385414124E-001;-1.120112091302872E-002;-2.159340365324169E-004;1.561748911626637E-003;
2.410500000000000E+009;1.692856550216675E-001;-1.298539247363806E-002;-1.618360402062535E-004;1.753196702338755E-003;
2.410666666666667E+009;1.689444631338120E-001;-1.500595826655626E-002;-1.796038413885981E-004;1.546618761494756E-003;
2.410833333333334E+009;1.688593178987503E-001;-1.666774414479733E-002;-1.483214000472799E-004;1.462696352973580E-003;
2.411000000000000E+009;1.686726063489914E-001;-1.845949701964855E-002;3.563801874406636E-005;1.597222755663097E-003;
2.411166666666667E+009;1.684953570365906E-001;-2.033049985766411E-002;-8.176151459338144E-005;1.557455165311694E-003;
2.411333333333334E+009;1.684024930000305E-001;-2.224153280258179E-002;-4.798710142495111E-005;1.500287209637463E-003;
2.411500000000000E+009;1.684763729572296E-001;-2.439532801508904E-002;4.386968066683039E-005;1.600710791535676E-003;
2.411666666666667E+009;1.685892939567566E-001;-2.614833787083626E-002;1.036449248204008E-004;1.546240877360106E-003;
2.411833333333334E+009;1.686534136533737E-001;-2.800994366407394E-002;1.343184885627125E-005;1.562125515192747E-003;
2.412000000000000E+009;1.689883768558502E-001;-2.988316863775253E-002;-1.153319026343525E-004;1.736793201416731E-003;
2.412166666666667E+009;1.692288666963577E-001;-3.176230937242508E-002;9.460284672968555E-006;1.745856599882245E-003;
2.412333333333334E+009;1.696185171604157E-001;-3.363189101219177E-002;1.025402016239241E-004;1.780244405381382E-003;
2.412500000000000E+009;1.699107289314270E-001;-3.517258167266846E-002;1.208940084325150E-004;1.811336260288954E-003;
2.412666666666667E+009;1.702845841646195E-001;-3.714177012443543E-002;1.431761484127492E-004;1.766652334481478E-003;
2.412833333333334E+009;1.708498150110245E-001;-3.887122124433518E-002;2.007048169616610E-004;1.624736352823675E-003;
2.413000000000000E+009;1.713737398386002E-001;-4.049246385693550E-002;2.807414275594056E-004;1.659061643294990E-003;
2.413166666666667E+009;1.716764271259308E-001;-4.203948378562927E-002;1.687300828052685E-004;1.866069040261209E-003;
2.413333333333334E+009;1.721198558807373E-001;-4.361193254590035E-002;4.288031486794353E-004;1.944223651662469E-003;
2.413500000000000E+009;1.728677153587341E-001;-4.505581036210060E-002;4.236454551573843E-004;1.723762950859964E-003;
2.413666666666667E+009;1.734932214021683E-001;-4.635257273912430E-002;3.174072189722210E-004;1.802252256311476E-003;
2.413833333333334E+009;1.739678680896759E-001;-4.764958098530769E-002;6.073993863537908E-004;1.801911392249167E-003;
2.414000000000000E+009;1.744089275598526E-001;-4.908899962902069E-002;6.270887097343803E-004;1.935415435582399E-003;
2.414166666666667E+009;1.749929487705231E-001;-5.013729631900787E-002;7.261467981152237E-004;1.858415431343019E-003;
2.414333333333334E+009;1.755665987730026E-001;-5.118738859891892E-002;9.774713544175029E-004;1.908056205138564E-003;
2.414500000000000E+009;1.760740429162979E-001;-5.210850015282631E-002;9.308536536991596E-004;1.685066963545978E-003;
2.414666666666667E+009;1.764701157808304E-001;-5.298430472612381E-002;9.688075515441597E-004;1.830142573453486E-003;
2.414833333333334E+009;1.767602115869522E-001;-5.394930019974709E-002;9.544235654175282E-004;1.552427420392633E-003;
2.415000000000000E+009;1.771746426820755E-001;-5.450051277875900E-002;1.120192580856383E-003;1.695929677225649E-003;
2.415166666666667E+009;1.774098575115204E-001;-5.522989854216576E-002;1.155146630480886E-003;1.620346680283546E-003;
2.415333333333334E+009;1.777132004499435E-001;-5.593346804380417E-002;1.395252533257008E-003;1.559510594233871E-003;
2.415500000000000E+009;1.779315173625946E-001;-5.638720095157623E-002;1.157747348770499E-003;1.544147729873657E-003;
2.415666666666667E+009;1.778838187456131E-001;-5.676855891942978E-002;1.315010362304747E-003;1.357452361844480E-003;
2.415833333333334E+009;1.779537945985794E-001;-5.726860836148262E-002;1.389873097650707E-003;1.183271640911698E-003;
2.416000000000000E+009;1.777972579002380E-001;-5.771806463599205E-002;1.313968678005040E-003;1.249106484465301E-003;
2.416166666666667E+009;1.778790056705475E-001;-5.806364119052887E-002;1.396767678670585E-003;1.200440805405378E-003;
2.416333333333334E+009;1.775610297918320E-001;-5.825913697481155E-002;1.404456095770001E-003;9.642416262067854E-004;
2.416500000000000E+009;1.773180216550827E-001;-5.859217420220375E-002;1.372366794385016E-003;1.118110609240830E-003;
2.416666666666667E+009;1.769741326570511E-001;-5.883463844656944E-002;1.341343740932643E-003;1.072619343176484E-003;
2.416833333333334E+009;1.765961498022080E-001;-5.914324894547463E-002;1.346348784863949E-003;9.513802360743284E-004;
2.417000000000000E+009;1.757780611515045E-001;-5.936826393008232E-002;1.510515343397856E-003;8.594891987740994E-004;
2.417166666666667E+009;1.752853989601135E-001;-5.961911380290985E-002;1.340985530987382E-003;7.569085573777556E-004;
2.417333333333334E+009;1.746382564306259E-001;-5.988422036170960E-002;1.359454588964582E-003;8.787745027802885E-004;
2.417500000000000E+009;1.738027930259705E-001;-6.031147390604019E-002;1.528894179500639E-003;6.397449178621173E-004;
2.417666666666667E+009;1.731179356575012E-001;-6.053409725427628E-002;1.435849815607071E-003;5.847380962222815E-004;
2.417833333333334E+009;1.721572130918503E-001;-6.093954294919968E-002;1.359782181680203E-003;5.368522834032774E-004;
2.418000000000000E+009;1.711416691541672E-001;-6.140897050499916E-002;1.290488638915122E-003;5.430175806395710E-004;
2.418166666666667E+009;1.701594144105911E-001;-6.180297583341599E-002;1.240280224010348E-003;4.514555621426553E-004;
2.418333333333334E+009;1.692823022603989E-001;-6.227855384349823E-002;1.278802985325456E-003;3.980507608503103E-004;
2.418500000000000E+009;1.680170595645905E-001;-6.296228617429733E-002;1.278281211853027E-003;5.088121979497373E-004;
2.418666666666667E+009;1.670539826154709E-001;-6.368892639875412E-002;1.178188831545413E-003;4.161793622188270E-004;
2.418833333333334E+009;1.658310592174530E-001;-6.435657292604446E-002;1.180990831926465E-003;4.508492711465806E-004;
2.419000000000000E+009;1.645322591066361E-001;-6.512579321861267E-002;1.155760721303523E-003;4.307498747948557E-004;
2.419166666666667E+009;1.635359078645706E-001;-6.595022976398468E-002;1.084221526980400E-003;3.814766532741487E-004;
2.419333333333334E+009;1.622315347194672E-001;-6.674482673406601E-002;1.152635668404400E-003;4.749209037981927E-004;
2.419500000000000E+009;1.610651612281799E-001;-6.790307909250259E-002;8.604120812378824E-004;4.012139397673309E-004;
2.419666666666667E+009;1.600604653358460E-001;-6.902640312910080E-002;1.067131641320884E-003;5.910817999392748E-004;
2.419833333333334E+009;1.586996316909790E-001;-6.992033123970032E-002;1.019334304146469E-003;5.220238817855716E-004;
2.420000000000000E+009;1.579102575778961E-001;-7.112206518650055E-002;9.216485777869821E-004;5.348288686946034E-004;
2.420166666666667E+009;1.567630469799042E-001;-7.234354317188263E-002;8.781215292401612E-004;4.906535032205284E-004;
2.420333333333334E+009;1.559108942747116E-001;-7.378196716308594E-002;1.084859017282724E-003;3.860713622998446E-004;
2.420500000000000E+009;1.550837010145187E-001;-7.500734180212021E-002;1.006908947601914E-003;5.657772417180240E-004;
2.420666666666667E+009;1.540979444980621E-001;-7.647309452295303E-002;1.138707855716348E-003;4.461454809643328E-004;
2.420833333333334E+009;1.534101963043213E-001;-7.782667130231857E-002;1.106674666516483E-003;5.752762081101537E-004;
2.421000000000000E+009;1.527890264987946E-001;-7.950458675622940E-002;1.040749717503786E-003;3.919018781743944E-004;
2.421166666666667E+009;1.521381437778473E-001;-8.084467798471451E-002;1.086332136765122E-003;4.867868847213686E-004;
2.421333333333334E+009;1.515707820653915E-001;-8.244937658309937E-002;1.131726428866386E-003;5.523699219338596E-004;
2.421500000000000E+009;1.510517001152039E-001;-8.403231948614121E-002;1.246358617208898E-003;5.227520014159381E-004;
2.421666666666667E+009;1.506353169679642E-001;-8.581975102424622E-002;1.158691593445838E-003;6.449947832152247E-004;
2.421833333333334E+009;1.505382508039475E-001;-8.747702836990356E-002;1.084540039300919E-003;5.500417901203036E-004;
2.422000000000000E+009;1.502830982208252E-001;-8.912030607461929E-002;1.053204294294119E-003;6.234675529412925E-004;
2.422166666666667E+009;1.501013487577438E-001;-9.077841788530350E-002;1.199102844111621E-003;5.899523384869099E-004;
2.422333333333334E+009;1.499557197093964E-001;-9.227301180362701E-002;1.247479463927448E-003;5.845564883202314E-004;
2.422500000000000E+009;1.499504894018173E-001;-9.382449835538864E-002;1.364421099424362E-003;6.085280911065638E-004;
2.422666666666667E+009;1.499443203210831E-001;-9.549666196107864E-002;1.285975449718535E-003;6.448368658311665E-004;
2.422833333333334E+009;1.502177119255066E-001;-9.719152003526688E-002;1.423101755790412E-003;5.596599658019841E-004;
2.423000000000000E+009;1.503369063138962E-001;-9.851875156164169E-002;1.314578345045447E-003;4.679856065195054E-004;
2.423166666666667E+009;1.507044285535812E-001;-1.001828089356422E-001;1.517136348411441E-003;5.418329965323210E-004;
2.423333333333334E+009;1.511650979518890E-001;-1.013324037194252E-001;1.562790130265057E-003;5.659009912051261E-004;
2.423500000000000E+009;1.513865590095520E-001;-1.028634980320931E-001;1.614859676919878E-003;4.885577363893390E-004;
2.423666666666667E+009;1.514948904514313E-001;-1.043424084782600E-001;1.569735119119287E-003;3.488486981950700E-004;
2.423833333333334E+009;1.522465795278549E-001;-1.056534424424171E-001;1.590181491337717E-003;4.111179441679269E-004;
2.424000000000000E+009;1.526327729225159E-001;-1.066075414419174E-001;1.631587627343833E-003;4.777242429554462E-004;
2.424166666666667E+009;1.529275625944138E-001;-1.077991425991058E-001;1.667676842771471E-003;2.698574971873313E-004;
2.424333333333334E+009;1.535114496946335E-001;-1.088277474045754E-001;1.628898084163666E-003;3.118112799711525E-004;
2.424500000000000E+009;1.539776474237442E-001;-1.099222600460053E-001;1.741605461575091E-003;3.234542382415384E-004;
2.424666666666667E+009;1.544319540262222E-001;-1.105764657258987E-001;1.742923865094781E-003;2.536464889999479E-004;
2.424833333333334E+009;1.546841412782669E-001;-1.115095093846321E-001;1.758872997015715E-003;2.233042469015345E-004;
2.425000000000000E+009;1.551833897829056E-001;-1.123550012707710E-001;1.731701777316630E-003;1.216105010826141E-004;
2.425166666666667E+009;1.553009301424027E-001;-1.131111606955528E-001;1.761784777045250E-003;6.587543612113223E-005;
2.425333333333334E+009;1.557898968458176E-001;-1.136697828769684E-001;1.780879567377269E-003;6.603520887438208E-005;
2.425500000000000E+009;1.561596244573593E-001;-1.142398789525032E-001;1.720226253382862E-003;-1.695895625744015E-004;
2.425666666666667E+009;1.561078131198883E-001;-1.148521900177002E-001;1.724867383018136E-003;-2.528132463339716E-004;
2.425833333333334E+009;1.563080996274948E-001;-1.152726039290428E-001;1.812064787372947E-003;-2.520743582863361E-004;
2.426000000000000E+009;1.563663631677628E-001;-1.157257556915283E-001;1.762870233505964E-003;-3.532426489982754E-004;
2.426166666666667E+009;1.564842909574509E-001;-1.160248294472694E-001;1.677749445661902E-003;-3.060541057493538E-004;
2.426333333333334E+009;1.563507169485092E-001;-1.163240298628807E-001;1.750520430505276E-003;-3.456115955486894E-004;
2.426500000000000E+009;1.562464237213135E-001;-1.165083721280098E-001;1.560484408400953E-003;-4.723178572021425E-004;
2.426666666666667E+009;1.561562269926071E-001;-1.166288256645203E-001;1.736063626594842E-003;-5.549910711124539E-004;
2.426833333333334E+009;1.556999087333679E-001;-1.168204322457314E-001;1.707967370748520E-003;-4.386571526993066E-004;
2.427000000000000E+009;1.552259027957916E-001;-1.172329112887383E-001;1.590269850566983E-003;-6.022782181389630E-004;
2.427166666666667E+009;1.547780334949493E-001;-1.171557903289795E-001;1.544650061987341E-003;-4.068015259690583E-004;
2.427333333333334E+009;1.541450917720795E-001;-1.174414455890656E-001;1.457552076317370E-003;-6.101563340052962E-004;
2.427500000000000E+009;1.535657048225403E-001;-1.176935136318207E-001;1.553470967337489E-003;-6.584705552086234E-004;
2.427666666666667E+009;1.526705473661423E-001;-1.179197505116463E-001;1.659230445511639E-003;-4.788869700860232E-004;
2.427833333333334E+009;1.518514901399612E-001;-1.180199161171913E-001;1.548448810353875E-003;-5.574569222517312E-004;
