# Version 1.00
#
freq[Hz];re:Trc1_S11;im:Trc1_S11;re:Trc2_S21;im:Trc2_S21;
2.400000000000000E+009;1.558593958616257E-001;6.036625802516937E-002;-3.029009327292442E-003;-1.774300704710186E-003;
2.400166666666667E+009;1.559285521507263E-001;5.878959968686104E-002;-3.096535569056869E-003;-1.738249557092786E-003;
2.400333333333334E+009;1.560131162405014E-001;5.661663040518761E-002;-3.213154617697001E-003;-1.616749679669738E-003;
2.400500000000000E+009;1.562840938568115E-001;5.445568263530731E-002;-3.211128059774637E-003;-1.698744250461459E-003;
2.400666666666667E+009;1.565253883600235E-001;5.235639214515686E-002;-3.204062813892961E-003;-1.506215892732143E-003;
2.400833333333334E+009;1.569214910268784E-001;5.043609440326691E-002;-3.200063249096274E-003;-1.624185009859502E-003;
2.401000000000000E+009;1.572450846433640E-001;4.828969389200211E-002;-3.354095853865147E-003;-1.522112521342933E-003;
2.401166666666667E+009;1.578853875398636E-001;4.610756039619446E-002;-3.324323566630483E-003;-1.312831533141434E-003;
2.401333333333334E+009;1.581454724073410E-001;4.400782659649849E-002;-3.492162330076098E-003;-1.247205538675189E-003;
2.401500000000000E+009;1.587899625301361E-001;4.226256534457207E-002;-3.674596082419157E-003;-1.100840745493770E-003;
2.401666666666667E+009;1.593854278326035E-001;4.018817469477654E-002;-3.668733173981309E-003;-1.039761351421475E-003;
2.401833333333334E+009;1.603534370660782E-001;3.825672715902329E-002;-3.608810715377331E-003;-9.520305320620537E-004;
2.402000000000000E+009;1.607532501220703E-001;3.640552982687950E-002;-3.777715377509594E-003;-6.975452997721732E-004;
2.402166666666667E+009;1.614507138729096E-001;3.432974219322205E-002;-3.818119643256068E-003;-7.517462363466620E-004;
2.402333333333334E+009;1.622899025678635E-001;3.284666314721108E-002;-3.837493015453219E-003;-6.012593512423337E-004;
2.402500000000000E+009;1.635290831327438E-001;3.115029260516167E-002;-3.855553455650806E-003;-6.708904984407127E-004;
2.402666666666667E+009;1.641728430986404E-001;2.966595999896526E-002;-3.682971000671387E-003;-5.606678896583617E-004;
2.402833333333334E+009;1.649598330259323E-001;2.800197340548039E-002;-3.934904932975769E-003;-3.732540935743600E-004;
2.403000000000000E+009;1.659359335899353E-001;2.675076015293598E-002;-4.012283869087696E-003;-1.833536807680503E-004;
2.403166666666667E+009;1.670872867107391E-001;2.529618330299854E-002;-4.059906583279371E-003;-1.205036387545988E-004;
2.403333333333334E+009;1.680884361267090E-001;2.411026321351528E-002;-4.206132609397173E-003;5.863202022737823E-005;
2.403500000000000E+009;1.689312607049942E-001;2.287204191088677E-002;-4.122247453778982E-003;-4.525998883764260E-005;
2.403666666666667E+009;1.699668616056442E-001;2.183952182531357E-002;-4.289287608116865E-003;2.742133219726384E-004;
2.403833333333334E+009;1.711378097534180E-001;2.071226760745049E-002;-4.288003314286470E-003;4.859767796006054E-004;
2.404000000000000E+009;1.720087379217148E-001;1.993091404438019E-002;-4.150530789047480E-003;4.507160920184106E-004;
2.404166666666667E+009;1.729735881090164E-001;1.898930221796036E-002;-4.259776789695025E-003;5.107389297336340E-004;
2.404333333333334E+009;1.740017533302307E-001;1.821239292621613E-002;-4.393920302391052E-003;9.820028208196163E-004;
2.404500000000000E+009;1.746451109647751E-001;1.749630086123943E-002;-4.282123874872923E-003;8.711616392247379E-004;
2.404666666666667E+009;1.756521910429001E-001;1.699965633451939E-002;-4.212094936519861E-003;1.155264908447862E-003;
2.404833333333334E+009;1.763473004102707E-001;1.640261709690094E-002;-4.185607191175222E-003;1.392217003740370E-003;
2.405000000000000E+009;1.772083938121796E-001;1.567925326526165E-002;-4.231114406138659E-003;1.437721075490117E-003;
2.405166666666667E+009;1.777560263872147E-001;1.520280167460442E-002;-4.364529158920050E-003;1.424134126864374E-003;
2.405333333333334E+009;1.783349215984345E-001;1.481749210506678E-002;-3.898498835042119E-003;1.723647117614746E-003;
2.405500000000000E+009;1.788295954465866E-001;1.456634607166052E-002;-4.275913815945387E-003;1.760397455655038E-003;
2.405666666666667E+009;1.793269217014313E-001;1.424563955515623E-002;-4.242403898388147E-003;2.404483733698726E-003;
2.405833333333334E+009;1.795443445444107E-001;1.399119291454554E-002;-3.881545970216394E-003;2.489728853106499E-003;
2.406000000000000E+009;1.798409670591354E-001;1.346484757959843E-002;-3.811499569565058E-003;2.850770717486739E-003;
2.406166666666667E+009;1.799428910017014E-001;1.343310251832008E-002;-3.815089352428913E-003;2.357932040467858E-003;
2.406333333333334E+009;1.801667660474777E-001;1.317139342427254E-002;-3.637031884863973E-003;2.876762533560395E-003;
2.406500000000000E+009;1.800734400749207E-001;1.281689293682575E-002;-3.573194146156311E-003;2.918567974120379E-003;
2.406666666666667E+009;1.798650026321411E-001;1.250246167182922E-002;-3.479718929156661E-003;3.509553615003824E-003;
2.406833333333334E+009;1.800236254930496E-001;1.214413251727819E-002;-3.006843384355307E-003;3.364127362146974E-003;
2.407000000000000E+009;1.797870844602585E-001;1.165905222296715E-002;-2.854142105206847E-003;3.318953095003963E-003;
2.407166666666667E+009;1.796115338802338E-001;1.136136241257191E-002;-2.713859314098954E-003;3.473683260381222E-003;
2.407333333333334E+009;1.790297925472260E-001;1.078245416283608E-002;-2.597605111077428E-003;3.736041486263275E-003;
2.407500000000000E+009;1.787825077772141E-001;1.013329159468412E-002;-2.183936536312103E-003;3.587533487007022E-003;
2.407666666666667E+009;1.783261746168137E-001;9.715974330902100E-003;-2.420940436422825E-003;3.631367348134518E-003;
2.407833333333334E+009;1.777178198099136E-001;8.841289207339287E-003;-2.095375675708056E-003;3.610460553318262E-003;
2.408000000000000E+009;1.771668940782547E-001;7.901952601969242E-003;-1.649237936362624E-003;3.482494503259659E-003;
2.408166666666667E+009;1.764549463987351E-001;7.213216740638018E-003;-1.910027815029025E-003;3.994774539023638E-003;
2.408333333333334E+009;1.760091334581375E-001;6.380429491400719E-003;-1.696709659881890E-003;3.774039680138230E-003;
2.408500000000000E+009;1.752964109182358E-001;5.300046876072884E-003;-1.398139866068959E-003;3.626963356509805E-003;
2.408666666666667E+009;1.744694560766220E-001;3.976999782025814E-003;-1.298649352975190E-003;3.757432568818331E-003;
2.408833333333334E+009;1.738253682851791E-001;2.858452266082168E-003;-1.162618747912347E-003;3.829131135717034E-003;
2.409000000000000E+009;1.730512678623200E-001;1.657427405007184E-003;-1.003826851956546E-003;3.622107440605760E-003;
2.409166666666667E+009;1.725560575723648E-001;1.970007433556020E-004;-8.350663702003658E-004;3.802870865911245E-003;
2.409333333333334E+009;1.718958169221878E-001;-1.285925507545471E-003;-8.862483664415777E-004;3.774608718231320E-003;
2.409500000000000E+009;1.711184531450272E-001;-3.055192297324538E-003;-6.350617040880024E-004;3.729638643562794E-003;
2.409666666666667E+009;1.704038083553314E-001;-4.450580105185509E-003;-5.936597590334714E-004;3.688414348289371E-003;
2.409833333333334E+009;1.698116660118103E-001;-6.042269524186850E-003;-5.753647419624031E-004;3.635579952970147E-003;
2.410000000000000E+009;1.693994849920273E-001;-7.795045152306557E-003;-5.150663782842457E-004;3.664765972644091E-003;
2.410166666666667E+009;1.689624190330505E-001;-9.597506374120712E-003;-2.954858064185828E-004;3.587350249290466E-003;
2.410333333333334E+009;1.682920306921005E-001;-1.148486789315939E-002;-3.801413986366242E-004;3.585610305890441E-003;
2.410500000000000E+009;1.680304259061813E-001;-1.336100697517395E-002;-2.198022411903366E-004;3.645544638857245E-003;
2.410666666666667E+009;1.676840037107468E-001;-1.555784232914448E-002;-2.386720370850526E-005;3.424236318096519E-003;
2.410833333333334E+009;1.675468385219574E-001;-1.726489700376988E-002;5.758808401878923E-005;3.400340676307678E-003;
2.411000000000000E+009;1.674215048551559E-001;-1.923064701259136E-002;3.301373362774029E-005;3.449873533099890E-003;
2.411166666666667E+009;1.671808809041977E-001;-2.103367820382118E-002;1.956300839083269E-004;3.402277361601591E-003;
2.411333333333334E+009;1.672097444534302E-001;-2.309299819171429E-002;3.914916305802763E-004;3.218984464183450E-003;
2.411500000000000E+009;1.671255528926849E-001;-2.515132538974285E-002;2.927977766375989E-004;3.250938840210438E-003;
2.411666666666667E+009;1.676440238952637E-001;-2.705911546945572E-002;4.867809766437858E-004;3.191481111571193E-003;
2.411833333333334E+009;1.677109301090241E-001;-2.892550267279148E-002;4.264958261046559E-004;3.247383981943131E-003;
2.412000000000000E+009;1.681770235300064E-001;-3.100929409265518E-002;5.786849069409072E-004;3.312287852168083E-003;
2.412166666666667E+009;1.682875901460648E-001;-3.286403790116310E-002;7.264225278049707E-004;3.245656145736575E-003;
2.412333333333334E+009;1.688798069953919E-001;-3.450219333171845E-002;7.763424073345959E-004;3.126700408756733E-003;
2.412500000000000E+009;1.693135201931000E-001;-3.646769002079964E-002;8.122677099891007E-004;3.267987165600061E-003;
2.412666666666667E+009;1.698352992534638E-001;-3.837596252560616E-002;8.495940128341317E-004;3.171426942571998E-003;
2.412833333333334E+009;1.705721765756607E-001;-3.995639458298683E-002;8.775771711952984E-004;3.040915820747614E-003;
2.413000000000000E+009;1.708955615758896E-001;-4.148141667246819E-002;9.610201814211905E-004;3.197193145751953E-003;
2.413166666666667E+009;1.715127527713776E-001;-4.294497519731522E-002;1.045965938828886E-003;3.007406601682305E-003;
2.413333333333334E+009;1.720885783433914E-001;-4.463086277246475E-002;9.929848602041602E-004;3.071454819291830E-003;
2.413500000000000E+009;1.726017147302628E-001;-4.610356688499451E-002;1.147333765402436E-003;2.974095754325390E-003;
2.413666666666667E+009;1.734575927257538E-001;-4.750157892704010E-002;1.112447585910559E-003;3.057075664401054E-003;
2.413833333333334E+009;1.740266978740692E-001;-4.869242012500763E-002;1.329942839220166E-003;2.869460033252835E-003;
2.414000000000000E+009;1.745729297399521E-001;-4.990695789456368E-002;1.393369399011135E-003;2.895186655223370E-003;
2.414166666666667E+009;1.754543483257294E-001;-5.086898803710938E-002;1.314432360231876E-003;2.695212839171290E-003;
2.414333333333334E+009;1.759359985589981E-001;-5.190356075763702E-002;1.421544118784368E-003;2.708025742322207E-003;
2.414500000000000E+009;1.766714006662369E-001;-5.297804996371269E-002;1.579374540597200E-003;2.705759834498167E-003;
2.414666666666667E+009;1.769038587808609E-001;-5.362373962998390E-002;1.595146954059601E-003;2.705139573663473E-003;
2.414833333333334E+009;1.773836165666580E-001;-5.445685610175133E-002;1.700239023193717E-003;2.712047891691327E-003;
2.415000000000000E+009;1.778523176908493E-001;-5.498446524143219E-002;1.769510097801685E-003;2.706016413867474E-003;
2.415166666666667E+009;1.780530065298080E-001;-5.558708682656288E-002;1.906945719383657E-003;2.457945141941309E-003;
2.415333333333334E+009;1.784022003412247E-001;-5.622027814388275E-002;1.905875746160746E-003;2.491036895662546E-003;
2.415500000000000E+009;1.785663962364197E-001;-5.642861127853394E-002;1.967709744349122E-003;2.629422582685947E-003;
2.415666666666667E+009;1.787246763706207E-001;-5.676867440342903E-002;2.029753988608718E-003;2.538650995120406E-003;
2.415833333333334E+009;1.787624806165695E-001;-5.717948824167252E-002;2.126870676875114E-003;2.357556251809001E-003;
2.416000000000000E+009;1.785059869289398E-001;-5.750887840986252E-002;2.063101856037974E-003;2.466917969286442E-003;
2.416166666666667E+009;1.786710172891617E-001;-5.774772167205811E-002;2.289303345605731E-003;2.350036287680268E-003;
2.416333333333334E+009;1.782901138067246E-001;-5.797053501009941E-002;2.247504889965057E-003;2.079624915495515E-003;
2.416500000000000E+009;1.779119074344635E-001;-5.805333703756332E-002;2.275711158290505E-003;2.155610127374530E-003;
2.416666666666667E+009;1.775210052728653E-001;-5.832397937774658E-002;2.291778568178415E-003;2.206446602940559E-003;
2.416833333333334E+009;1.770490407943726E-001;-5.855615809559822E-002;2.371464157477021E-003;2.006210153922439E-003;
2.417000000000000E+009;1.762891411781311E-001;-5.872112140059471E-002;2.616715151816607E-003;2.053688513115048E-003;
2.417166666666667E+009;1.755562424659729E-001;-5.890111997723579E-002;2.500873059034348E-003;1.894246786832809E-003;
2.417333333333334E+009;1.749040484428406E-001;-5.902414396405220E-002;2.613844582810998E-003;1.744612352922559E-003;
2.417500000000000E+009;1.739742457866669E-001;-5.940608307719231E-002;2.584367059171200E-003;1.685395021922886E-003;
2.417666666666667E+009;1.731090545654297E-001;-5.964192748069763E-002;2.693059621378779E-003;1.569012878462672E-003;
2.417833333333334E+009;1.720286160707474E-001;-5.997092276811600E-002;2.544101560488343E-003;1.610762323252857E-003;
2.418000000000000E+009;1.710070818662643E-001;-6.039654836058617E-002;2.813994185999036E-003;1.511138281784952E-003;
2.418166666666667E+009;1.698370873928070E-001;-6.070997193455696E-002;2.813776023685932E-003;1.384953036904335E-003;
2.418333333333334E+009;1.689762026071549E-001;-6.134306266903877E-002;2.876131562516093E-003;1.372713712044060E-003;
2.418500000000000E+009;1.676998585462570E-001;-6.178753077983856E-002;2.720530843362212E-003;1.269086380489171E-003;
2.418666666666667E+009;1.665531098842621E-001;-6.264192610979080E-002;2.918893937021494E-003;1.068303710781038E-003;
2.418833333333334E+009;1.651105731725693E-001;-6.323190778493881E-002;2.892695600166917E-003;9.762101690284908E-004;
2.419000000000000E+009;1.638914942741394E-001;-6.406857818365097E-002;2.863571979105473E-003;1.022820128127933E-003;
2.419166666666667E+009;1.626754105091095E-001;-6.498356163501740E-002;2.816457301378250E-003;9.457280393689871E-004;
2.419333333333334E+009;1.612600386142731E-001;-6.582891196012497E-002;2.880621235817671E-003;9.578443132340908E-004;
2.419500000000000E+009;1.601648330688477E-001;-6.679715216159821E-002;2.825326984748244E-003;7.066375692375004E-004;
2.419666666666667E+009;1.590305715799332E-001;-6.804491579532623E-002;2.944475738331676E-003;7.034695008769631E-004;
2.419833333333334E+009;1.577607393264771E-001;-6.912799179553986E-002;2.938736928626895E-003;6.522713229060173E-004;
2.420000000000000E+009;1.568672060966492E-001;-7.041943818330765E-002;2.867147559300065E-003;7.014517323113978E-004;
2.420166666666667E+009;1.556422859430313E-001;-7.170931994915009E-002;2.883590525016189E-003;4.175522772129625E-004;
2.420333333333334E+009;1.547810733318329E-001;-7.316888123750687E-002;2.943914150819182E-003;4.301368899177760E-004;
2.420500000000000E+009;1.539028584957123E-001;-7.449729740619659E-002;2.803412731736898E-003;3.559109172783792E-004;
2.420666666666667E+009;1.531162708997726E-001;-7.604496926069260E-002;2.913581440225244E-003;3.145664522890002E-004;
2.420833333333334E+009;1.522543430328369E-001;-7.755953818559647E-002;3.006847808137536E-003;2.724332152865827E-004;
2.421000000000000E+009;1.514045000076294E-001;-7.934107631444931E-002;2.848779084160924E-003;2.713821013458073E-004;
2.421166666666667E+009;1.510166972875595E-001;-8.092073351144791E-002;2.966369036585093E-003;8.918450475903228E-005;
2.421333333333334E+009;1.505113393068314E-001;-8.253163099288940E-002;3.086348064243794E-003;1.578611263539642E-004;
2.421500000000000E+009;1.499716341495514E-001;-8.413674682378769E-002;3.001035656780005E-003;1.053759115166031E-004;
2.421666666666667E+009;1.497574001550674E-001;-8.608558773994446E-002;3.240411169826984E-003;-1.038373302435502E-004;
2.421833333333334E+009;1.495415717363358E-001;-8.753035962581635E-002;3.011037595570087E-003;-1.662444556131959E-004;
2.422000000000000E+009;1.493536978960037E-001;-8.947239071130753E-002;3.031360451132059E-003;-3.476348065305501E-004;
2.422166666666667E+009;1.492282450199127E-001;-9.128643572330475E-002;3.090812591835856E-003;-2.434644120512530E-004;
2.422333333333334E+009;1.491706818342209E-001;-9.278228878974915E-002;3.028076840564609E-003;-4.012084391433746E-004;
2.422500000000000E+009;1.493177115917206E-001;-9.436876326799393E-002;2.941987477242947E-003;-7.329178042709827E-004;
2.422666666666667E+009;1.494463682174683E-001;-9.610659629106522E-002;2.949276939034462E-003;-5.445387796498835E-004;
2.422833333333334E+009;1.498189419507980E-001;-9.760424494743347E-002;2.843855414539576E-003;-7.048725965432823E-004;
2.423000000000000E+009;1.498742401599884E-001;-9.919199347496033E-002;2.824730472639203E-003;-7.683448493480682E-004;
2.423166666666667E+009;1.505752950906754E-001;-1.006654202938080E-001;2.950722817331553E-003;-9.641551296226680E-004;
2.423333333333334E+009;1.509650945663452E-001;-1.020253151655197E-001;2.796131186187267E-003;-1.039433293044567E-003;
2.423500000000000E+009;1.514173448085785E-001;-1.036823317408562E-001;2.826822921633720E-003;-1.167319598607719E-003;
2.423666666666667E+009;1.516806185245514E-001;-1.050034984946251E-001;2.627550624310970E-003;-1.229925197549164E-003;
2.423833333333334E+009;1.525119394063950E-001;-1.061017364263535E-001;2.393451984971762E-003;-1.151589909568429E-003;
2.424000000000000E+009;1.528549790382385E-001;-1.073752418160439E-001;2.510568592697382E-003;-1.339909853413701E-003;
2.424166666666667E+009;1.533830016851425E-001;-1.084345579147339E-001;2.526747761294246E-003;-1.411502133123577E-003;
2.424333333333334E+009;1.539344340562820E-001;-1.093628183007240E-001;2.463154029101133E-003;-1.404260983690620E-003;
2.424500000000000E+009;1.544437259435654E-001;-1.104015782475472E-001;2.384482882916927E-003;-1.525611034594476E-003;
2.424666666666667E+009;1.551361382007599E-001;-1.111539974808693E-001;2.343228552490473E-003;-1.420514658093453E-003;
2.424833333333334E+009;1.554501056671143E-001;-1.120133027434349E-001;2.281543100252748E-003;-1.624368596822023E-003;
2.425000000000000E+009;1.559853106737137E-001;-1.127508282661438E-001;2.139495220035315E-003;-1.541564706712961E-003;
2.425166666666667E+009;1.562521606683731E-001;-1.134220287203789E-001;2.213441766798496E-003;-1.621832954697311E-003;
2.425333333333334E+009;1.566831469535828E-001;-1.139992997050285E-001;2.043493092060089E-003;-1.647948636673391E-003;
2.425500000000000E+009;1.570292562246323E-001;-1.145066693425179E-001;2.028571208938956E-003;-1.678236760199070E-003;
2.425666666666667E+009;1.570398956537247E-001;-1.148425638675690E-001;1.921394956298173E-003;-1.589634572155774E-003;
2.425833333333334E+009;1.572559624910355E-001;-1.152850016951561E-001;1.884526573121548E-003;-1.678348868153989E-003;
2.426000000000000E+009;1.573651432991028E-001;-1.157261207699776E-001;1.908853882923722E-003;-1.620991853997111E-003;
2.426166666666667E+009;1.574788540601730E-001;-1.158846840262413E-001;1.848519663326442E-003;-1.646790769882500E-003;
2.426333333333334E+009;1.573260724544525E-001;-1.161407828330994E-001;1.751423813402653E-003;-1.715257647447288E-003;
2.426500000000000E+009;1.572603285312653E-001;-1.163281798362732E-001;1.842686790041626E-003;-1.687735086306930E-003;
2.426666666666667E+009;1.570804715156555E-001;-1.162236109375954E-001;1.694050850346685E-003;-1.824829843826592E-003;
2.426833333333334E+009;1.567503511905670E-001;-1.163938567042351E-001;1.660091336816549E-003;-1.693571917712688E-003;
2.427000000000000E+009;1.561071425676346E-001;-1.166294142603874E-001;1.654833089560270E-003;-1.645153039135039E-003;
2.427166666666667E+009;1.555413603782654E-001;-1.166309118270874E-001;1.681584981270134E-003;-1.737677026540041E-003;
2.427333333333334E+009;1.547913700342178E-001;-1.167514771223068E-001;1.524787046946585E-003;-1.745413057506084E-003;
2.427500000000000E+009;1.542263478040695E-001;-1.169428452849388E-001;1.565463026054204E-003;-1.829167827963829E-003;
2.427666666666667E+009;1.533578038215637E-001;-1.170890554785729E-001;1.670523197390139E-003;-1.779774087481201E-003;
2.427833333333334E+009;1.522847115993500E-001;-1.172328889369965E-001;1.413919962942600E-003;-1.771814771927893E-003;
