# Version 1.00
#
freq[Hz];re:Trc1_S11;im:Trc1_S11;re:Trc2_S21;im:Trc2_S21;
2.400000000000000E+009;1.557876467704773E-001;6.023501977324486E-002;-3.164673224091530E-003;-1.692089601419866E-003;
2.400166666666667E+009;1.559433639049530E-001;5.841160193085671E-002;-3.273738548159599E-003;-1.625300734303892E-003;
2.400333333333334E+009;1.558570563793182E-001;5.641754344105721E-002;-3.059255890548229E-003;-1.597415306605399E-003;
2.400500000000000E+009;1.562466770410538E-001;5.450006946921349E-002;-3.483261680230498E-003;-1.548551139421761E-003;
2.400666666666667E+009;1.564748585224152E-001;5.227230116724968E-002;-3.830185858532786E-003;-1.412344747222960E-003;
2.400833333333334E+009;1.571017056703568E-001;5.048395693302155E-002;-3.722138702869415E-003;-1.632596249692142E-003;
2.401000000000000E+009;1.572786718606949E-001;4.833102226257324E-002;-3.484802786260843E-003;-1.524324179627001E-003;
2.401166666666667E+009;1.577689498662949E-001;4.614477977156639E-002;-3.540103090927005E-003;-1.201539766043425E-003;
2.401333333333334E+009;1.582599729299545E-001;4.405819624662399E-002;-3.467783564701676E-003;-1.200289931148291E-003;
2.401500000000000E+009;1.588787436485291E-001;4.212078079581261E-002;-3.654811764135957E-003;-1.162296859547496E-003;
2.401666666666667E+009;1.595126688480377E-001;4.007270559668541E-002;-3.621491137892008E-003;-9.984207572415471E-004;
2.401833333333334E+009;1.601093262434006E-001;3.811012953519821E-002;-3.718555206432939E-003;-9.627086110413075E-004;
2.402000000000000E+009;1.605149656534195E-001;3.624957427382469E-002;-3.683303482830524E-003;-7.856821175664663E-004;
2.402166666666667E+009;1.615650802850723E-001;3.430890664458275E-002;-3.814321011304855E-003;-8.634619880467653E-004;
2.402333333333334E+009;1.624707430601120E-001;3.253201395273209E-002;-3.890201915055513E-003;-7.396229775622487E-004;
2.402500000000000E+009;1.633680462837219E-001;3.115709312260151E-002;-3.833393100649118E-003;-5.667199147865176E-004;
2.402666666666667E+009;1.640784442424774E-001;2.954884804785252E-002;-3.863055957481265E-003;-3.899320436175913E-004;
2.402833333333334E+009;1.650070399045944E-001;2.795030921697617E-002;-3.989436198025942E-003;-3.433186793699861E-004;
2.403000000000000E+009;1.659909635782242E-001;2.661506459116936E-002;-4.084175918251276E-003;-1.162772969109938E-004;
2.403166666666667E+009;1.670991778373718E-001;2.522963844239712E-002;-4.079889506101608E-003;-4.422819984029047E-005;
2.403333333333334E+009;1.678866446018219E-001;2.393116429448128E-002;-4.180590156465769E-003;4.741956945508719E-005;
2.403500000000000E+009;1.689315438270569E-001;2.283788658678532E-002;-4.258019383996725E-003;8.540000999346376E-005;
2.403666666666667E+009;1.699564605951309E-001;2.179464325308800E-002;-4.140058532357216E-003;1.829622488003224E-004;
2.403833333333334E+009;1.710730493068695E-001;2.063298597931862E-002;-4.341833293437958E-003;4.159189411439002E-004;
2.404000000000000E+009;1.719878315925598E-001;1.985033787786961E-002;-4.210003651678562E-003;5.288138636387885E-004;
2.404166666666667E+009;1.728542894124985E-001;1.889245025813580E-002;-4.398099612444639E-003;8.832815219648182E-004;
2.404333333333334E+009;1.736513674259186E-001;1.814280636608601E-002;-4.266063682734966E-003;9.714959305711091E-004;
2.404500000000000E+009;1.744743138551712E-001;1.742061600089073E-002;-4.322498571127653E-003;1.150981173850596E-003;
2.404666666666667E+009;1.755042970180512E-001;1.695195212960243E-002;-4.282192792743444E-003;1.326090423390269E-003;
2.404833333333334E+009;1.761509627103806E-001;1.632666960358620E-002;-4.352947231382132E-003;1.489024492911995E-003;
2.405000000000000E+009;1.768401414155960E-001;1.580952666699886E-002;-4.337755031883717E-003;1.546984305605292E-003;
2.405166666666667E+009;1.775330454111099E-001;1.529728248715401E-002;-4.206696059554815E-003;1.776018296368420E-003;
2.405333333333334E+009;1.781656742095947E-001;1.483098976314068E-002;-4.142846912145615E-003;2.007476752623916E-003;
2.405500000000000E+009;1.786795109510422E-001;1.451983675360680E-002;-4.142703022807837E-003;2.139120129868388E-003;
2.405666666666667E+009;1.791256666183472E-001;1.415144838392735E-002;-3.784527536481619E-003;2.328697126358748E-003;
2.405833333333334E+009;1.793846189975739E-001;1.407988648861647E-002;-3.877327078953385E-003;2.521552843973041E-003;
2.406000000000000E+009;1.798049956560135E-001;1.365790050476790E-002;-3.877901006489992E-003;2.661230508238077E-003;
2.406166666666667E+009;1.798732429742813E-001;1.336308661848307E-002;-3.668234683573246E-003;2.842754358425736E-003;
2.406333333333334E+009;1.802092790603638E-001;1.305906102061272E-002;-3.419720102101564E-003;3.036509267985821E-003;
2.406500000000000E+009;1.801103949546814E-001;1.277055684477091E-002;-3.173489589244127E-003;3.209638409316540E-003;
2.406666666666667E+009;1.798286885023117E-001;1.251269318163395E-002;-3.159592859447002E-003;3.271185560151935E-003;
2.406833333333334E+009;1.799214631319046E-001;1.211051642894745E-002;-3.151856595650315E-003;3.335526445880532E-003;
2.407000000000000E+009;1.796672344207764E-001;1.164584886282682E-002;-2.961284713819623E-003;3.465540474280715E-003;
2.407166666666667E+009;1.794344931840897E-001;1.132845412939787E-002;-2.737806178629398E-003;3.573716850951314E-003;
2.407333333333334E+009;1.790346652269363E-001;1.061352342367172E-002;-2.566463313996792E-003;3.587929997593164E-003;
2.407500000000000E+009;1.787226349115372E-001;1.019935123622417E-002;-2.471695654094219E-003;3.761604428291321E-003;
2.407666666666667E+009;1.782499402761459E-001;9.518872015178204E-003;-2.162550110369921E-003;3.591292304918170E-003;
2.407833333333334E+009;1.775793880224228E-001;8.792437613010407E-003;-2.280518412590027E-003;3.708006581291556E-003;
2.408000000000000E+009;1.770891845226288E-001;8.035796694457531E-003;-1.992519479244947E-003;3.742990316823125E-003;
2.408166666666667E+009;1.763010174036026E-001;7.327247411012650E-003;-1.797697157599032E-003;3.944444935768843E-003;
2.408333333333334E+009;1.760065257549286E-001;6.413555704057217E-003;-1.821676385588944E-003;3.787194844335318E-003;
2.408500000000000E+009;1.752746105194092E-001;5.205895286053419E-003;-1.360515831038356E-003;3.864324185997248E-003;
2.408666666666667E+009;1.745354086160660E-001;4.122345708310604E-003;-1.330299535766244E-003;3.837390337139368E-003;
2.408833333333334E+009;1.736696809530258E-001;2.792524872347713E-003;-1.233204966410995E-003;3.883442841470242E-003;
2.409000000000000E+009;1.730149835348129E-001;1.637081964872778E-003;-1.108467811718583E-003;3.674263134598732E-003;
2.409166666666667E+009;1.723485738039017E-001;2.102898870361969E-004;-1.052129897288978E-003;3.970056306570768E-003;
2.409333333333334E+009;1.717619448900223E-001;-1.197259756736457E-003;-8.239056332968175E-004;3.800153965130448E-003;
2.409500000000000E+009;1.711254864931107E-001;-2.970778150483966E-003;-7.653830689378083E-004;3.798610297963023E-003;
2.409666666666667E+009;1.702574938535690E-001;-4.273635800927877E-003;-4.795380518771708E-004;3.676541848108172E-003;
2.409833333333334E+009;1.696906685829163E-001;-5.982971284538508E-003;-4.644853179343045E-004;3.726552939042449E-003;
2.410000000000000E+009;1.692575961351395E-001;-7.713675964623690E-003;-3.884695470333099E-004;3.812079550698400E-003;
2.410166666666667E+009;1.687556654214859E-001;-9.545803070068359E-003;-2.807566779665649E-004;3.578315488994122E-003;
2.410333333333334E+009;1.684222668409348E-001;-1.134129986166954E-002;-1.588815503055230E-004;3.611040534451604E-003;
2.410500000000000E+009;1.679864227771759E-001;-1.319793239235878E-002;-1.608226884854958E-004;3.595169400796294E-003;
2.410666666666667E+009;1.675437390804291E-001;-1.528951898217201E-002;-2.961623431474436E-005;3.590296953916550E-003;
2.410833333333334E+009;1.675140112638474E-001;-1.721593551337719E-002;-8.282857015728951E-005;3.562760306522250E-003;
2.411000000000000E+009;1.671153157949448E-001;-1.897605694830418E-002;2.012022014241666E-004;3.465785644948483E-003;
2.411166666666667E+009;1.673159003257752E-001;-2.109225839376450E-002;2.587029011920095E-004;3.602348035201430E-003;
2.411333333333334E+009;1.671923696994782E-001;-2.299558930099011E-002;2.508559264242649E-004;3.417455125600100E-003;
2.411500000000000E+009;1.672843247652054E-001;-2.511771395802498E-002;4.836907901335508E-004;3.353966865688562E-003;
2.411666666666667E+009;1.672592014074326E-001;-2.706361189484596E-002;4.341348248999566E-004;3.325063968077302E-003;
2.411833333333334E+009;1.676806211471558E-001;-2.905239164829254E-002;3.804416046477854E-004;3.275540657341480E-003;
2.412000000000000E+009;1.681325733661652E-001;-3.092195093631744E-002;5.747891846112907E-004;3.405127208679915E-003;
2.412166666666667E+009;1.681754291057587E-001;-3.281485661864281E-002;6.707767606712878E-004;3.242723643779755E-003;
2.412333333333334E+009;1.688468605279923E-001;-3.462266549468041E-002;7.211222546175122E-004;3.267299616709352E-003;
2.412500000000000E+009;1.691398769617081E-001;-3.628678247332573E-002;8.000288507901132E-004;3.212810494005680E-003;
2.412666666666667E+009;1.696476638317108E-001;-3.825481235980988E-002;9.322363766841590E-004;3.075529355555773E-003;
2.412833333333334E+009;1.703376919031143E-001;-3.988183662295342E-002;9.454814717173576E-004;3.105965908616781E-003;
2.413000000000000E+009;1.710144877433777E-001;-4.157109186053276E-002;1.012712833471596E-003;3.076193155720830E-003;
2.413166666666667E+009;1.714885681867600E-001;-4.298306629061699E-002;1.138757565058768E-003;3.107850207015872E-003;
2.413333333333334E+009;1.720210313796997E-001;-4.459540173411369E-002;1.276743132621050E-003;3.029018873348832E-003;
2.413500000000000E+009;1.727606803178787E-001;-4.610092192888260E-002;1.300565898418427E-003;3.214838448911905E-003;
2.413666666666667E+009;1.735479086637497E-001;-4.737735912203789E-002;1.385166309773922E-003;2.902114298194647E-003;
2.413833333333334E+009;1.739999055862427E-001;-4.870483651757240E-002;1.243703300133348E-003;2.880640327930450E-003;
2.414000000000000E+009;1.744661480188370E-001;-4.987268894910812E-002;1.492049777880311E-003;2.915746998041868E-003;
2.414166666666667E+009;1.753156483173370E-001;-5.095653235912323E-002;1.551107969135046E-003;2.748869825154543E-003;
2.414333333333334E+009;1.757946312427521E-001;-5.196286365389824E-002;1.626466400921345E-003;2.717163413763046E-003;
2.414500000000000E+009;1.764963269233704E-001;-5.272446945309639E-002;1.767217530868948E-003;2.649461152032018E-003;
2.414666666666667E+009;1.770093291997910E-001;-5.362319946289063E-002;1.642823102883995E-003;2.638619160279632E-003;
2.414833333333334E+009;1.773770600557327E-001;-5.430461093783379E-002;1.799610792659223E-003;2.562538022175431E-003;
2.415000000000000E+009;1.776784807443619E-001;-5.508679524064064E-002;2.121566096320748E-003;2.588845323771238E-003;
2.415166666666667E+009;1.781598627567291E-001;-5.553986504673958E-002;1.905429759062827E-003;2.513916930183768E-003;
2.415333333333334E+009;1.785314083099365E-001;-5.608900263905525E-002;1.862808712758124E-003;2.484592841938138E-003;
2.415500000000000E+009;1.786417514085770E-001;-5.639590695500374E-002;1.934677944518626E-003;2.525127492845058E-003;
2.415666666666667E+009;1.787669360637665E-001;-5.672070011496544E-002;2.122121397405863E-003;2.324608853086829E-003;
2.415833333333334E+009;1.788399368524551E-001;-5.714992806315422E-002;2.134180394932628E-003;2.409140579402447E-003;
2.416000000000000E+009;1.785538643598557E-001;-5.741238594055176E-002;2.258825581520796E-003;2.392994705587626E-003;
2.416166666666667E+009;1.787472367286682E-001;-5.764759331941605E-002;2.338393125683069E-003;2.232552971690893E-003;
2.416333333333334E+009;1.783519387245178E-001;-5.786857753992081E-002;2.175097586587071E-003;2.153891138732433E-003;
2.416500000000000E+009;1.779949516057968E-001;-5.813966318964958E-002;2.438255585730076E-003;2.033375203609467E-003;
2.416666666666667E+009;1.774154305458069E-001;-5.819919705390930E-002;2.428787061944604E-003;2.009746152907610E-003;
2.416833333333334E+009;1.770762652158737E-001;-5.849619582295418E-002;2.563797170296311E-003;2.039608079940081E-003;
2.417000000000000E+009;1.763293594121933E-001;-5.875128880143166E-002;2.535907318815589E-003;1.891205436550081E-003;
2.417166666666667E+009;1.757516264915466E-001;-5.875540152192116E-002;2.614876721054316E-003;1.816761912778020E-003;
2.417333333333334E+009;1.749467998743057E-001;-5.895842611789703E-002;2.675886498764157E-003;1.664668554440141E-003;
2.417500000000000E+009;1.740686297416687E-001;-5.939564108848572E-002;2.824599621817470E-003;1.611766987480223E-003;
2.417666666666667E+009;1.731922328472138E-001;-5.969402194023132E-002;2.765465294942260E-003;1.565816346555948E-003;
2.417833333333334E+009;1.721293330192566E-001;-5.995517224073410E-002;2.852982841432095E-003;1.512960647232831E-003;
2.418000000000000E+009;1.710021793842316E-001;-6.042461842298508E-002;2.842303598299623E-003;1.414401340298355E-003;
2.418166666666667E+009;1.699144244194031E-001;-6.068847700953484E-002;2.841867972165346E-003;1.289380015805364E-003;
2.418333333333334E+009;1.689244806766510E-001;-6.142226606607437E-002;2.861841116100550E-003;1.189080066978931E-003;
2.418500000000000E+009;1.675802618265152E-001;-6.187300384044647E-002;2.867231378331780E-003;1.360969850793481E-003;
2.418666666666667E+009;1.666216105222702E-001;-6.253602355718613E-002;2.783026080578566E-003;1.135722966864705E-003;
2.418833333333334E+009;1.651424467563629E-001;-6.325590610504150E-002;2.802353585138917E-003;1.111347926780582E-003;
2.419000000000000E+009;1.638548374176025E-001;-6.404993683099747E-002;2.923867898061872E-003;9.067812352441251E-004;
2.419166666666667E+009;1.625939607620239E-001;-6.492379307746887E-002;2.937774406746030E-003;8.861632668413222E-004;
2.419333333333334E+009;1.613294333219528E-001;-6.579606235027313E-002;3.029979066923261E-003;8.232513209804893E-004;
2.419500000000000E+009;1.600734740495682E-001;-6.694413721561432E-002;3.056425834074616E-003;7.371836691163480E-004;
2.419666666666667E+009;1.590481996536255E-001;-6.814732402563095E-002;2.822365611791611E-003;7.021510973572731E-004;
2.419833333333334E+009;1.578835994005203E-001;-6.909029930830002E-002;3.011941211298108E-003;5.708922981284559E-004;
2.420000000000000E+009;1.568260490894318E-001;-7.033194601535797E-002;2.842186950147152E-003;6.904728361405432E-004;
2.420166666666667E+009;1.556129306554794E-001;-7.165347784757614E-002;2.892256947234273E-003;5.668080993928015E-004;
2.420333333333334E+009;1.547468006610870E-001;-7.318791747093201E-002;2.952168462797999E-003;3.398116969037801E-004;
2.420500000000000E+009;1.538657248020172E-001;-7.446156442165375E-002;2.948776353150606E-003;3.963538911193609E-004;
2.420666666666667E+009;1.528178453445435E-001;-7.594321668148041E-002;3.072205930948257E-003;1.986948627745733E-004;
2.420833333333334E+009;1.522038280963898E-001;-7.745422422885895E-002;2.943936269730330E-003;2.192410611314699E-004;
2.421000000000000E+009;1.516229212284088E-001;-7.928876578807831E-002;3.091587917879224E-003;1.182242194772698E-004;
2.421166666666667E+009;1.508471518754959E-001;-8.066923916339874E-002;3.099986352026463E-003;4.857583917328157E-005;
2.421333333333334E+009;1.505154967308044E-001;-8.245622366666794E-002;2.764042466878891E-003;-4.736068876809441E-005;
2.421500000000000E+009;1.500754207372665E-001;-8.418817073106766E-002;3.066153498366475E-003;-1.100928639061749E-004;
2.421666666666667E+009;1.495608240365982E-001;-8.591964840888977E-002;2.972539747133851E-003;-1.274215319426730E-004;
2.421833333333334E+009;1.495602130889893E-001;-8.751927316188812E-002;3.034846158698201E-003;-3.676427295431495E-004;
2.422000000000000E+009;1.492122560739517E-001;-8.937685191631317E-002;3.065404249355197E-003;-3.641190123744309E-004;
2.422166666666667E+009;1.492255777120590E-001;-9.108837693929672E-002;3.003327408805490E-003;-4.187754529993981E-004;
2.422333333333334E+009;1.494825035333633E-001;-9.279987961053848E-002;2.855214988812804E-003;-4.764604964293540E-004;
2.422500000000000E+009;1.494310349225998E-001;-9.426276385784149E-002;2.981898374855518E-003;-7.199037354439497E-004;
2.422666666666667E+009;1.495629847049713E-001;-9.590250253677368E-002;2.878201892599464E-003;-7.777057471685112E-004;
2.422833333333334E+009;1.497999280691147E-001;-9.785784780979157E-002;2.901521511375904E-003;-7.923031807877123E-004;
2.423000000000000E+009;1.500756889581680E-001;-9.932221472263336E-002;2.809822792187333E-003;-1.068712910637260E-003;
2.423166666666667E+009;1.505880802869797E-001;-1.007232591509819E-001;2.720847725868225E-003;-9.771786862984300E-004;
2.423333333333334E+009;1.509065032005310E-001;-1.019654944539070E-001;2.794031985104084E-003;-1.123884459957480E-003;
2.423500000000000E+009;1.512649655342102E-001;-1.036211326718330E-001;2.638965146616101E-003;-1.076922751963139E-003;
2.423666666666667E+009;1.517725139856339E-001;-1.051683425903320E-001;2.649983391165733E-003;-1.129565876908600E-003;
2.423833333333334E+009;1.525246798992157E-001;-1.063789501786232E-001;2.418839838355780E-003;-1.392352394759655E-003;
2.424000000000000E+009;1.528054922819138E-001;-1.073012724518776E-001;2.586374059319496E-003;-1.349556259810925E-003;
2.424166666666667E+009;1.532974094152451E-001;-1.083874404430389E-001;2.329375362023711E-003;-1.316511654295027E-003;
2.424333333333334E+009;1.538827270269394E-001;-1.094156280159950E-001;2.397027099505067E-003;-1.330413040705025E-003;
2.424500000000000E+009;1.546078175306320E-001;-1.104718670248985E-001;2.429517684504390E-003;-1.521561411209405E-003;
2.424666666666667E+009;1.551659405231476E-001;-1.112515181303024E-001;2.264839131385088E-003;-1.454310375265777E-003;
2.424833333333334E+009;1.555822342634201E-001;-1.120407581329346E-001;2.218032954260707E-003;-1.515187788754702E-003;
2.425000000000000E+009;1.559860259294510E-001;-1.128481402993202E-001;2.105181571096182E-003;-1.499872305430472E-003;
2.425166666666667E+009;1.561700254678726E-001;-1.134126335382462E-001;2.023601206019521E-003;-1.573290792293847E-003;
2.425333333333334E+009;1.566495299339294E-001;-1.139506548643112E-001;2.067089546471834E-003;-1.664626412093639E-003;
2.425500000000000E+009;1.569992303848267E-001;-1.145096123218536E-001;1.985946437343955E-003;-1.578948693349958E-003;
2.425666666666667E+009;1.570968180894852E-001;-1.149554550647736E-001;1.881170319393277E-003;-1.632862840779126E-003;
2.425833333333334E+009;1.573635339736939E-001;-1.152719482779503E-001;1.758935279212892E-003;-1.715197809971869E-003;
2.426000000000000E+009;1.573635041713715E-001;-1.157649010419846E-001;1.879778807051480E-003;-1.745720626786351E-003;
2.426166666666667E+009;1.575769335031509E-001;-1.158953234553337E-001;1.668074633926153E-003;-1.668251468800008E-003;
2.426333333333334E+009;1.573084443807602E-001;-1.161328330636025E-001;1.747204456478357E-003;-1.703340094536543E-003;
2.426500000000000E+009;1.572349816560745E-001;-1.162858754396439E-001;1.677351421676576E-003;-1.802252256311476E-003;
2.426666666666667E+009;1.570222973823547E-001;-1.162305474281311E-001;1.639959984458983E-003;-1.721876673400402E-003;
2.426833333333334E+009;1.566339582204819E-001;-1.165133565664291E-001;1.715893391519785E-003;-1.841273973695934E-003;
2.427000000000000E+009;1.560146808624268E-001;-1.167314127087593E-001;1.524558872915804E-003;-1.638732966966927E-003;
2.427166666666667E+009;1.555507928133011E-001;-1.166760325431824E-001;1.603413140401244E-003;-1.689786207862198E-003;
2.427333333333334E+009;1.548580825328827E-001;-1.168045029044151E-001;1.573044224642217E-003;-1.719399471767247E-003;
2.427500000000000E+009;1.542626321315765E-001;-1.169496700167656E-001;1.550261862576008E-003;-1.773622003383935E-003;
2.427666666666667E+009;1.532915234565735E-001;-1.171890571713448E-001;1.558441203087568E-003;-1.749692601151764E-003;
2.427833333333334E+009;1.523843556642532E-001;-1.172616034746170E-001;1.560913631692529E-003;-1.920734648592770E-003;
