# Version 1.00
#
freq[Hz];re:Trc1_S11;im:Trc1_S11;re:Trc2_S21;im:Trc2_S21;
2.400000000000000E+009;1.558181494474411E-001;6.035050377249718E-002;-2.995376242324710E-003;-1.882046693935990E-003;
2.400166666666667E+009;1.557962298393250E-001;5.865465477108955E-002;-3.035394707694650E-003;-1.873361412435770E-003;
2.400333333333334E+009;1.560884714126587E-001;5.648288875818253E-002;-3.205988788977265E-003;-1.821524812839925E-003;
2.400500000000000E+009;1.562210917472839E-001;5.454740300774574E-002;-3.321457654237747E-003;-1.755352364853025E-003;
2.400666666666667E+009;1.564239263534546E-001;5.234813317656517E-002;-3.313368884846568E-003;-1.660248730331659E-003;
2.400833333333334E+009;1.567294001579285E-001;5.042986199259758E-002;-3.302702680230141E-003;-1.637523062527180E-003;
2.401000000000000E+009;1.572539955377579E-001;4.826875030994415E-002;-3.464333247393370E-003;-1.506203436292708E-003;
2.401166666666667E+009;1.577213853597641E-001;4.613812640309334E-002;-3.369734855368733E-003;-1.426935777999461E-003;
2.401333333333334E+009;1.581409126520157E-001;4.402879998087883E-002;-3.505432279780507E-003;-1.355307525955141E-003;
2.401500000000000E+009;1.588549464941025E-001;4.222903773188591E-002;-3.520612604916096E-003;-1.192268799059093E-003;
2.401666666666667E+009;1.594326049089432E-001;4.037055745720863E-002;-3.610480576753616E-003;-9.574339492246509E-004;
2.401833333333334E+009;1.600254774093628E-001;3.822341188788414E-002;-3.740239888429642E-003;-9.641622309572995E-004;
2.402000000000000E+009;1.607456505298615E-001;3.626716881990433E-002;-3.570113331079483E-003;-8.024295093491674E-004;
2.402166666666667E+009;1.614349037408829E-001;3.453789651393890E-002;-3.729680785909295E-003;-7.818128215149045E-004;
2.402333333333334E+009;1.622793972492218E-001;3.276621550321579E-002;-3.806700464338064E-003;-8.519990369677544E-004;
2.402500000000000E+009;1.633365154266357E-001;3.125181049108505E-002;-3.895197995007038E-003;-4.457950126379728E-004;
2.402666666666667E+009;1.641820073127747E-001;2.959132008254528E-002;-3.813232528045774E-003;-5.880738026462495E-004;
2.402833333333334E+009;1.650407165288925E-001;2.815591171383858E-002;-3.985095769166946E-003;-3.487175563350320E-004;
2.403000000000000E+009;1.659584939479828E-001;2.680514752864838E-002;-3.930762875825167E-003;-2.586741757113487E-004;
2.403166666666667E+009;1.669716835021973E-001;2.520510368049145E-002;-4.056127741932869E-003;-2.175190311390907E-004;
2.403333333333334E+009;1.680186092853546E-001;2.408344298601151E-002;-4.225104115903378E-003;2.018073791987263E-005;
2.403500000000000E+009;1.689287573099136E-001;2.290413342416287E-002;-4.187852144241333E-003;1.133332989411429E-004;
2.403666666666667E+009;1.700603812932968E-001;2.193230204284191E-002;-4.219498950988054E-003;2.964652376249433E-004;
2.403833333333334E+009;1.710744798183441E-001;2.072043903172016E-002;-4.254489671438932E-003;3.785511071328074E-004;
2.404000000000000E+009;1.719479858875275E-001;1.978255622088909E-002;-4.215887747704983E-003;4.598793457262218E-004;
2.404166666666667E+009;1.727987229824066E-001;1.894874498248100E-002;-4.303376190364361E-003;7.098215864971280E-004;
2.404333333333334E+009;1.738747954368591E-001;1.829755492508411E-002;-4.361743573099375E-003;7.431658450514078E-004;
2.404500000000000E+009;1.745207011699677E-001;1.746863126754761E-002;-4.210098180919886E-003;9.450205834582448E-004;
2.404666666666667E+009;1.755363345146179E-001;1.685076393187046E-002;-4.319235682487488E-003;1.274722046218813E-003;
2.404833333333334E+009;1.762204319238663E-001;1.627484522759914E-002;-4.157338291406632E-003;1.398456166498363E-003;
2.405000000000000E+009;1.768917888402939E-001;1.577993296086788E-002;-4.253488034009934E-003;1.676477841101587E-003;
2.405166666666667E+009;1.774606555700302E-001;1.542514096945524E-002;-4.196050576865673E-003;1.815175870433450E-003;
2.405333333333334E+009;1.782715767621994E-001;1.483824104070664E-002;-4.130782093852758E-003;2.008158480748534E-003;
2.405500000000000E+009;1.787161082029343E-001;1.436337828636169E-002;-3.940003458410502E-003;2.172933425754309E-003;
2.405666666666667E+009;1.792052239179611E-001;1.419235114008188E-002;-3.979399334639311E-003;2.366697648540139E-003;
2.405833333333334E+009;1.794220060110092E-001;1.402919553220272E-002;-3.856153693050146E-003;2.589037176221609E-003;
2.406000000000000E+009;1.797421127557755E-001;1.364316791296005E-002;-3.760519204661250E-003;2.720577875152230E-003;
2.406166666666667E+009;1.798849850893021E-001;1.342469267547131E-002;-3.612762084230781E-003;2.811959711834788E-003;
2.406333333333334E+009;1.801251322031021E-001;1.311387866735458E-002;-3.461040789261460E-003;3.047484206035733E-003;
2.406500000000000E+009;1.800349652767181E-001;1.295921858400106E-002;-3.269348526373506E-003;3.034924622625113E-003;
2.406666666666667E+009;1.798457205295563E-001;1.248576398938894E-002;-3.072047838941217E-003;3.214209573343396E-003;
2.406833333333334E+009;1.798776537179947E-001;1.206058915704489E-002;-3.006900427863002E-003;3.335527377203107E-003;
2.407000000000000E+009;1.796435266733170E-001;1.171266753226519E-002;-2.754349960014224E-003;3.510901937261224E-003;
2.407166666666667E+009;1.794534772634506E-001;1.143122464418411E-002;-2.759136026725173E-003;3.577067516744137E-003;
2.407333333333334E+009;1.789066046476364E-001;1.074733398854733E-002;-2.487073419615626E-003;3.762382082641125E-003;
2.407500000000000E+009;1.787020862102509E-001;1.037888508290052E-002;-2.463076030835509E-003;3.747898153960705E-003;
2.407666666666667E+009;1.781979799270630E-001;9.753686375916004E-003;-2.316060010343790E-003;3.793210955336690E-003;
2.407833333333334E+009;1.776714920997620E-001;8.807880803942680E-003;-2.056481549516320E-003;3.862511599436402E-003;
2.408000000000000E+009;1.770762503147125E-001;8.075213059782982E-003;-1.876851776614785E-003;3.967463504523039E-003;
2.408166666666667E+009;1.764011681079865E-001;7.386750541627407E-003;-1.759947743266821E-003;3.759373677894473E-003;
2.408333333333334E+009;1.759223937988281E-001;6.389440502971411E-003;-1.477572135627270E-003;3.864218713715673E-003;
2.408500000000000E+009;1.751529276371002E-001;5.383022595196962E-003;-1.342340838164091E-003;3.815656993538141E-003;
2.408666666666667E+009;1.744717061519623E-001;4.196152556687594E-003;-1.249541644938290E-003;3.777966368943453E-003;
2.408833333333334E+009;1.737905144691467E-001;3.006047336384654E-003;-1.263830461539328E-003;3.784961998462677E-003;
2.409000000000000E+009;1.730639189481735E-001;1.618400681763887E-003;-1.058896654285491E-003;3.751296084374189E-003;
2.409166666666667E+009;1.724308878183365E-001;2.661495818756521E-004;-1.036169240251184E-003;3.692337544634938E-003;
2.409333333333334E+009;1.718291044235230E-001;-1.227945671416819E-003;-7.750451914034784E-004;3.764098044484854E-003;
2.409500000000000E+009;1.709798425436020E-001;-2.934596501290798E-003;-7.179335807450116E-004;3.648634068667889E-003;
2.409666666666667E+009;1.704314053058624E-001;-4.425185732543469E-003;-6.425838219001889E-004;3.744441783055663E-003;
2.409833333333334E+009;1.696331351995468E-001;-5.946826655417681E-003;-6.056467536836863E-004;3.767552785575390E-003;
2.410000000000000E+009;1.693976968526840E-001;-7.718490902334452E-003;-3.371650236658752E-004;3.603425808250904E-003;
2.410166666666667E+009;1.688567996025085E-001;-9.648418053984642E-003;-4.134244518354535E-004;3.598720766603947E-003;
2.410333333333334E+009;1.684441119432449E-001;-1.145001407712698E-002;-2.029729803325608E-004;3.701481968164444E-003;
2.410500000000000E+009;1.681135296821594E-001;-1.334544736891985E-002;-1.654796069487929E-004;3.550018649548292E-003;
2.410666666666667E+009;1.675753295421600E-001;-1.530473493039608E-002;-1.376898871967569E-004;3.435160964727402E-003;
2.410833333333334E+009;1.673634648323059E-001;-1.706355623900890E-002;-3.332386404508725E-005;3.486672416329384E-003;
2.411000000000000E+009;1.673267930746079E-001;-1.899727247655392E-002;6.543035124195740E-005;3.476178040727973E-003;
2.411166666666667E+009;1.672547310590744E-001;-2.116442285478115E-002;1.845637161750346E-004;3.526252927258611E-003;
2.411333333333334E+009;1.671819835901260E-001;-2.294734492897987E-002;2.928198373410851E-004;3.294110298156738E-003;
2.411500000000000E+009;1.669501364231110E-001;-2.506563998758793E-002;3.367365861777216E-004;3.406288102269173E-003;
2.411666666666667E+009;1.675688028335571E-001;-2.714013308286667E-002;4.844581999350339E-004;3.468216164037585E-003;
2.411833333333334E+009;1.677502542734146E-001;-2.894570678472519E-002;5.582330632023513E-004;3.395162988454104E-003;
2.412000000000000E+009;1.681594401597977E-001;-3.086996451020241E-002;3.690839803311974E-004;3.360723610967398E-003;
2.412166666666667E+009;1.681586056947708E-001;-3.274793922901154E-002;6.699054501950741E-004;3.180711064487696E-003;
2.412333333333334E+009;1.689807176589966E-001;-3.457325324416161E-002;6.662787054665387E-004;3.226699307560921E-003;
2.412500000000000E+009;1.692882329225540E-001;-3.634336218237877E-002;7.266583852469921E-004;3.172118449583650E-003;
2.412666666666667E+009;1.698827743530273E-001;-3.823191672563553E-002;1.053296262398362E-003;3.240222111344338E-003;
2.412833333333334E+009;1.703734099864960E-001;-4.005734622478485E-002;9.565324289724231E-004;3.199362894520164E-003;
2.413000000000000E+009;1.709501147270203E-001;-4.149450361728668E-002;1.006580539979041E-003;3.210272407159209E-003;
2.413166666666667E+009;1.715488433837891E-001;-4.300648719072342E-002;1.111369463615120E-003;3.154198406264186E-003;
2.413333333333334E+009;1.721339225769043E-001;-4.447053745388985E-002;1.332591520622373E-003;3.035160945728421E-003;
2.413500000000000E+009;1.727597117424011E-001;-4.595766589045525E-002;1.281131175346673E-003;2.934030024334788E-003;
2.413666666666667E+009;1.734618693590164E-001;-4.735357314348221E-002;1.328830607235432E-003;2.925424370914698E-003;
2.413833333333334E+009;1.740622967481613E-001;-4.851049184799194E-002;1.428618910722435E-003;3.003540448844433E-003;
2.414000000000000E+009;1.746475547552109E-001;-4.976221174001694E-002;1.417312771081924E-003;3.146690316498280E-003;
2.414166666666667E+009;1.752858608961105E-001;-5.088499933481216E-002;1.459566177800298E-003;2.925997134298086E-003;
2.414333333333334E+009;1.759092509746552E-001;-5.191656574606895E-002;1.560347387567163E-003;2.764475764706731E-003;
2.414500000000000E+009;1.764328479766846E-001;-5.281889066100121E-002;1.734122284688056E-003;2.907841000705957E-003;
2.414666666666667E+009;1.767737269401550E-001;-5.360475927591324E-002;1.714677666313946E-003;2.601816551759839E-003;
2.414833333333334E+009;1.774995774030685E-001;-5.434181913733482E-002;1.826144871301949E-003;2.726918086409569E-003;
2.415000000000000E+009;1.775830537080765E-001;-5.496120452880859E-002;1.799896243028343E-003;2.628203015774488E-003;
2.415166666666667E+009;1.781679987907410E-001;-5.558862164616585E-002;1.959694782271981E-003;2.677113516256213E-003;
2.415333333333334E+009;1.785480380058289E-001;-5.608773976564407E-002;2.007828326895833E-003;2.583634341135621E-003;
2.415500000000000E+009;1.786480247974396E-001;-5.644140020012856E-002;2.063600113615394E-003;2.410797402262688E-003;
2.415666666666667E+009;1.785615086555481E-001;-5.679246783256531E-002;2.163265133276582E-003;2.486683195456862E-003;
2.415833333333334E+009;1.787566393613815E-001;-5.711293220520020E-002;2.170421881601214E-003;2.460735617205501E-003;
2.416000000000000E+009;1.785874515771866E-001;-5.744398012757301E-002;2.221216214820743E-003;2.351317554712296E-003;
2.416166666666667E+009;1.786721944808960E-001;-5.769867822527885E-002;2.340795472264290E-003;2.229409292340279E-003;
2.416333333333334E+009;1.783043295145035E-001;-5.767406150698662E-002;2.304240595549345E-003;2.078671241179109E-003;
2.416500000000000E+009;1.778871864080429E-001;-5.801573023200035E-002;2.449891297146678E-003;2.118385164067149E-003;
2.416666666666667E+009;1.774692237377167E-001;-5.825153738260269E-002;2.423679456114769E-003;2.071212045848370E-003;
2.416833333333334E+009;1.771212965250015E-001;-5.840627104043961E-002;2.528571058064699E-003;1.927822362631559E-003;
2.417000000000000E+009;1.762993186712265E-001;-5.866396054625511E-002;2.661545528098941E-003;1.929464633576572E-003;
2.417166666666667E+009;1.757135838270187E-001;-5.873324722051621E-002;2.660294761881232E-003;1.901795621961355E-003;
2.417333333333334E+009;1.749259680509567E-001;-5.896969512104988E-002;2.723905723541975E-003;1.713798381388187E-003;
2.417500000000000E+009;1.740555167198181E-001;-5.941141396760941E-002;2.584068104624748E-003;1.689237193204463E-003;
2.417666666666667E+009;1.732285767793655E-001;-5.959780141711235E-002;2.696797717362642E-003;1.616713241674006E-003;
2.417833333333334E+009;1.722462028264999E-001;-5.984106659889221E-002;2.766240388154984E-003;1.402833848260343E-003;
2.418000000000000E+009;1.710816770792007E-001;-6.046359986066818E-002;2.830751938745379E-003;1.393325394019485E-003;
2.418166666666667E+009;1.699801683425903E-001;-6.060117855668068E-002;2.765348181128502E-003;1.309244893491268E-003;
2.418333333333334E+009;1.690575331449509E-001;-6.123172119259834E-002;2.876566955819726E-003;1.160523504950106E-003;
2.418500000000000E+009;1.676550209522247E-001;-6.183740124106407E-002;2.981410827487707E-003;1.336720655672252E-003;
2.418666666666667E+009;1.664454638957977E-001;-6.262609362602234E-002;2.910894807428122E-003;1.010256004519761E-003;
2.418833333333334E+009;1.651651263237000E-001;-6.321085244417191E-002;2.761224750429392E-003;1.067679258994758E-003;
2.419000000000000E+009;1.638329625129700E-001;-6.403302401304245E-002;2.939486643299460E-003;1.033843611367047E-003;
2.419166666666667E+009;1.627300232648850E-001;-6.492526829242706E-002;2.942146966233850E-003;9.720996022224426E-004;
2.419333333333334E+009;1.613179743289948E-001;-6.568502634763718E-002;2.976010553538799E-003;6.808459875173867E-004;
2.419500000000000E+009;1.601469814777374E-001;-6.703552603721619E-002;3.097374923527241E-003;7.939673960208893E-004;
2.419666666666667E+009;1.591242551803589E-001;-6.808593869209290E-002;2.913374453783035E-003;6.458512507379055E-004;
2.419833333333334E+009;1.577544510364533E-001;-6.913491338491440E-002;2.897361759096384E-003;6.155250011943281E-004;
2.420000000000000E+009;1.568947583436966E-001;-7.037357985973358E-002;2.828106982633472E-003;6.697564967907965E-004;
2.420166666666667E+009;1.557200849056244E-001;-7.165209949016571E-002;3.025045385584235E-003;5.502076819539070E-004;
2.420333333333334E+009;1.547614037990570E-001;-7.317281514406204E-002;2.958712400868535E-003;4.847056989092380E-004;
2.420500000000000E+009;1.539647430181503E-001;-7.436190545558929E-002;3.023742465302348E-003;4.586705181282014E-004;
2.420666666666667E+009;1.529136747121811E-001;-7.588429749011993E-002;2.990950364619494E-003;1.789840898709372E-004;
2.420833333333334E+009;1.521565914154053E-001;-7.756408303976059E-002;3.029642393812537E-003;3.546032530721277E-004;
2.421000000000000E+009;1.515402346849442E-001;-7.921025156974793E-002;3.036293666809797E-003;1.862388598965481E-004;
2.421166666666667E+009;1.510308384895325E-001;-8.073569089174271E-002;3.021695883944631E-003;-2.220817623310722E-005;
2.421333333333334E+009;1.505243331193924E-001;-8.256129175424576E-002;3.061438677832484E-003;1.845315091486555E-005;
2.421500000000000E+009;1.500730961561203E-001;-8.421178907155991E-002;3.161908593028784E-003;-9.111183317145333E-005;
2.421666666666667E+009;1.495310664176941E-001;-8.577577769756317E-002;3.099518595263362E-003;-1.356981956632808E-004;
2.421833333333334E+009;1.495613753795624E-001;-8.760278671979904E-002;3.058035857975483E-003;-2.937979879789054E-004;
2.422000000000000E+009;1.492879688739777E-001;-8.919072151184082E-002;3.001905977725983E-003;-3.573802823666483E-004;
2.422166666666667E+009;1.492713540792465E-001;-9.123566001653671E-002;2.888394752517343E-003;-4.562947724480182E-004;
2.422333333333334E+009;1.492103785276413E-001;-9.275912493467331E-002;3.011711407452822E-003;-3.979856264777482E-004;
2.422500000000000E+009;1.493360251188278E-001;-9.428898245096207E-002;3.030512481927872E-003;-7.897666073404253E-004;
2.422666666666667E+009;1.494138538837433E-001;-9.607530385255814E-002;2.910650102421641E-003;-5.472485790960491E-004;
2.422833333333334E+009;1.497888714075089E-001;-9.769270569086075E-002;2.951473928987980E-003;-8.460867102257907E-004;
2.423000000000000E+009;1.500001996755600E-001;-9.930708259344101E-002;2.838506596162915E-003;-9.956717258319259E-004;
2.423166666666667E+009;1.503989249467850E-001;-1.008237749338150E-001;2.669440582394600E-003;-1.091841375455260E-003;
2.423333333333334E+009;1.509017497301102E-001;-1.020713970065117E-001;2.783989068120718E-003;-1.094388193450868E-003;
2.423500000000000E+009;1.514973044395447E-001;-1.036709025502205E-001;2.659798134118319E-003;-1.089776982553303E-003;
2.423666666666667E+009;1.516968905925751E-001;-1.049260646104813E-001;2.540677553042769E-003;-1.150632509961724E-003;
2.423833333333334E+009;1.524830013513565E-001;-1.062077581882477E-001;2.561226952821016E-003;-1.195083605125547E-003;
2.424000000000000E+009;1.527734696865082E-001;-1.071384176611900E-001;2.511230763047934E-003;-1.358336070552468E-003;
2.424166666666667E+009;1.533106118440628E-001;-1.085397973656654E-001;2.508216537535191E-003;-1.392636680975556E-003;
2.424333333333334E+009;1.539002507925034E-001;-1.094046682119370E-001;2.426139777526259E-003;-1.441007829271257E-003;
2.424500000000000E+009;1.545273512601852E-001;-1.103870943188667E-001;2.369106281548739E-003;-1.497071352787316E-003;
2.424666666666667E+009;1.550670862197876E-001;-1.110939756035805E-001;2.144318772479892E-003;-1.541033387184143E-003;
2.424833333333334E+009;1.553792655467987E-001;-1.119711101055145E-001;2.199329435825348E-003;-1.676748390309513E-003;
2.425000000000000E+009;1.559909433126450E-001;-1.126902252435684E-001;2.112321788445115E-003;-1.614483073353767E-003;
2.425166666666667E+009;1.561669111251831E-001;-1.133114844560623E-001;2.092495793476701E-003;-1.544615137390792E-003;
2.425333333333334E+009;1.566421538591385E-001;-1.139300912618637E-001;2.114193513989449E-003;-1.637621433474124E-003;
2.425500000000000E+009;1.568858772516251E-001;-1.144808828830719E-001;2.018260769546032E-003;-1.528574037365615E-003;
2.425666666666667E+009;1.570763736963272E-001;-1.148725226521492E-001;1.939523383043706E-003;-1.543761813081801E-003;
2.425833333333334E+009;1.572544574737549E-001;-1.152637079358101E-001;1.854155329056084E-003;-1.634865300729871E-003;
2.426000000000000E+009;1.573475152254105E-001;-1.156326830387116E-001;1.750789699144661E-003;-1.633319887332618E-003;
2.426166666666667E+009;1.575732380151749E-001;-1.158467978239059E-001;1.821837620809674E-003;-1.665488467551768E-003;
2.426333333333334E+009;1.572928428649902E-001;-1.160656586289406E-001;1.775915268808603E-003;-1.679825363680720E-003;
2.426500000000000E+009;1.572404950857163E-001;-1.161912530660629E-001;1.744902459904552E-003;-1.756941550411284E-003;
2.426666666666667E+009;1.570115685462952E-001;-1.162019073963165E-001;1.619052258320153E-003;-1.676447340287268E-003;
2.426833333333334E+009;1.566274911165237E-001;-1.163693219423294E-001;1.698060659691691E-003;-1.677268883213401E-003;
2.427000000000000E+009;1.561512798070908E-001;-1.166130378842354E-001;1.780046732164919E-003;-1.778686302714050E-003;
2.427166666666667E+009;1.555706709623337E-001;-1.166322529315949E-001;1.563434954732657E-003;-1.787224551662803E-003;
2.427333333333334E+009;1.548587679862976E-001;-1.167518496513367E-001;1.555580296553671E-003;-1.633828389458358E-003;
2.427500000000000E+009;1.542099118232727E-001;-1.169616132974625E-001;1.514528994448483E-003;-1.685543684288859E-003;
2.427666666666667E+009;1.533481180667877E-001;-1.170945018529892E-001;1.498240395449102E-003;-1.769066322594881E-003;
2.427833333333334E+009;1.523311734199524E-001;-1.172169670462608E-001;1.398118562065065E-003;-1.857057795859873E-003;
