# Version 1.00
#
freq[Hz];re:Trc1_S11;im:Trc1_S11;re:Trc2_S21;im:Trc2_S21;
2.400000000000000E+009;1.557425856590271E-001;6.029197573661804E-002;-3.062600502744317E-003;-1.860130112618208E-003;
2.400166666666667E+009;1.559520363807678E-001;5.874742195010185E-002;-3.143736161291599E-003;-1.653714571148157E-003;
2.400333333333334E+009;1.558615416288376E-001;5.651925876736641E-002;-3.193633630871773E-003;-1.817984390072525E-003;
2.400500000000000E+009;1.562823951244354E-001;5.440004169940949E-002;-3.208270762115717E-003;-1.659985980950296E-003;
2.400666666666667E+009;1.564728766679764E-001;5.223942548036575E-002;-3.358192741870880E-003;-1.549208187498152E-003;
2.400833333333334E+009;1.570134162902832E-001;5.049308389425278E-002;-3.296631388366222E-003;-1.437719096429646E-003;
2.401000000000000E+009;1.570172607898712E-001;4.818472638726234E-002;-3.418148262426257E-003;-1.362245297059417E-003;
2.401166666666667E+009;1.577076762914658E-001;4.607539623975754E-002;-3.524913685396314E-003;-1.334688975475729E-003;
2.401333333333334E+009;1.580698788166046E-001;4.414463788270950E-002;-3.605997888371348E-003;-1.192829338833690E-003;
2.401500000000000E+009;1.588637977838516E-001;4.203483462333679E-002;-3.611027495935559E-003;-1.128049683757126E-003;
2.401666666666667E+009;1.594695895910263E-001;4.022112488746643E-002;-3.651957027614117E-003;-1.065952819772065E-003;
2.401833333333334E+009;1.600471884012222E-001;3.807489573955536E-002;-3.556154668331146E-003;-1.023461576551199E-003;
2.402000000000000E+009;1.606434285640717E-001;3.630381077528000E-002;-3.633897285908461E-003;-7.512348238378763E-004;
2.402166666666667E+009;1.613814979791641E-001;3.437677025794983E-002;-3.681432222947478E-003;-7.886333623901010E-004;
2.402333333333334E+009;1.622935980558395E-001;3.271382302045822E-002;-3.862047335132957E-003;-7.032529101707041E-004;
2.402500000000000E+009;1.633180081844330E-001;3.110869042575359E-002;-3.831885289400816E-003;-4.953613970428705E-004;
2.402666666666667E+009;1.640361398458481E-001;2.953705564141274E-002;-3.850292414426804E-003;-4.731556982733309E-004;
2.402833333333334E+009;1.650549471378326E-001;2.816020697355270E-002;-4.053621552884579E-003;-4.050786956213415E-004;
2.403000000000000E+009;1.660850495100021E-001;2.659674175083637E-002;-4.221059381961823E-003;-1.240989804500714E-004;
2.403166666666667E+009;1.670307666063309E-001;2.516600489616394E-002;-4.107364919036627E-003;-1.203275969601236E-004;
2.403333333333334E+009;1.680757254362106E-001;2.404826134443283E-002;-4.150164779275656E-003;5.062095624452923E-006;
2.403500000000000E+009;1.690135151147842E-001;2.300320193171501E-002;-4.119918216019869E-003;1.207461900776252E-004;
2.403666666666667E+009;1.700635105371475E-001;2.168985456228256E-002;-4.206749610602856E-003;3.013110544998199E-004;
2.403833333333334E+009;1.710517108440399E-001;2.077089250087738E-002;-4.221875220537186E-003;3.580299671739340E-004;
2.404000000000000E+009;1.717534959316254E-001;1.980207301676273E-002;-4.263630136847496E-003;5.113190854899585E-004;
2.404166666666667E+009;1.728375703096390E-001;1.875251345336437E-002;-4.277120810002089E-003;8.744029910303652E-004;
2.404333333333334E+009;1.737907379865646E-001;1.824526116251946E-002;-4.201226867735386E-003;9.126903605647385E-004;
2.404500000000000E+009;1.745509654283524E-001;1.733718812465668E-002;-4.373826086521149E-003;1.221459475345910E-003;
2.404666666666667E+009;1.754833757877350E-001;1.684440672397614E-002;-4.236254375427961E-003;1.377062406390905E-003;
2.404833333333334E+009;1.761455088853836E-001;1.622038520872593E-002;-4.196407739073038E-003;1.376841682940722E-003;
2.405000000000000E+009;1.768564134836197E-001;1.573775708675385E-002;-4.268754273653030E-003;1.742303837090731E-003;
2.405166666666667E+009;1.775638163089752E-001;1.522713527083397E-002;-4.143619444221258E-003;1.905237324535847E-003;
2.405333333333334E+009;1.782924234867096E-001;1.483385823667049E-002;-3.970204386860132E-003;2.202630275860429E-003;
2.405500000000000E+009;1.787129491567612E-001;1.451894640922546E-002;-4.029554314911366E-003;2.212101127952337E-003;
2.405666666666667E+009;1.791532784700394E-001;1.424894295632839E-002;-4.088934045284987E-003;2.487128833308816E-003;
2.405833333333334E+009;1.794241070747376E-001;1.389321591705084E-002;-3.708517877385020E-003;2.486100187525153E-003;
2.406000000000000E+009;1.797581166028976E-001;1.355124264955521E-002;-3.687848569825292E-003;2.759182825684547E-003;
2.406166666666667E+009;1.798181831836700E-001;1.347777154296637E-002;-3.360626753419638E-003;3.018110059201717E-003;
2.406333333333334E+009;1.800917983055115E-001;1.314251311123371E-002;-3.391807666048408E-003;3.158574923872948E-003;
2.406500000000000E+009;1.799657195806503E-001;1.282217353582382E-002;-3.238808130845428E-003;3.157765371724963E-003;
2.406666666666667E+009;1.797905713319778E-001;1.258931867778301E-002;-3.202560124918819E-003;3.322490723803639E-003;
2.406833333333334E+009;1.799675077199936E-001;1.230294723063707E-002;-2.865855349227786E-003;3.351967083290219E-003;
2.407000000000000E+009;1.797005683183670E-001;1.189747918397188E-002;-2.858306746929884E-003;3.424254711717367E-003;
2.407166666666667E+009;1.795142441987991E-001;1.137090567499399E-002;-2.613054122775793E-003;3.652323968708515E-003;
2.407333333333334E+009;1.790905445814133E-001;1.069858949631453E-002;-2.450599800795317E-003;3.678040578961372E-003;
2.407500000000000E+009;1.787852048873901E-001;1.028179656714201E-002;-2.350581344217062E-003;3.644568147137761E-003;
2.407666666666667E+009;1.782777607440949E-001;9.748732671141625E-003;-2.212230814620853E-003;3.690238343551755E-003;
2.407833333333334E+009;1.776122748851776E-001;8.829753845930100E-003;-2.023892942816019E-003;3.653818508610129E-003;
2.408000000000000E+009;1.771157979965210E-001;8.125285618007183E-003;-1.777675817720592E-003;3.952578641474247E-003;
2.408166666666667E+009;1.764460802078247E-001;7.346506696194410E-003;-1.794157898984850E-003;3.922624047845602E-003;
2.408333333333334E+009;1.759942173957825E-001;6.354454439133406E-003;-1.476402278058231E-003;3.760243766009808E-003;
2.408500000000000E+009;1.753548532724381E-001;5.268947687000036E-003;-1.534302718937397E-003;3.851390676572919E-003;
2.408666666666667E+009;1.744076609611511E-001;4.071597009897232E-003;-1.287204097025096E-003;3.748273709788919E-003;
2.408833333333334E+009;1.737461835145950E-001;3.003389341756702E-003;-1.163861365057528E-003;3.829463385045528E-003;
2.409000000000000E+009;1.730048656463623E-001;1.522662932984531E-003;-1.068791141733527E-003;3.772653173655272E-003;
2.409166666666667E+009;1.725343018770218E-001;1.588822633493692E-004;-9.659191127866507E-004;3.856952069327235E-003;
2.409333333333334E+009;1.717661470174789E-001;-1.367922988720238E-003;-7.504883687943220E-004;3.809181507676840E-003;
2.409500000000000E+009;1.709322482347488E-001;-2.948202425613999E-003;-6.830678321421146E-004;3.746255999431014E-003;
2.409666666666667E+009;1.703059822320938E-001;-4.574630875140429E-003;-5.862184916622937E-004;3.825384192168713E-003;
2.409833333333334E+009;1.696726679801941E-001;-6.055700127035379E-003;-5.143156740814447E-004;3.626224817708135E-003;
2.410000000000000E+009;1.692026704549789E-001;-7.967656478285790E-003;-3.930996754206717E-004;3.808222943916917E-003;
2.410166666666667E+009;1.686295121908188E-001;-9.543028660118580E-003;-2.345237007830292E-004;3.745716530829668E-003;
2.410333333333334E+009;1.683422178030014E-001;-1.155970059335232E-002;-2.140796568710357E-004;3.540621837601066E-003;
2.410500000000000E+009;1.679616421461105E-001;-1.346931234002113E-002;-1.797836011974141E-004;3.647855715826154E-003;
2.410666666666667E+009;1.675657927989960E-001;-1.539882551878691E-002;4.670230919145979E-005;3.519556717947125E-003;
2.410833333333334E+009;1.673275381326675E-001;-1.715619303286076E-002;1.502675004303455E-004;3.498072968795896E-003;
2.411000000000000E+009;1.672789305448532E-001;-1.910508237779141E-002;1.743114407872781E-004;3.418816020712256E-003;
2.411166666666667E+009;1.671689748764038E-001;-2.119125984609127E-002;3.216465993318707E-004;3.288415726274252E-003;
2.411333333333334E+009;1.671581417322159E-001;-2.313278801739216E-002;3.474958939477801E-004;3.427852177992463E-003;
2.411500000000000E+009;1.669732332229614E-001;-2.511532604694367E-002;2.262655907543376E-004;3.392321523278952E-003;
2.411666666666667E+009;1.674884855747223E-001;-2.725354768335819E-002;5.039590760134161E-004;3.376658074557781E-003;
2.411833333333334E+009;1.676566749811173E-001;-2.896902896463871E-002;4.561814421322197E-004;3.317567054182291E-003;
2.412000000000000E+009;1.680576503276825E-001;-3.089400194585323E-002;4.481563810259104E-004;3.403255017474294E-003;
2.412166666666667E+009;1.682042777538300E-001;-3.271163254976273E-002;6.716201314702630E-004;3.234377130866051E-003;
2.412333333333334E+009;1.687118262052536E-001;-3.455227985978127E-002;8.400439401157200E-004;3.273892449215055E-003;
2.412500000000000E+009;1.692259460687637E-001;-3.633245453238487E-002;7.816476281732321E-004;3.261346137151122E-003;
2.412666666666667E+009;1.697079688310623E-001;-3.822924941778183E-002;9.101435425691307E-004;3.387933596968651E-003;
2.412833333333334E+009;1.703151762485504E-001;-3.997186571359634E-002;1.014331006444991E-003;3.155583282932639E-003;
2.413000000000000E+009;1.708972603082657E-001;-4.156208038330078E-002;9.123077616095543E-004;2.925860462710261E-003;
2.413166666666667E+009;1.715425550937653E-001;-4.308181628584862E-002;1.158981933258474E-003;3.076278371736407E-003;
2.413333333333334E+009;1.720410287380219E-001;-4.471281543374062E-002;1.254540751688182E-003;2.980465535074472E-003;
2.413500000000000E+009;1.726893335580826E-001;-4.603507369756699E-002;1.533183269202709E-003;3.025161335244775E-003;
2.413666666666667E+009;1.735407561063767E-001;-4.731959477066994E-002;1.325397752225399E-003;3.008633619174361E-003;
2.413833333333334E+009;1.740263849496841E-001;-4.868230968713760E-002;1.488946960307658E-003;2.921522362157702E-003;
2.414000000000000E+009;1.745216697454453E-001;-4.993397742509842E-002;1.539140939712524E-003;2.877166727557778E-003;
2.414166666666667E+009;1.752720326185226E-001;-5.100987479090691E-002;1.563493162393570E-003;2.785791177302599E-003;
2.414333333333334E+009;1.757695078849793E-001;-5.203187838196755E-002;1.574517693370581E-003;2.957161283120513E-003;
2.414500000000000E+009;1.765757799148560E-001;-5.283077433705330E-002;1.626334735192359E-003;2.733065048232675E-003;
2.414666666666667E+009;1.769919246435165E-001;-5.363970249891281E-002;1.734847668558359E-003;2.684945939108729E-003;
2.414833333333334E+009;1.774500757455826E-001;-5.444741621613503E-002;1.853545662015677E-003;2.517087152227759E-003;
2.415000000000000E+009;1.777647435665131E-001;-5.492875725030899E-002;1.872474909760058E-003;2.558128908276558E-003;
2.415166666666667E+009;1.780296415090561E-001;-5.553583055734634E-002;2.103774808347225E-003;2.504557603970170E-003;
2.415333333333334E+009;1.783426851034164E-001;-5.610794201493263E-002;2.124971244484186E-003;2.547790296375752E-003;
2.415500000000000E+009;1.785445511341095E-001;-5.642525106668472E-002;2.238064538687468E-003;2.267378149554133E-003;
2.415666666666667E+009;1.785715073347092E-001;-5.690077319741249E-002;2.155771013349295E-003;2.301628235727549E-003;
2.415833333333334E+009;1.786652207374573E-001;-5.719891563057900E-002;2.294160192832351E-003;2.392406808212400E-003;
2.416000000000000E+009;1.786071658134460E-001;-5.739493295550346E-002;2.299389801919460E-003;2.205842873081565E-003;
2.416166666666667E+009;1.786296218633652E-001;-5.772732570767403E-002;2.358410507440567E-003;2.222229959443212E-003;
2.416333333333334E+009;1.782283037900925E-001;-5.785876139998436E-002;2.395862946286798E-003;2.182906027883291E-003;
2.416500000000000E+009;1.779916882514954E-001;-5.814404040575028E-002;2.390017965808511E-003;2.122769132256508E-003;
2.416666666666667E+009;1.774379909038544E-001;-5.818668380379677E-002;2.571657299995422E-003;2.084281295537949E-003;
2.416833333333334E+009;1.770998239517212E-001;-5.852536112070084E-002;2.669170266017318E-003;2.046273555606604E-003;
2.417000000000000E+009;1.763716489076614E-001;-5.867228657007217E-002;2.682776656001806E-003;1.817494397982955E-003;
2.417166666666667E+009;1.757238507270813E-001;-5.886234343051910E-002;2.752094063907862E-003;1.707880059257150E-003;
2.417333333333334E+009;1.749465018510819E-001;-5.899976938962936E-002;2.755571855232120E-003;1.678201835602522E-003;
2.417500000000000E+009;1.739986985921860E-001;-5.948798358440399E-002;2.829186851158738E-003;1.665805233642459E-003;
2.417666666666667E+009;1.730803400278091E-001;-5.951940268278122E-002;2.789218910038471E-003;1.376471249386668E-003;
2.417833333333334E+009;1.722367703914642E-001;-5.999607592821121E-002;2.859776373952627E-003;1.443067681975663E-003;
2.418000000000000E+009;1.710464954376221E-001;-6.051809713244438E-002;2.833607373759151E-003;1.311296829953790E-003;
2.418166666666667E+009;1.698175668716431E-001;-6.077991798520088E-002;2.809477271512151E-003;1.249062246643007E-003;
2.418333333333334E+009;1.690072715282440E-001;-6.138906627893448E-002;2.853013342246413E-003;1.038925256580114E-003;
2.418500000000000E+009;1.676289588212967E-001;-6.180490180850029E-002;3.017509588971734E-003;1.143391942605376E-003;
2.418666666666667E+009;1.665671765804291E-001;-6.257269531488419E-002;2.843587193638086E-003;9.286388522014022E-004;
2.418833333333334E+009;1.650988757610321E-001;-6.329987943172455E-002;2.858897438272834E-003;1.006777980364859E-003;
2.419000000000000E+009;1.638029366731644E-001;-6.408669799566269E-002;2.994153648614883E-003;9.071268723346293E-004;
2.419166666666667E+009;1.627306938171387E-001;-6.494487076997757E-002;3.000450087711215E-003;7.273732917383313E-004;
2.419333333333334E+009;1.612336933612824E-001;-6.578592956066132E-002;3.049750812351704E-003;6.697411881759763E-004;
2.419500000000000E+009;1.600869148969650E-001;-6.699825078248978E-002;2.878953469917178E-003;8.807377889752388E-004;
2.419666666666667E+009;1.589180678129196E-001;-6.821364909410477E-002;2.825117437168956E-003;7.230248302221298E-004;
2.419833333333334E+009;1.576785743236542E-001;-6.911623477935791E-002;2.902682404965162E-003;6.323541165329516E-004;
2.420000000000000E+009;1.566422134637833E-001;-7.038346678018570E-002;2.989742672070861E-003;4.919231869280338E-004;
2.420166666666667E+009;1.555761396884918E-001;-7.164120674133301E-002;2.840458415448666E-003;4.132224421482533E-004;
2.420333333333334E+009;1.546797156333923E-001;-7.318671792745590E-002;2.959226723760366E-003;3.464675392024219E-004;
2.420500000000000E+009;1.538792699575424E-001;-7.446643710136414E-002;3.008342813700438E-003;2.823592512868345E-004;
2.420666666666667E+009;1.529769003391266E-001;-7.589758187532425E-002;3.024864010512829E-003;1.472803123760968E-004;
2.420833333333334E+009;1.521445661783218E-001;-7.749565690755844E-002;2.948363078758121E-003;2.228859666502103E-004;
2.421000000000000E+009;1.513945311307907E-001;-7.920191437005997E-002;2.931329887360334E-003;2.471869265718851E-005;
2.421166666666667E+009;1.508934050798416E-001;-8.076782524585724E-002;3.049157094210386E-003;4.003687536169309E-006;
2.421333333333334E+009;1.504680812358856E-001;-8.251754194498062E-002;3.035508096218109E-003;-2.606642956379801E-004;
2.421500000000000E+009;1.499378383159638E-001;-8.429589122533798E-002;3.029217943549156E-003;-1.712297234917060E-004;
2.421666666666667E+009;1.496869325637817E-001;-8.589963614940643E-002;3.169215284287930E-003;-3.744472342077643E-004;
2.421833333333334E+009;1.494301557540894E-001;-8.750544488430023E-002;3.047636011615396E-003;-2.949991612695158E-004;
2.422000000000000E+009;1.491768956184387E-001;-8.924208581447601E-002;2.930048853158951E-003;-3.515551507007331E-004;
2.422166666666667E+009;1.493242681026459E-001;-9.103874117136002E-002;2.878316445276141E-003;-4.517980560194701E-004;
2.422333333333334E+009;1.493341177701950E-001;-9.274695813655853E-002;2.867706352844834E-003;-5.300977500155568E-004;
2.422500000000000E+009;1.494012922048569E-001;-9.423213452100754E-002;2.964218379929662E-003;-7.021019118838012E-004;
2.422666666666667E+009;1.494051516056061E-001;-9.607449918985367E-002;2.986912848427892E-003;-7.567047141492367E-004;
2.422833333333334E+009;1.499233990907669E-001;-9.765662252902985E-002;2.692854497581720E-003;-9.279408259317279E-004;
2.423000000000000E+009;1.501577198505402E-001;-9.907697141170502E-002;2.814228646457195E-003;-1.023703953251243E-003;
2.423166666666667E+009;1.504453867673874E-001;-1.007895022630692E-001;2.696075709536672E-003;-1.145892310887575E-003;
2.423333333333334E+009;1.509473919868469E-001;-1.020475849509239E-001;2.659722696989775E-003;-1.028963364660740E-003;
2.423500000000000E+009;1.515163183212280E-001;-1.036213636398315E-001;2.602826105430722E-003;-1.332931802608073E-003;
2.423666666666667E+009;1.517935544252396E-001;-1.050555706024170E-001;2.586898161098361E-003;-1.173534430563450E-003;
2.423833333333334E+009;1.523906141519547E-001;-1.062700822949410E-001;2.554594306275249E-003;-1.175126060843468E-003;
2.424000000000000E+009;1.527319550514221E-001;-1.072736456990242E-001;2.336516976356506E-003;-1.376205240376294E-003;
2.424166666666667E+009;1.533813774585724E-001;-1.084049493074417E-001;2.465223893523216E-003;-1.442930079065263E-003;
2.424333333333334E+009;1.540132015943527E-001;-1.095221638679504E-001;2.368351211771369E-003;-1.574742258526385E-003;
2.424500000000000E+009;1.544428467750549E-001;-1.104396730661392E-001;2.350689610466361E-003;-1.528570544905961E-003;
2.424666666666667E+009;1.551476866006851E-001;-1.111228764057159E-001;2.148211700841785E-003;-1.563893049024046E-003;
2.424833333333334E+009;1.554258167743683E-001;-1.121860891580582E-001;2.171400468796492E-003;-1.524121966212988E-003;
2.425000000000000E+009;1.559753119945526E-001;-1.128998994827271E-001;1.898429123684764E-003;-1.640026574023068E-003;
2.425166666666667E+009;1.562058925628662E-001;-1.134252026677132E-001;1.977587584406138E-003;-1.553187496028841E-003;
2.425333333333334E+009;1.566860079765320E-001;-1.139210984110832E-001;1.908456557430327E-003;-1.605137949809432E-003;
2.425500000000000E+009;1.571226269006729E-001;-1.145518422126770E-001;1.865255413576961E-003;-1.713350764475763E-003;
2.425666666666667E+009;1.571831852197647E-001;-1.150027588009834E-001;1.882029464468360E-003;-1.660289475694299E-003;
2.425833333333334E+009;1.573254019021988E-001;-1.153412759304047E-001;1.841490506194532E-003;-1.606018748134375E-003;
2.426000000000000E+009;1.572576314210892E-001;-1.157293394207954E-001;1.864700578153133E-003;-1.645846059545875E-003;
2.426166666666667E+009;1.574339717626572E-001;-1.160076707601547E-001;1.634601154364646E-003;-1.672358950600028E-003;
2.426333333333334E+009;1.572205871343613E-001;-1.161537170410156E-001;1.624720986001194E-003;-1.622861600480974E-003;
2.426500000000000E+009;1.571620106697083E-001;-1.162583157420158E-001;1.726794056594372E-003;-1.773442723788321E-003;
2.426666666666667E+009;1.570405811071396E-001;-1.164078935980797E-001;1.584001001901925E-003;-1.597054302692413E-003;
2.426833333333334E+009;1.565726101398468E-001;-1.165013983845711E-001;1.807819935493171E-003;-1.561056124046445E-003;
2.427000000000000E+009;1.560331732034683E-001;-1.167241036891937E-001;1.548978965729475E-003;-1.777326921001077E-003;
2.427166666666667E+009;1.554681807756424E-001;-1.167356744408608E-001;1.506716595031321E-003;-1.680791145190597E-003;
2.427333333333334E+009;1.548264026641846E-001;-1.168243810534477E-001;1.476092846132815E-003;-1.811164780519903E-003;
2.427500000000000E+009;1.541681736707687E-001;-1.170017942786217E-001;1.420832937583327E-003;-1.666945405304432E-003;
2.427666666666667E+009;1.533124893903732E-001;-1.171994656324387E-001;1.463187509216368E-003;-1.607247395440936E-003;
2.427833333333334E+009;1.523193269968033E-001;-1.172818765044212E-001;1.442686887457967E-003;-1.728110015392304E-003;
