# Version 1.00
#
freq[Hz];re:Trc1_S11;im:Trc1_S11;re:Trc2_S21;im:Trc2_S21;
2.400000000000000E+009;1.556730866432190E-001;6.048108264803886E-002;-3.070467384532094E-003;-1.741186133585870E-003;
2.400166666666667E+009;1.559136062860489E-001;5.868669599294663E-002;-3.115251194685698E-003;-1.825529383495450E-003;
2.400333333333334E+009;1.557993888854981E-001;5.659580975770950E-002;-3.185663605108857E-003;-1.637972425669432E-003;
2.400500000000000E+009;1.561517268419266E-001;5.458419024944305E-002;-3.243794897571206E-003;-1.566859427839518E-003;
2.400666666666667E+009;1.565393954515457E-001;5.239708349108696E-002;-3.299335949122906E-003;-1.529293833300471E-003;
2.400833333333334E+009;1.569474190473557E-001;5.049894750118256E-002;-3.375341650098562E-003;-1.499703503213823E-003;
2.401000000000000E+009;1.572492122650147E-001;4.824301972985268E-002;-3.444048576056957E-003;-1.290875021368265E-003;
2.401166666666667E+009;1.578758507966995E-001;4.629727080464363E-002;-3.443887457251549E-003;-1.222074613906443E-003;
2.401333333333334E+009;1.581314057111740E-001;4.425303265452385E-002;-3.455889644101262E-003;-1.161842141300440E-003;
2.401500000000000E+009;1.588800102472305E-001;4.209269955754280E-002;-3.574376692995429E-003;-1.084450748749077E-003;
2.401666666666667E+009;1.595817506313324E-001;4.031507298350334E-002;-3.782788058742881E-003;-9.262801031582058E-004;
2.401833333333334E+009;1.602074950933456E-001;3.818382322788239E-002;-3.947140183299780E-003;-9.843376465141773E-004;
2.402000000000000E+009;1.606583744287491E-001;3.632766753435135E-002;-3.843323793262243E-003;-6.514334236271679E-004;
2.402166666666667E+009;1.614931374788284E-001;3.463865071535111E-002;-3.867306746542454E-003;-6.150436238385737E-004;
2.402333333333334E+009;1.622284352779388E-001;3.283537924289703E-002;-3.835190087556839E-003;-5.828052526339889E-004;
2.402500000000000E+009;1.634535193443298E-001;3.119832091033459E-002;-4.068252164870501E-003;-3.590502892620862E-004;
2.402666666666667E+009;1.639828383922577E-001;2.958990447223187E-002;-3.916968125849962E-003;-3.801344137173146E-004;
2.402833333333334E+009;1.650344133377075E-001;2.822957187891007E-002;-3.974744118750095E-003;-5.968372352072038E-005;
2.403000000000000E+009;1.660972386598587E-001;2.660386450588703E-002;-4.063474480062723E-003;-2.625191991683096E-004;
2.403166666666667E+009;1.671105623245239E-001;2.527075447142124E-002;-4.128310829401016E-003;1.409924516337924E-005;
2.403333333333334E+009;1.681443750858307E-001;2.407561056315899E-002;-4.084478132426739E-003;1.053098749252968E-004;
2.403500000000000E+009;1.690369397401810E-001;2.286520600318909E-002;-4.326434805989265E-003;2.460780087858439E-004;
2.403666666666667E+009;1.700540482997894E-001;2.181019261479378E-002;-4.328576847910881E-003;4.809887323062867E-004;
2.403833333333334E+009;1.712131053209305E-001;2.083745226264000E-002;-4.243586678057909E-003;9.730376768857241E-005;
2.404000000000000E+009;1.720500141382217E-001;1.983455009758472E-002;-3.830336499959230E-003;4.434766306076199E-004;
2.404166666666667E+009;1.730049550533295E-001;1.894835941493511E-002;-4.258894361555576E-003;9.217180777341127E-004;
2.404333333333334E+009;1.739038825035095E-001;1.835628040134907E-002;-4.207277670502663E-003;1.088507822714746E-003;
2.404500000000000E+009;1.745230555534363E-001;1.744367368519306E-002;-4.628709051758051E-003;1.454308629035950E-003;
2.404666666666667E+009;1.755635440349579E-001;1.683071814477444E-002;-4.308619536459446E-003;1.421970198862255E-003;
2.404833333333334E+009;1.762869060039520E-001;1.625481620430946E-002;-3.836808959022164E-003;1.451001153327525E-003;
2.405000000000000E+009;1.769848614931107E-001;1.574031449854374E-002;-3.540322184562683E-003;1.961268484592438E-003;
2.405166666666667E+009;1.776690185070038E-001;1.527408789843321E-002;-4.007901996374130E-003;2.174505032598972E-003;
2.405333333333334E+009;1.783535480499268E-001;1.485729776322842E-002;-3.491413779556751E-003;2.101426478475332E-003;
2.405500000000000E+009;1.787581741809845E-001;1.458379998803139E-002;-3.913169261068106E-003;2.238717162981629E-003;
2.405666666666667E+009;1.792714148759842E-001;1.426139287650585E-002;-4.192916676402092E-003;2.394910668954253E-003;
2.405833333333334E+009;1.794573217630386E-001;1.405472122132778E-002;-3.862704848870635E-003;2.804085845127702E-003;
2.406000000000000E+009;1.799256354570389E-001;1.362548395991325E-002;-3.482867730781436E-003;2.650248119607568E-003;
2.406166666666667E+009;1.797820031642914E-001;1.350282970815897E-002;-3.650540253147483E-003;3.144872142001987E-003;
2.406333333333334E+009;1.801737397909164E-001;1.319646276533604E-002;-3.340347670018673E-003;3.048593178391457E-003;
2.406500000000000E+009;1.802207380533218E-001;1.283645816147327E-002;-3.010021755471826E-003;3.492530668154359E-003;
2.406666666666667E+009;1.800694167613983E-001;1.269933301955462E-002;-2.682102378457785E-003;3.388054203242064E-003;
2.406833333333334E+009;1.800312399864197E-001;1.218946836888790E-002;-2.973565598949790E-003;3.750520525500178E-003;
2.407000000000000E+009;1.798515766859055E-001;1.169269997626543E-002;-2.736880443990231E-003;3.762533655390143E-003;
2.407166666666667E+009;1.796586364507675E-001;1.134260836988688E-002;-2.529065823182464E-003;3.529021283611655E-003;
2.407333333333334E+009;1.791580617427826E-001;1.089092250913382E-002;-2.340358216315508E-003;3.862124402076006E-003;
2.407500000000000E+009;1.789173483848572E-001;1.031712908297777E-002;-2.191008301451802E-003;3.696246305480599E-003;
2.407666666666667E+009;1.783433407545090E-001;9.740849025547504E-003;-1.997507875785232E-003;3.816955257207155E-003;
2.407833333333334E+009;1.776949614286423E-001;8.867714554071426E-003;-1.916169770993292E-003;3.868393367156386E-003;
2.408000000000000E+009;1.772295385599136E-001;8.011785335838795E-003;-1.694855862297118E-003;3.902182681486011E-003;
2.408166666666667E+009;1.765448749065399E-001;7.414502557367086E-003;-1.649786601774395E-003;3.923929296433926E-003;
2.408333333333334E+009;1.761370748281479E-001;6.506376899778843E-003;-1.495772157795727E-003;3.968620672821999E-003;
2.408500000000000E+009;1.753674000501633E-001;5.283336155116558E-003;-1.240467652678490E-003;3.840949386358261E-003;
2.408666666666667E+009;1.746506541967392E-001;4.082152154296637E-003;-1.249267021194100E-003;3.843000624328852E-003;
2.408833333333334E+009;1.739526838064194E-001;2.828578697517514E-003;-9.165283408947289E-004;3.913375083357096E-003;
2.409000000000000E+009;1.731971353292465E-001;1.606225268915296E-003;-7.934467284940183E-004;3.951676189899445E-003;
2.409166666666667E+009;1.724571287631989E-001;2.539854031056166E-004;-9.188476251438260E-004;3.828673856332898E-003;
2.409333333333334E+009;1.718808412551880E-001;-1.229486661031842E-003;-6.273742765188217E-004;3.877834416925907E-003;
2.409500000000000E+009;1.711610406637192E-001;-3.071695799008012E-003;-5.399769288487732E-004;3.835014067590237E-003;
2.409666666666667E+009;1.704666763544083E-001;-4.438658244907856E-003;-4.895298043265939E-004;3.811625065281987E-003;
2.409833333333334E+009;1.698059290647507E-001;-6.131599191576242E-003;-3.159619518555701E-004;3.891675267368555E-003;
2.410000000000000E+009;1.694577187299728E-001;-7.942496798932552E-003;-1.991452736547217E-004;3.646710189059377E-003;
2.410166666666667E+009;1.688880473375320E-001;-9.701369330286980E-003;-1.743412285577506E-004;3.642969299107790E-003;
2.410333333333334E+009;1.682939231395721E-001;-1.139632519334555E-002;4.770137365994742E-006;3.503682790324092E-003;
2.410500000000000E+009;1.681423336267471E-001;-1.334068365395069E-002;1.167010705103166E-004;3.595982911065221E-003;
2.410666666666667E+009;1.676898598670960E-001;-1.546295639127493E-002;1.714365789666772E-004;3.626074874773622E-003;
2.410833333333334E+009;1.676434725522995E-001;-1.730366609990597E-002;1.851082488428801E-004;3.475608304142952E-003;
2.411000000000000E+009;1.673131585121155E-001;-1.920742914080620E-002;2.531001518946141E-004;3.520733909681439E-003;
2.411166666666667E+009;1.672503054141998E-001;-2.123105339705944E-002;4.546972340904176E-004;3.529938869178295E-003;
2.411333333333334E+009;1.671712398529053E-001;-2.312081120908260E-002;4.451230634003878E-004;3.432999830693007E-003;
2.411500000000000E+009;1.673007011413574E-001;-2.529889717698097E-002;5.415703635662794E-004;3.436730708926916E-003;
2.411666666666667E+009;1.675579696893692E-001;-2.717933803796768E-002;6.027025519870222E-004;3.422793932259083E-003;
2.411833333333334E+009;1.677400618791580E-001;-2.919891849160194E-002;5.796413170173764E-004;3.277380019426346E-003;
2.412000000000000E+009;1.681716293096542E-001;-3.100375458598137E-002;7.708607590757310E-004;3.376756561920047E-003;
2.412166666666667E+009;1.683375686407089E-001;-3.301320970058441E-002;8.489005267620087E-004;3.286719555035234E-003;
2.412333333333334E+009;1.689546406269074E-001;-3.466198593378067E-002;9.444813476875424E-004;3.307191887870431E-003;
2.412500000000000E+009;1.692452877759934E-001;-3.648418188095093E-002;9.133013663813472E-004;3.170820884406567E-003;
2.412666666666667E+009;1.696763187646866E-001;-3.847644105553627E-002;1.088870922103524E-003;3.228036919608712E-003;
2.412833333333334E+009;1.704832762479782E-001;-4.007970169186592E-002;1.109168631955981E-003;3.320931224152446E-003;
2.413000000000000E+009;1.709271669387817E-001;-4.160984978079796E-002;1.109647331759334E-003;3.081489354372025E-003;
2.413166666666667E+009;1.714276969432831E-001;-4.316771775484085E-002;1.310635707341135E-003;2.949600340798497E-003;
2.413333333333334E+009;1.720047742128372E-001;-4.465146735310555E-002;1.226268359459937E-003;3.096492029726505E-003;
2.413500000000000E+009;1.727775931358337E-001;-4.598105698823929E-002;1.416319049894810E-003;2.958042081445456E-003;
2.413666666666667E+009;1.734271645545960E-001;-4.752482101321220E-002;1.432090881280601E-003;2.764787524938583E-003;
2.413833333333334E+009;1.738929748535156E-001;-4.869232326745987E-002;1.692308345809579E-003;2.775174798443914E-003;
2.414000000000000E+009;1.744719594717026E-001;-4.994165897369385E-002;1.685446477495134E-003;2.966359723359346E-003;
2.414166666666667E+009;1.752281337976456E-001;-5.083918571472168E-002;1.699201879091561E-003;2.765631303191185E-003;
2.414333333333334E+009;1.758439540863037E-001;-5.185727402567864E-002;1.711582881398499E-003;2.745029516518116E-003;
2.414500000000000E+009;1.765156984329224E-001;-5.285261943936348E-002;1.788305118680000E-003;2.685165265575051E-003;
2.414666666666667E+009;1.770084053277969E-001;-5.361954495310783E-002;1.880105352029204E-003;2.745296107605100E-003;
2.414833333333334E+009;1.773463338613510E-001;-5.445988848805428E-002;1.970263663679361E-003;2.668299945071340E-003;
2.415000000000000E+009;1.777243763208389E-001;-5.494029819965363E-002;2.012214856222272E-003;2.720872405916452E-003;
2.415166666666667E+009;1.781017482280731E-001;-5.567008629441261E-002;2.047914080321789E-003;2.497202716767788E-003;
2.415333333333334E+009;1.783555746078491E-001;-5.609923228621483E-002;2.122089965268970E-003;2.380771096795797E-003;
2.415500000000000E+009;1.785745024681091E-001;-5.650603026151657E-002;2.319003688171506E-003;2.546679228544235E-003;
2.415666666666667E+009;1.786485463380814E-001;-5.684948712587357E-002;2.148829400539398E-003;2.449417719617486E-003;
2.415833333333334E+009;1.787615567445755E-001;-5.718046426773071E-002;2.206885255873203E-003;2.377209253609181E-003;
2.416000000000000E+009;1.785166859626770E-001;-5.750293657183647E-002;2.350305905565620E-003;2.297118073329330E-003;
2.416166666666667E+009;1.785954833030701E-001;-5.777870863676071E-002;2.493114443495870E-003;2.311469521373510E-003;
2.416333333333334E+009;1.782773435115814E-001;-5.783815681934357E-002;2.589020412415266E-003;2.066304907202721E-003;
2.416500000000000E+009;1.778803467750549E-001;-5.820665881037712E-002;2.547891577705741E-003;1.945779426023364E-003;
2.416666666666667E+009;1.774727106094360E-001;-5.824294313788414E-002;2.551763784140348E-003;1.956127816811204E-003;
2.416833333333334E+009;1.770323961973190E-001;-5.851420015096664E-002;2.752383705228567E-003;1.754224416799843E-003;
2.417000000000000E+009;1.762611865997315E-001;-5.875789001584053E-002;2.574425190687180E-003;1.732562435790896E-003;
2.417166666666667E+009;1.755913048982620E-001;-5.888932570815086E-002;2.841008128598332E-003;1.606752397492528E-003;
2.417333333333334E+009;1.749267578125000E-001;-5.908963456749916E-002;2.876520855352283E-003;1.595711684785783E-003;
2.417500000000000E+009;1.739102005958557E-001;-5.946356803178787E-002;2.805995987728238E-003;1.494333380833268E-003;
2.417666666666667E+009;1.731965094804764E-001;-5.963347852230072E-002;2.875461941584945E-003;1.278082607313991E-003;
2.417833333333334E+009;1.720381379127502E-001;-5.998000502586365E-002;2.994831884279847E-003;1.337627414613962E-003;
2.418000000000000E+009;1.710180789232254E-001;-6.048828363418579E-002;2.846974879503250E-003;1.423203852027655E-003;
2.418166666666667E+009;1.698431223630905E-001;-6.076381728053093E-002;3.018423216417432E-003;1.195427495986223E-003;
2.418333333333334E+009;1.689503341913223E-001;-6.128181144595146E-002;2.825536532327533E-003;1.060334732756019E-003;
2.418500000000000E+009;1.676300019025803E-001;-6.190825998783112E-002;2.993743168190122E-003;9.403893491253257E-004;
2.418666666666667E+009;1.665395498275757E-001;-6.260672211647034E-002;2.977110212668777E-003;9.362658602185547E-004;
2.418833333333334E+009;1.651300191879273E-001;-6.344665586948395E-002;2.920245751738548E-003;8.975256932899356E-004;
2.419000000000000E+009;1.638700217008591E-001;-6.418732553720474E-002;2.913136268034577E-003;7.533936295658350E-004;
2.419166666666667E+009;1.625640541315079E-001;-6.489216536283493E-002;3.068970749154687E-003;5.957990651950240E-004;
2.419333333333334E+009;1.611132621765137E-001;-6.578065454959869E-002;3.098226385191083E-003;6.637821788899601E-004;
2.419500000000000E+009;1.600633263587952E-001;-6.691867113113403E-002;2.872891491279006E-003;6.488662911579013E-004;
2.419666666666667E+009;1.588595807552338E-001;-6.815249472856522E-002;3.008984727784991E-003;4.426385858096182E-004;
2.419833333333334E+009;1.577091366052628E-001;-6.920892000198364E-002;3.051494481042028E-003;6.119168247096241E-004;
2.420000000000000E+009;1.566716730594635E-001;-7.049720734357834E-002;2.941868733614683E-003;3.800800477620214E-004;
2.420166666666667E+009;1.555865108966827E-001;-7.184179872274399E-002;2.915374934673309E-003;2.810529840644449E-004;
2.420333333333334E+009;1.547446995973587E-001;-7.334728538990021E-002;3.009934909641743E-003;1.942089002113789E-004;
2.420500000000000E+009;1.537933051586151E-001;-7.452876865863800E-002;3.046976868063211E-003;1.146495051216334E-004;
2.420666666666667E+009;1.529005914926529E-001;-7.621444761753082E-002;2.959100296720862E-003;9.380539995618165E-005;
2.420833333333334E+009;1.522453427314758E-001;-7.760940492153168E-002;2.965887077152729E-003;2.042366686509922E-004;
2.421000000000000E+009;1.513983309268951E-001;-7.924111187458038E-002;3.123304108157754E-003;1.191036153613823E-005;
2.421166666666667E+009;1.507923603057861E-001;-8.091643452644348E-002;3.068249905481935E-003;-1.180039835162461E-004;
2.421333333333334E+009;1.504338979721069E-001;-8.266271650791168E-002;2.986471401527524E-003;-2.016612997977063E-004;
2.421500000000000E+009;1.497973948717117E-001;-8.428453654050827E-002;3.087223973125219E-003;-3.873337700497359E-004;
2.421666666666667E+009;1.495900899171829E-001;-8.606447279453278E-002;2.917262958362699E-003;-3.708521253429353E-004;
2.421833333333334E+009;1.493796706199646E-001;-8.757155388593674E-002;2.928889356553555E-003;-4.724635218735784E-004;
2.422000000000000E+009;1.492542773485184E-001;-8.932611346244812E-002;3.033023560419679E-003;-5.297560710459948E-004;
2.422166666666667E+009;1.491319537162781E-001;-9.125316888093948E-002;2.966062165796757E-003;-6.699672085233033E-004;
2.422333333333334E+009;1.490634530782700E-001;-9.279055893421173E-002;2.901775762438774E-003;-7.857863674871624E-004;
2.422500000000000E+009;1.491190195083618E-001;-9.449226409196854E-002;2.770151710137725E-003;-8.345851092599332E-004;
2.422666666666667E+009;1.492814421653748E-001;-9.613248705863953E-002;2.838063053786755E-003;-8.303354843519628E-004;
2.422833333333334E+009;1.495742499828339E-001;-9.771483391523361E-002;2.615047385916114E-003;-1.019869581796229E-003;
2.423000000000000E+009;1.499359011650085E-001;-9.917265921831131E-002;2.773219719529152E-003;-1.173553173430264E-003;
2.423166666666667E+009;1.503415405750275E-001;-1.006765514612198E-001;2.707453444600105E-003;-1.184733584523201E-003;
2.423333333333334E+009;1.509245187044144E-001;-1.021676063537598E-001;2.525527728721499E-003;-1.334044616669416E-003;
2.423500000000000E+009;1.512435674667358E-001;-1.035283878445625E-001;2.580394269898534E-003;-1.356040127575398E-003;
2.423666666666667E+009;1.516119241714478E-001;-1.049381271004677E-001;2.528304466977716E-003;-1.273357425816357E-003;
2.423833333333334E+009;1.524223238229752E-001;-1.062019541859627E-001;2.350958762690425E-003;-1.374541549012065E-003;
2.424000000000000E+009;1.526387631893158E-001;-1.073004826903343E-001;2.322106854990125E-003;-1.472131349146366E-003;
2.424166666666667E+009;1.533082723617554E-001;-1.084864512085915E-001;2.264280337840319E-003;-1.572857261635363E-003;
2.424333333333334E+009;1.538781076669693E-001;-1.092833802103996E-001;2.242235001176596E-003;-1.599664799869061E-003;
2.424500000000000E+009;1.545545905828476E-001;-1.105121970176697E-001;1.996200531721115E-003;-1.617229310795665E-003;
2.424666666666667E+009;1.550163924694061E-001;-1.110522672533989E-001;2.004439942538738E-003;-1.503741717897356E-003;
2.424833333333334E+009;1.553535312414169E-001;-1.121138259768486E-001;2.009803662076592E-003;-1.592881279066205E-003;
2.425000000000000E+009;1.559465974569321E-001;-1.127007156610489E-001;2.039708197116852E-003;-1.825899933464825E-003;
2.425166666666667E+009;1.560974270105362E-001;-1.134387180209160E-001;1.854940433986485E-003;-1.779619604349136E-003;
2.425333333333334E+009;1.565833836793900E-001;-1.139423549175263E-001;1.800308120436966E-003;-1.641060807742178E-003;
2.425500000000000E+009;1.569885909557343E-001;-1.145312488079071E-001;1.713484874926508E-003;-1.765488996170461E-003;
2.425666666666667E+009;1.569755077362061E-001;-1.149266436696053E-001;1.686219708062708E-003;-1.740747480653226E-003;
2.425833333333334E+009;1.572238206863403E-001;-1.152580156922340E-001;1.664490671828389E-003;-1.641049631871283E-003;
2.426000000000000E+009;1.572559922933579E-001;-1.156669333577156E-001;1.561738085001707E-003;-1.712845289148390E-003;
2.426166666666667E+009;1.574983000755310E-001;-1.159626320004463E-001;1.698228763416410E-003;-1.808529836125672E-003;
2.426333333333334E+009;1.571844965219498E-001;-1.160821765661240E-001;1.775470678694546E-003;-1.729697687551379E-003;
2.426500000000000E+009;1.571953296661377E-001;-1.162801682949066E-001;1.534489449113607E-003;-1.834422000683844E-003;
2.426666666666667E+009;1.570268571376801E-001;-1.162021607160568E-001;1.438500941731036E-003;-1.797397271730006E-003;
2.426833333333334E+009;1.565009951591492E-001;-1.164458394050598E-001;1.447556773200631E-003;-1.767340814694762E-003;
2.427000000000000E+009;1.560426503419876E-001;-1.165713742375374E-001;1.447160728275776E-003;-1.690789940766990E-003;
2.427166666666667E+009;1.554588079452515E-001;-1.167032197117806E-001;1.419429085217416E-003;-1.687831128947437E-003;
2.427333333333334E+009;1.548477709293366E-001;-1.168002039194107E-001;1.389738405123353E-003;-1.895805238746107E-003;
2.427500000000000E+009;1.541851013898850E-001;-1.169323995709419E-001;1.307690283283591E-003;-1.771350041963160E-003;
2.427666666666667E+009;1.532075405120850E-001;-1.171289607882500E-001;1.388385891914368E-003;-1.868885476142168E-003;
2.427833333333334E+009;1.520921140909195E-001;-1.172701343894005E-001;1.290877000428736E-003;-1.769887399859726E-003;
