# Version 1.00
#
freq[Hz];re:Trc1_S11;im:Trc1_S11;re:Trc2_S21;im:Trc2_S21;
2.400000000000000E+009;1.583923548460007E-001;6.278013437986374E-002;1.009151339530945E-003;2.532887971028686E-003;
2.400166666666667E+009;1.582985669374466E-001;6.113762035965920E-002;1.091835089027882E-003;2.314706565812230E-003;
2.400333333333334E+009;1.579756289720535E-001;5.939023196697235E-002;1.323433476500213E-003;2.382379258051515E-003;
2.400500000000000E+009;1.578345447778702E-001;5.760950222611427E-002;1.449961797334254E-003;2.271990990266204E-003;
2.400666666666667E+009;1.578652709722519E-001;5.552835762500763E-002;1.554059912450612E-003;2.435485832393169E-003;
2.400833333333334E+009;1.579669564962387E-001;5.367970839142799E-002;1.519816345535219E-003;2.326877322047949E-003;
2.401000000000000E+009;1.578740477561951E-001;5.165768042206764E-002;1.652501174248755E-003;2.238528802990913E-003;
2.401166666666667E+009;1.580225974321365E-001;4.946137219667435E-002;1.732017961330712E-003;2.178939059376717E-003;
2.401333333333334E+009;1.581030040979385E-001;4.752612486481667E-002;1.755968434736133E-003;2.177904127165675E-003;
2.401500000000000E+009;1.583096086978912E-001;4.536715894937515E-002;1.942467410117388E-003;1.990725984796882E-003;
2.401666666666667E+009;1.585903018712997E-001;4.337568953633308E-002;2.018498256802559E-003;1.902117510326207E-003;
2.401833333333334E+009;1.589185744524002E-001;4.159196838736534E-002;1.936130574904382E-003;1.824286067858338E-003;
2.402000000000000E+009;1.590602844953537E-001;3.930144384503365E-002;2.087577246129513E-003;1.831088797189295E-003;
2.402166666666667E+009;1.596464961767197E-001;3.723245114088059E-002;2.105944324284792E-003;1.830665161833167E-003;
2.402333333333334E+009;1.603245139122009E-001;3.545978292822838E-002;2.227625343948603E-003;1.748498412780464E-003;
2.402500000000000E+009;1.611337661743164E-001;3.381344303488731E-002;2.245693933218718E-003;1.552487839944661E-003;
2.402666666666667E+009;1.617513149976730E-001;3.185538202524185E-002;2.094624098390341E-003;1.540260389447212E-003;
2.402833333333334E+009;1.623783260583878E-001;3.014221042394638E-002;2.300947438925505E-003;1.564041478559375E-003;
2.403000000000000E+009;1.632372140884399E-001;2.850363776087761E-002;2.142584417015314E-003;1.343074021860957E-003;
2.403166666666667E+009;1.640263199806213E-001;2.684962935745716E-002;2.292321994900703E-003;1.358128385618329E-003;
2.403333333333334E+009;1.649477630853653E-001;2.556043490767479E-002;2.232189755886793E-003;1.280192402191460E-003;
2.403500000000000E+009;1.658979356288910E-001;2.375976741313934E-002;2.279158681631088E-003;1.231145346537232E-003;
2.403666666666667E+009;1.667708903551102E-001;2.240722998976708E-002;2.389826113358140E-003;8.249707170762122E-004;
2.403833333333334E+009;1.679165363311768E-001;2.097832597792149E-002;2.337412908673286E-003;7.340880110859871E-004;
2.404000000000000E+009;1.688827276229858E-001;1.994908228516579E-002;2.542424947023392E-003;9.443162707611918E-004;
2.404166666666667E+009;1.697871834039688E-001;1.871496438980103E-002;2.345026470720768E-003;7.175609352998436E-004;
2.404333333333334E+009;1.707308590412140E-001;1.770930364727974E-002;2.462904667481780E-003;7.053549634292722E-004;
2.404500000000000E+009;1.717429608106613E-001;1.657694391906261E-002;2.473368309438229E-003;6.769624305889010E-004;
2.404666666666667E+009;1.727836579084396E-001;1.586185581982136E-002;2.430598251521587E-003;5.599709693342447E-004;
2.404833333333334E+009;1.736202090978622E-001;1.485193241387606E-002;2.414691727608442E-003;3.619175986386836E-004;
2.405000000000000E+009;1.745786517858505E-001;1.404703035950661E-002;2.350347815081477E-003;4.922020016238093E-004;
2.405166666666667E+009;1.753822267055512E-001;1.335865445435047E-002;2.376138465479016E-003;3.606918326113373E-004;
2.405333333333334E+009;1.764037460088730E-001;1.260548736900091E-002;2.390553476288915E-003;3.523863269947469E-004;
2.405500000000000E+009;1.770362854003906E-001;1.216147933155298E-002;2.516078297048807E-003;1.861473283497617E-004;
2.405666666666667E+009;1.778215467929840E-001;1.167310401797295E-002;2.482194686308503E-003;1.977918436750770E-004;
2.405833333333334E+009;1.784116625785828E-001;1.149986404925585E-002;2.413232112303376E-003;2.379616489633918E-004;
2.406000000000000E+009;1.791298836469650E-001;1.078180968761444E-002;2.543265698477626E-003;2.467196827637963E-005;
2.406166666666667E+009;1.794915944337845E-001;1.065310183912516E-002;2.567867515608668E-003;3.671481317724101E-005;
2.406333333333334E+009;1.800519078969955E-001;1.017511449754238E-002;2.363373059779406E-003;-6.427297921618447E-005;
2.406500000000000E+009;1.804129183292389E-001;9.884716942906380E-003;2.441751770675182E-003;-2.453017987136263E-005;
2.406666666666667E+009;1.806126981973648E-001;9.615875780582428E-003;2.504622098058462E-003;-1.678217668086290E-004;
2.406833333333334E+009;1.809775233268738E-001;9.147711098194122E-003;2.415414899587631E-003;-2.534292871132493E-004;
2.407000000000000E+009;1.811231970787048E-001;8.888912387192249E-003;2.626501256600022E-003;-2.804303658194840E-004;
2.407166666666667E+009;1.812250167131424E-001;8.696206845343113E-003;2.459671115502715E-003;-3.658282803371549E-004;
2.407333333333334E+009;1.809856295585632E-001;8.237910456955433E-003;2.454063622280955E-003;-2.995895629283041E-004;
2.407500000000000E+009;1.809074282646179E-001;7.817680016160011E-003;2.572437515482307E-003;-6.246792618185282E-004;
2.407666666666667E+009;1.807780712842941E-001;7.498650345951319E-003;2.647029701620340E-003;-5.327967228367925E-004;
2.407833333333334E+009;1.802992224693298E-001;6.837155204266310E-003;2.600865438580513E-003;-6.895969854667783E-004;
2.408000000000000E+009;1.800384968519211E-001;6.248319521546364E-003;2.558961277827621E-003;-7.612446206621826E-004;
2.408166666666667E+009;1.796759665012360E-001;5.773452576249838E-003;2.495092106983066E-003;-1.022965880110860E-003;
2.408333333333334E+009;1.793844550848007E-001;5.170758813619614E-003;2.475675195455551E-003;-8.606497431173921E-004;
2.408500000000000E+009;1.787423342466354E-001;4.290461074560881E-003;2.665205392986536E-003;-1.033353735692799E-003;
2.408666666666667E+009;1.781027615070343E-001;3.287152852863073E-003;2.481616567820311E-003;-1.248281449079514E-003;
2.408833333333334E+009;1.774800717830658E-001;2.443645382300019E-003;2.490409417077899E-003;-1.329808845184743E-003;
2.409000000000000E+009;1.768643707036972E-001;1.561761484481394E-003;2.534959698095918E-003;-1.157465856522322E-003;
2.409166666666667E+009;1.762066334486008E-001;4.477514303289354E-004;2.324573695659638E-003;-1.512624323368073E-003;
2.409333333333334E+009;1.755707114934921E-001;-7.242052233777940E-004;2.602253342047334E-003;-1.626721583306789E-003;
2.409500000000000E+009;1.747316271066666E-001;-2.043307060375810E-003;2.226671902462840E-003;-1.719612628221512E-003;
2.409666666666667E+009;1.739353090524674E-001;-3.369018668308854E-003;2.427919767796993E-003;-1.647496712394059E-003;
2.409833333333334E+009;1.733932197093964E-001;-4.675845149904490E-003;2.213025232777000E-003;-1.795984804630280E-003;
2.410000000000000E+009;1.727267950773239E-001;-6.232629064470530E-003;2.071355003863573E-003;-2.069762442260981E-003;
2.410166666666667E+009;1.720836311578751E-001;-7.626874372363091E-003;2.126003615558147E-003;-2.083213068544865E-003;
2.410333333333334E+009;1.713334172964096E-001;-9.154863655567169E-003;1.991728553548455E-003;-2.148529514670372E-003;
2.410500000000000E+009;1.709157228469849E-001;-1.106168888509274E-002;1.914838911034167E-003;-2.178658964112401E-003;
2.410666666666667E+009;1.701497286558151E-001;-1.276730094105005E-002;1.743276487104595E-003;-2.331503899767995E-003;
2.410833333333334E+009;1.698126494884491E-001;-1.451087649911642E-002;1.658482360653579E-003;-2.350346418097615E-003;
2.411000000000000E+009;1.694484204053879E-001;-1.639191806316376E-002;1.657113665714860E-003;-2.384265884757042E-003;
2.411166666666667E+009;1.688486337661743E-001;-1.820402592420578E-002;1.597428112290800E-003;-2.548479242250323E-003;
2.411333333333334E+009;1.685036569833756E-001;-2.010243944823742E-002;1.384388422593474E-003;-2.453518332913518E-003;
2.411500000000000E+009;1.683652251958847E-001;-2.208090014755726E-002;1.160833402536809E-003;-2.487636171281338E-003;
2.411666666666667E+009;1.683874428272247E-001;-2.404678426682949E-002;1.067303353920579E-003;-2.563310554251075E-003;
2.411833333333334E+009;1.681164652109146E-001;-2.591631561517716E-002;9.425018215551972E-004;-2.577710663899779E-003;
2.412000000000000E+009;1.681926399469376E-001;-2.801736257970333E-002;8.786527905613184E-004;-2.806380623951554E-003;
2.412166666666667E+009;1.681221723556519E-001;-2.993843145668507E-002;6.899548461660743E-004;-2.669017529115081E-003;
2.412333333333334E+009;1.683346480131149E-001;-3.172494471073151E-002;6.365131703205407E-004;-2.572962781414390E-003;
2.412500000000000E+009;1.684280037879944E-001;-3.360119834542275E-002;5.077111418358982E-004;-2.595700090751052E-003;
2.412666666666667E+009;1.687698215246201E-001;-3.574099019169807E-002;3.395614330656827E-004;-2.732058987021446E-003;
2.412833333333334E+009;1.690821796655655E-001;-3.761749714612961E-002;2.601543965283781E-004;-2.532654441893101E-003;
2.413000000000000E+009;1.695298254489899E-001;-3.931299969553947E-002;-1.235381478181807E-005;-2.424518810585141E-003;
2.413166666666667E+009;1.698114722967148E-001;-4.112458229064941E-002;-6.233635940589011E-005;-2.533508464694023E-003;
2.413333333333334E+009;1.703186780214310E-001;-4.297797754406929E-002;-1.336414425168186E-004;-2.450574189424515E-003;
2.413500000000000E+009;1.706646531820297E-001;-4.448934271931648E-002;-1.849714753916487E-004;-2.365686232224107E-003;
2.413666666666667E+009;1.711634844541550E-001;-4.629210382699966E-002;-2.986126346513629E-004;-2.430702093988657E-003;
2.413833333333334E+009;1.716510057449341E-001;-4.777751863002777E-002;-2.685713698156178E-004;-2.158666495233774E-003;
2.414000000000000E+009;1.721350848674774E-001;-4.923438280820847E-002;-5.549423513002694E-004;-2.173475222662091E-003;
2.414166666666667E+009;1.728747785091400E-001;-5.045213922858238E-002;-3.954989369958639E-004;-2.197473309934139E-003;
2.414333333333334E+009;1.731672435998917E-001;-5.182959884405136E-002;-4.323041066527367E-004;-2.115775831043720E-003;
2.414500000000000E+009;1.739919930696487E-001;-5.283779650926590E-002;-4.203467688057572E-004;-2.062580315396190E-003;
2.414666666666667E+009;1.742982119321823E-001;-5.399153754115105E-002;-5.459954845719039E-004;-1.900332281365991E-003;
2.414833333333334E+009;1.748485118150711E-001;-5.502660945057869E-002;-8.264520438387990E-004;-1.791608752682805E-003;
2.415000000000000E+009;1.753550618886948E-001;-5.590600147843361E-002;-7.755885017104447E-004;-1.916139386594296E-003;
2.415166666666667E+009;1.757854372262955E-001;-5.668878182768822E-002;-6.953881238587201E-004;-1.814250368624926E-003;
2.415333333333334E+009;1.762665212154388E-001;-5.760404840111733E-002;-6.116315489634872E-004;-1.789848203770816E-003;
2.415500000000000E+009;1.765794605016708E-001;-5.819413810968399E-002;-7.217720267362893E-004;-1.578202354721725E-003;
2.415666666666667E+009;1.768258064985275E-001;-5.862304940819740E-002;-8.284725481644273E-004;-1.636681379750371E-003;
2.415833333333334E+009;1.772583872079849E-001;-5.927149578928947E-002;-8.245066273957491E-004;-1.623186049982905E-003;
2.416000000000000E+009;1.770282089710236E-001;-5.970314145088196E-002;-7.795630372129381E-004;-1.518379314802587E-003;
2.416166666666667E+009;1.773998886346817E-001;-6.004617363214493E-002;-8.526033489033580E-004;-1.403898000717163E-003;
2.416333333333334E+009;1.774572581052780E-001;-6.030530855059624E-002;-8.275871514342725E-004;-1.581629388965666E-003;
2.416500000000000E+009;1.772709488868713E-001;-6.067957729101181E-002;-8.804058306850493E-004;-1.338502392172813E-003;
2.416666666666667E+009;1.770607084035873E-001;-6.083734706044197E-002;-8.418434299528599E-004;-1.237832009792328E-003;
2.416833333333334E+009;1.770595908164978E-001;-6.132409721612930E-002;-8.426338899880648E-004;-1.243796315975487E-003;
2.417000000000000E+009;1.765363216400147E-001;-6.149119138717651E-002;-9.357284288853407E-004;-1.314878812991083E-003;
2.417166666666667E+009;1.760918051004410E-001;-6.154717877507210E-002;-8.552382350899279E-004;-1.161951688118279E-003;
2.417333333333334E+009;1.756647974252701E-001;-6.177612394094467E-002;-8.935355581343174E-004;-1.261971774511039E-003;
2.417500000000000E+009;1.750054061412811E-001;-6.208483129739761E-002;-9.551221155561507E-004;-1.073165214620531E-003;
2.417666666666667E+009;1.745377779006958E-001;-6.215679273009300E-002;-9.010775829665363E-004;-1.129382755607367E-003;
2.417833333333334E+009;1.738742440938950E-001;-6.242555007338524E-002;-8.212957181967795E-004;-1.054876367561519E-003;
2.418000000000000E+009;1.729127168655396E-001;-6.284052878618240E-002;-8.525286684744060E-004;-1.153716235421598E-003;
2.418166666666667E+009;1.720885783433914E-001;-6.303352862596512E-002;-9.936676360666752E-004;-9.888426866382361E-004;
2.418333333333334E+009;1.714002788066864E-001;-6.337051093578339E-002;-9.293070761486888E-004;-1.092344755306840E-003;
2.418500000000000E+009;1.701300889253616E-001;-6.375606358051300E-002;-9.579261532053351E-004;-1.043976284563541E-003;
2.418666666666667E+009;1.692732423543930E-001;-6.430501490831375E-002;-8.231087704189122E-004;-1.105314004234970E-003;
2.418833333333334E+009;1.680528670549393E-001;-6.480927765369415E-002;-9.826403111219406E-004;-1.022250158712268E-003;
2.419000000000000E+009;1.667100340127945E-001;-6.533959507942200E-002;-8.675810531713069E-004;-1.057706773281097E-003;
2.419166666666667E+009;1.655959039926529E-001;-6.609861552715302E-002;-7.714715320616961E-004;-1.036496367305517E-003;
2.419333333333334E+009;1.643483042716980E-001;-6.644355505704880E-002;-7.854339783079922E-004;-1.069054123945534E-003;
2.419500000000000E+009;1.631603389978409E-001;-6.742887943983078E-002;-9.487500065006316E-004;-1.013703760690987E-003;
2.419666666666667E+009;1.621002405881882E-001;-6.839974969625473E-002;-8.067849557846785E-004;-9.831849019974470E-004;
2.419833333333334E+009;1.608216464519501E-001;-6.921065598726273E-002;-8.701722254045308E-004;-1.010912586934865E-003;
2.420000000000000E+009;1.598406434059143E-001;-7.025064527988434E-002;-8.455273928120732E-004;-8.538606925867498E-004;
2.420166666666667E+009;1.585038900375366E-001;-7.139224559068680E-002;-6.698642391711474E-004;-1.041924464516342E-003;
2.420333333333334E+009;1.575782448053360E-001;-7.244069874286652E-002;-7.254487136378884E-004;-1.063322531990707E-003;
2.420500000000000E+009;1.564887613058090E-001;-7.352359592914581E-002;-9.067612700164318E-004;-1.136060687713325E-003;
2.420666666666667E+009;1.553450971841812E-001;-7.473777979612351E-002;-8.844730327837169E-004;-1.001644297502935E-003;
2.420833333333334E+009;1.545405536890030E-001;-7.621582597494125E-002;-8.549407939426601E-004;-9.845998138189316E-004;
2.421000000000000E+009;1.536261737346649E-001;-7.767340540885925E-002;-9.667461854405701E-004;-9.991192491725087E-004;
2.421166666666667E+009;1.527897417545319E-001;-7.918805629014969E-002;-9.814128279685974E-004;-9.967513615265489E-004;
2.421333333333334E+009;1.523100435733795E-001;-8.077705651521683E-002;-7.934184977784753E-004;-1.200064783915877E-003;
2.421500000000000E+009;1.514418423175812E-001;-8.212364464998245E-002;-1.038534916006029E-003;-1.116605359129608E-003;
2.421666666666667E+009;1.509338617324829E-001;-8.382286876440048E-002;-1.051779370754957E-003;-1.057451358065009E-003;
2.421833333333334E+009;1.504372060298920E-001;-8.558253198862076E-002;-1.109519740566611E-003;-1.003188430331647E-003;
2.422000000000000E+009;1.500719040632248E-001;-8.709085732698441E-002;-1.050610211677849E-003;-1.086817122995853E-003;
2.422166666666667E+009;1.497123837471008E-001;-8.909019827842712E-002;-1.180629362352192E-003;-8.763774530962110E-004;
2.422333333333334E+009;1.494922488927841E-001;-9.062667936086655E-002;-1.173067023046315E-003;-9.359216783195734E-004;
2.422500000000000E+009;1.492334604263306E-001;-9.204089641571045E-002;-1.232912298291922E-003;-8.948331815190613E-004;
2.422666666666667E+009;1.492960751056671E-001;-9.409304708242416E-002;-1.201647333800793E-003;-1.104270457290113E-003;
2.422833333333334E+009;1.493701338768005E-001;-9.580904990434647E-002;-1.362992101348937E-003;-9.216929902322590E-004;
2.423000000000000E+009;1.494020670652390E-001;-9.730111807584763E-002;-1.458626240491867E-003;-8.999416604638100E-004;
2.423166666666667E+009;1.496034860610962E-001;-9.901757538318634E-002;-1.478324760682881E-003;-9.974596323445439E-004;
2.423333333333334E+009;1.499678343534470E-001;-1.005479022860527E-001;-1.627165358513594E-003;-7.100442308001220E-004;
2.423500000000000E+009;1.501229852437973E-001;-1.022598445415497E-001;-1.505760475993156E-003;-8.318537147715688E-004;
2.423666666666667E+009;1.503472626209259E-001;-1.036980971693993E-001;-1.646152348257601E-003;-7.591120083816350E-004;
2.423833333333334E+009;1.509353518486023E-001;-1.053356155753136E-001;-1.659030211158097E-003;-6.893159588798881E-004;
2.424000000000000E+009;1.513645201921463E-001;-1.064468324184418E-001;-1.843262347392738E-003;-6.746774306520820E-004;
2.424166666666667E+009;1.516600102186203E-001;-1.078732907772064E-001;-1.807340071536601E-003;-6.158359465189278E-004;
2.424333333333334E+009;1.522400379180908E-001;-1.090769320726395E-001;-1.722360961139202E-003;-4.300462605897337E-004;
2.424500000000000E+009;1.527339220046997E-001;-1.102054417133331E-001;-1.744054723531008E-003;-5.127110634930432E-004;
2.424666666666667E+009;1.533615589141846E-001;-1.113653257489204E-001;-1.903951284475625E-003;-4.581788089126349E-004;
2.424833333333334E+009;1.535812318325043E-001;-1.124137043952942E-001;-1.880254363641143E-003;-2.596807025838643E-004;
2.425000000000000E+009;1.540938168764114E-001;-1.134697571396828E-001;-1.953909406438470E-003;-1.790468377294019E-004;
2.425166666666667E+009;1.544139981269836E-001;-1.143074333667755E-001;-1.953499624505639E-003;-1.383610215270892E-004;
2.425333333333334E+009;1.548766642808914E-001;-1.150366961956024E-001;-1.866108272224665E-003;-5.209305163589306E-005;
2.425500000000000E+009;1.553223431110382E-001;-1.158682256937027E-001;-1.856122631579638E-003;1.708801719360054E-004;
2.425666666666667E+009;1.555597931146622E-001;-1.163787692785263E-001;-1.885341480374336E-003;3.981211193604395E-005;
2.425833333333334E+009;1.558394432067871E-001;-1.169697195291519E-001;-1.905059674754739E-003;1.156574217020534E-004;
2.426000000000000E+009;1.559754014015198E-001;-1.175193265080452E-001;-1.733995508402586E-003;3.586360835470259E-004;
2.426166666666667E+009;1.564440131187439E-001;-1.179813444614410E-001;-1.855840440839529E-003;3.414785896893591E-004;
2.426333333333334E+009;1.564065814018250E-001;-1.183394789695740E-001;-1.757670310325921E-003;3.574193979147822E-004;
2.426500000000000E+009;1.565161049365997E-001;-1.186610981822014E-001;-1.750850351527333E-003;4.932186566293240E-004;
2.426666666666667E+009;1.564506143331528E-001;-1.188137754797936E-001;-1.727003720588982E-003;5.528490873984993E-004;
2.426833333333334E+009;1.561915874481201E-001;-1.189877018332481E-001;-1.617732224985957E-003;4.764276964124292E-004;
2.427000000000000E+009;1.559903770685196E-001;-1.192255616188049E-001;-1.656059408560395E-003;6.075772107578814E-004;
2.427166666666667E+009;1.556636393070221E-001;-1.191860064864159E-001;-1.786246313713491E-003;6.447066552937031E-004;
2.427333333333334E+009;1.550623923540115E-001;-1.195107176899910E-001;-1.607575220987201E-003;5.808253190480173E-004;
2.427500000000000E+009;1.546614170074463E-001;-1.195149645209312E-001;-1.609934377484024E-003;6.659118807874620E-004;
2.427666666666667E+009;1.540288925170898E-001;-1.196035370230675E-001;-1.431987737305462E-003;7.691116188652813E-004;
