# Version 1.00
#
freq[Hz];re:Trc1_S11;im:Trc1_S11;re:Trc2_S21;im:Trc2_S21;
2.400000000000000E+009;1.583044975996018E-001;6.293112784624100E-002;9.267480345442891E-004;2.525925636291504E-003;
2.400166666666667E+009;1.582468450069428E-001;6.132458895444870E-002;1.119517604820430E-003;2.570751821622253E-003;
2.400333333333334E+009;1.579659283161163E-001;5.947457626461983E-002;1.275538234040141E-003;2.484386786818504E-003;
2.400500000000000E+009;1.581365317106247E-001;5.764289200305939E-002;1.330935047008097E-003;2.545022871345282E-003;
2.400666666666667E+009;1.578272581100464E-001;5.546950176358223E-002;1.573226181790233E-003;2.456850139424205E-003;
2.400833333333334E+009;1.578167229890823E-001;5.379628762602806E-002;1.580962212756276E-003;2.302896231412888E-003;
2.401000000000000E+009;1.579045355319977E-001;5.165994539856911E-002;1.721661770716310E-003;2.430277643725276E-003;
2.401166666666667E+009;1.579451858997345E-001;4.948136582970619E-002;1.790580921806395E-003;2.207952085882425E-003;
2.401333333333334E+009;1.580422520637512E-001;4.749464243650436E-002;1.891329884529114E-003;2.041901228949428E-003;
2.401500000000000E+009;1.584906578063965E-001;4.541132599115372E-002;1.891462365165353E-003;1.874653506092727E-003;
2.401666666666667E+009;1.586924642324448E-001;4.352083057165146E-002;1.974153099581599E-003;2.037707017734647E-003;
2.401833333333334E+009;1.588761508464813E-001;4.143704101443291E-002;2.037153579294682E-003;1.935272710397840E-003;
2.402000000000000E+009;1.594420522451401E-001;3.946033865213394E-002;2.011304022744298E-003;1.876184949651361E-003;
2.402166666666667E+009;1.597817838191986E-001;3.726795315742493E-002;2.207221696153283E-003;1.678939559496939E-003;
2.402333333333334E+009;1.602029204368591E-001;3.540241345763207E-002;2.171285916119814E-003;1.539464807137847E-003;
2.402500000000000E+009;1.609888672828674E-001;3.354229778051376E-002;2.322577638551593E-003;1.785484026186168E-003;
2.402666666666667E+009;1.616236418485642E-001;3.168504685163498E-002;2.342144493013620E-003;1.409946009516716E-003;
2.402833333333334E+009;1.624071300029755E-001;2.998482622206211E-002;2.462545642629266E-003;1.469945535063744E-003;
2.403000000000000E+009;1.633123755455017E-001;2.830471470952034E-002;2.245708834379911E-003;1.268133404664695E-003;
2.403166666666667E+009;1.641543805599213E-001;2.696024253964424E-002;2.279007574543357E-003;1.198522630147636E-003;
2.403333333333334E+009;1.649245023727417E-001;2.530138380825520E-002;2.364458516240120E-003;1.273952424526215E-003;
2.403500000000000E+009;1.657893210649490E-001;2.386981807649136E-002;2.415767405182123E-003;1.067132805474103E-003;
2.403666666666667E+009;1.668736934661865E-001;2.228424139320850E-002;2.658866578713059E-003;9.714142652228475E-004;
2.403833333333334E+009;1.677623987197876E-001;2.093016915023327E-002;2.433347282931209E-003;9.317694930359721E-004;
2.404000000000000E+009;1.688659787178040E-001;1.995961368083954E-002;2.495685126632452E-003;8.496778900735080E-004;
2.404166666666667E+009;1.697736233472824E-001;1.861435547471046E-002;2.651450457051396E-003;7.703710580244660E-004;
2.404333333333334E+009;1.708000898361206E-001;1.763918437063694E-002;2.550892066210508E-003;6.758398376405239E-004;
2.404500000000000E+009;1.715943813323975E-001;1.655384339392185E-002;2.628592541441321E-003;5.180532461963594E-004;
2.404666666666667E+009;1.726472675800324E-001;1.563806086778641E-002;2.574349753558636E-003;5.778987542726100E-004;
2.404833333333334E+009;1.736276745796204E-001;1.481826044619083E-002;2.400848083198071E-003;4.612836346495897E-004;
2.405000000000000E+009;1.745630204677582E-001;1.407281588762999E-002;2.326867543160915E-003;5.577914998866618E-004;
2.405166666666667E+009;1.754903644323349E-001;1.329860556870699E-002;2.480919938534498E-003;4.293349047657102E-004;
2.405333333333334E+009;1.763572394847870E-001;1.272963639348745E-002;2.552555408328772E-003;4.124864644836634E-004;
2.405500000000000E+009;1.770860999822617E-001;1.219400763511658E-002;2.654923358932138E-003;9.848657646216452E-005;
2.405666666666667E+009;1.778145283460617E-001;1.166875939816237E-002;2.651924500241876E-003;1.845691731432453E-004;
2.405833333333334E+009;1.782536059617996E-001;1.135489996522665E-002;2.434047637507320E-003;1.914282329380512E-004;
2.406000000000000E+009;1.790238916873932E-001;1.082586590200663E-002;2.441970165818930E-003;2.316972240805626E-004;
2.406166666666667E+009;1.794095486402512E-001;1.049465499818325E-002;2.565138740465045E-003;-3.956593354814686E-005;
2.406333333333334E+009;1.800740808248520E-001;1.025716774165630E-002;2.559056738391519E-003;-1.544649276183918E-004;
2.406500000000000E+009;1.803413480520248E-001;9.882650338113308E-003;2.522737020626664E-003;-2.133355337718967E-005;
2.406666666666667E+009;1.805801689624786E-001;9.607817977666855E-003;2.607379108667374E-003;-3.078276058658958E-004;
2.406833333333334E+009;1.808648407459259E-001;9.214315563440323E-003;2.607666654512286E-003;-2.992789086420089E-004;
2.407000000000000E+009;1.810162067413330E-001;8.905603550374508E-003;2.768961247056723E-003;-3.539510071277618E-004;
2.407166666666667E+009;1.812134087085724E-001;8.644568733870983E-003;2.629859605804086E-003;-3.842904407065362E-004;
2.407333333333334E+009;1.809565126895905E-001;8.117801509797573E-003;2.706571947783232E-003;-3.357112291269004E-004;
2.407500000000000E+009;1.808762699365616E-001;7.861312478780747E-003;2.468662569299340E-003;-5.708858370780945E-004;
2.407666666666667E+009;1.808263659477234E-001;7.429528050124645E-003;2.593122422695160E-003;-6.529042730107904E-004;
2.407833333333334E+009;1.803752779960632E-001;6.837740540504456E-003;2.627453766763210E-003;-6.510427920147777E-004;
2.408000000000000E+009;1.799615323543549E-001;6.111843045800924E-003;2.688500331714749E-003;-9.133252897299826E-004;
2.408166666666667E+009;1.796295046806335E-001;5.763475783169270E-003;2.645843662321568E-003;-8.835355401970446E-004;
2.408333333333334E+009;1.793242692947388E-001;4.965461324900389E-003;2.639245474711061E-003;-1.147712115198374E-003;
2.408500000000000E+009;1.787982583045960E-001;4.333078395575285E-003;2.639067359268665E-003;-9.900238364934921E-004;
2.408666666666667E+009;1.780875921249390E-001;3.397602355107665E-003;2.585970796644688E-003;-1.265184604562819E-003;
2.408833333333334E+009;1.774808615446091E-001;2.445267047733069E-003;2.658317796885967E-003;-1.344297896139324E-003;
2.409000000000000E+009;1.768941581249237E-001;1.454769750125706E-003;2.528279088437557E-003;-1.328961574472487E-003;
2.409166666666667E+009;1.761496812105179E-001;3.800730919465423E-004;2.461652038618922E-003;-1.545802690088749E-003;
2.409333333333334E+009;1.755342483520508E-001;-8.200408192351461E-004;2.499557565897703E-003;-1.735651399940252E-003;
2.409500000000000E+009;1.747467219829559E-001;-2.124896040186286E-003;2.325925044715405E-003;-1.802435610443354E-003;
2.409666666666667E+009;1.740118563175201E-001;-3.331138519570231E-003;2.201723400503397E-003;-1.847323728725314E-003;
2.409833333333334E+009;1.732911616563797E-001;-4.676100797951222E-003;2.385160652920604E-003;-1.957563916221261E-003;
2.410000000000000E+009;1.726780682802200E-001;-6.151940673589706E-003;2.210118807852268E-003;-2.014814177528024E-003;
2.410166666666667E+009;1.719944626092911E-001;-7.665749173611403E-003;2.082643331959844E-003;-2.159798052161932E-003;
2.410333333333334E+009;1.713128238916397E-001;-9.355131536722183E-003;2.059278078377247E-003;-2.234870102256537E-003;
2.410500000000000E+009;1.708851754665375E-001;-1.103949733078480E-002;1.856019371189177E-003;-2.193904016166925E-003;
2.410666666666667E+009;1.702090352773666E-001;-1.292336452752352E-002;1.863762503489852E-003;-2.210663864389062E-003;
2.410833333333334E+009;1.697154790163040E-001;-1.453105639666319E-002;1.707865623757243E-003;-2.406858373433352E-003;
2.411000000000000E+009;1.691869050264359E-001;-1.635614223778248E-002;1.608353923074901E-003;-2.570750657469034E-003;
2.411166666666667E+009;1.688576936721802E-001;-1.825233921408653E-002;1.626732759177685E-003;-2.456587040796876E-003;
2.411333333333334E+009;1.686334013938904E-001;-2.014415152370930E-002;1.394388382323086E-003;-2.672981936484575E-003;
2.411500000000000E+009;1.682942658662796E-001;-2.218584902584553E-002;1.317618298344314E-003;-2.735851565375924E-003;
2.411666666666667E+009;1.682965010404587E-001;-2.410162612795830E-002;1.059935195371509E-003;-2.608909737318754E-003;
2.411833333333334E+009;1.680180281400681E-001;-2.585710398852825E-002;1.056776614859700E-003;-2.748410683125258E-003;
2.412000000000000E+009;1.680910289287567E-001;-2.798177860677242E-002;8.930754265747964E-004;-2.662786981090903E-003;
2.412166666666667E+009;1.680973172187805E-001;-2.996970526874065E-002;6.980900652706623E-004;-2.677249955013394E-003;
2.412333333333334E+009;1.684170067310333E-001;-3.189023211598396E-002;5.233257543295622E-004;-2.775895176455379E-003;
2.412500000000000E+009;1.684025675058365E-001;-3.363751247525215E-002;4.880898632109165E-004;-2.786599798128009E-003;
2.412666666666667E+009;1.685815006494522E-001;-3.571742400527000E-002;5.854824557900429E-004;-2.629805589094758E-003;
2.412833333333334E+009;1.690424978733063E-001;-3.752166405320168E-002;2.397784410277382E-004;-2.645009662955999E-003;
2.413000000000000E+009;1.693875491619110E-001;-3.928066417574883E-002;1.284131722059101E-004;-2.623203676193953E-003;
2.413166666666667E+009;1.697196960449219E-001;-4.118051007390022E-002;6.522367038996890E-005;-2.522235270589590E-003;
2.413333333333334E+009;1.701565235853195E-001;-4.287445545196533E-002;-1.095870175049640E-004;-2.569621428847313E-003;
2.413500000000000E+009;1.706535369157791E-001;-4.452963545918465E-002;-1.808435044949874E-004;-2.523325849324465E-003;
2.413666666666667E+009;1.710707843303680E-001;-4.616139829158783E-002;-3.918011207133532E-004;-2.406574087217450E-003;
2.413833333333334E+009;1.715845018625259E-001;-4.754089191555977E-002;-3.931361425202340E-004;-2.329625654965639E-003;
2.414000000000000E+009;1.719755679368973E-001;-4.907420650124550E-002;-3.567253588698804E-004;-2.222470706328750E-003;
2.414166666666667E+009;1.726726889610291E-001;-5.040295422077179E-002;-6.342146079987288E-004;-2.189936349168420E-003;
2.414333333333334E+009;1.732690185308456E-001;-5.160455778241158E-002;-6.229673745110631E-004;-2.165497979149222E-003;
2.414500000000000E+009;1.739881783723831E-001;-5.279068276286125E-002;-4.166791331954300E-004;-2.054428914561868E-003;
2.414666666666667E+009;1.742983311414719E-001;-5.377336218953133E-002;-5.881437682546675E-004;-2.055515069514513E-003;
2.414833333333334E+009;1.748512685298920E-001;-5.511492118239403E-002;-6.096850847825408E-004;-1.961175352334976E-003;
2.415000000000000E+009;1.753302365541458E-001;-5.590128153562546E-002;-7.580009405501187E-004;-1.949353143572807E-003;
2.415166666666667E+009;1.756428778171539E-001;-5.662920698523521E-002;-7.934743771329522E-004;-1.761022023856640E-003;
2.415333333333334E+009;1.763085275888443E-001;-5.741941928863525E-002;-9.205488022416830E-004;-1.868299324996769E-003;
2.415500000000000E+009;1.765774786472321E-001;-5.810384079813957E-002;-8.681905455887318E-004;-1.752898911945522E-003;
2.415666666666667E+009;1.768341213464737E-001;-5.863905698060989E-002;-9.065407793968916E-004;-1.707481336779892E-003;
2.415833333333334E+009;1.771167069673538E-001;-5.916922539472580E-002;-1.001669908873737E-003;-1.532389433123171E-003;
2.416000000000000E+009;1.771880835294724E-001;-5.957518890500069E-002;-9.248920832760632E-004;-1.525690895505250E-003;
2.416166666666667E+009;1.773230582475662E-001;-6.006190180778503E-002;-7.892285939306021E-004;-1.504510291852057E-003;
2.416333333333334E+009;1.774287670850754E-001;-6.033279746770859E-002;-1.009876839816570E-003;-1.436416176147759E-003;
2.416500000000000E+009;1.773896962404251E-001;-6.069914996623993E-002;-8.590140496380627E-004;-1.449358998797834E-003;
2.416666666666667E+009;1.770570427179337E-001;-6.093259155750275E-002;-8.531360654160380E-004;-1.302182092331350E-003;
2.416833333333334E+009;1.770605593919754E-001;-6.122715771198273E-002;-1.075870823115110E-003;-1.235298928804696E-003;
2.417000000000000E+009;1.765638291835785E-001;-6.157522648572922E-002;-9.445799514651299E-004;-1.124333124607801E-003;
2.417166666666667E+009;1.761003881692886E-001;-6.161364540457726E-002;-8.871445897966623E-004;-1.303916797041893E-003;
2.417333333333334E+009;1.757475286722183E-001;-6.178064271807671E-002;-1.013912493363023E-003;-1.294541987590492E-003;
2.417500000000000E+009;1.751756370067596E-001;-6.209942325949669E-002;-8.748362306505442E-004;-1.217848737724125E-003;
2.417666666666667E+009;1.746154874563217E-001;-6.225110962986946E-002;-9.406137396581471E-004;-9.974924614652991E-004;
2.417833333333334E+009;1.738569140434265E-001;-6.242534890770912E-002;-8.380730287171900E-004;-1.123033231124282E-003;
2.418000000000000E+009;1.729549020528793E-001;-6.289812922477722E-002;-8.633758989162743E-004;-9.921063901856542E-004;
2.418166666666667E+009;1.721099168062210E-001;-6.309891492128372E-002;-8.350899443030357E-004;-9.724915726110339E-004;
2.418333333333334E+009;1.713026911020279E-001;-6.342390179634094E-002;-8.747872198000550E-004;-9.991845581680536E-004;
2.418500000000000E+009;1.701850295066834E-001;-6.378830969333649E-002;-8.441149839200079E-004;-1.045351498760283E-003;
2.418666666666667E+009;1.691529452800751E-001;-6.435258686542511E-002;-9.005399770103395E-004;-1.137307495810092E-003;
2.418833333333334E+009;1.678704321384430E-001;-6.476047635078430E-002;-7.159435190260410E-004;-1.093456987291575E-003;
2.419000000000000E+009;1.667211800813675E-001;-6.523653119802475E-002;-8.899624226614833E-004;-9.337329538539052E-004;
2.419166666666667E+009;1.655472517013550E-001;-6.601750105619431E-002;-9.083581971935928E-004;-1.016671187244356E-003;
2.419333333333334E+009;1.643288582563400E-001;-6.652142107486725E-002;-8.161613368429244E-004;-9.305118001066148E-004;
2.419500000000000E+009;1.631838381290436E-001;-6.755128502845764E-002;-9.106261422857642E-004;-8.118287078104913E-004;
2.419666666666667E+009;1.621125638484955E-001;-6.844496726989746E-002;-8.785266545601189E-004;-8.762209326960146E-004;
2.419833333333334E+009;1.607815325260162E-001;-6.918054819107056E-002;-8.869004668667913E-004;-9.649078128859401E-004;
2.420000000000000E+009;1.596428453922272E-001;-7.019753754138947E-002;-8.918764651753008E-004;-9.870671201497316E-004;
2.420166666666667E+009;1.584990173578262E-001;-7.130247354507446E-002;-9.335903450846672E-004;-9.728750446811318E-004;
2.420333333333334E+009;1.574739813804627E-001;-7.258836179971695E-002;-8.429369190707803E-004;-9.149693651124835E-004;
2.420500000000000E+009;1.565600335597992E-001;-7.353775203227997E-002;-7.859526667743921E-004;-1.038808608427644E-003;
2.420666666666667E+009;1.554214358329773E-001;-7.495275139808655E-002;-8.437351207248867E-004;-1.037449808791280E-003;
2.420833333333334E+009;1.545748561620712E-001;-7.625633478164673E-002;-9.924308396875858E-004;-1.063019735738635E-003;
2.421000000000000E+009;1.535539031028748E-001;-7.773302495479584E-002;-9.730836027301848E-004;-1.050663762725890E-003;
2.421166666666667E+009;1.529787182807922E-001;-7.921617478132248E-002;-9.938384173437953E-004;-1.004058518446982E-003;
2.421333333333334E+009;1.520961970090866E-001;-8.075349032878876E-002;-8.334856829605997E-004;-9.898979915305972E-004;
2.421500000000000E+009;1.514589637517929E-001;-8.229581266641617E-002;-9.850710630416870E-004;-1.005824306048453E-003;
2.421666666666667E+009;1.510657072067261E-001;-8.401357382535934E-002;-8.593198726885021E-004;-1.077996217645705E-003;
2.421833333333334E+009;1.504830121994019E-001;-8.550038933753967E-002;-1.066414406523109E-003;-1.069790334440768E-003;
2.422000000000000E+009;1.501093208789825E-001;-8.719535171985626E-002;-1.154907513409853E-003;-9.247687412425876E-004;
2.422166666666667E+009;1.497567743062973E-001;-8.902958035469055E-002;-1.140900421887636E-003;-1.028068014420569E-003;
2.422333333333334E+009;1.493397951126099E-001;-9.078422933816910E-002;-1.214848831295967E-003;-9.895819239318371E-004;
2.422500000000000E+009;1.493364125490189E-001;-9.218778461217880E-002;-1.216795179061592E-003;-1.045033917762339E-003;
2.422666666666667E+009;1.491431295871735E-001;-9.398865699768066E-002;-1.300262170843780E-003;-1.029258943162859E-003;
2.422833333333334E+009;1.493194848299027E-001;-9.573169052600861E-002;-1.337014604359865E-003;-9.782088454812765E-004;
2.423000000000000E+009;1.492863893508911E-001;-9.739849716424942E-002;-1.305151381529868E-003;-8.858157671056688E-004;
2.423166666666667E+009;1.495264321565628E-001;-9.891393035650253E-002;-1.529240398667753E-003;-8.075163932517171E-004;
2.423333333333334E+009;1.498189717531204E-001;-1.005682051181793E-001;-1.519074779935181E-003;-8.852775208652020E-004;
2.423500000000000E+009;1.500884294509888E-001;-1.022308394312859E-001;-1.598186674527824E-003;-7.813512347638607E-004;
2.423666666666667E+009;1.504778265953064E-001;-1.037824153900147E-001;-1.504154526628554E-003;-6.973043200559914E-004;
2.423833333333334E+009;1.510276794433594E-001;-1.051208600401878E-001;-1.662784488871694E-003;-7.284189341589809E-004;
2.424000000000000E+009;1.512426882982254E-001;-1.064162924885750E-001;-1.581397373229265E-003;-8.624668116681278E-004;
2.424166666666667E+009;1.515480726957321E-001;-1.078520417213440E-001;-1.833213493227959E-003;-6.374117801897228E-004;
2.424333333333334E+009;1.521954834461212E-001;-1.091615036129952E-001;-1.731578144244850E-003;-5.048161838203669E-004;
2.424500000000000E+009;1.527553945779800E-001;-1.104880869388580E-001;-1.779592130333185E-003;-4.726989718619734E-004;
2.424666666666667E+009;1.533297002315521E-001;-1.112838685512543E-001;-1.923098694533110E-003;-4.120078228879720E-004;
2.424833333333334E+009;1.537192463874817E-001;-1.125454455614090E-001;-1.889074570499361E-003;-3.843263257294893E-004;
2.425000000000000E+009;1.539965718984604E-001;-1.134601607918739E-001;-1.854549511335790E-003;-2.174701949115843E-004;
2.425166666666667E+009;1.544195711612701E-001;-1.142923757433891E-001;-1.807209453545511E-003;-1.379850436933339E-004;
2.425333333333334E+009;1.549729406833649E-001;-1.150227114558220E-001;-1.825287821702659E-003;-1.546787971165031E-004;
2.425500000000000E+009;1.554104685783386E-001;-1.158584281802177E-001;-1.879655290395021E-003;9.934620720741805E-006;
2.425666666666667E+009;1.554973274469376E-001;-1.164590641856194E-001;-1.836925977841020E-003;3.027301545444061E-006;
2.425833333333334E+009;1.558639854192734E-001;-1.169721931219101E-001;-1.770585658960044E-003;1.271581027140201E-006;
2.426000000000000E+009;1.560923010110855E-001;-1.175634711980820E-001;-1.791985239833593E-003;2.005035057663918E-004;
2.426166666666667E+009;1.563552618026733E-001;-1.180218830704689E-001;-1.847974956035614E-003;2.826685959007591E-004;
2.426333333333334E+009;1.563488692045212E-001;-1.183137968182564E-001;-1.930553349666297E-003;2.855944912880659E-004;
2.426500000000000E+009;1.564842164516449E-001;-1.185122653841972E-001;-1.746261492371559E-003;4.313600657042116E-004;
2.426666666666667E+009;1.564360111951828E-001;-1.188048496842384E-001;-1.678180880844593E-003;4.057666228618473E-004;
2.426833333333334E+009;1.561959832906723E-001;-1.190021410584450E-001;-1.661536167375743E-003;5.482577835209668E-004;
2.427000000000000E+009;1.559340208768845E-001;-1.192688345909119E-001;-1.614567358046770E-003;6.152495043352246E-004;
2.427166666666667E+009;1.556054204702377E-001;-1.193746104836464E-001;-1.560676493681967E-003;5.791215808130801E-004;
2.427333333333334E+009;1.551331877708435E-001;-1.194887757301331E-001;-1.554168644361198E-003;4.977632197551429E-004;
2.427500000000000E+009;1.546867638826370E-001;-1.196117699146271E-001;-1.562954625114799E-003;7.201811531558633E-004;
2.427666666666667E+009;1.538552790880203E-001;-1.197165325284004E-001;-1.492426148615778E-003;7.555591291747987E-004;
