# Version 1.00
#
freq[Hz];re:Trc1_S11;im:Trc1_S11;re:Trc2_S21;im:Trc2_S21;
2.400000000000000E+009;1.584634035825729E-001;6.285233795642853E-002;1.038948306813836E-003;2.628926420584321E-003;
2.400166666666667E+009;1.583118289709091E-001;6.139624491333962E-002;1.156772370450199E-003;2.549297176301479E-003;
2.400333333333334E+009;1.578933149576187E-001;5.936568975448608E-002;1.197345089167357E-003;2.553483936935663E-003;
2.400500000000000E+009;1.580071002244949E-001;5.751116573810577E-002;1.318795722909272E-003;2.464312827214599E-003;
2.400666666666667E+009;1.578399091959000E-001;5.551944673061371E-002;1.472815056331456E-003;2.498392481356859E-003;
2.400833333333334E+009;1.579871922731400E-001;5.360138788819313E-002;1.486317021772265E-003;2.449637511745095E-003;
2.401000000000000E+009;1.578908562660217E-001;5.147557705640793E-002;1.549190375953913E-003;2.221758710220456E-003;
2.401166666666667E+009;1.580778211355209E-001;4.946560040116310E-002;1.743526547215879E-003;2.250380348414183E-003;
2.401333333333334E+009;1.582223773002625E-001;4.730583354830742E-002;1.848164829425514E-003;2.155497903004289E-003;
2.401500000000000E+009;1.584479212760925E-001;4.532831162214279E-002;1.681250170804560E-003;2.088675508275628E-003;
2.401666666666667E+009;1.586362719535828E-001;4.346654191613197E-002;1.883402233943343E-003;2.007754519581795E-003;
2.401833333333334E+009;1.589873433113098E-001;4.135536029934883E-002;1.901606679894030E-003;1.988104544579983E-003;
2.402000000000000E+009;1.591407060623169E-001;3.931543976068497E-002;1.968233846127987E-003;1.879214076325297E-003;
2.402166666666667E+009;1.597070544958115E-001;3.718437626957893E-002;2.064600819721818E-003;1.856717397458851E-003;
2.402333333333334E+009;1.602370887994766E-001;3.536655381321907E-002;2.083551371470094E-003;1.688357908278704E-003;
2.402500000000000E+009;1.610620021820068E-001;3.365099802613258E-002;2.172868466004729E-003;1.585787627846003E-003;
2.402666666666667E+009;1.617236286401749E-001;3.185649961233139E-002;2.362460363656282E-003;1.425617840141058E-003;
2.402833333333334E+009;1.623114943504334E-001;3.006977774202824E-002;2.343287924304605E-003;1.390332239679992E-003;
2.403000000000000E+009;1.631778329610825E-001;2.844453975558281E-002;2.436881652101874E-003;1.362721668556333E-003;
2.403166666666667E+009;1.639879196882248E-001;2.666110359132290E-002;2.382975071668625E-003;1.361533184535801E-003;
2.403333333333334E+009;1.649269312620163E-001;2.522237785160542E-002;2.421960933133960E-003;1.281056785956025E-003;
2.403500000000000E+009;1.657813489437103E-001;2.384863235056400E-002;2.531985985115171E-003;1.082964241504669E-003;
2.403666666666667E+009;1.666686385869980E-001;2.239998616278172E-002;2.506789285689592E-003;1.053433516062796E-003;
2.403833333333334E+009;1.678649485111237E-001;2.092615887522697E-002;2.429681364446878E-003;8.592146332375705E-004;
2.404000000000000E+009;1.686991602182388E-001;1.974801532924175E-002;2.435534493997693E-003;8.563405717723072E-004;
2.404166666666667E+009;1.697548627853394E-001;1.862433552742004E-002;2.470436273142695E-003;7.217511301860213E-004;
2.404333333333334E+009;1.708214432001114E-001;1.761103793978691E-002;2.563163638114929E-003;7.933206507004798E-004;
2.404500000000000E+009;1.715423166751862E-001;1.649151928722858E-002;2.521961694583297E-003;6.934552220627666E-004;
2.404666666666667E+009;1.727141886949539E-001;1.578397490084171E-002;2.379332901909947E-003;5.540717393159866E-004;
2.404833333333334E+009;1.737904995679855E-001;1.488962117582560E-002;2.404135884717107E-003;5.278803873807192E-004;
2.405000000000000E+009;1.745072752237320E-001;1.415375247597694E-002;2.514868974685669E-003;4.758900322485715E-004;
2.405166666666667E+009;1.754918396472931E-001;1.321867853403091E-002;2.392766065895557E-003;3.343309217598289E-004;
2.405333333333334E+009;1.763177961111069E-001;1.257566176354885E-002;2.492850879207254E-003;2.929719048552215E-004;
2.405500000000000E+009;1.770810186862946E-001;1.220431830734015E-002;2.464798511937261E-003;2.136812836397439E-004;
2.405666666666667E+009;1.777599900960922E-001;1.177934464067221E-002;2.452994696795940E-003;3.245430125389248E-004;
2.405833333333334E+009;1.783836781978607E-001;1.133386325091124E-002;2.588782459497452E-003;3.505731001496315E-004;
2.406000000000000E+009;1.790765821933746E-001;1.079516019672155E-002;2.549092983826995E-003;9.623539517633617E-005;
2.406166666666667E+009;1.794920265674591E-001;1.053017470985651E-002;2.528534736484289E-003;1.332118263235316E-004;
2.406333333333334E+009;1.800553798675537E-001;1.024183351546526E-002;2.543651731684804E-003;1.978801446966827E-004;
2.406500000000000E+009;1.803409159183502E-001;9.899804368615151E-003;2.567950636148453E-003;-1.738967112032697E-004;
2.406666666666667E+009;1.805026084184647E-001;9.614781476557255E-003;2.590690040960908E-003;-5.757168037234806E-005;
2.406833333333334E+009;1.808686554431915E-001;9.258895181119442E-003;2.591106342151761E-003;-2.875799546018243E-004;
2.407000000000000E+009;1.809539496898651E-001;8.987652137875557E-003;2.679167781025171E-003;-3.217155754100531E-004;
2.407166666666667E+009;1.811658591032028E-001;8.693349547684193E-003;2.602139255031943E-003;-5.107841570861638E-004;
2.407333333333334E+009;1.809573173522949E-001;8.226891979575157E-003;2.495214808732271E-003;-5.326228565536439E-004;
2.407500000000000E+009;1.809342652559280E-001;7.797586731612682E-003;2.563463756814599E-003;-5.504044820554555E-004;
2.407666666666667E+009;1.807059496641159E-001;7.484534289687872E-003;2.694914350286126E-003;-5.823700921609998E-004;
2.407833333333334E+009;1.802104115486145E-001;6.856968160718679E-003;2.621976193040609E-003;-8.816850022412837E-004;
2.408000000000000E+009;1.801313906908035E-001;6.120706442743540E-003;2.681680256500840E-003;-7.907674298621714E-004;
2.408166666666667E+009;1.796857118606567E-001;5.836845841258764E-003;2.552983351051807E-003;-9.187052492052317E-004;
2.408333333333334E+009;1.793904900550842E-001;4.925786983221769E-003;2.611470874398947E-003;-9.170139674097300E-004;
2.408500000000000E+009;1.788298636674881E-001;4.275136627256870E-003;2.467050217092037E-003;-1.139796338975430E-003;
2.408666666666667E+009;1.781857907772064E-001;3.315067850053310E-003;2.571221673861146E-003;-1.139697618782520E-003;
2.408833333333334E+009;1.775239557027817E-001;2.442811615765095E-003;2.447326667606831E-003;-1.359883812256157E-003;
2.409000000000000E+009;1.767867505550385E-001;1.544962986372411E-003;2.515022177249193E-003;-1.354165724478662E-003;
2.409166666666667E+009;1.762329638004303E-001;4.445884551387280E-004;2.613956108689308E-003;-1.468886504881084E-003;
2.409333333333334E+009;1.756564527750015E-001;-7.592214387841523E-004;2.345495624467731E-003;-1.543837483040988E-003;
2.409500000000000E+009;1.747249662876129E-001;-2.149838488548994E-003;2.454484114423394E-003;-1.694567501544952E-003;
2.409666666666667E+009;1.740311831235886E-001;-3.452754579484463E-003;2.413493348285556E-003;-1.712984172627330E-003;
2.409833333333334E+009;1.732332855463028E-001;-4.717470612376928E-003;2.200979972258210E-003;-1.921015908010304E-003;
2.410000000000000E+009;1.727198511362076E-001;-5.975674372166395E-003;2.229167846962810E-003;-1.946804812178016E-003;
2.410166666666667E+009;1.721960455179215E-001;-7.668946869671345E-003;2.095404313877225E-003;-1.928501529619098E-003;
2.410333333333334E+009;1.713970154523850E-001;-9.416267275810242E-003;1.947697135619819E-003;-2.036981051787734E-003;
2.410500000000000E+009;1.707633882761002E-001;-1.111060660332441E-002;1.943160896189511E-003;-2.157521434128285E-003;
2.410666666666667E+009;1.701797693967819E-001;-1.290641818195581E-002;1.887539401650429E-003;-2.132409950718284E-003;
2.410833333333334E+009;1.698061227798462E-001;-1.445585303008556E-002;1.683200942352414E-003;-2.286971779540181E-003;
2.411000000000000E+009;1.692652702331543E-001;-1.638977229595184E-002;1.726001617498696E-003;-2.423637546598911E-003;
2.411166666666667E+009;1.689921915531158E-001;-1.828903332352638E-002;1.402116147801280E-003;-2.466309815645218E-003;
2.411333333333334E+009;1.685333549976349E-001;-2.022034488618374E-002;1.438637846149504E-003;-2.604776993393898E-003;
2.411500000000000E+009;1.683328449726105E-001;-2.218250371515751E-002;1.285967766307294E-003;-2.567254472523928E-003;
2.411666666666667E+009;1.681627929210663E-001;-2.389153465628624E-002;1.064031501300633E-003;-2.566949231550098E-003;
2.411833333333334E+009;1.680404841899872E-001;-2.594709023833275E-002;9.905664483085275E-004;-2.561557339504361E-003;
2.412000000000000E+009;1.681865304708481E-001;-2.783191017806530E-002;9.143514907918870E-004;-2.778138732537627E-003;
2.412166666666667E+009;1.681608706712723E-001;-2.989613451063633E-002;8.562928414903581E-004;-2.786017255857587E-003;
2.412333333333334E+009;1.682536154985428E-001;-3.190691024065018E-002;4.766047350130975E-004;-2.724832855165005E-003;
2.412500000000000E+009;1.683316230773926E-001;-3.382445871829987E-002;4.418625903781503E-004;-2.758355578407645E-003;
2.412666666666667E+009;1.687220931053162E-001;-3.581367433071137E-002;4.757899732794613E-004;-2.762889256700873E-003;
2.412833333333334E+009;1.690829098224640E-001;-3.767507523298264E-002;3.838163684122264E-004;-2.689663087949157E-003;
2.413000000000000E+009;1.692163497209549E-001;-3.930154815316200E-002;2.121869474649429E-004;-2.590498188510537E-003;
2.413166666666667E+009;1.696100085973740E-001;-4.110607877373695E-002;7.237331828946481E-006;-2.504563191905618E-003;
2.413333333333334E+009;1.700925230979919E-001;-4.297200590372086E-002;-1.434010337106884E-004;-2.403041813522577E-003;
2.413500000000000E+009;1.706263124942780E-001;-4.448773711919785E-002;-1.039730705088005E-004;-2.481447765603662E-003;
2.413666666666667E+009;1.710213273763657E-001;-4.613126441836357E-002;-2.770094142761082E-004;-2.485150471329689E-003;
2.413833333333334E+009;1.716346889734268E-001;-4.769447818398476E-002;-2.064696600427851E-004;-2.167706843465567E-003;
2.414000000000000E+009;1.720077693462372E-001;-4.915832355618477E-002;-3.497853758744896E-004;-2.202623989433050E-003;
2.414166666666667E+009;1.727652549743652E-001;-5.035367235541344E-002;-4.550455487333238E-004;-2.265668008476496E-003;
2.414333333333334E+009;1.732278913259506E-001;-5.176288262009621E-002;-5.433051846921444E-004;-2.075253520160914E-003;
2.414500000000000E+009;1.738657653331757E-001;-5.282927677035332E-002;-4.915732424706221E-004;-2.028760500252247E-003;
2.414666666666667E+009;1.743036508560181E-001;-5.384454131126404E-002;-5.633541150018573E-004;-1.891512190923095E-003;
2.414833333333334E+009;1.749016940593720E-001;-5.493509024381638E-002;-6.354860961437225E-004;-1.984844449907541E-003;
2.415000000000000E+009;1.752773076295853E-001;-5.589168146252632E-002;-7.064628880470991E-004;-1.909817452542484E-003;
2.415166666666667E+009;1.757386177778244E-001;-5.668276175856590E-002;-5.771878641098738E-004;-1.757626421749592E-003;
2.415333333333334E+009;1.761255115270615E-001;-5.739678442478180E-002;-7.353785913437605E-004;-1.853533787652850E-003;
2.415500000000000E+009;1.765922904014587E-001;-5.806948989629746E-002;-6.613604491576552E-004;-1.685117022134364E-003;
2.415666666666667E+009;1.768128871917725E-001;-5.866824835538864E-002;-8.884700364433229E-004;-1.659558853134513E-003;
2.415833333333334E+009;1.771160662174225E-001;-5.920672789216042E-002;-6.891458178870380E-004;-1.640104921534658E-003;
2.416000000000000E+009;1.770812720060349E-001;-5.957117676734924E-002;-9.363425779156387E-004;-1.568491337820888E-003;
2.416166666666667E+009;1.773771792650223E-001;-6.006867438554764E-002;-8.417924400418997E-004;-1.521892729215324E-003;
2.416333333333334E+009;1.773054003715515E-001;-6.033321842551231E-002;-8.626791532151401E-004;-1.358527340926230E-003;
2.416500000000000E+009;1.772785335779190E-001;-6.085383147001267E-002;-8.211106178350747E-004;-1.335365930572152E-003;
2.416666666666667E+009;1.770436167716980E-001;-6.101043149828911E-002;-9.542066836729646E-004;-1.250680186785758E-003;
2.416833333333334E+009;1.769665181636810E-001;-6.133511662483215E-002;-7.989680161699653E-004;-1.324330340139568E-003;
2.417000000000000E+009;1.765454411506653E-001;-6.145963817834854E-002;-8.275763830170035E-004;-1.362424343824387E-003;
2.417166666666667E+009;1.761291027069092E-001;-6.168812140822411E-002;-9.616193128749728E-004;-1.194636686705053E-003;
2.417333333333334E+009;1.757638007402420E-001;-6.184086576104164E-002;-8.460489334538579E-004;-1.208380446769297E-003;
2.417500000000000E+009;1.751271188259125E-001;-6.218968331813812E-002;-8.199051371775568E-004;-1.187894260510802E-003;
2.417666666666667E+009;1.744734495878220E-001;-6.229187920689583E-002;-7.328270585276187E-004;-1.177524798549712E-003;
2.417833333333334E+009;1.737359166145325E-001;-6.256084889173508E-002;-9.300366509705782E-004;-1.101726316846907E-003;
2.418000000000000E+009;1.728564351797104E-001;-6.296121329069138E-002;-8.178784046322107E-004;-1.084530726075172E-003;
2.418166666666667E+009;1.719013005495071E-001;-6.303667277097702E-002;-9.079709998331964E-004;-1.139845116995275E-003;
2.418333333333334E+009;1.712550520896912E-001;-6.355828791856766E-002;-7.451053243130446E-004;-9.820478735491633E-004;
2.418500000000000E+009;1.700275093317032E-001;-6.390434503555298E-002;-9.005367173813283E-004;-1.015320769511163E-003;
2.418666666666667E+009;1.691051125526428E-001;-6.440017372369766E-002;-8.508515311405063E-004;-1.007853657938540E-003;
2.418833333333334E+009;1.677988469600678E-001;-6.481750309467316E-002;-7.091431180015206E-004;-9.388445178046823E-004;
2.419000000000000E+009;1.665959358215332E-001;-6.543487310409546E-002;-8.140632999129593E-004;-1.051141647621989E-003;
2.419166666666667E+009;1.655700653791428E-001;-6.595311313867569E-002;-8.407895802520216E-004;-1.049070036970079E-003;
2.419333333333334E+009;1.643432527780533E-001;-6.646271049976349E-002;-7.552112219855189E-004;-9.468491771258414E-004;
2.419500000000000E+009;1.631057262420654E-001;-6.749181449413300E-002;-7.767398492433131E-004;-1.005406025797129E-003;
2.419666666666667E+009;1.621505916118622E-001;-6.854069232940674E-002;-7.369029917754233E-004;-9.730709134601057E-004;
2.419833333333334E+009;1.606573164463043E-001;-6.924936920404434E-002;-5.623397300951183E-004;-1.025667763315141E-003;
2.420000000000000E+009;1.596478670835495E-001;-7.024722546339035E-002;-9.377402020618320E-004;-1.054803957231343E-003;
2.420166666666667E+009;1.584646850824356E-001;-7.125686109066010E-002;-8.281529881060123E-004;-8.917691884562373E-004;
2.420333333333334E+009;1.574311703443527E-001;-7.250298559665680E-002;-7.598532247357070E-004;-1.022902200929821E-003;
2.420500000000000E+009;1.564872562885284E-001;-7.358480244874954E-002;-7.826545042917132E-004;-9.734557243064046E-004;
2.420666666666667E+009;1.553948670625687E-001;-7.484524697065353E-002;-8.035716018639505E-004;-1.018733833916485E-003;
2.420833333333334E+009;1.546172946691513E-001;-7.625073194503784E-002;-8.840951486490667E-004;-8.907336159609258E-004;
2.421000000000000E+009;1.535884290933609E-001;-7.756616920232773E-002;-9.483968024142087E-004;-9.959017625078559E-004;
2.421166666666667E+009;1.526767313480377E-001;-7.918889820575714E-002;-8.626907365396619E-004;-9.991555707529187E-004;
2.421333333333334E+009;1.521300971508026E-001;-8.067270368337631E-002;-9.516856516711414E-004;-1.106735202483833E-003;
2.421500000000000E+009;1.513183712959290E-001;-8.231499046087265E-002;-9.633111185394228E-004;-1.148458337411284E-003;
2.421666666666667E+009;1.510037034749985E-001;-8.389753848314285E-002;-1.008239225484431E-003;-9.981275070458651E-004;
2.421833333333334E+009;1.504078060388565E-001;-8.546175807714462E-002;-1.070277881808579E-003;-1.089669298380613E-003;
2.422000000000000E+009;1.500649899244309E-001;-8.709345757961273E-002;-1.161577063612640E-003;-1.052508596330881E-003;
2.422166666666667E+009;1.497380137443543E-001;-8.896063268184662E-002;-1.195278950035572E-003;-9.237643098458648E-004;
2.422333333333334E+009;1.495328098535538E-001;-9.064724296331406E-002;-1.059336471371353E-003;-9.066993952728808E-004;
2.422500000000000E+009;1.492157727479935E-001;-9.214068204164505E-002;-1.195724704302847E-003;-1.103915157727897E-003;
2.422666666666667E+009;1.491389423608780E-001;-9.390295296907425E-002;-1.432778779417276E-003;-9.551337570883334E-004;
2.422833333333334E+009;1.492904871702194E-001;-9.554935991764069E-002;-1.428313204087317E-003;-1.179964863695204E-003;
2.423000000000000E+009;1.493309587240219E-001;-9.750263392925263E-002;-1.448482042178512E-003;-1.100683701224625E-003;
2.423166666666667E+009;1.495403200387955E-001;-9.905965626239777E-002;-1.533448346890509E-003;-9.373341454192996E-004;
2.423333333333334E+009;1.498537212610245E-001;-1.006059944629669E-001;-1.532797003164887E-003;-9.082123870030046E-004;
2.423500000000000E+009;1.501711308956146E-001;-1.022095382213593E-001;-1.638627960346639E-003;-8.138504927046597E-004;
2.423666666666667E+009;1.503116339445114E-001;-1.036847308278084E-001;-1.626821351237595E-003;-8.455103379674256E-004;
2.423833333333334E+009;1.509258151054382E-001;-1.051097884774208E-001;-1.663986709900200E-003;-6.902436143718660E-004;
2.424000000000000E+009;1.511802375316620E-001;-1.064763665199280E-001;-1.616491354070604E-003;-6.764385616406798E-004;
2.424166666666667E+009;1.515567302703857E-001;-1.078921929001808E-001;-1.642703078687191E-003;-6.128917448222637E-004;
2.424333333333334E+009;1.523028761148453E-001;-1.090803667902947E-001;-1.799555146135390E-003;-6.382737774401903E-004;
2.424500000000000E+009;1.528213620185852E-001;-1.104044243693352E-001;-1.844819053076208E-003;-5.002418765798211E-004;
2.424666666666667E+009;1.532346308231354E-001;-1.113080605864525E-001;-1.908761914819479E-003;-3.473733959253877E-004;
2.424833333333334E+009;1.536441594362259E-001;-1.125176846981049E-001;-1.754057942889631E-003;-3.051017702091485E-004;
2.425000000000000E+009;1.542745679616928E-001;-1.132874190807343E-001;-1.931972685270011E-003;-3.423114540055394E-004;
2.425166666666667E+009;1.544540077447891E-001;-1.141577735543251E-001;-2.037901198491454E-003;-2.159093564841896E-004;
2.425333333333334E+009;1.548857092857361E-001;-1.150899529457092E-001;-1.791186281479895E-003;-1.493566960562021E-004;
2.425500000000000E+009;1.553328633308411E-001;-1.157962977886200E-001;-1.901636132970452E-003;-1.138240550062619E-004;
2.425666666666667E+009;1.554987281560898E-001;-1.164810881018639E-001;-1.836048555560410E-003;-3.863880465360126E-006;
2.425833333333334E+009;1.558703631162643E-001;-1.170505508780479E-001;-1.921706134453416E-003;5.964143201708794E-005;
2.426000000000000E+009;1.560506969690323E-001;-1.175838634371758E-001;-1.808003988116980E-003;1.923936506500468E-004;
2.426166666666667E+009;1.563755273818970E-001;-1.179547831416130E-001;-1.793486182577908E-003;2.861330576706678E-004;
2.426333333333334E+009;1.564322710037231E-001;-1.184236630797386E-001;-1.710186828859150E-003;3.482899628579617E-004;
2.426500000000000E+009;1.564142256975174E-001;-1.185427308082581E-001;-1.813048846088350E-003;4.998876247555018E-004;
2.426666666666667E+009;1.564837396144867E-001;-1.187653392553330E-001;-1.737592625431716E-003;4.881714703515172E-004;
2.426833333333334E+009;1.562274843454361E-001;-1.190622895956039E-001;-1.685827737674117E-003;6.105149514041841E-004;
2.427000000000000E+009;1.559233516454697E-001;-1.193060576915741E-001;-1.603796030394733E-003;6.126036751084030E-004;
2.427166666666667E+009;1.555232554674149E-001;-1.192133352160454E-001;-1.815254217945039E-003;6.826990866102278E-004;
2.427333333333334E+009;1.550993621349335E-001;-1.194365993142128E-001;-1.616228488273919E-003;7.421419140882790E-004;
2.427500000000000E+009;1.546775549650192E-001;-1.195954456925392E-001;-1.472541480325162E-003;5.961171700619161E-004;
2.427666666666667E+009;1.539362818002701E-001;-1.197026148438454E-001;-1.532486756332219E-003;6.181274075061083E-004;
