# Version 1.00
#
freq[Hz];re:Trc1_S11;im:Trc1_S11;re:Trc2_S21;im:Trc2_S21;
2.400000000000000E+009;1.571153253316879E-001;6.061621755361557E-002;-3.283765399828553E-003;-1.217488825204782E-004;
2.400166666666667E+009;1.571571528911591E-001;5.901338532567024E-002;-3.220638027414680E-003;1.126928691519424E-004;
2.400333333333334E+009;1.572235524654388E-001;5.691275373101234E-002;-3.363942028954625E-003;2.911644405685365E-004;
2.400500000000000E+009;1.574511975049973E-001;5.515833571553230E-002;-3.425435628741980E-003;3.544407372828573E-004;
2.400666666666667E+009;1.574848741292954E-001;5.284070968627930E-002;-3.357939887791872E-003;4.621590196620673E-004;
2.400833333333334E+009;1.578079909086227E-001;5.103342980146408E-002;-3.251187270507217E-003;6.368595059029758E-004;
2.401000000000000E+009;1.579294502735138E-001;4.895097762346268E-002;-3.225172404199839E-003;6.336240330711007E-004;
2.401166666666667E+009;1.584207713603973E-001;4.691163823008537E-002;-3.318275790661573E-003;8.553182124160230E-004;
2.401333333333334E+009;1.586656421422958E-001;4.481348022818565E-002;-3.271960420534015E-003;8.951867930591106E-004;
2.401500000000000E+009;1.592122167348862E-001;4.277153313159943E-002;-3.115362254902721E-003;1.015244401060045E-003;
2.401666666666667E+009;1.596345901489258E-001;4.102405160665512E-002;-3.066101809963584E-003;1.201695180498064E-003;
2.401833333333334E+009;1.601920723915100E-001;3.876721858978272E-002;-3.014577319845557E-003;1.226986176334322E-003;
2.402000000000000E+009;1.604313999414444E-001;3.699755668640137E-002;-2.897642552852631E-003;1.454133773222566E-003;
2.402166666666667E+009;1.613105088472366E-001;3.509827330708504E-002;-3.070619190111756E-003;1.281665405258536E-003;
2.402333333333334E+009;1.618399173021317E-001;3.331934288144112E-002;-2.953204093500972E-003;1.542052603326738E-003;
2.402500000000000E+009;1.628965735435486E-001;3.164849430322647E-002;-2.736573806032538E-003;1.592228421941400E-003;
2.402666666666667E+009;1.635662019252777E-001;3.008518181741238E-002;-2.738827373832464E-003;1.690859557129443E-003;
2.402833333333334E+009;1.643617004156113E-001;2.856138907372952E-002;-2.632313175126910E-003;1.957011874765158E-003;
2.403000000000000E+009;1.653378456830978E-001;2.704758942127228E-002;-2.571277553215623E-003;1.910636899992824E-003;
2.403166666666667E+009;1.661401540040970E-001;2.563311532139778E-002;-2.603179542347789E-003;2.043623244389892E-003;
2.403333333333334E+009;1.671507358551025E-001;2.433596923947334E-002;-2.342605497688055E-003;2.082927152514458E-003;
2.403500000000000E+009;1.679353564977646E-001;2.302002720534802E-002;-2.258464228361845E-003;2.182764234021306E-003;
2.403666666666667E+009;1.687328368425369E-001;2.181948535144329E-002;-2.110419794917107E-003;2.156726317480207E-003;
2.403833333333334E+009;1.699144393205643E-001;2.073452807962894E-002;-2.163681201636791E-003;2.288998803123832E-003;
2.404000000000000E+009;1.707850098609924E-001;1.975148916244507E-002;-2.006268594413996E-003;2.414809539914131E-003;
2.404166666666667E+009;1.715836226940155E-001;1.879874616861343E-002;-1.946722506545484E-003;2.461982890963554E-003;
2.404333333333334E+009;1.724959164857864E-001;1.798119582235813E-002;-1.648436300456524E-003;2.551113720983267E-003;
2.404500000000000E+009;1.732512712478638E-001;1.713400334119797E-002;-1.706501818262041E-003;2.495358232408762E-003;
2.404666666666667E+009;1.742894351482391E-001;1.643776893615723E-002;-1.626465003937483E-003;2.553880447521806E-003;
2.404833333333334E+009;1.749045848846436E-001;1.590982452034950E-002;-1.544287893921137E-003;2.719360403716564E-003;
2.405000000000000E+009;1.757273226976395E-001;1.512548048049212E-002;-1.396168256178498E-003;2.624786691740155E-003;
2.405166666666667E+009;1.764631122350693E-001;1.461861561983824E-002;-1.181971281766892E-003;2.670299960300326E-003;
2.405333333333334E+009;1.772827357053757E-001;1.408905442804098E-002;-1.211141119711101E-003;2.692998852580786E-003;
2.405500000000000E+009;1.777494549751282E-001;1.376949716359377E-002;-1.038807327859104E-003;2.690037246793509E-003;
2.405666666666667E+009;1.781684607267380E-001;1.344983186572790E-002;-9.200746426358819E-004;2.742097014561296E-003;
2.405833333333334E+009;1.784965842962265E-001;1.320358645170927E-002;-8.323217625729740E-004;2.660442842170596E-003;
2.406000000000000E+009;1.791165322065353E-001;1.267555728554726E-002;-4.979505320079625E-004;2.730112522840500E-003;
2.406166666666667E+009;1.790239363908768E-001;1.260166987776756E-002;-7.006324012763798E-004;2.728509018197656E-003;
2.406333333333334E+009;1.796621680259705E-001;1.222459413111210E-002;-4.400205798447132E-004;2.698452444747090E-003;
2.406500000000000E+009;1.796640008687973E-001;1.182520296424627E-002;-4.247590841259807E-004;2.813570667058229E-003;
2.406666666666667E+009;1.796011328697205E-001;1.171172596514225E-002;-2.347483386984095E-004;2.665220294147730E-003;
2.406833333333334E+009;1.796457618474960E-001;1.122518256306648E-002;-2.838873770087957E-004;2.592893783003092E-003;
2.407000000000000E+009;1.795578747987747E-001;1.080469600856304E-002;-2.403267280897126E-004;2.598253777250648E-003;
2.407166666666667E+009;1.795821785926819E-001;1.040912978351116E-002;-5.387647979659960E-005;2.609690185636282E-003;
2.407333333333334E+009;1.791919320821762E-001;9.855670854449272E-003;1.952705060830340E-004;2.516227541491389E-003;
2.407500000000000E+009;1.789803206920624E-001;9.451230987906456E-003;1.341680908808485E-004;2.537915483117104E-003;
2.407666666666667E+009;1.787034571170807E-001;8.920544758439064E-003;3.716585924848914E-004;2.407071646302939E-003;
2.407833333333334E+009;1.781505197286606E-001;8.282434195280075E-003;3.903156903106719E-004;2.310061594471335E-003;
2.408000000000000E+009;1.777350753545761E-001;7.450144272297621E-003;5.877802614122629E-004;2.359439153224230E-003;
2.408166666666667E+009;1.772118657827377E-001;6.682138890028000E-003;4.942923551425338E-004;2.319366903975606E-003;
2.408333333333334E+009;1.768670231103897E-001;5.877614021301270E-003;6.854711100459099E-004;2.190046710893512E-003;
2.408500000000000E+009;1.762426644563675E-001;4.854578059166670E-003;6.411066860891879E-004;2.139433054253459E-003;
2.408666666666667E+009;1.755838096141815E-001;3.793114330619574E-003;8.382553351111710E-004;2.079671015962958E-003;
2.408833333333334E+009;1.749410629272461E-001;2.645698608830571E-003;8.598687709309161E-004;2.173129934817553E-003;
2.409000000000000E+009;1.742251664400101E-001;1.569454441778362E-003;9.576641023159027E-004;2.044548280537128E-003;
2.409166666666667E+009;1.737417131662369E-001;1.686536270426586E-004;1.049730461090803E-003;1.918883062899113E-003;
2.409333333333334E+009;1.729509085416794E-001;-1.079462235793471E-003;1.014672568999231E-003;1.779539627023041E-003;
2.409500000000000E+009;1.724433302879334E-001;-2.692280570045114E-003;1.150632859207690E-003;1.710858778096736E-003;
2.409666666666667E+009;1.715672612190247E-001;-4.108396824449301E-003;1.270070439204574E-003;1.577773946337402E-003;
2.409833333333334E+009;1.709666997194290E-001;-5.642867181450129E-003;1.379342749714851E-003;1.658394816331565E-003;
2.410000000000000E+009;1.706322729587555E-001;-7.292827125638723E-003;1.498374040238559E-003;1.682750531472266E-003;
2.410166666666667E+009;1.699982136487961E-001;-9.020567871630192E-003;1.456289901398122E-003;1.364882336929441E-003;
2.410333333333334E+009;1.696031242609024E-001;-1.082833670079708E-002;1.425937400199473E-003;1.540288329124451E-003;
2.410500000000000E+009;1.691917628049851E-001;-1.261447370052338E-002;1.446025795303285E-003;1.166550209745765E-003;
2.410666666666667E+009;1.687768250703812E-001;-1.464657858014107E-002;1.407862524501979E-003;1.136431586928666E-003;
2.410833333333334E+009;1.684348583221436E-001;-1.624964736402035E-002;1.477588783018291E-003;9.678080095909536E-004;
2.411000000000000E+009;1.682004034519196E-001;-1.809818856418133E-002;1.563996309414506E-003;9.198251646012068E-004;
2.411166666666667E+009;1.680917888879776E-001;-2.021668851375580E-002;1.452088239602745E-003;9.346462902612984E-004;
2.411333333333334E+009;1.678870171308518E-001;-2.194257825613022E-002;1.534112263470888E-003;7.262635044753552E-004;
2.411500000000000E+009;1.677996069192886E-001;-2.399334311485291E-002;1.475550583563745E-003;5.698348977603018E-004;
2.411666666666667E+009;1.680658608675003E-001;-2.570128254592419E-002;1.405007089488208E-003;4.498219059314579E-004;
2.411833333333334E+009;1.681238710880280E-001;-2.772666886448860E-002;1.467766356654465E-003;3.067373472731561E-004;
2.412000000000000E+009;1.683939844369888E-001;-2.982320822775364E-002;1.331341103650630E-003;1.290109794354066E-004;
2.412166666666667E+009;1.686315834522247E-001;-3.165116533637047E-002;1.276276190765202E-003;1.201730556203984E-004;
2.412333333333334E+009;1.691090166568756E-001;-3.343614190816879E-002;1.262476318515837E-003;1.986137613130268E-005;
2.412500000000000E+009;1.692854464054108E-001;-3.519166260957718E-002;1.218098681420088E-003;-3.658304922282696E-005;
2.412666666666667E+009;1.697902083396912E-001;-3.723463416099548E-002;1.139748143032193E-003;-2.001096145249903E-004;
2.412833333333334E+009;1.703277528285980E-001;-3.896292671561241E-002;1.225007115863264E-003;-1.568974985275418E-004;
2.413000000000000E+009;1.707797348499298E-001;-4.054370149970055E-002;1.006400212645531E-003;-3.102440095972270E-004;
2.413166666666667E+009;1.713097095489502E-001;-4.226763918995857E-002;9.251678129658103E-004;-2.395197225268930E-004;
2.413333333333334E+009;1.717976629734039E-001;-4.387829825282097E-002;8.210696396417916E-004;-3.227665438316762E-004;
2.413500000000000E+009;1.723476797342300E-001;-4.518079757690430E-002;7.608491578139365E-004;-4.330926458351314E-004;
2.413666666666667E+009;1.730581969022751E-001;-4.683233052492142E-002;5.939954426139593E-004;-4.194318607915193E-004;
2.413833333333334E+009;1.735006719827652E-001;-4.798225313425064E-002;5.528372130356729E-004;-4.473431035876274E-004;
2.414000000000000E+009;1.739083230495453E-001;-4.943722113966942E-002;5.806065164506435E-004;-6.061461172066629E-004;
2.414166666666667E+009;1.747661530971527E-001;-5.041077733039856E-002;4.940002691000700E-004;-5.510464543476701E-004;
2.414333333333334E+009;1.752369105815888E-001;-5.158542469143868E-002;3.811223723459989E-004;-5.004310514777899E-004;
2.414500000000000E+009;1.760189086198807E-001;-5.262563750147820E-002;2.040851686615497E-004;-6.624885136261582E-004;
2.414666666666667E+009;1.762774735689163E-001;-5.354705452919006E-002;3.569387481547892E-004;-5.389694706536830E-004;
2.414833333333334E+009;1.768151372671127E-001;-5.454844981431961E-002;5.259216322883731E-006;-4.360994789749384E-004;
2.415000000000000E+009;1.771749258041382E-001;-5.512193217873573E-002;-5.268226959742606E-005;-4.982192767783999E-004;
2.415166666666667E+009;1.774470359086990E-001;-5.586294829845429E-002;-6.009592470945790E-005;-5.525908200070262E-004;
2.415333333333334E+009;1.777941137552261E-001;-5.650240555405617E-002;-1.056105975294486E-004;-3.881675074808300E-004;
2.415500000000000E+009;1.779912263154984E-001;-5.682247504591942E-002;-3.000529832206667E-004;-3.693519101943821E-004;
2.415666666666667E+009;1.781421750783920E-001;-5.737487226724625E-002;-2.705008082557470E-004;-3.547469677869231E-004;
2.415833333333334E+009;1.783730834722519E-001;-5.786520987749100E-002;-2.706658851820976E-004;-1.951769809238613E-004;
2.416000000000000E+009;1.781974136829376E-001;-5.818147212266922E-002;-2.843728289008141E-004;-3.265357008785941E-005;
2.416166666666667E+009;1.782923340797424E-001;-5.854647979140282E-002;-4.261590365786105E-004;-6.156281597213820E-005;
2.416333333333334E+009;1.781270951032639E-001;-5.873738974332809E-002;-4.221628187224269E-004;-6.950316219445085E-006;
2.416500000000000E+009;1.778772771358490E-001;-5.910068005323410E-002;-5.190425436012447E-004;1.888577389763668E-004;
2.416666666666667E+009;1.774849891662598E-001;-5.925619602203369E-002;-5.485230940394104E-004;3.426639887038618E-004;
2.416833333333334E+009;1.771173924207687E-001;-5.960156768560410E-002;-6.059918086975813E-004;3.051234525628388E-004;
2.417000000000000E+009;1.764749437570572E-001;-5.984304845333099E-002;-6.139275501482189E-004;3.723725094459951E-004;
2.417166666666667E+009;1.758747100830078E-001;-6.001161783933640E-002;-5.162216839380562E-004;3.572948626242578E-004;
2.417333333333334E+009;1.753110885620117E-001;-6.015361100435257E-002;-6.158840260468423E-004;3.474935074336827E-004;
2.417500000000000E+009;1.744069904088974E-001;-6.071231141686440E-002;-4.403977654874325E-004;4.477827169466764E-004;
2.417666666666667E+009;1.737483590841293E-001;-6.084991618990898E-002;-4.597077786456794E-004;5.101620336063206E-004;
2.417833333333334E+009;1.728579849004746E-001;-6.111265346407890E-002;-5.024696001783013E-004;6.506743957288563E-004;
2.418000000000000E+009;1.717734485864639E-001;-6.164170801639557E-002;-5.139482673257589E-004;6.306506111286581E-004;
2.418166666666667E+009;1.707314103841782E-001;-6.190282851457596E-002;-3.942638286389411E-004;7.278135162778199E-004;
2.418333333333334E+009;1.698972582817078E-001;-6.241259723901749E-002;-3.623025841079652E-004;6.113051204010844E-004;
2.418500000000000E+009;1.685613393783569E-001;-6.303507089614868E-002;-4.181900294497609E-004;8.155784453265369E-004;
2.418666666666667E+009;1.675108373165131E-001;-6.369759142398834E-002;-1.856932794908062E-004;7.993641193024814E-004;
2.418833333333334E+009;1.661321520805359E-001;-6.430309265851975E-002;-2.693677088245750E-004;1.012811786495149E-003;
2.419000000000000E+009;1.649745404720306E-001;-6.489548832178116E-002;-1.825711806304753E-004;8.840408409014344E-004;
2.419166666666667E+009;1.637455821037293E-001;-6.581150740385056E-002;-2.790135040413588E-004;9.163388749584556E-004;
2.419333333333334E+009;1.624193936586380E-001;-6.653666496276856E-002;-2.686366206035018E-004;9.273613686673343E-004;
2.419500000000000E+009;1.614042818546295E-001;-6.768096238374710E-002;-1.535665796836838E-004;9.938031435012817E-004;
2.419666666666667E+009;1.603175401687622E-001;-6.865084916353226E-002;5.675238571711816E-005;1.016645575873554E-003;
2.419833333333334E+009;1.588968336582184E-001;-6.975238770246506E-002;-2.669167588464916E-005;1.175745506770909E-003;
2.420000000000000E+009;1.579441279172897E-001;-7.089129090309143E-002;3.515652497299016E-005;1.071266364306212E-003;
2.420166666666667E+009;1.569211483001709E-001;-7.200089097023010E-002;9.870807116385549E-005;1.120246830396354E-003;
2.420333333333334E+009;1.557858735322952E-001;-7.350590080022812E-002;9.203828085446730E-005;1.150089665316045E-003;
2.420500000000000E+009;1.549654603004456E-001;-7.461080700159073E-002;1.880642230389640E-004;1.058976980857551E-003;
2.420666666666667E+009;1.540486514568329E-001;-7.616925239562988E-002;2.090675989165902E-004;1.149381045252085E-003;
2.420833333333334E+009;1.531305015087128E-001;-7.773424685001373E-002;3.874339163303375E-004;9.772519115358591E-004;
2.421000000000000E+009;1.523509025573731E-001;-7.911416143178940E-002;6.115675205364823E-005;1.045385026372969E-003;
2.421166666666667E+009;1.516929864883423E-001;-8.068219572305679E-002;2.666245272848755E-004;1.025708275847137E-003;
2.421333333333334E+009;1.512354016304016E-001;-8.240016549825668E-002;2.665883512236178E-004;1.075720414519310E-003;
2.421500000000000E+009;1.505083590745926E-001;-8.391895890235901E-002;4.425826191436499E-004;1.028465456329286E-003;
2.421666666666667E+009;1.501758992671967E-001;-8.550313860177994E-002;2.769093844108284E-004;1.082441536709666E-003;
2.421833333333334E+009;1.498526930809021E-001;-8.726837486028671E-002;5.297010065987706E-004;1.082869828678668E-003;
2.422000000000000E+009;1.495334953069687E-001;-8.884719014167786E-002;3.845175669994205E-004;1.056373235769570E-003;
2.422166666666667E+009;1.494013071060181E-001;-9.065274894237518E-002;4.325042827986181E-004;1.001828000880778E-003;
2.422333333333334E+009;1.491959691047669E-001;-9.222738444805145E-002;4.370620299596340E-004;1.245783874765039E-003;
2.422500000000000E+009;1.491587162017822E-001;-9.392642229795456E-002;5.547474138438702E-004;1.104763126932085E-003;
2.422666666666667E+009;1.491344571113586E-001;-9.562793374061585E-002;5.180416046641767E-004;1.148091745562851E-003;
2.422833333333334E+009;1.493551433086395E-001;-9.725286066532135E-002;5.507951136678457E-004;9.964718483388424E-004;
2.423000000000000E+009;1.494783312082291E-001;-9.870547056198120E-002;5.254913121461868E-004;1.028213067911565E-003;
2.423166666666667E+009;1.499632894992828E-001;-1.003493592143059E-001;6.059042061679065E-004;1.089176628738642E-003;
2.423333333333334E+009;1.503115147352219E-001;-1.016436964273453E-001;7.613656925968826E-004;9.593100403435528E-004;
2.423500000000000E+009;1.505911052227020E-001;-1.032326743006706E-001;5.980122950859368E-004;9.773067431524396E-004;
2.423666666666667E+009;1.508623808622360E-001;-1.046821177005768E-001;6.964698550291359E-004;1.179224695079029E-003;
2.423833333333334E+009;1.514487713575363E-001;-1.058969199657440E-001;6.691269227303565E-004;1.129088341258466E-003;
2.424000000000000E+009;1.518454253673554E-001;-1.069286242127419E-001;8.185775368474424E-004;1.080722897313535E-003;
2.424166666666667E+009;1.523211747407913E-001;-1.082036495208740E-001;9.111512918025255E-004;1.222739578224719E-003;
2.424333333333334E+009;1.527644544839859E-001;-1.092421337962151E-001;8.120302809402347E-004;1.205793232657015E-003;
2.424500000000000E+009;1.533914059400559E-001;-1.103187277913094E-001;1.047915546223521E-003;1.190769951790571E-003;
2.424666666666667E+009;1.539891809225082E-001;-1.109858229756355E-001;1.045064534991980E-003;1.246247440576553E-003;
2.424833333333334E+009;1.543059498071671E-001;-1.120006591081619E-001;1.136685721576214E-003;1.212215516716242E-003;
2.425000000000000E+009;1.548290550708771E-001;-1.128702238202095E-001;1.260176184587181E-003;1.272534136660397E-003;
2.425166666666667E+009;1.548624336719513E-001;-1.134423464536667E-001;1.484533189795911E-003;1.201480394229293E-003;
2.425333333333334E+009;1.554805338382721E-001;-1.140779629349709E-001;1.234903931617737E-003;1.164929359219968E-003;
2.425500000000000E+009;1.558639705181122E-001;-1.147337257862091E-001;1.506905420683324E-003;1.031838939525187E-003;
2.425666666666667E+009;1.559853702783585E-001;-1.152430772781372E-001;1.491824863478541E-003;1.057654269970954E-003;
2.425833333333334E+009;1.562382429838181E-001;-1.157171949744225E-001;1.639853697270155E-003;1.039298367686570E-003;
2.426000000000000E+009;1.563868671655655E-001;-1.160675436258316E-001;1.632408471778035E-003;9.600557968951762E-004;
2.426166666666667E+009;1.566158980131149E-001;-1.164356395602226E-001;1.666591851972044E-003;8.641727035865188E-004;
2.426333333333334E+009;1.565116792917252E-001;-1.167225614190102E-001;1.735974918119609E-003;9.041031007654965E-004;
2.426500000000000E+009;1.564423143863678E-001;-1.168800145387650E-001;1.869388623163104E-003;8.704984211362898E-004;
2.426666666666667E+009;1.562810838222504E-001;-1.169714704155922E-001;1.976614119485021E-003;7.266939501278102E-004;
2.426833333333334E+009;1.560041010379791E-001;-1.172032356262207E-001;1.787039800547063E-003;6.793544744141400E-004;
2.427000000000000E+009;1.555633693933487E-001;-1.173735931515694E-001;1.846952945925295E-003;7.944292156025767E-004;
2.427166666666667E+009;1.551517546176910E-001;-1.173575669527054E-001;1.919524744153023E-003;5.138684064149857E-004;
2.427333333333334E+009;1.545058488845825E-001;-1.175796911120415E-001;2.009958028793335E-003;4.264539165887982E-004;
2.427500000000000E+009;1.540152877569199E-001;-1.177204325795174E-001;2.112186513841152E-003;3.821862046606839E-004;
2.427666666666667E+009;1.531321108341217E-001;-1.180391088128090E-001;1.955650513991714E-003;2.321106294402853E-004;
2.427833333333334E+009;1.522386372089386E-001;-1.179521083831787E-001;2.159174066036940E-003;2.106108004227281E-004;
