# Version 1.00
#
freq[Hz];re:Trc1_S11;im:Trc1_S11;re:Trc2_S21;im:Trc2_S21;
2.400000000000000E+009;1.570331752300263E-001;6.055966392159462E-002;-3.303863806650043E-003;-1.454320590710267E-004;
2.400166666666667E+009;1.572160124778748E-001;5.897454172372818E-002;-3.239775309339166E-003;7.143024504330242E-006;
2.400333333333334E+009;1.571341902017593E-001;5.699225887656212E-002;-3.369199112057686E-003;2.778538910206407E-004;
2.400500000000000E+009;1.573180854320526E-001;5.505311861634255E-002;-3.265057224780321E-003;3.777398669626564E-004;
2.400666666666667E+009;1.573675870895386E-001;5.308654159307480E-002;-3.224284853786230E-003;4.737957788165659E-004;
2.400833333333334E+009;1.578054577112198E-001;5.096357688307762E-002;-3.240654477849603E-003;5.046505830250680E-004;
2.401000000000000E+009;1.580829769372940E-001;4.899431392550468E-002;-3.212253330275416E-003;7.835809956304729E-004;
2.401166666666667E+009;1.583404541015625E-001;4.687538370490074E-002;-3.204615553840995E-003;9.784556459635496E-004;
2.401333333333334E+009;1.586019992828369E-001;4.490280523896217E-002;-3.177764127030969E-003;1.007650163955987E-003;
2.401500000000000E+009;1.591446846723557E-001;4.298970475792885E-002;-3.286417573690414E-003;1.055001863278449E-003;
2.401666666666667E+009;1.595317572355270E-001;4.090629518032074E-002;-2.992992987856269E-003;1.379858353175223E-003;
2.401833333333334E+009;1.599887907505035E-001;3.899000212550163E-002;-3.025127341970801E-003;1.308971201069653E-003;
2.402000000000000E+009;1.605708450078964E-001;3.714819252490997E-002;-3.080371767282486E-003;1.252498012036085E-003;
2.402166666666667E+009;1.613691449165344E-001;3.520314395427704E-002;-2.890982665121555E-003;1.525642466731370E-003;
2.402333333333334E+009;1.617402881383896E-001;3.345249593257904E-002;-2.937043318524957E-003;1.610303879715502E-003;
2.402500000000000E+009;1.628389358520508E-001;3.159236535429955E-002;-2.703604055568576E-003;1.575253903865814E-003;
2.402666666666667E+009;1.636341661214829E-001;3.006633371114731E-002;-2.624021377414465E-003;1.718147541396320E-003;
2.402833333333334E+009;1.643429547548294E-001;2.859675884246826E-002;-2.563330810517073E-003;1.748498412780464E-003;
2.403000000000000E+009;1.654499769210815E-001;2.709709852933884E-002;-2.642343519255519E-003;1.976178493350744E-003;
2.403166666666667E+009;1.661854088306427E-001;2.566326223313808E-002;-2.296332037076354E-003;1.994976308196783E-003;
2.403333333333334E+009;1.669694632291794E-001;2.445759251713753E-002;-2.341489773243666E-003;1.910250051878393E-003;
2.403500000000000E+009;1.677832454442978E-001;2.314014546573162E-002;-2.275877865031362E-003;2.082708757370710E-003;
2.403666666666667E+009;1.688478440046310E-001;2.185061387717724E-002;-2.136249328032136E-003;2.232304541394115E-003;
2.403833333333334E+009;1.698648631572723E-001;2.079777792096138E-002;-2.135600894689560E-003;2.253853250294924E-003;
2.404000000000000E+009;1.707862764596939E-001;1.983933150768280E-002;-1.971244812011719E-003;2.387153450399637E-003;
2.404166666666667E+009;1.715328693389893E-001;1.898580230772495E-002;-1.828500768169761E-003;2.382035832852125E-003;
2.404333333333334E+009;1.725428551435471E-001;1.818903535604477E-002;-1.717454870231450E-003;2.365126973018050E-003;
2.404500000000000E+009;1.732948571443558E-001;1.703002303838730E-002;-1.727093942463398E-003;2.522322814911604E-003;
2.404666666666667E+009;1.741922944784164E-001;1.663255318999291E-002;-1.485085813328624E-003;2.464242279529572E-003;
2.404833333333334E+009;1.750506311655045E-001;1.585757918655872E-002;-1.409542164765298E-003;2.638215897604823E-003;
2.405000000000000E+009;1.756987273693085E-001;1.528158225119114E-002;-1.366233685985208E-003;2.521633636206389E-003;
2.405166666666667E+009;1.765179336071014E-001;1.472550351172686E-002;-1.255793729797006E-003;2.552521647885442E-003;
2.405333333333334E+009;1.772553622722626E-001;1.415681652724743E-002;-1.188054913654923E-003;2.621384803205729E-003;
2.405500000000000E+009;1.776075512170792E-001;1.387356407940388E-002;-1.020310446619988E-003;2.706903498619795E-003;
2.405666666666667E+009;1.782801747322083E-001;1.350502390414476E-002;-8.088836912065744E-004;2.590313553810120E-003;
2.405833333333334E+009;1.786599159240723E-001;1.333165168762207E-002;-9.080684976652265E-004;2.618680242449045E-003;
2.406000000000000E+009;1.790671050548554E-001;1.279767043888569E-002;-5.855010822415352E-004;2.545158844441176E-003;
2.406166666666667E+009;1.791635304689407E-001;1.244957558810711E-002;-6.042452878318727E-004;2.595962723717094E-003;
2.406333333333334E+009;1.796505302190781E-001;1.225201878696680E-002;-4.997393698431552E-004;2.622953848913312E-003;
2.406500000000000E+009;1.796994954347611E-001;1.199154742062092E-002;-4.232750507071614E-004;2.619241597130895E-003;
2.406666666666667E+009;1.796679645776749E-001;1.173640601336956E-002;-3.873540263157338E-004;2.685885643586516E-003;
2.406833333333334E+009;1.798300892114639E-001;1.119449082762003E-002;-2.130162174580619E-004;2.644993364810944E-003;
2.407000000000000E+009;1.797927618026733E-001;1.085263770073652E-002;-4.437079041963443E-005;2.611409639939666E-003;
2.407166666666667E+009;1.796582639217377E-001;1.062378939241171E-002;1.135318743763492E-004;2.594188321381807E-003;
2.407333333333334E+009;1.795057952404022E-001;9.993793442845345E-003;7.428440585499629E-005;2.575298771262169E-003;
2.407500000000000E+009;1.791177093982697E-001;9.556348435580730E-003;2.956739044748247E-004;2.447045408189297E-003;
2.407666666666667E+009;1.787278354167938E-001;8.952449075877667E-003;2.944958105217665E-004;2.553704427555203E-003;
2.407833333333334E+009;1.782890558242798E-001;8.135233074426651E-003;3.539813624229282E-004;2.463187556713820E-003;
2.408000000000000E+009;1.778625845909119E-001;7.494753226637840E-003;6.133716669864953E-004;2.313132863491774E-003;
2.408166666666667E+009;1.774030476808548E-001;6.741426419466734E-003;7.037782925181091E-004;2.176776994019747E-003;
2.408333333333334E+009;1.769802719354630E-001;5.905915983021259E-003;6.472415407188237E-004;2.299665939062834E-003;
2.408500000000000E+009;1.763353794813156E-001;4.804660566151142E-003;7.338856230489910E-004;2.295812824741006E-003;
2.408666666666667E+009;1.757647097110748E-001;3.950366284698248E-003;7.246486493386328E-004;2.177932765334845E-003;
2.408833333333334E+009;1.749997437000275E-001;2.746149431914091E-003;9.205439127981663E-004;2.076996490359306E-003;
2.409000000000000E+009;1.743675619363785E-001;1.454729819670320E-003;9.577070595696569E-004;2.058201935142279E-003;
2.409166666666667E+009;1.736126840114594E-001;1.708824420347810E-004;9.983023628592491E-004;1.841693301685154E-003;
2.409333333333334E+009;1.731686443090439E-001;-1.182217500172555E-003;1.025705132633448E-003;1.779966638423502E-003;
2.409500000000000E+009;1.725347042083740E-001;-2.735607093200088E-003;1.209650654345751E-003;1.805287902243435E-003;
2.409666666666667E+009;1.717604100704193E-001;-4.113158211112022E-003;1.159053179435432E-003;1.741237938404083E-003;
2.409833333333334E+009;1.710070669651032E-001;-5.573709495365620E-003;1.267641899175942E-003;1.478372607380152E-003;
2.410000000000000E+009;1.706749945878983E-001;-7.365943398326635E-003;1.293027889914811E-003;1.504109357483685E-003;
2.410166666666667E+009;1.701231151819229E-001;-9.131665341556072E-003;1.358765875920653E-003;1.321105286478996E-003;
2.410333333333334E+009;1.695246845483780E-001;-1.064725965261459E-002;1.453573349863291E-003;1.290217624045909E-003;
2.410500000000000E+009;1.690721064805985E-001;-1.260793302208185E-002;1.482364605180919E-003;1.229789922945201E-003;
2.410666666666667E+009;1.686536222696304E-001;-1.456699706614018E-002;1.389840734191239E-003;8.625256014056504E-004;
2.410833333333334E+009;1.687318086624146E-001;-1.622732356190682E-002;1.399681903421879E-003;9.904261678457260E-004;
2.411000000000000E+009;1.683731377124786E-001;-1.820141822099686E-002;1.324792974628508E-003;9.681503870524466E-004;
2.411166666666667E+009;1.680391430854797E-001;-2.006865479052067E-002;1.418969710357487E-003;7.442294736392796E-004;
2.411333333333334E+009;1.679812073707581E-001;-2.207694761455059E-002;1.377345877699554E-003;7.547551649622619E-004;
2.411500000000000E+009;1.679877489805222E-001;-2.414954453706741E-002;1.365654403343797E-003;5.583948222920299E-004;
2.411666666666667E+009;1.680134981870651E-001;-2.605755440890789E-002;1.333764288574457E-003;5.351623403839767E-004;
2.411833333333334E+009;1.682531982660294E-001;-2.772107720375061E-002;1.466121408157051E-003;4.315522674005479E-004;
2.412000000000000E+009;1.686232537031174E-001;-2.971250750124455E-002;1.272858935408294E-003;3.614662564359605E-004;
2.412166666666667E+009;1.685866564512253E-001;-3.176485374569893E-002;1.489858608692884E-003;2.369598223594949E-004;
2.412333333333334E+009;1.689941734075546E-001;-3.343603014945984E-002;1.405217335559428E-003;1.071747683454305E-004;
2.412500000000000E+009;1.693166196346283E-001;-3.519279137253761E-002;1.387504045851529E-003;1.270457414648263E-005;
2.412666666666667E+009;1.697503775358200E-001;-3.727583214640617E-002;1.275945687666535E-003;9.490676893619821E-005;
2.412833333333334E+009;1.703913658857346E-001;-3.894696384668350E-002;1.117001520469785E-003;-1.657973771216348E-004;
2.413000000000000E+009;1.708276271820068E-001;-4.059327393770218E-002;1.210503163747490E-003;-5.038108065491542E-005;
2.413166666666667E+009;1.713132709264755E-001;-4.225184768438339E-002;1.113579492084682E-003;-1.324195036431775E-004;
2.413333333333334E+009;1.717328727245331E-001;-4.391620680689812E-002;1.112508354708552E-003;-3.043971082661301E-004;
2.413500000000000E+009;1.724189221858978E-001;-4.534470662474632E-002;9.322566329501569E-004;-3.896478156093508E-004;
2.413666666666667E+009;1.730783581733704E-001;-4.679573327302933E-002;7.923723896965385E-004;-5.087842582724989E-004;
2.413833333333334E+009;1.735303997993469E-001;-4.814258962869644E-002;8.058700477704406E-004;-5.146132898516953E-004;
2.414000000000000E+009;1.740021705627441E-001;-4.946185648441315E-002;6.200805655680597E-004;-6.087638321332634E-004;
2.414166666666667E+009;1.747118681669235E-001;-5.062458664178848E-002;5.442604888230562E-004;-5.156694678589702E-004;
2.414333333333334E+009;1.751712262630463E-001;-5.156392604112625E-002;4.938736674375832E-004;-4.273367230780423E-004;
2.414500000000000E+009;1.760886162519455E-001;-5.260784551501274E-002;4.078996716998518E-004;-6.770528270862997E-004;
2.414666666666667E+009;1.763040870428085E-001;-5.357749760150909E-002;2.106181200360879E-004;-5.404619732871652E-004;
2.414833333333334E+009;1.767605543136597E-001;-5.460265651345253E-002;1.987402938539162E-004;-6.049309740774334E-004;
2.415000000000000E+009;1.771485954523087E-001;-5.519762635231018E-002;1.716401748126373E-004;-4.999049706384540E-004;
2.415166666666667E+009;1.775387972593308E-001;-5.591520294547081E-002;4.246611570124514E-005;-4.868638643529266E-004;
2.415333333333334E+009;1.778102219104767E-001;-5.665855482220650E-002;-7.860075129428878E-005;-4.801529867108911E-004;
2.415500000000000E+009;1.780367791652679E-001;-5.696035176515579E-002;-2.582936722319573E-004;-3.345482109580189E-004;
2.415666666666667E+009;1.782692670822144E-001;-5.741244554519653E-002;-2.467072044964880E-004;-2.714724105317146E-004;
2.415833333333334E+009;1.783605813980103E-001;-5.799702554941177E-002;-2.972132060676813E-004;-2.231130638392642E-004;
2.416000000000000E+009;1.781927943229675E-001;-5.817480012774468E-002;-2.997570263687521E-004;-1.298661954933778E-004;
2.416166666666667E+009;1.783227771520615E-001;-5.850844830274582E-002;-4.954831092618406E-004;-1.528600405436009E-004;
2.416333333333334E+009;1.781264096498489E-001;-5.882729589939117E-002;-3.884678008034825E-004;-2.705817314563319E-005;
2.416500000000000E+009;1.778610348701477E-001;-5.911808088421822E-002;-5.191489472053945E-004;-6.485333869932219E-005;
2.416666666666667E+009;1.775009185075760E-001;-5.929224938154221E-002;-5.686091026291251E-004;1.181962798000313E-004;
2.416833333333334E+009;1.771541088819504E-001;-5.966828763484955E-002;-4.739839641842991E-004;1.696281397016719E-004;
2.417000000000000E+009;1.764433532953262E-001;-5.991831049323082E-002;-6.186029640957713E-004;2.786404220387340E-004;
2.417166666666667E+009;1.759085655212402E-001;-6.002813205122948E-002;-6.217410555109382E-004;2.970776695292443E-004;
2.417333333333334E+009;1.753318905830383E-001;-6.018216907978058E-002;-4.775744455400854E-004;3.209732531104237E-004;
2.417500000000000E+009;1.744384765625000E-001;-6.072973087430000E-002;-5.205465713515878E-004;4.223830765113235E-004;
2.417666666666667E+009;1.737902760505676E-001;-6.084171310067177E-002;-3.842402948066592E-004;4.679603443946689E-004;
2.417833333333334E+009;1.728641539812088E-001;-6.116724386811256E-002;-4.230285412631929E-004;7.316987030208111E-004;
2.418000000000000E+009;1.718053668737412E-001;-6.168624013662338E-002;-4.635923542082310E-004;5.578290438279510E-004;
2.418166666666667E+009;1.707602590322495E-001;-6.189031153917313E-002;-2.742504002526403E-004;6.309539894573391E-004;
2.418333333333334E+009;1.699201613664627E-001;-6.247475370764732E-002;-2.712503192014992E-004;8.028646698221564E-004;
2.418500000000000E+009;1.686539947986603E-001;-6.295846402645111E-002;-2.210823295172304E-004;7.702803122811019E-004;
2.418666666666667E+009;1.675510704517365E-001;-6.367351114749908E-002;-2.422779361950234E-004;8.257131557911634E-004;
2.418833333333334E+009;1.661907732486725E-001;-6.434139609336853E-002;-2.293621218996123E-004;8.539892151020467E-004;
2.419000000000000E+009;1.648973524570465E-001;-6.507213413715363E-002;-1.519312645541504E-004;8.547590114176273E-004;
2.419166666666667E+009;1.637718975543976E-001;-6.594789773225784E-002;-2.118008269462735E-004;8.616040577180684E-004;
2.419333333333334E+009;1.624408066272736E-001;-6.654547899961472E-002;-1.018367329379544E-004;7.703527226112783E-004;
2.419500000000000E+009;1.613666415214539E-001;-6.766019016504288E-002;-1.118393702199683E-004;9.253690368495882E-004;
2.419666666666667E+009;1.601417362689972E-001;-6.876750290393829E-002;-8.908147719921544E-005;8.979035774245858E-004;
2.419833333333334E+009;1.590426117181778E-001;-6.962004303932190E-002;-4.431125489645638E-005;8.337512263096869E-004;
2.420000000000000E+009;1.579945981502533E-001;-7.091233879327774E-002;6.222191586857662E-005;9.935371344909072E-004;
2.420166666666667E+009;1.567294448614121E-001;-7.216861844062805E-002;6.668004061793909E-005;1.145270303823054E-003;
2.420333333333334E+009;1.558728367090225E-001;-7.349324226379395E-002;5.284193684929051E-005;1.111157005652785E-003;
2.420500000000000E+009;1.549473404884338E-001;-7.483603060245514E-002;9.084027988137677E-005;1.134625519625843E-003;
2.420666666666667E+009;1.540131568908691E-001;-7.605043798685074E-002;2.072044007945806E-004;1.200118218548596E-003;
2.420833333333334E+009;1.530083119869232E-001;-7.781555503606796E-002;2.833317266777158E-004;9.647741098888218E-004;
2.421000000000000E+009;1.521754264831543E-001;-7.926651835441589E-002;3.021577431354672E-004;9.563376661390066E-004;
2.421166666666667E+009;1.516009718179703E-001;-8.064528554677963E-002;4.069663700647652E-004;9.770932374522090E-004;
2.421333333333334E+009;1.511044949293137E-001;-8.220784366130829E-002;3.297081275377423E-004;9.318768861703575E-004;
2.421500000000000E+009;1.504863947629929E-001;-8.388869464397430E-002;3.683473623823375E-004;9.745953720994294E-004;
2.421666666666667E+009;1.500611901283264E-001;-8.548948913812637E-002;3.093920822720975E-004;1.090768142603338E-003;
2.421833333333334E+009;1.497625261545181E-001;-8.729576319456101E-002;3.916086279787123E-004;1.021433388814330E-003;
2.422000000000000E+009;1.493759900331497E-001;-8.887533098459244E-002;4.777685389854014E-004;9.158710599876940E-004;
2.422166666666667E+009;1.493658423423767E-001;-9.065054357051849E-002;2.498020767234266E-004;1.131082884967327E-003;
2.422333333333334E+009;1.493530571460724E-001;-9.206798672676086E-002;3.592325956560671E-004;9.221663349308074E-004;
2.422500000000000E+009;1.490513682365418E-001;-9.380737692117691E-002;4.406555381137878E-004;1.029978273436427E-003;
2.422666666666667E+009;1.492014080286026E-001;-9.544345736503601E-002;6.025998736731708E-004;1.004219986498356E-003;
2.422833333333334E+009;1.493903249502182E-001;-9.708774089813232E-002;4.152053443249315E-004;1.185042900033295E-003;
2.423000000000000E+009;1.496477872133255E-001;-9.863660484552383E-002;5.812941235490143E-004;1.222531194798648E-003;
2.423166666666667E+009;1.499414741992950E-001;-1.001004949212074E-001;5.276577430777252E-004;1.087240991182625E-003;
2.423333333333334E+009;1.502150744199753E-001;-1.015178933739662E-001;4.892903962172568E-004;9.999822359532118E-004;
2.423500000000000E+009;1.506495624780655E-001;-1.030333489179611E-001;5.820473888888955E-004;1.174554810859263E-003;
2.423666666666667E+009;1.509482115507126E-001;-1.044828817248344E-001;7.421802147291601E-004;1.035689841955900E-003;
2.423833333333334E+009;1.515055447816849E-001;-1.058323532342911E-001;7.460773922502995E-004;1.225406653247774E-003;
2.424000000000000E+009;1.518757790327072E-001;-1.070380508899689E-001;6.809348124079406E-004;1.193921896629036E-003;
2.424166666666667E+009;1.523459851741791E-001;-1.081682592630386E-001;9.046047925949097E-004;1.333374180831015E-003;
2.424333333333334E+009;1.529608368873596E-001;-1.091761589050293E-001;9.873033268377185E-004;1.311309868469834E-003;
2.424500000000000E+009;1.533948630094528E-001;-1.102901399135590E-001;9.842987637966871E-004;1.134250778704882E-003;
2.424666666666667E+009;1.540258079767227E-001;-1.109740063548088E-001;1.128148287534714E-003;1.298589049838483E-003;
2.424833333333334E+009;1.542504876852036E-001;-1.118891015648842E-001;1.160935498774052E-003;1.162256929092109E-003;
2.425000000000000E+009;1.548266261816025E-001;-1.127957999706268E-001;1.270601060241461E-003;1.270644599571824E-003;
2.425166666666667E+009;1.549930721521378E-001;-1.135412901639938E-001;1.168865128420293E-003;1.287173363380134E-003;
2.425333333333334E+009;1.555968225002289E-001;-1.140891090035439E-001;1.317515503615141E-003;1.204690663143992E-003;
2.425500000000000E+009;1.560314446687698E-001;-1.147451624274254E-001;1.412673271261156E-003;1.097654458135366E-003;
2.425666666666667E+009;1.560017764568329E-001;-1.152815520763397E-001;1.346177188679576E-003;1.172841875813901E-003;
2.425833333333334E+009;1.561452001333237E-001;-1.156808584928513E-001;1.521317986771464E-003;1.056897919625044E-003;
2.426000000000000E+009;1.564234942197800E-001;-1.161488369107246E-001;1.674111699685454E-003;9.422212606295943E-004;
2.426166666666667E+009;1.565341949462891E-001;-1.164100319147110E-001;1.626315061002970E-003;8.172226371243596E-004;
2.426333333333334E+009;1.564047485589981E-001;-1.167520210146904E-001;1.722751883789897E-003;9.541912586428225E-004;
2.426500000000000E+009;1.563605219125748E-001;-1.168832406401634E-001;1.756380312144756E-003;8.837254135869443E-004;
2.426666666666667E+009;1.563832163810730E-001;-1.169663667678833E-001;1.869371859356761E-003;8.278386667370796E-004;
2.426833333333334E+009;1.559014171361923E-001;-1.171434670686722E-001;2.050132257863879E-003;7.344743935391307E-004;
2.427000000000000E+009;1.556027978658676E-001;-1.174405589699745E-001;1.865455880761147E-003;6.427201442420483E-004;
2.427166666666667E+009;1.551290452480316E-001;-1.173645108938217E-001;2.027736976742744E-003;5.218266160227358E-004;
2.427333333333334E+009;1.545096337795258E-001;-1.175698488950729E-001;2.079688012599945E-003;4.969054716639221E-004;
2.427500000000000E+009;1.540086716413498E-001;-1.176419705152512E-001;2.138024196028709E-003;4.083965031895787E-004;
2.427666666666667E+009;1.532200425863266E-001;-1.179238259792328E-001;1.981445355340838E-003;3.672959865070880E-004;
2.427833333333334E+009;1.523675471544266E-001;-1.180997118353844E-001;2.120058750733733E-003;1.756093843141571E-004;
