# Version 1.00
#
freq[Hz];re:Trc1_S11;im:Trc1_S11;re:Trc2_S21;im:Trc2_S21;
2.400000000000000E+009;1.571817398071289E-001;6.069993600249291E-002;-3.196873934939504E-003;2.909159047703724E-005;
2.400166666666667E+009;1.570510417222977E-001;5.904059857130051E-002;-2.990163397043943E-003;2.298601975780912E-005;
2.400333333333334E+009;1.573139578104019E-001;5.688971653580666E-002;-3.303667064756155E-003;4.566816787701100E-004;
2.400500000000000E+009;1.574577987194061E-001;5.496472865343094E-002;-3.452361328527331E-003;4.042044747620821E-004;
2.400666666666667E+009;1.574533730745316E-001;5.297522619366646E-002;-3.355288645252585E-003;6.060162559151650E-004;
2.400833333333334E+009;1.575986444950104E-001;5.105000361800194E-002;-3.119047265499830E-003;3.586919629015029E-004;
2.401000000000000E+009;1.579443812370300E-001;4.892810434103012E-002;-3.630000865086913E-003;9.530349052511156E-004;
2.401166666666667E+009;1.584577411413193E-001;4.687323793768883E-002;-3.619213355705142E-003;1.022650394588709E-003;
2.401333333333334E+009;1.586889475584030E-001;4.484723880887032E-002;-3.397367894649506E-003;1.047458499670029E-003;
2.401500000000000E+009;1.590851694345474E-001;4.275909438729286E-002;-2.807401586323977E-003;9.070820524357259E-004;
2.401666666666667E+009;1.598009318113327E-001;4.098976403474808E-002;-3.166064154356718E-003;1.211530878208578E-003;
2.401833333333334E+009;1.601482927799225E-001;3.899814188480377E-002;-3.272926900535822E-003;1.335911452770233E-003;
2.402000000000000E+009;1.605878025293350E-001;3.701133280992508E-002;-2.850991906598210E-003;1.369412289932370E-003;
2.402166666666667E+009;1.613269597291946E-001;3.498292714357376E-002;-2.807317767292261E-003;1.555477152578533E-003;
2.402333333333334E+009;1.619691699743271E-001;3.346048668026924E-002;-2.807416021823883E-003;1.535599469207227E-003;
2.402500000000000E+009;1.627949476242065E-001;3.157214447855949E-002;-2.534904750064015E-003;1.657687709666789E-003;
2.402666666666667E+009;1.637183874845505E-001;3.016934357583523E-002;-2.650397829711437E-003;1.918436842970550E-003;
2.402833333333334E+009;1.644458919763565E-001;2.855500206351280E-002;-2.636512508615851E-003;1.798263052478433E-003;
2.403000000000000E+009;1.652077883481979E-001;2.702197059988976E-002;-2.582387998700142E-003;1.699950778856874E-003;
2.403166666666667E+009;1.661769300699234E-001;2.559621259570122E-002;-2.437105868011713E-003;2.080391161143780E-003;
2.403333333333334E+009;1.669718176126480E-001;2.429246157407761E-002;-2.343089319765568E-003;1.951047452166677E-003;
2.403500000000000E+009;1.678085178136826E-001;2.321439981460571E-002;-2.343442058190703E-003;2.077041426673532E-003;
2.403666666666667E+009;1.688315421342850E-001;2.187362872064114E-002;-2.142224460840225E-003;2.219245303422213E-003;
2.403833333333334E+009;1.699588745832443E-001;2.079048566520214E-002;-1.946012373082340E-003;2.251485362648964E-003;
2.404000000000000E+009;1.707886755466461E-001;1.981288008391857E-002;-1.825965358875692E-003;2.358134370297194E-003;
2.404166666666667E+009;1.717363595962524E-001;1.867895387113094E-002;-1.852785120718181E-003;2.261547371745110E-003;
2.404333333333334E+009;1.726436614990234E-001;1.793421246111393E-002;-1.633335486985743E-003;2.501386916264892E-003;
2.404500000000000E+009;1.733761131763458E-001;1.700839400291443E-002;-1.685112947598100E-003;2.421148121356964E-003;
2.404666666666667E+009;1.742653101682663E-001;1.650025881826878E-002;-1.565691316500306E-003;2.522816648706794E-003;
2.404833333333334E+009;1.750968247652054E-001;1.574937067925930E-002;-1.427143812179565E-003;2.504849573597312E-003;
2.405000000000000E+009;1.757058799266815E-001;1.519928779453039E-002;-1.195023884065449E-003;2.485126489773393E-003;
2.405166666666667E+009;1.764851510524750E-001;1.454880926758051E-002;-1.334163360297680E-003;2.627817448228598E-003;
2.405333333333334E+009;1.773991733789444E-001;1.409369986504316E-002;-1.080383430235088E-003;2.614320255815983E-003;
2.405500000000000E+009;1.777942776679993E-001;1.381677016615868E-002;-1.132943434640765E-003;2.789897145703435E-003;
2.405666666666667E+009;1.783183068037033E-001;1.345095690339804E-002;-9.000120917335153E-004;2.662838203832507E-003;
2.405833333333334E+009;1.786115914583206E-001;1.333338767290115E-002;-7.960376678965986E-004;2.551780315116048E-003;
2.406000000000000E+009;1.791062951087952E-001;1.273609977215529E-002;-5.956966779194772E-004;2.730638487264514E-003;
2.406166666666667E+009;1.792562752962112E-001;1.253729220479727E-002;-5.375485052354634E-004;2.828363329172134E-003;
2.406333333333334E+009;1.796475946903229E-001;1.233987696468830E-002;-3.992619749624282E-004;2.663965336978436E-003;
2.406500000000000E+009;1.797500997781754E-001;1.189207658171654E-002;-3.332985797896981E-004;2.668080851435661E-003;
2.406666666666667E+009;1.796138137578964E-001;1.171679329127073E-002;-1.396796578774229E-004;2.635078039020300E-003;
2.406833333333334E+009;1.797246634960175E-001;1.121817529201508E-002;-1.699731219559908E-004;2.696840791031718E-003;
2.407000000000000E+009;1.797325462102890E-001;1.072654593735933E-002;-1.394563296344131E-004;2.559351036325097E-003;
2.407166666666667E+009;1.797144562005997E-001;1.041101664304733E-002;1.077494016499259E-004;2.604301087558270E-003;
2.407333333333334E+009;1.794077306985855E-001;9.884590283036232E-003;2.846367715392262E-005;2.447979990392923E-003;
2.407500000000000E+009;1.791783273220062E-001;9.464172646403313E-003;3.274112823419273E-004;2.507992321625352E-003;
2.407666666666667E+009;1.787575781345367E-001;8.895849809050560E-003;3.303226549178362E-004;2.653199248015881E-003;
2.407833333333334E+009;1.783151477575302E-001;8.152883499860764E-003;3.481035528238863E-004;2.476012334227562E-003;
2.408000000000000E+009;1.778130233287811E-001;7.347451057285070E-003;6.477924180217087E-004;2.380013931542635E-003;
2.408166666666667E+009;1.772505939006805E-001;6.650087423622608E-003;7.237902609631419E-004;2.159662544727325E-003;
2.408333333333334E+009;1.769061684608460E-001;5.699072033166885E-003;6.451118388213217E-004;2.138737123459578E-003;
2.408500000000000E+009;1.762360781431198E-001;4.740922246128321E-003;8.575783576816320E-004;2.167222555726767E-003;
2.408666666666667E+009;1.756708323955536E-001;3.613315988332033E-003;1.031754422001541E-003;1.947837648913264E-003;
2.408833333333334E+009;1.749025881290436E-001;2.506970893591642E-003;1.011650194413960E-003;1.899238210171461E-003;
2.409000000000000E+009;1.741593033075333E-001;1.429622643627226E-003;1.007664250209928E-003;1.943697687238455E-003;
2.409166666666667E+009;1.736246794462204E-001;9.472910460317507E-005;1.092558144591749E-003;1.895290566608310E-003;
2.409333333333334E+009;1.731257438659668E-001;-1.305288635194302E-003;1.139314845204353E-003;1.733830431476235E-003;
2.409500000000000E+009;1.723950803279877E-001;-2.735996386036277E-003;1.186775974929333E-003;1.674891915172339E-003;
2.409666666666667E+009;1.715558171272278E-001;-4.159471485763788E-003;1.154457568190992E-003;1.572519890032709E-003;
2.409833333333334E+009;1.711489111185074E-001;-5.579193122684956E-003;1.280469936318696E-003;1.505523687228560E-003;
2.410000000000000E+009;1.706270277500153E-001;-7.379696704447269E-003;1.243714126758277E-003;1.389179029501975E-003;
2.410166666666667E+009;1.700244992971420E-001;-8.905507624149323E-003;1.428581657819450E-003;1.439749030396342E-003;
2.410333333333334E+009;1.694196611642838E-001;-1.068843062967062E-002;1.496593118645251E-003;1.263453741557896E-003;
2.410500000000000E+009;1.690836995840073E-001;-1.267415471374989E-002;1.338001107797027E-003;1.300158444792032E-003;
2.410666666666667E+009;1.687870770692825E-001;-1.434536837041378E-002;1.465592766180635E-003;1.213999581523240E-003;
2.410833333333334E+009;1.687184721231461E-001;-1.634714938700199E-002;1.475509372539818E-003;1.029423205181956E-003;
2.411000000000000E+009;1.683266162872315E-001;-1.794441230595112E-002;1.520282705314457E-003;9.650190477259457E-004;
2.411166666666667E+009;1.680504679679871E-001;-2.032026648521423E-002;1.336874789558351E-003;8.298851898871362E-004;
2.411333333333334E+009;1.680153012275696E-001;-2.189395576715469E-002;1.580866519361734E-003;8.593367529101670E-004;
2.411500000000000E+009;1.679097712039948E-001;-2.414985559880734E-002;1.395463361404836E-003;7.195374346338213E-004;
2.411666666666667E+009;1.681802123785019E-001;-2.590277418494225E-002;1.447609392926097E-003;7.425376097671688E-004;
2.411833333333334E+009;1.680974513292313E-001;-2.781689353287220E-002;1.403387868776918E-003;6.154054426588118E-004;
2.412000000000000E+009;1.684143245220184E-001;-2.972131036221981E-002;1.397749292664230E-003;5.118471453897655E-004;
2.412166666666667E+009;1.687170863151550E-001;-3.163871169090271E-002;1.317939721047878E-003;2.194431872339919E-004;
2.412333333333334E+009;1.689998507499695E-001;-3.341683372855187E-002;1.255240174941719E-003;3.267080755904317E-004;
2.412500000000000E+009;1.693056076765060E-001;-3.528147190809250E-002;1.412995741702616E-003;7.566206477349624E-005;
2.412666666666667E+009;1.698175370693207E-001;-3.719580173492432E-002;1.206441665999591E-003;4.803561387234367E-005;
2.412833333333334E+009;1.703189313411713E-001;-3.901113942265511E-002;1.254926784895361E-003;-1.206519664265215E-004;
2.413000000000000E+009;1.707682907581329E-001;-4.075809195637703E-002;1.221949001774192E-003;-9.871285328699742E-006;
2.413166666666667E+009;1.712926775217056E-001;-4.235194995999336E-002;1.135402475483716E-003;-1.808880042517558E-004;
2.413333333333334E+009;1.719309091567993E-001;-4.394105076789856E-002;1.067217672243714E-003;-2.477687376085669E-004;
2.413500000000000E+009;1.725358814001083E-001;-4.524143785238266E-002;9.233945747837424E-004;-4.346283676568419E-004;
2.413666666666667E+009;1.730937361717224E-001;-4.695437103509903E-002;9.406068129464984E-004;-4.589269228745252E-004;
2.413833333333334E+009;1.735028922557831E-001;-4.812455549836159E-002;7.331229280680418E-004;-4.739605938084424E-004;
2.414000000000000E+009;1.740318983793259E-001;-4.937811940908432E-002;7.841552142053843E-004;-5.382918170653284E-004;
2.414166666666667E+009;1.747533679008484E-001;-5.070168897509575E-002;6.085341447032988E-004;-5.322045180946589E-004;
2.414333333333334E+009;1.753564029932022E-001;-5.164818838238716E-002;3.405120805837214E-004;-4.860438930336386E-004;
2.414500000000000E+009;1.760496497154236E-001;-5.268017947673798E-002;3.330622857902199E-004;-4.932981100864708E-004;
2.414666666666667E+009;1.763396561145783E-001;-5.350933223962784E-002;3.122692869510502E-004;-4.810487153008580E-004;
2.414833333333334E+009;1.767364740371704E-001;-5.442847684025765E-002;2.332704025320709E-004;-6.280479137785733E-004;
2.415000000000000E+009;1.771961748600006E-001;-5.525873228907585E-002;8.752903522690758E-005;-4.888252005912364E-004;
2.415166666666667E+009;1.775296628475189E-001;-5.581877380609512E-002;1.331447492702864E-006;-5.793499294668436E-004;
2.415333333333334E+009;1.781056672334671E-001;-5.656555294990540E-002;-1.774081465555355E-004;-5.155989783816040E-004;
2.415500000000000E+009;1.780808120965958E-001;-5.706891417503357E-002;-2.191170497098938E-004;-4.241720016580075E-004;
2.415666666666667E+009;1.782281249761581E-001;-5.742325633764267E-002;-2.354569296585396E-004;-2.849968441296369E-004;
2.415833333333334E+009;1.784306913614273E-001;-5.775769054889679E-002;-2.775138709694147E-004;-2.926583401858807E-004;
2.416000000000000E+009;1.782711297273636E-001;-5.813712254166603E-002;-3.254023613408208E-004;-9.751746256370097E-005;
2.416166666666667E+009;1.783555895090103E-001;-5.861084535717964E-002;-3.949064703192562E-004;-1.282656012335792E-004;
2.416333333333334E+009;1.781015396118164E-001;-5.871675163507462E-002;-4.904686938971281E-004;-7.375494897132739E-005;
2.416500000000000E+009;1.779846847057343E-001;-5.911592394113541E-002;-4.209359176456928E-004;6.186182145029306E-005;
2.416666666666667E+009;1.776260435581207E-001;-5.928001925349236E-002;-4.377117147669196E-004;8.824357064440846E-005;
2.416833333333334E+009;1.771861612796783E-001;-5.968818813562393E-002;-3.456264676060528E-004;1.318651629844680E-004;
2.417000000000000E+009;1.765092760324478E-001;-5.989803746342659E-002;-4.164009005762637E-004;1.327151258010417E-004;
2.417166666666667E+009;1.759549826383591E-001;-5.996559932827950E-002;-3.348901227582246E-004;2.826614072546363E-004;
2.417333333333334E+009;1.753263622522354E-001;-6.019965559244156E-002;-4.234982188791037E-004;4.730258369818330E-004;
2.417500000000000E+009;1.744544208049774E-001;-6.063695624470711E-002;-4.609452153090388E-004;4.876412858720869E-004;
2.417666666666667E+009;1.738295108079910E-001;-6.082933768630028E-002;-4.809108795598149E-004;4.095226468052715E-004;
2.417833333333334E+009;1.727391630411148E-001;-6.113864108920097E-002;-4.930004361085594E-004;7.132687023840845E-004;
2.418000000000000E+009;1.717344373464584E-001;-6.168343499302864E-002;-3.273092734161764E-004;6.904302863404155E-004;
2.418166666666667E+009;1.707694083452225E-001;-6.188862770795822E-002;-2.532859507482499E-004;6.824795855209231E-004;
2.418333333333334E+009;1.698952019214630E-001;-6.252111494541168E-002;-2.816905616782606E-004;7.696531829424202E-004;
2.418500000000000E+009;1.686536818742752E-001;-6.302801519632340E-002;-2.758888876996934E-004;7.657893584109843E-004;
2.418666666666667E+009;1.675840914249420E-001;-6.354355067014694E-002;-3.818662080448121E-004;8.227910730056465E-004;
2.418833333333334E+009;1.662949174642563E-001;-6.430427730083466E-002;-1.123760739574209E-004;8.606624323874712E-004;
2.419000000000000E+009;1.649529635906220E-001;-6.497966498136520E-002;-1.858035248005763E-004;7.280833669938147E-004;
2.419166666666667E+009;1.638040840625763E-001;-6.582847237586975E-002;-3.125527291558683E-004;8.166224579326809E-004;
2.419333333333334E+009;1.623598784208298E-001;-6.643519550561905E-002;-1.040662609739229E-004;9.753241320140660E-004;
2.419500000000000E+009;1.612987965345383E-001;-6.776726245880127E-002;-2.194388362113386E-004;1.003618817776442E-003;
2.419666666666667E+009;1.602486670017242E-001;-6.862906366586685E-002;-1.042778021655977E-004;1.000083866529167E-003;
2.419833333333334E+009;1.589449197053909E-001;-6.968379765748978E-002;-8.498261013301089E-005;9.171562269330025E-004;
2.420000000000000E+009;1.579541265964508E-001;-7.092353701591492E-002;3.486840796540491E-005;1.062875962816179E-003;
2.420166666666667E+009;1.568783074617386E-001;-7.219786942005158E-002;7.916634058346972E-005;8.592696976847947E-004;
2.420333333333334E+009;1.558895707130432E-001;-7.347069680690765E-002;1.781253558874596E-005;1.049482263624668E-003;
2.420500000000000E+009;1.549222916364670E-001;-7.478429377079010E-002;1.322934986092150E-004;1.174348290078342E-003;
2.420666666666667E+009;1.540192812681198E-001;-7.610343396663666E-002;1.560792006785050E-004;9.575434960424900E-004;
2.420833333333334E+009;1.530793160200119E-001;-7.758409529924393E-002;2.060856204479933E-004;1.139094121754170E-003;
2.421000000000000E+009;1.522434204816818E-001;-7.917258888483048E-002;3.399765701033175E-004;9.547495865263045E-004;
2.421166666666667E+009;1.517301946878433E-001;-8.089423179626465E-002;3.350935003254563E-004;1.014471519738436E-003;
2.421333333333334E+009;1.511906534433365E-001;-8.224076032638550E-002;4.170607717242092E-004;1.117604319006205E-003;
2.421500000000000E+009;1.505223661661148E-001;-8.375967293977737E-002;3.521616454236209E-004;1.038364367559552E-003;
2.421666666666667E+009;1.501742452383041E-001;-8.560006320476532E-002;3.277850046288222E-004;1.096764230169356E-003;
2.421833333333334E+009;1.497474610805512E-001;-8.718976378440857E-002;3.862073644995689E-004;1.026683603413403E-003;
2.422000000000000E+009;1.494385898113251E-001;-8.880401402711868E-002;3.881935263052583E-004;9.927767096087337E-004;
2.422166666666667E+009;1.493804007768631E-001;-9.083897620439529E-002;3.483614418655634E-004;1.122645218856633E-003;
2.422333333333334E+009;1.492796540260315E-001;-9.224188327789307E-002;5.023119156248868E-004;1.018716953694820E-003;
2.422500000000000E+009;1.492511481046677E-001;-9.385199844837189E-002;5.497300298884511E-004;1.151907141320407E-003;
2.422666666666667E+009;1.492240726947784E-001;-9.555816650390625E-002;4.554611223284155E-004;1.044624950736761E-003;
2.422833333333334E+009;1.495041400194168E-001;-9.723765403032303E-002;5.786465480923653E-004;1.052779494784772E-003;
2.423000000000000E+009;1.497175395488739E-001;-9.871259331703186E-002;5.603291792795062E-004;9.694884647615254E-004;
2.423166666666667E+009;1.500703841447830E-001;-1.003361269831657E-001;6.967837689444423E-004;1.162402797490358E-003;
2.423333333333334E+009;1.503423601388931E-001;-1.015402227640152E-001;5.045671132393181E-004;1.060596201568842E-003;
2.423500000000000E+009;1.505910307168961E-001;-1.031061336398125E-001;6.821698625572026E-004;1.116577186621726E-003;
2.423666666666667E+009;1.509038358926773E-001;-1.047554835677147E-001;6.426112959161401E-004;9.619641932658851E-004;
2.423833333333334E+009;1.514025628566742E-001;-1.059805452823639E-001;6.414887611754239E-004;1.184607273899019E-003;
2.424000000000000E+009;1.517963111400604E-001;-1.070921868085861E-001;9.363355929963291E-004;1.165806083008647E-003;
2.424166666666667E+009;1.522293835878372E-001;-1.082214191555977E-001;7.804916240274906E-004;1.221026876010001E-003;
2.424333333333334E+009;1.528619974851608E-001;-1.092198118567467E-001;9.015995892696083E-004;1.213992596603930E-003;
2.424500000000000E+009;1.534226536750794E-001;-1.104341894388199E-001;7.579081575386226E-004;1.202524057589471E-003;
2.424666666666667E+009;1.540077626705170E-001;-1.110303625464439E-001;1.067333738319576E-003;1.242056954652071E-003;
2.424833333333334E+009;1.541620045900345E-001;-1.119871810078621E-001;9.308909066021442E-004;1.161332824267447E-003;
2.425000000000000E+009;1.547297537326813E-001;-1.129237264394760E-001;1.150106312707067E-003;1.004360616207123E-003;
2.425166666666667E+009;1.550003290176392E-001;-1.134936362504959E-001;1.203858410008252E-003;1.107268035411835E-003;
2.425333333333334E+009;1.554895192384720E-001;-1.141501069068909E-001;1.330668805167079E-003;1.201699953526259E-003;
2.425500000000000E+009;1.558676958084106E-001;-1.147986277937889E-001;1.273478497751057E-003;1.118322368711233E-003;
2.425666666666667E+009;1.558468043804169E-001;-1.153098270297051E-001;1.514952047728002E-003;1.158620114438236E-003;
2.425833333333334E+009;1.562848091125488E-001;-1.155529841780663E-001;1.478631980717182E-003;1.113263540901244E-003;
2.426000000000000E+009;1.564093083143234E-001;-1.160822808742523E-001;1.577126211486757E-003;1.040087663568556E-003;
2.426166666666667E+009;1.565564870834351E-001;-1.164771988987923E-001;1.613724743947387E-003;9.604771621525288E-004;
2.426333333333334E+009;1.564240902662277E-001;-1.167057529091835E-001;1.661214977502823E-003;8.924414869397879E-004;
2.426500000000000E+009;1.563286334276199E-001;-1.169336587190628E-001;1.761195133440197E-003;8.399949874728918E-004;
2.426666666666667E+009;1.563378423452377E-001;-1.168978810310364E-001;1.960148103535175E-003;8.088146569207311E-004;
2.426833333333334E+009;1.560202687978745E-001;-1.170797795057297E-001;1.944455783814192E-003;7.049129344522953E-004;
2.427000000000000E+009;1.556606590747833E-001;-1.174007877707481E-001;1.954221865162253E-003;5.423133261501789E-004;
2.427166666666667E+009;1.552288532257080E-001;-1.173740550875664E-001;1.937965978868306E-003;5.266498192213476E-004;
2.427333333333334E+009;1.546258032321930E-001;-1.175462901592255E-001;1.926686847582459E-003;5.665817880071700E-004;
2.427500000000000E+009;1.540480703115463E-001;-1.176095381379128E-001;2.015089616179466E-003;2.477720263414085E-004;
2.427666666666667E+009;1.532485038042069E-001;-1.179804578423500E-001;2.292245393618941E-003;2.915504446718842E-004;
2.427833333333334E+009;1.523951739072800E-001;-1.180430576205254E-001;2.203194424510002E-003;2.153964014723897E-004;
