# Version 1.00
#
freq[Hz];re:Trc1_S11;im:Trc1_S11;re:Trc2_S21;im:Trc2_S21;
2.400000000000000E+009;1.570769995450974E-001;6.058694049715996E-002;-3.131355391815305E-003;2.739736919465940E-005;
2.400166666666667E+009;1.571798473596573E-001;5.892186239361763E-002;-3.299472853541374E-003;7.240183913381770E-005;
2.400333333333334E+009;1.571669131517410E-001;5.697507783770561E-002;-3.243700135499239E-003;2.420565579086542E-004;
2.400500000000000E+009;1.573526114225388E-001;5.495890974998474E-002;-3.214001888409257E-003;3.992217825725675E-004;
2.400666666666667E+009;1.574283987283707E-001;5.293998494744301E-002;-3.186515532433987E-003;6.055719568394125E-004;
2.400833333333334E+009;1.577924489974976E-001;5.100500956177712E-002;-3.215851960703731E-003;7.002084748819470E-004;
2.401000000000000E+009;1.579603999853134E-001;4.873241856694222E-002;-3.087645862251520E-003;7.856897427700460E-004;
2.401166666666667E+009;1.583214551210403E-001;4.684884846210480E-002;-3.199618076905608E-003;7.702962611801922E-004;
2.401333333333334E+009;1.585560441017151E-001;4.497488215565682E-002;-3.053776454180479E-003;9.994914289563894E-004;
2.401500000000000E+009;1.591535806655884E-001;4.274166002869606E-002;-3.090600715950131E-003;1.078776316717267E-003;
2.401666666666667E+009;1.596914231777191E-001;4.096231982111931E-002;-3.144481452181935E-003;1.093303668312728E-003;
2.401833333333334E+009;1.601747125387192E-001;3.903162479400635E-002;-3.034244524315000E-003;1.200802624225617E-003;
2.402000000000000E+009;1.604501157999039E-001;3.712859749794006E-002;-2.963369945064187E-003;1.301465556025505E-003;
2.402166666666667E+009;1.613304316997528E-001;3.512825071811676E-002;-2.850743010640144E-003;1.435225480236113E-003;
2.402333333333334E+009;1.618512719869614E-001;3.342748433351517E-002;-2.881854306906462E-003;1.563303871080279E-003;
2.402500000000000E+009;1.628582030534744E-001;3.177408128976822E-002;-2.718588104471564E-003;1.615048153325915E-003;
2.402666666666667E+009;1.635587662458420E-001;3.000881895422936E-002;-2.769794547930360E-003;1.687383162789047E-003;
2.402833333333334E+009;1.644198447465897E-001;2.851707302033901E-002;-2.648345660418272E-003;1.751225674524903E-003;
2.403000000000000E+009;1.650920659303665E-001;2.705642208456993E-002;-2.535494975745678E-003;1.965599833056331E-003;
2.403166666666667E+009;1.660164296627045E-001;2.569647878408432E-002;-2.286659087985754E-003;1.979828346520662E-003;
2.403333333333334E+009;1.671003401279450E-001;2.439642325043678E-002;-2.287311479449272E-003;1.953620696440339E-003;
2.403500000000000E+009;1.679366976022720E-001;2.310322783887386E-002;-2.361421938985586E-003;2.299792133271694E-003;
2.403666666666667E+009;1.688053309917450E-001;2.178025804460049E-002;-2.215962857007980E-003;2.227738499641419E-003;
2.403833333333334E+009;1.699310541152954E-001;2.081161364912987E-002;-2.119666198268533E-003;2.291919197887182E-003;
2.404000000000000E+009;1.708154231309891E-001;1.992225274443626E-002;-1.908739912323654E-003;2.341458573937416E-003;
2.404166666666667E+009;1.715523004531860E-001;1.889839209616184E-002;-2.010121708735824E-003;2.533920342102647E-003;
2.404333333333334E+009;1.725750863552094E-001;1.791705191135407E-002;-1.780919265002012E-003;2.498627174645662E-003;
2.404500000000000E+009;1.732141375541687E-001;1.718018949031830E-002;-1.497398712672293E-003;2.539889421314001E-003;
2.404666666666667E+009;1.741402894258499E-001;1.640311442315579E-002;-1.681481604464352E-003;2.679878845810890E-003;
2.404833333333334E+009;1.750406473875046E-001;1.586929522454739E-002;-1.585956197232008E-003;2.598962513729930E-003;
2.405000000000000E+009;1.757469922304153E-001;1.533689443022013E-002;-1.229772693477571E-003;2.629883121699095E-003;
2.405166666666667E+009;1.764062196016312E-001;1.469967234879732E-002;-1.276334282010794E-003;2.600243780761957E-003;
2.405333333333334E+009;1.772163212299347E-001;1.412563305348158E-002;-9.875022806227207E-004;2.576061757281423E-003;
2.405500000000000E+009;1.778274774551392E-001;1.381535548716784E-002;-9.642794611863792E-004;2.553149824962020E-003;
2.405666666666667E+009;1.782491207122803E-001;1.353670191019774E-002;-8.511568885296583E-004;2.686636988073587E-003;
2.405833333333334E+009;1.785071492195129E-001;1.316913869231939E-002;-8.462957339361310E-004;2.546337433159351E-003;
2.406000000000000E+009;1.791419237852097E-001;1.280493941158056E-002;-7.126879645511508E-004;2.682523336261511E-003;
2.406166666666667E+009;1.793807446956635E-001;1.261156331747770E-002;-4.444964579306543E-004;2.601953456178308E-003;
2.406333333333334E+009;1.797356158494949E-001;1.222860533744097E-002;-3.588690306060016E-004;2.729179104790092E-003;
2.406500000000000E+009;1.798003911972046E-001;1.187556982040405E-002;-3.073659026995301E-004;2.564269583672285E-003;
2.406666666666667E+009;1.796539723873138E-001;1.165484171360731E-002;-3.753001219592989E-004;2.698468975722790E-003;
2.406833333333334E+009;1.798838526010513E-001;1.114574261009693E-002;-1.382729096803814E-004;2.609094604849815E-003;
2.407000000000000E+009;1.797602921724320E-001;1.083813514560461E-002;-8.737569442018867E-005;2.509025391191244E-003;
2.407166666666667E+009;1.796774417161942E-001;1.058106590062380E-002;6.130835390649736E-005;2.566736890003085E-003;
2.407333333333334E+009;1.794486492872238E-001;9.899302385747433E-003;2.475523797329515E-004;2.455799374729395E-003;
2.407500000000000E+009;1.791403740644455E-001;9.527795948088169E-003;2.259891334688291E-004;2.554177539423108E-003;
2.407666666666667E+009;1.788045465946198E-001;8.914733305573463E-003;4.291140649002045E-004;2.476904774084687E-003;
2.407833333333334E+009;1.783210486173630E-001;8.106492459774017E-003;3.572142159100622E-004;2.320775529369712E-003;
2.408000000000000E+009;1.778264343738556E-001;7.453673519194126E-003;4.795184941031039E-004;2.383488463237882E-003;
2.408166666666667E+009;1.772882342338562E-001;6.803028751164675E-003;6.361924461089075E-004;2.365996129810810E-003;
2.408333333333334E+009;1.769281923770905E-001;5.814190488308668E-003;7.829321548342705E-004;2.212351886555553E-003;
2.408500000000000E+009;1.762748509645462E-001;4.826133605092764E-003;6.708999862894416E-004;2.184844575822353E-003;
2.408666666666667E+009;1.756231337785721E-001;3.660025773569942E-003;9.846165776252747E-004;2.009480725973845E-003;
2.408833333333334E+009;1.748067885637283E-001;2.667411463335156E-003;1.000351738184691E-003;1.954500563442707E-003;
2.409000000000000E+009;1.743034571409226E-001;1.407027593813837E-003;1.073715509846807E-003;1.912258798256517E-003;
2.409166666666667E+009;1.736154854297638E-001;2.015486679738388E-004;1.049989950843155E-003;1.871776068583131E-003;
2.409333333333334E+009;1.730294823646545E-001;-1.336666522547603E-003;1.145147369243205E-003;1.781913801096380E-003;
2.409500000000000E+009;1.723431348800659E-001;-2.910147421061993E-003;1.128553180024028E-003;1.670145895332098E-003;
2.409666666666667E+009;1.717130541801453E-001;-4.158351570367813E-003;1.192277297377586E-003;1.623165328055620E-003;
2.409833333333334E+009;1.710323691368103E-001;-5.665572825819254E-003;1.290341955609620E-003;1.517189899459481E-003;
2.410000000000000E+009;1.706316024065018E-001;-7.224743254482746E-003;1.316293841227889E-003;1.342353527434170E-003;
2.410166666666667E+009;1.701502799987793E-001;-9.096893481910229E-003;1.276329043321312E-003;1.341906841844320E-003;
2.410333333333334E+009;1.695131361484528E-001;-1.067701354622841E-002;1.246081199496985E-003;1.251247827894986E-003;
2.410500000000000E+009;1.690699756145477E-001;-1.250947918742895E-002;1.350099337287247E-003;1.172521151602268E-003;
2.410666666666667E+009;1.686574071645737E-001;-1.451579295098782E-002;1.456199097447097E-003;1.090897014364600E-003;
2.410833333333334E+009;1.685176640748978E-001;-1.623072661459446E-002;1.413373625837266E-003;9.180926717817783E-004;
2.411000000000000E+009;1.683061569929123E-001;-1.818177103996277E-002;1.499295001849532E-003;9.471931261941791E-004;
2.411166666666667E+009;1.681645512580872E-001;-2.019163034856319E-002;1.434541307389736E-003;8.220603340305388E-004;
2.411333333333334E+009;1.681194305419922E-001;-2.207830920815468E-002;1.648504752665758E-003;8.784072706475854E-004;
2.411500000000000E+009;1.678161919116974E-001;-2.417113259434700E-002;1.378659741021693E-003;6.188940024003387E-004;
2.411666666666667E+009;1.680987179279327E-001;-2.593357861042023E-002;1.601669820956886E-003;7.079638307914138E-004;
2.411833333333334E+009;1.679771095514298E-001;-2.790699712932110E-002;1.455140998587012E-003;4.246534954290837E-004;
2.412000000000000E+009;1.684076935052872E-001;-2.988806366920471E-002;1.451175776310265E-003;3.590135602280498E-004;
2.412166666666667E+009;1.687463819980621E-001;-3.177936375141144E-002;1.400787383317947E-003;2.682153717614710E-004;
2.412333333333334E+009;1.690391004085541E-001;-3.357630223035812E-002;1.305986777879298E-003;2.509152400307357E-004;
2.412500000000000E+009;1.693357974290848E-001;-3.527288883924484E-002;1.377648790366948E-003;2.882648841477931E-004;
2.412666666666667E+009;1.698157191276550E-001;-3.729876503348351E-002;1.352006569504738E-003;9.102161857299507E-005;
2.412833333333334E+009;1.704104542732239E-001;-3.901912644505501E-002;1.234799041412771E-003;-9.866369509836659E-005;
2.413000000000000E+009;1.708530783653259E-001;-4.070454835891724E-002;1.197461737319827E-003;-2.210428938269615E-004;
2.413166666666667E+009;1.713908016681671E-001;-4.235430806875229E-002;1.103227376006544E-003;-1.545340637676418E-004;
2.413333333333334E+009;1.718270480632782E-001;-4.388523846864700E-002;9.797193342819810E-004;-3.784860018640757E-004;
2.413500000000000E+009;1.724265068769455E-001;-4.539505392313004E-002;9.383136057294905E-004;-2.876192156691104E-004;
2.413666666666667E+009;1.730081737041473E-001;-4.680471122264862E-002;7.835915312170982E-004;-6.076560239307582E-004;
2.413833333333334E+009;1.735928207635880E-001;-4.813127592206001E-002;8.244478958658874E-004;-5.614553228951991E-004;
2.414000000000000E+009;1.739001572132111E-001;-4.943720251321793E-002;7.947308477014303E-004;-4.334437835495919E-004;
2.414166666666667E+009;1.748492568731308E-001;-5.060184374451637E-002;6.810413324274123E-004;-5.504176369868219E-004;
2.414333333333334E+009;1.753692328929901E-001;-5.176675692200661E-002;4.162920522503555E-004;-4.208482278045267E-004;
2.414500000000000E+009;1.759381294250488E-001;-5.269754678010941E-002;4.579703963827342E-004;-4.918810445815325E-004;
2.414666666666667E+009;1.763385981321335E-001;-5.357019975781441E-002;3.161847998853773E-004;-5.230786046013236E-004;
2.414833333333334E+009;1.768762767314911E-001;-5.447556450963020E-002;2.352181036258116E-004;-4.787922371178865E-004;
2.415000000000000E+009;1.771110892295837E-001;-5.511187016963959E-002;7.450718840118498E-005;-4.229235928505659E-004;
2.415166666666667E+009;1.776539683341980E-001;-5.584993958473206E-002;1.232210343005136E-004;-2.967643085867167E-004;
2.415333333333334E+009;1.779907047748566E-001;-5.646971985697746E-002;-8.162946323864162E-005;-3.062654868699610E-004;
2.415500000000000E+009;1.781778037548065E-001;-5.695552751421928E-002;-2.856512583093718E-005;-3.794753283727914E-004;
2.415666666666667E+009;1.780979186296463E-001;-5.755645409226418E-002;-1.368295052088797E-004;-2.071189228445292E-004;
2.415833333333334E+009;1.783950179815292E-001;-5.785243958234787E-002;-3.354108484927565E-004;-1.692676305538043E-004;
2.416000000000000E+009;1.782306283712387E-001;-5.833375453948975E-002;-3.060098388232291E-004;-2.415674825897440E-004;
2.416166666666667E+009;1.784196197986603E-001;-5.850547924637795E-002;-4.382914048619568E-004;-5.728410906158388E-005;
2.416333333333334E+009;1.781491041183472E-001;-5.880985409021378E-002;-4.328187496867031E-004;-1.486782912252238E-005;
2.416500000000000E+009;1.779963821172714E-001;-5.914231762290001E-002;-3.274782502558082E-004;1.594328932696953E-005;
2.416666666666667E+009;1.775242686271668E-001;-5.923968553543091E-002;-4.247287579346448E-004;5.840926678502001E-005;
2.416833333333334E+009;1.772377341985703E-001;-5.961820483207703E-002;-5.160885630175471E-004;-2.077183671644889E-005;
2.417000000000000E+009;1.764464974403381E-001;-5.997847765684128E-002;-4.263250157237053E-004;3.016385308001190E-004;
2.417166666666667E+009;1.759414523839951E-001;-6.007647886872292E-002;-5.127306794747710E-004;2.486794546712190E-004;
2.417333333333334E+009;1.752778440713882E-001;-6.024222820997238E-002;-4.435937153175473E-004;3.881328739225864E-004;
2.417500000000000E+009;1.745379865169525E-001;-6.071393191814423E-002;-3.024839097633958E-004;5.484184366650879E-004;
2.417666666666667E+009;1.738541126251221E-001;-6.068757921457291E-002;-3.828568733297288E-004;5.308696418069303E-004;
2.417833333333334E+009;1.728285551071167E-001;-6.111519411206245E-002;-4.691487993113697E-004;4.399562603794038E-004;
2.418000000000000E+009;1.718796342611313E-001;-6.168507039546967E-002;-3.598359471652657E-004;5.814227042719722E-004;
2.418166666666667E+009;1.707617938518524E-001;-6.193439662456513E-002;-4.768859071191400E-004;4.779989540111274E-004;
2.418333333333334E+009;1.699818670749664E-001;-6.249453872442246E-002;-2.544698363635689E-004;6.275060586631298E-004;
2.418500000000000E+009;1.687107384204865E-001;-6.303379684686661E-002;-3.238914941903204E-004;8.573302184231579E-004;
2.418666666666667E+009;1.675920933485031E-001;-6.366293132305145E-002;-3.551087283995003E-004;5.510971532203257E-004;
2.418833333333334E+009;1.662437021732330E-001;-6.432481855154038E-002;-2.872882178053260E-004;8.826994453556836E-004;
2.419000000000000E+009;1.648960411548615E-001;-6.495141237974167E-002;-2.127285697497428E-004;9.582629427313805E-004;
2.419166666666667E+009;1.638535112142563E-001;-6.585697829723358E-002;-3.542133199516684E-004;7.265986641868949E-004;
2.419333333333334E+009;1.624527275562286E-001;-6.655557453632355E-002;-2.821373345796019E-004;9.614932932890952E-004;
2.419500000000000E+009;1.613880693912506E-001;-6.762681901454926E-002;-1.652987411944196E-004;1.009405707009137E-003;
2.419666666666667E+009;1.601737886667252E-001;-6.867107003927231E-002;-3.195726776539232E-006;9.679818176664412E-004;
2.419833333333334E+009;1.589948385953903E-001;-6.970441341400147E-002;-7.198284583864734E-005;1.002285280264914E-003;
2.420000000000000E+009;1.579761356115341E-001;-7.090621441602707E-002;7.861098129069433E-005;1.032028696499765E-003;
2.420166666666667E+009;1.568661481142044E-001;-7.212124019861221E-002;2.217469409515616E-005;9.808621834963560E-004;
2.420333333333334E+009;1.557279825210571E-001;-7.345578074455261E-002;1.153708290075883E-004;1.034108689054847E-003;
2.420500000000000E+009;1.547774374485016E-001;-7.458848506212235E-002;2.024817804340273E-004;1.086339238099754E-003;
2.420666666666667E+009;1.539392322301865E-001;-7.617750018835068E-002;1.811924157664180E-004;1.059333211742342E-003;
2.420833333333334E+009;1.530745476484299E-001;-7.755903154611588E-002;1.860687480075285E-004;9.323642589151859E-004;
2.421000000000000E+009;1.522343307733536E-001;-7.922690361738205E-002;2.579609863460064E-004;1.150958705693483E-003;
2.421166666666667E+009;1.516773849725723E-001;-8.075927942991257E-002;2.605393237899989E-004;1.033414271660149E-003;
2.421333333333334E+009;1.510570943355560E-001;-8.237570524215698E-002;3.479669394437224E-004;9.693689062260091E-004;
2.421500000000000E+009;1.503270268440247E-001;-8.392675220966339E-002;4.667700268328190E-004;1.023781718686223E-003;
2.421666666666667E+009;1.501394808292389E-001;-8.552869409322739E-002;4.091524751856923E-004;9.797938400879502E-004;
2.421833333333334E+009;1.498977839946747E-001;-8.723062276840210E-002;3.991790872532874E-004;9.949433151632547E-004;
2.422000000000000E+009;1.494769304990768E-001;-8.894342929124832E-002;3.304113342892379E-004;1.013552304357290E-003;
2.422166666666667E+009;1.494066566228867E-001;-9.065652638673782E-002;3.578947798814625E-004;1.042849733494222E-003;
2.422333333333334E+009;1.491743177175522E-001;-9.218598902225494E-002;3.791039634961635E-004;1.169208087958396E-003;
2.422500000000000E+009;1.492419689893723E-001;-9.371264278888702E-002;5.794419557787478E-004;1.126051298342645E-003;
2.422666666666667E+009;1.492331922054291E-001;-9.562343358993530E-002;4.217139503452927E-004;1.104489085264504E-003;
2.422833333333334E+009;1.494559943675995E-001;-9.715814143419266E-002;3.605083329603076E-004;9.119914029724896E-004;
2.423000000000000E+009;1.495889276266098E-001;-9.874881803989410E-002;6.297700456343591E-004;1.101749716326594E-003;
2.423166666666667E+009;1.500461846590042E-001;-1.002269014716148E-001;6.495650741271675E-004;1.145506976172328E-003;
2.423333333333334E+009;1.504719108343124E-001;-1.015797629952431E-001;5.716721061617136E-004;1.114663667976856E-003;
2.423500000000000E+009;1.506237238645554E-001;-1.031535416841507E-001;7.293147500604391E-004;1.184616005048156E-003;
2.423666666666667E+009;1.509615033864975E-001;-1.044492870569229E-001;7.270977948792279E-004;1.111175399273634E-003;
2.423833333333334E+009;1.515544652938843E-001;-1.058782041072846E-001;8.206513593904674E-004;1.253290916793048E-003;
2.424000000000000E+009;1.519075632095337E-001;-1.070169955492020E-001;7.682699942961335E-004;1.127898227423430E-003;
2.424166666666667E+009;1.522660702466965E-001;-1.081869304180145E-001;8.322831708937883E-004;1.186016714200378E-003;
2.424333333333334E+009;1.527980417013168E-001;-1.092595383524895E-001;9.007020853459835E-004;1.075200620107353E-003;
2.424500000000000E+009;1.533363908529282E-001;-1.103038042783737E-001;8.040067623369396E-004;1.172934542410076E-003;
2.424666666666667E+009;1.538912355899811E-001;-1.110453531146050E-001;1.081156660802662E-003;1.240120735019445E-003;
2.424833333333334E+009;1.541834920644760E-001;-1.119313165545464E-001;1.024507568217814E-003;1.201871200464666E-003;
2.425000000000000E+009;1.547216325998306E-001;-1.128209754824638E-001;1.212594448588789E-003;1.158173778094351E-003;
2.425166666666667E+009;1.550853848457336E-001;-1.135246977210045E-001;1.197559759020805E-003;1.163781038485467E-003;
2.425333333333334E+009;1.555296629667282E-001;-1.140758618712425E-001;1.173631753772497E-003;1.093622995540500E-003;
2.425500000000000E+009;1.558761745691299E-001;-1.147199422121048E-001;1.267589395865798E-003;1.173743861727417E-003;
2.425666666666667E+009;1.560556441545487E-001;-1.151303127408028E-001;1.437381142750382E-003;1.164166256785393E-003;
2.425833333333334E+009;1.561191082000732E-001;-1.156120449304581E-001;1.558939460664988E-003;1.102489302866161E-003;
2.426000000000000E+009;1.563448756933212E-001;-1.161056086421013E-001;1.544452388770878E-003;9.954238776117563E-004;
2.426166666666667E+009;1.565792113542557E-001;-1.164903566241264E-001;1.574083813466132E-003;9.332000045105815E-004;
2.426333333333334E+009;1.564216762781143E-001;-1.166587844491005E-001;1.731210038997233E-003;9.546829969622195E-004;
2.426500000000000E+009;1.562805920839310E-001;-1.169222071766853E-001;1.866345526650548E-003;9.612348512746394E-004;
2.426666666666667E+009;1.564071327447891E-001;-1.169968247413635E-001;1.782675040885806E-003;8.192227687686682E-004;
2.426833333333334E+009;1.559805423021317E-001;-1.171836704015732E-001;1.981373643502593E-003;7.733406964689493E-004;
2.427000000000000E+009;1.556449979543686E-001;-1.174501776695252E-001;1.958060078322887E-003;6.678251666016877E-004;
2.427166666666667E+009;1.551871001720429E-001;-1.173337474465370E-001;1.871106331236661E-003;5.207109497860074E-004;
2.427333333333334E+009;1.545523256063461E-001;-1.176040321588516E-001;2.068869769573212E-003;5.099582485854626E-004;
2.427500000000000E+009;1.541008800268173E-001;-1.176925003528595E-001;2.016602782532573E-003;3.215770702809095E-004;
2.427666666666667E+009;1.532534360885620E-001;-1.178977042436600E-001;2.140388824045658E-003;1.473145675845444E-004;
2.427833333333334E+009;1.523232609033585E-001;-1.180602908134460E-001;2.150753047317267E-003;1.857200404629111E-004;
