# Version 1.00
#
freq[Hz];re:Trc1_S11;im:Trc1_S11;re:Trc2_S21;im:Trc2_S21;
2.400000000000000E+009;1.572569012641907E-001;1.123361885547638E-001;6.321869324892759E-003;4.513164050877094E-003;
2.400166666666667E+009;1.567789763212204E-001;1.102135628461838E-001;6.342054810374975E-003;4.544410388916731E-003;
2.400333333333334E+009;1.564871519804001E-001;1.080263629555702E-001;6.511732470244169E-003;4.434555303305388E-003;
2.400500000000000E+009;1.560813337564468E-001;1.054997891187668E-001;6.700635887682438E-003;4.341077059507370E-003;
2.400666666666667E+009;1.558244973421097E-001;1.030930057168007E-001;6.901800166815519E-003;4.136201459914446E-003;
2.400833333333334E+009;1.555046439170837E-001;1.000752598047257E-001;6.998348049819470E-003;4.165543243288994E-003;
2.401000000000000E+009;1.554784178733826E-001;9.729949384927750E-002;7.179599255323410E-003;4.037400241941214E-003;
2.401166666666667E+009;1.550752520561218E-001;9.451719373464584E-002;7.424281444400549E-003;3.905898891389370E-003;
2.401333333333334E+009;1.551144272089005E-001;9.176477044820786E-002;7.720703259110451E-003;3.613693639636040E-003;
2.401500000000000E+009;1.550944298505783E-001;8.858159184455872E-002;8.034572936594486E-003;3.695722902193666E-003;
2.401666666666667E+009;1.550753712654114E-001;8.566551655530930E-002;8.283907547593117E-003;3.322663484141231E-003;
2.401833333333334E+009;1.552505046129227E-001;8.269082754850388E-002;8.499587886035442E-003;3.174162004143000E-003;
2.402000000000000E+009;1.559229791164398E-001;7.964695245027542E-002;8.661251515150070E-003;2.719188807532191E-003;
2.402166666666667E+009;1.564890593290329E-001;7.698664069175720E-002;8.825290948152542E-003;2.410487271845341E-003;
2.402333333333334E+009;1.571428477764130E-001;7.391545176506043E-002;9.258066304028034E-003;2.189726103097200E-003;
2.402500000000000E+009;1.578964293003082E-001;7.121825218200684E-002;9.502268396317959E-003;1.785149914212525E-003;
2.402666666666667E+009;1.589981019496918E-001;6.855654716491699E-002;9.679358452558518E-003;1.389107201248407E-003;
2.402833333333334E+009;1.600336730480194E-001;6.560277938842773E-002;9.921387769281864E-003;7.888096733950079E-004;
2.403000000000000E+009;1.614846140146256E-001;6.289900839328766E-002;1.001259498298168E-002;4.156040085945278E-004;
2.403166666666667E+009;1.632667332887650E-001;6.044356152415276E-002;9.937012568116188E-003;-8.743716171011329E-005;
2.403333333333334E+009;1.645170599222183E-001;5.787717923521996E-002;9.846402332186699E-003;-6.594020524062216E-004;
2.403500000000000E+009;1.661778986454010E-001;5.542180687189102E-002;9.835475124418736E-003;-1.246868516318500E-003;
2.403666666666667E+009;1.679681092500687E-001;5.317026376724243E-002;9.879555553197861E-003;-1.705430448055267E-003;
2.403833333333334E+009;1.699483096599579E-001;5.091828480362892E-002;9.746224619448185E-003;-2.358956262469292E-003;
2.404000000000000E+009;1.714297682046890E-001;4.870383068919182E-002;9.568442590534687E-003;-2.703623380511999E-003;
2.404166666666667E+009;1.733012795448303E-001;4.681271314620972E-002;9.424079209566116E-003;-3.230561269447208E-003;
2.404333333333334E+009;1.751442253589630E-001;4.495036229491234E-002;9.184225462377071E-003;-3.721025772392750E-003;
2.404500000000000E+009;1.769111752510071E-001;4.317731782793999E-002;9.004566818475723E-003;-4.062164574861527E-003;
2.404666666666667E+009;1.786548346281052E-001;4.168752580881119E-002;8.727670647203922E-003;-4.430645611137152E-003;
2.404833333333334E+009;1.806990802288055E-001;4.039069637656212E-002;8.335622027516365E-003;-4.844270646572113E-003;
2.405000000000000E+009;1.822682023048401E-001;3.934894874691963E-002;8.053810335695744E-003;-4.977471195161343E-003;
2.405166666666667E+009;1.839470714330673E-001;3.832895308732987E-002;7.806350477039814E-003;-5.349074024707079E-003;
2.405333333333334E+009;1.857735216617584E-001;3.764441981911659E-002;7.229440845549107E-003;-5.538874305784702E-003;
2.405500000000000E+009;1.874092221260071E-001;3.700475767254829E-002;7.115512154996395E-003;-5.901138298213482E-003;
2.405666666666667E+009;1.888142675161362E-001;3.637471050024033E-002;6.608330644667149E-003;-6.045162212103605E-003;
2.405833333333334E+009;1.905017942190170E-001;3.614421561360359E-002;6.318663246929646E-003;-6.138727534562349E-003;
2.406000000000000E+009;1.918419301509857E-001;3.585739433765411E-002;5.966882687062025E-003;-6.484212819486857E-003;
2.406166666666667E+009;1.932644248008728E-001;3.566389903426170E-002;5.688039120286703E-003;-6.446246057748795E-003;
2.406333333333334E+009;1.946065723896027E-001;3.568348288536072E-002;5.477259866893292E-003;-6.710230372846127E-003;
2.406500000000000E+009;1.956065297126770E-001;3.580796718597412E-002;5.165930371731520E-003;-6.739029195159674E-003;
2.406666666666667E+009;1.966007649898529E-001;3.580616414546967E-002;4.843628033995628E-003;-6.950467359274626E-003;
2.406833333333334E+009;1.975778639316559E-001;3.602737560868263E-002;4.433318972587585E-003;-7.108575198799372E-003;
2.407000000000000E+009;1.982007920742035E-001;3.635504841804504E-002;4.189206287264824E-003;-7.132442668080330E-003;
2.407166666666667E+009;1.988933235406876E-001;3.640400245785713E-002;3.982564900070429E-003;-7.036827970296145E-003;
2.407333333333334E+009;1.991999745368958E-001;3.676340728998184E-002;3.607217688113451E-003;-7.277803029865027E-003;
2.407500000000000E+009;1.994072645902634E-001;3.707484900951386E-002;3.334662877023220E-003;-7.194733247160912E-003;
2.407666666666667E+009;1.996309906244278E-001;3.727995604276657E-002;2.878176048398018E-003;-7.139945868402720E-003;
2.407833333333334E+009;1.995119154453278E-001;3.752525150775909E-002;2.769065322354436E-003;-7.214932236820459E-003;
2.408000000000000E+009;1.996678858995438E-001;3.756875172257423E-002;2.568490803241730E-003;-6.968700326979160E-003;
2.408166666666667E+009;1.992460638284683E-001;3.780978918075562E-002;2.073942450806499E-003;-7.016368675976992E-003;
2.408333333333334E+009;1.989576220512390E-001;3.762024641036987E-002;2.023331588134170E-003;-6.906253751367331E-003;
2.408500000000000E+009;1.984670162200928E-001;3.776898235082626E-002;1.751766423694789E-003;-6.826158612966538E-003;
2.408666666666667E+009;1.977905780076981E-001;3.758232668042183E-002;1.578765804879367E-003;-6.769970990717411E-003;
2.408833333333334E+009;1.972960531711578E-001;3.723029419779778E-002;1.421849941834807E-003;-6.497491151094437E-003;
2.409000000000000E+009;1.963913589715958E-001;3.665792942047119E-002;1.251478795893490E-003;-6.468958221375942E-003;
2.409166666666667E+009;1.952216774225235E-001;3.610715270042419E-002;1.185711473226547E-003;-6.384712643921375E-003;
2.409333333333334E+009;1.943196356296539E-001;3.552781790494919E-002;1.237111398950219E-003;-6.367064546793699E-003;
2.409500000000000E+009;1.931619495153427E-001;3.472631797194481E-002;1.102572889067233E-003;-6.178132724016905E-003;
2.409666666666667E+009;1.919701695442200E-001;3.352246060967445E-002;9.985913056880236E-004;-6.303073372691870E-003;
2.409833333333334E+009;1.908208429813385E-001;3.260433673858643E-002;1.006996491923928E-003;-6.290233228355646E-003;
2.410000000000000E+009;1.897043585777283E-001;3.134098649024963E-002;8.680796017870307E-004;-6.284398958086968E-003;
2.410166666666667E+009;1.883443593978882E-001;2.976534329354763E-002;8.831003215163946E-004;-6.336269434541464E-003;
2.410333333333334E+009;1.871806979179382E-001;2.823575213551521E-002;7.540897931903601E-004;-6.380910053849220E-003;
2.410500000000000E+009;1.858017742633820E-001;2.650734223425388E-002;5.958435358479619E-004;-6.386156659573317E-003;
2.410666666666667E+009;1.847226768732071E-001;2.456218935549259E-002;4.882992943748832E-004;-6.467321421951056E-003;
2.410833333333334E+009;1.837498843669891E-001;2.249400690197945E-002;3.361144626978785E-004;-6.405400577932596E-003;
2.411000000000000E+009;1.825916022062302E-001;2.043966203927994E-002;2.410306624369696E-004;-6.306124851107597E-003;
2.411166666666667E+009;1.817808598279953E-001;1.827427931129932E-002;6.895884871482849E-005;-6.633589044213295E-003;
2.411333333333334E+009;1.807133406400681E-001;1.580555364489555E-002;-1.250414788955823E-004;-6.434442475438118E-003;
2.411500000000000E+009;1.799211055040360E-001;1.338524185121059E-002;-3.354618092998862E-004;-6.501432042568922E-003;
2.411666666666667E+009;1.794072836637497E-001;1.115507073700428E-002;-2.733518485911191E-004;-6.475766189396381E-003;
2.411833333333334E+009;1.789830774068832E-001;8.723322302103043E-003;-5.422653630375862E-004;-6.458326708525419E-003;
2.412000000000000E+009;1.785778254270554E-001;5.891124717891216E-003;-6.425724714063108E-004;-6.538386456668377E-003;
2.412166666666667E+009;1.782925426959992E-001;3.687156597152352E-003;-8.826928678900003E-004;-6.581841502338648E-003;
2.412333333333334E+009;1.783153414726257E-001;9.368450846523047E-004;-9.899110300466418E-004;-6.454582326114178E-003;
2.412500000000000E+009;1.784564554691315E-001;-1.866699545644224E-003;-1.053436659276485E-003;-6.681857164949179E-003;
2.412666666666667E+009;1.787395626306534E-001;-4.440348595380783E-003;-1.234802766703069E-003;-6.529217585921288E-003;
2.412833333333334E+009;1.792794764041901E-001;-7.035115268081427E-003;-1.359787420369685E-003;-6.520603783428669E-003;
2.413000000000000E+009;1.797340810298920E-001;-9.757471270859242E-003;-1.602241885848343E-003;-6.582805421203375E-003;
2.413166666666667E+009;1.804339885711670E-001;-1.208281051367521E-002;-1.755024306476116E-003;-6.678490899503231E-003;
2.413333333333334E+009;1.812822371721268E-001;-1.492632366716862E-002;-1.960768830031157E-003;-6.637097336351872E-003;
2.413500000000000E+009;1.821328103542328E-001;-1.746604964137077E-002;-2.169087762013078E-003;-6.681323051452637E-003;
2.413666666666667E+009;1.832234859466553E-001;-1.992504112422466E-002;-2.489117905497551E-003;-6.683684419840574E-003;
2.413833333333334E+009;1.842435598373413E-001;-2.213121578097343E-002;-2.623009961098433E-003;-6.518922746181488E-003;
2.414000000000000E+009;1.851793378591538E-001;-2.451025322079659E-002;-2.984224818646908E-003;-6.561333313584328E-003;
2.414166666666667E+009;1.866392046213150E-001;-2.672399766743183E-002;-3.220635699108243E-003;-6.461453624069691E-003;
2.414333333333334E+009;1.876787841320038E-001;-2.915767766535282E-002;-3.419988323003054E-003;-6.536171771585941E-003;
2.414500000000000E+009;1.890494376420975E-001;-3.098777867853642E-002;-3.734490601345897E-003;-6.218190770596266E-003;
2.414666666666667E+009;1.903808265924454E-001;-3.284257277846336E-002;-4.031290300190449E-003;-6.150858942419291E-003;
2.414833333333334E+009;1.914648562669754E-001;-3.435396403074265E-002;-4.254612140357494E-003;-6.124819628894329E-003;
2.415000000000000E+009;1.927542537450790E-001;-3.602940961718559E-002;-4.658772610127926E-003;-5.881409160792828E-003;
2.415166666666667E+009;1.943439543247223E-001;-3.740738704800606E-002;-4.696464166045189E-003;-5.824707448482513E-003;
2.415333333333334E+009;1.956318318843842E-001;-3.861795738339424E-002;-4.961767233908176E-003;-5.635312758386135E-003;
2.415500000000000E+009;1.970098763704300E-001;-3.961260616779327E-002;-5.207099020481110E-003;-5.350337363779545E-003;
2.415666666666667E+009;1.982567161321640E-001;-4.062547162175179E-002;-5.207268986850977E-003;-4.929215181618929E-003;
2.415833333333334E+009;1.994864046573639E-001;-4.132864996790886E-002;-5.515311378985643E-003;-4.823307972401381E-003;
2.416000000000000E+009;2.004475295543671E-001;-4.215399920940399E-002;-5.655339919030666E-003;-4.409513901919127E-003;
2.416166666666667E+009;2.015031278133392E-001;-4.277371615171433E-002;-5.861429031938314E-003;-4.410323686897755E-003;
2.416333333333334E+009;2.024370729923248E-001;-4.316599667072296E-002;-5.892817396670580E-003;-4.112304188311100E-003;
2.416500000000000E+009;2.032640129327774E-001;-4.353225603699684E-002;-5.898665636777878E-003;-3.792832838371396E-003;
2.416666666666667E+009;2.038781344890595E-001;-4.399294033646584E-002;-5.888408515602350E-003;-3.697198582813144E-003;
2.416833333333334E+009;2.043326199054718E-001;-4.390516877174377E-002;-6.067499052733183E-003;-3.522195154801011E-003;
2.417000000000000E+009;2.049959003925324E-001;-4.397395625710487E-002;-6.122920662164688E-003;-3.347729332745075E-003;
2.417166666666667E+009;2.048778086900711E-001;-4.390916228294373E-002;-6.219908595085144E-003;-3.029739717021585E-003;
2.417333333333334E+009;2.050305306911469E-001;-4.361756891012192E-002;-6.234314292669296E-003;-2.936304081231356E-003;
2.417500000000000E+009;2.050958573818207E-001;-4.366470873355866E-002;-6.219554692506790E-003;-2.860781503841281E-003;
2.417666666666667E+009;2.049185186624527E-001;-4.321808367967606E-002;-6.298256572335959E-003;-2.703312551602721E-003;
2.417833333333334E+009;2.047393023967743E-001;-4.290617629885674E-002;-6.387219764292240E-003;-2.459775423631072E-003;
2.418000000000000E+009;2.043036520481110E-001;-4.241491109132767E-002;-6.570674479007721E-003;-2.446411876007915E-003;
2.418166666666667E+009;2.037977576255798E-001;-4.218485206365585E-002;-6.620922125875950E-003;-2.183972159400582E-003;
2.418333333333334E+009;2.031431049108505E-001;-4.165001586079598E-002;-6.835381500422955E-003;-2.016414422541857E-003;
2.418500000000000E+009;2.023275345563889E-001;-4.145447164773941E-002;-6.819684989750385E-003;-1.708260970190167E-003;
2.418666666666667E+009;2.014747262001038E-001;-4.106463491916657E-002;-6.946623791009188E-003;-1.510602305643261E-003;
2.418833333333334E+009;2.003761082887650E-001;-4.097322374582291E-002;-7.027808111160994E-003;-1.245024264790118E-003;
2.419000000000000E+009;1.991513222455978E-001;-4.083226621150971E-002;-7.127262651920319E-003;-9.344419231638312E-004;
2.419166666666667E+009;1.979832798242569E-001;-4.094640165567398E-002;-7.064784411340952E-003;-6.308687734417617E-004;
2.419333333333334E+009;1.965014338493347E-001;-4.105697944760323E-002;-7.124722003936768E-003;-2.571069635450840E-004;
2.419500000000000E+009;1.950353831052780E-001;-4.117365553975105E-002;-6.917864549905062E-003;-8.051941404119134E-005;
2.419666666666667E+009;1.933384239673615E-001;-4.170322790741921E-002;-6.938511040061712E-003;9.089452942134813E-005;
2.419833333333334E+009;1.917537003755570E-001;-4.193897917866707E-002;-6.868367083370686E-003;2.342564257560298E-004;
2.420000000000000E+009;1.900342255830765E-001;-4.269672557711601E-002;-6.868547294288874E-003;5.072376807220280E-004;
2.420166666666667E+009;1.881842464208603E-001;-4.324658960103989E-002;-6.788288243114948E-003;6.191638531163335E-004;
2.420333333333334E+009;1.865080893039703E-001;-4.439184442162514E-002;-6.608390249311924E-003;7.620217511430383E-004;
2.420500000000000E+009;1.847385466098785E-001;-4.513923451304436E-002;-6.634636782109737E-003;1.039128401316702E-003;
2.420666666666667E+009;1.827661991119385E-001;-4.622710496187210E-002;-6.627588998526335E-003;1.080899732187390E-003;
2.420833333333334E+009;1.809342354536057E-001;-4.748845845460892E-002;-6.531216669827700E-003;1.313198823481798E-003;
2.421000000000000E+009;1.792390197515488E-001;-4.912767931818962E-002;-6.531344726681709E-003;1.372962375171483E-003;
2.421166666666667E+009;1.773087084293366E-001;-5.050594732165337E-002;-6.525486707687378E-003;1.479110214859247E-003;
2.421333333333334E+009;1.754863113164902E-001;-5.205582454800606E-002;-6.560754496604204E-003;1.715081627480686E-003;
2.421500000000000E+009;1.738075762987137E-001;-5.395850911736488E-002;-6.488264072686434E-003;1.942325267009437E-003;
2.421666666666667E+009;1.723622381687164E-001;-5.584885925054550E-002;-6.506872363388538E-003;2.075697993859649E-003;
2.421833333333334E+009;1.708703041076660E-001;-5.741250142455101E-002;-6.569887511432171E-003;2.402820624411106E-003;
2.422000000000000E+009;1.693027019500732E-001;-5.945703387260437E-002;-6.242983974516392E-003;2.612843643873930E-003;
2.422166666666667E+009;1.680322289466858E-001;-6.166262179613113E-002;-6.354881450533867E-003;2.847790950909257E-003;
2.422333333333334E+009;1.668418794870377E-001;-6.376826763153076E-002;-6.283979397267103E-003;3.134479047730565E-003;
2.422500000000000E+009;1.659351140260696E-001;-6.577488780021668E-002;-6.242264062166214E-003;3.414141247048974E-003;
2.422666666666667E+009;1.649280339479446E-001;-6.791210919618607E-002;-6.070360541343689E-003;3.502146108075976E-003;
2.422833333333334E+009;1.641498655080795E-001;-7.021898776292801E-002;-5.940425209701061E-003;3.937558270990849E-003;
2.423000000000000E+009;1.634912043809891E-001;-7.246534526348114E-002;-5.760561674833298E-003;4.032768309116364E-003;
2.423166666666667E+009;1.627569347620010E-001;-7.473243772983551E-002;-5.549420136958361E-003;4.262368660420179E-003;
2.423333333333334E+009;1.624134033918381E-001;-7.694231718778610E-002;-5.335929337888956E-003;4.296932369470596E-003;
2.423500000000000E+009;1.621054708957672E-001;-7.890491187572479E-002;-5.047430284321308E-003;4.518745001405478E-003;
2.423666666666667E+009;1.620479375123978E-001;-8.121434599161148E-002;-4.900439176708460E-003;4.865303635597229E-003;
2.423833333333334E+009;1.617494970560074E-001;-8.338069915771484E-002;-4.643991123884916E-003;4.851377103477716E-003;
2.424000000000000E+009;1.619734168052673E-001;-8.537010103464127E-002;-4.408219363540411E-003;4.998116288334131E-003;
2.424166666666667E+009;1.619326770305634E-001;-8.725713193416596E-002;-4.111022222787142E-003;5.161687731742859E-003;
2.424333333333334E+009;1.622213423252106E-001;-8.929217606782913E-002;-3.863691352307797E-003;5.237577017396689E-003;
2.424500000000000E+009;1.625924706459045E-001;-9.124037623405457E-002;-3.477414604276419E-003;5.300720222294331E-003;
2.424666666666667E+009;1.629804670810700E-001;-9.301083534955978E-002;-3.417249070480466E-003;5.287257954478264E-003;
2.424833333333334E+009;1.634850054979324E-001;-9.471274912357330E-002;-3.213072195649147E-003;5.238710436969996E-003;
2.425000000000000E+009;1.639759093523026E-001;-9.625752270221710E-002;-2.907650312408805E-003;5.359379108995199E-003;
2.425166666666667E+009;1.644326001405716E-001;-9.757681190967560E-002;-2.772346604615450E-003;5.361310672014952E-003;
2.425333333333334E+009;1.648806184530258E-001;-9.870844334363937E-002;-2.499409951269627E-003;5.280901212245226E-003;
2.425500000000000E+009;1.656185388565064E-001;-1.001319363713265E-001;-2.284494927152991E-003;5.270268768072128E-003;
2.425666666666667E+009;1.661192625761032E-001;-1.009156033396721E-001;-2.207151148468256E-003;5.292362067848444E-003;
2.425833333333334E+009;1.666771620512009E-001;-1.020148321986198E-001;-1.968945842236280E-003;5.160082597285509E-003;
2.426000000000000E+009;1.673995852470398E-001;-1.027360558509827E-001;-1.787911984138191E-003;5.272221285849810E-003;
2.426166666666667E+009;1.680352538824081E-001;-1.033529490232468E-001;-1.646031159907579E-003;5.284691229462624E-003;
2.426333333333334E+009;1.684363633394241E-001;-1.040750741958618E-001;-1.566588762216270E-003;5.253426730632782E-003;
2.426500000000000E+009;1.691151857376099E-001;-1.044061332941055E-001;-1.314898254349828E-003;5.281236022710800E-003;
2.426666666666667E+009;1.696518212556839E-001;-1.048584654927254E-001;-1.245683641172946E-003;5.217496771365404E-003;
2.426833333333334E+009;1.702576577663422E-001;-1.050634086132050E-001;-1.143242930993438E-003;5.101665854454041E-003;
2.427000000000000E+009;1.706131249666214E-001;-1.054578796029091E-001;-8.525098091922700E-004;5.087682511657476E-003;
2.427166666666667E+009;1.710065603256226E-001;-1.055146828293800E-001;-7.774775731377304E-004;4.985158797353506E-003;
2.427333333333334E+009;1.711481958627701E-001;-1.057427003979683E-001;-6.333035998977721E-004;5.018183030188084E-003;
2.427500000000000E+009;1.711772233247757E-001;-1.058963686227799E-001;-5.047741578891873E-004;4.924518056213856E-003;
2.427666666666667E+009;1.712876558303833E-001;-1.057539656758308E-001;-3.911573148798198E-004;4.787939600646496E-003;
