# Version 1.00
#
freq[Hz];re:Trc1_S11;im:Trc1_S11;re:Trc2_S21;im:Trc2_S21;
2.400000000000000E+009;1.582943201065064E-001;1.118048354983330E-001;5.972904153168201E-003;4.677605349570513E-003;
2.400166666666667E+009;1.576348245143890E-001;1.095999330282211E-001;6.167694926261902E-003;4.597655963152647E-003;
2.400333333333334E+009;1.573873758316040E-001;1.073389649391174E-001;6.178811658173800E-003;4.313868470489979E-003;
2.400500000000000E+009;1.569559127092362E-001;1.048578247427940E-001;6.235063076019287E-003;4.451957065612078E-003;
2.400666666666667E+009;1.564783900976181E-001;1.025012060999870E-001;6.514381151646376E-003;4.351415671408176E-003;
2.400833333333334E+009;1.560935229063034E-001;9.952880442142487E-002;6.635854486376047E-003;4.167010076344013E-003;
2.401000000000000E+009;1.558852195739746E-001;9.677393734455109E-002;6.673080846667290E-003;4.037952516227961E-003;
2.401166666666667E+009;1.556947082281113E-001;9.397024661302567E-002;7.002102211117744E-003;4.036839585751295E-003;
2.401333333333334E+009;1.556405574083328E-001;9.090785682201386E-002;7.180412299931049E-003;3.803259460255504E-003;
2.401500000000000E+009;1.556175947189331E-001;8.799391239881516E-002;7.459525950253010E-003;3.768322756513953E-003;
2.401666666666667E+009;1.557365357875824E-001;8.484624326229096E-002;7.820411585271359E-003;3.430336713790894E-003;
2.401833333333334E+009;1.559119820594788E-001;8.195833116769791E-002;8.087520487606525E-003;3.086758777499199E-003;
2.402000000000000E+009;1.562687456607819E-001;7.911251485347748E-002;8.061706088483334E-003;3.012283705174923E-003;
2.402166666666667E+009;1.568562239408493E-001;7.628808915615082E-002;8.596525527536869E-003;2.720235846936703E-003;
2.402333333333334E+009;1.573901921510696E-001;7.296007126569748E-002;8.964473381638527E-003;2.515250584110618E-003;
2.402500000000000E+009;1.583320945501328E-001;7.031238079071045E-002;9.098581038415432E-003;1.927050296217203E-003;
2.402666666666667E+009;1.593571305274963E-001;6.773128360509872E-002;9.124103002250195E-003;1.627469551749528E-003;
2.402833333333334E+009;1.603721380233765E-001;6.486385315656662E-002;9.313195012509823E-003;1.274263486266136E-003;
2.403000000000000E+009;1.617284119129181E-001;6.210067868232727E-002;9.416492655873299E-003;6.657817866653204E-004;
2.403166666666667E+009;1.633503437042236E-001;5.964278057217598E-002;9.520708583295345E-003;2.703965001273900E-004;
2.403333333333334E+009;1.646944284439087E-001;5.696121230721474E-002;9.634763002395630E-003;-3.181315842084587E-004;
2.403500000000000E+009;1.662902981042862E-001;5.460448190569878E-002;9.707290679216385E-003;-7.228729082271457E-004;
2.403666666666667E+009;1.681494265794754E-001;5.218102782964706E-002;9.561196900904179E-003;-1.205548876896501E-003;
2.403833333333334E+009;1.698614209890366E-001;5.003296583890915E-002;9.554821066558361E-003;-1.671195263043046E-003;
2.404000000000000E+009;1.713911294937134E-001;4.781438782811165E-002;9.280691854655743E-003;-2.179122995585203E-003;
2.404166666666667E+009;1.733473092317581E-001;4.598262533545494E-002;9.112070314586163E-003;-2.635133918374777E-003;
2.404333333333334E+009;1.749588847160339E-001;4.416054114699364E-002;8.896985091269016E-003;-3.030508290976286E-003;
2.404500000000000E+009;1.767266988754273E-001;4.241709411144257E-002;8.668050169944763E-003;-3.485659603029490E-003;
2.404666666666667E+009;1.786208003759384E-001;4.104119539260864E-002;8.410972543060780E-003;-3.952874336391687E-003;
2.404833333333334E+009;1.806469410657883E-001;3.959250822663307E-002;8.173129521310329E-003;-4.379977937787771E-003;
2.405000000000000E+009;1.820331364870071E-001;3.871077299118042E-002;7.873106747865677E-003;-4.644102882593870E-003;
2.405166666666667E+009;1.838655769824982E-001;3.774239495396614E-002;7.491750176995993E-003;-4.818135406821966E-003;
2.405333333333334E+009;1.854752451181412E-001;3.695018216967583E-002;7.266545202583075E-003;-5.138759501278400E-003;
2.405500000000000E+009;1.870030611753464E-001;3.632448613643646E-002;6.902903784066439E-003;-5.259098950773478E-003;
2.405666666666667E+009;1.885907202959061E-001;3.569914028048515E-002;6.709534674882889E-003;-5.532984156161547E-003;
2.405833333333334E+009;1.901396363973618E-001;3.547872975468636E-002;6.420514080673456E-003;-5.763533525168896E-003;
2.406000000000000E+009;1.914745569229126E-001;3.522908315062523E-002;6.033899262547493E-003;-5.878516938537359E-003;
2.406166666666667E+009;1.928224861621857E-001;3.502803668379784E-002;5.964383482933044E-003;-5.992867983877659E-003;
2.406333333333334E+009;1.941354423761368E-001;3.504965081810951E-002;5.467948503792286E-003;-6.062599830329418E-003;
2.406500000000000E+009;1.952544003725052E-001;3.524443879723549E-002;5.199095234274864E-003;-6.230219732969999E-003;
2.406666666666667E+009;1.961624026298523E-001;3.534787520766258E-002;4.845576360821724E-003;-6.340167950838804E-003;
2.406833333333334E+009;1.969992220401764E-001;3.564009815454483E-002;4.738916642963886E-003;-6.658407393842936E-003;
2.407000000000000E+009;1.975848227739334E-001;3.594014421105385E-002;4.437217488884926E-003;-6.669136229902506E-003;
2.407166666666667E+009;1.983490586280823E-001;3.601162135601044E-002;3.972790669649839E-003;-6.764296442270279E-003;
2.407333333333334E+009;1.986227482557297E-001;3.646431118249893E-002;3.782878862693906E-003;-6.636619567871094E-003;
2.407500000000000E+009;1.988602429628372E-001;3.696041926741600E-002;3.547326195985079E-003;-6.754171103239059E-003;
2.407666666666667E+009;1.991778463125229E-001;3.704340010881424E-002;3.290380584076047E-003;-6.847062613815069E-003;
2.407833333333334E+009;1.988657116889954E-001;3.726321458816528E-002;2.956427168101072E-003;-6.686138920485973E-003;
2.408000000000000E+009;1.991262584924698E-001;3.748564049601555E-002;2.611197065562010E-003;-6.792146246880293E-003;
2.408166666666667E+009;1.986559331417084E-001;3.765003010630608E-002;2.321943175047636E-003;-6.698330398648977E-003;
2.408333333333334E+009;1.984345912933350E-001;3.739340230822563E-002;2.226912416517735E-003;-6.367806345224381E-003;
2.408500000000000E+009;1.977833509445190E-001;3.748247399926186E-002;2.067238790914416E-003;-6.503912620246410E-003;
2.408666666666667E+009;1.972902119159699E-001;3.735226020216942E-002;1.924949814565480E-003;-6.415591575205326E-003;
2.408833333333334E+009;1.966304332017899E-001;3.709547966718674E-002;1.583421486429870E-003;-6.320827640593052E-003;
2.409000000000000E+009;1.957157701253891E-001;3.661633282899857E-002;1.479923375882208E-003;-6.161949131637812E-003;
2.409166666666667E+009;1.947900056838989E-001;3.604171797633171E-002;1.439554733224213E-003;-6.161337718367577E-003;
2.409333333333334E+009;1.938733905553818E-001;3.545495122671127E-002;1.366174197755754E-003;-6.055733188986778E-003;
2.409500000000000E+009;1.925779432058334E-001;3.454893082380295E-002;1.380928326398134E-003;-5.945270881056786E-003;
2.409666666666667E+009;1.914245188236237E-001;3.354822099208832E-002;1.276563620194793E-003;-6.002464797347784E-003;
2.409833333333334E+009;1.902813166379929E-001;3.264532983303070E-002;1.188963418826461E-003;-5.825759842991829E-003;
2.410000000000000E+009;1.891802698373795E-001;3.127355873584747E-002;1.157896826043725E-003;-6.023288704454899E-003;
2.410166666666667E+009;1.877965331077576E-001;2.980691194534302E-002;1.181647647172213E-003;-6.142196245491505E-003;
2.410333333333334E+009;1.866934448480606E-001;2.817521989345551E-002;9.687132551334798E-004;-6.154325790703297E-003;
2.410500000000000E+009;1.853054910898209E-001;2.647693455219269E-002;1.013452885672450E-003;-6.102306302636862E-003;
2.410666666666667E+009;1.843054741621018E-001;2.459182403981686E-002;9.783582063391805E-004;-6.131441332399845E-003;
2.410833333333334E+009;1.833591759204865E-001;2.255354635417461E-002;7.766960770823062E-004;-6.241091527044773E-003;
2.411000000000000E+009;1.823543310165405E-001;2.044289000332356E-002;6.379352998919785E-004;-6.351743824779987E-003;
2.411166666666667E+009;1.812964826822281E-001;1.837797835469246E-002;3.628916456364095E-004;-6.222750991582871E-003;
2.411333333333334E+009;1.804009675979614E-001;1.591822132468224E-002;2.155162510462105E-004;-6.343824323266745E-003;
2.411500000000000E+009;1.795342266559601E-001;1.363243628293276E-002;1.422579807695001E-004;-6.256283726543188E-003;
2.411666666666667E+009;1.791636943817139E-001;1.113846525549889E-002;6.992839917074889E-005;-6.393380463123322E-003;
2.411833333333334E+009;1.785446405410767E-001;8.828319609165192E-003;-1.464043161831796E-004;-6.312496960163117E-003;
2.412000000000000E+009;1.782939136028290E-001;6.163264159113169E-003;-3.430904471315444E-004;-6.436693482100964E-003;
2.412166666666667E+009;1.781301498413086E-001;3.729841671884060E-003;-3.074728592764586E-004;-6.417336408048868E-003;
2.412333333333334E+009;1.780309677124023E-001;9.729228331707418E-004;-4.522371746134013E-004;-6.434608250856400E-003;
2.412500000000000E+009;1.782575100660324E-001;-1.615260262042284E-003;-5.945682642050088E-004;-6.536912638694048E-003;
2.412666666666667E+009;1.783844232559204E-001;-4.411519039422274E-003;-8.916932856664062E-004;-6.510952021926642E-003;
2.412833333333334E+009;1.790025979280472E-001;-7.015427574515343E-003;-9.337217779830098E-004;-6.457323208451271E-003;
2.413000000000000E+009;1.795247197151184E-001;-9.760269895195961E-003;-1.222316990606487E-003;-6.352853961288929E-003;
2.413166666666667E+009;1.800705790519714E-001;-1.208127848803997E-002;-1.532955677248538E-003;-6.505328696221113E-003;
2.413333333333334E+009;1.811410933732987E-001;-1.482050400227308E-002;-1.512578106485307E-003;-6.602507550269365E-003;
2.413500000000000E+009;1.819153875112534E-001;-1.744294352829456E-002;-1.729763578623533E-003;-6.551105063408613E-003;
2.413666666666667E+009;1.830538064241409E-001;-2.002057991921902E-002;-2.026039408519864E-003;-6.542470306158066E-003;
2.413833333333334E+009;1.840341985225678E-001;-2.221445180475712E-002;-2.231789054349065E-003;-6.665067747235298E-003;
2.414000000000000E+009;1.850373595952988E-001;-2.463676780462265E-002;-2.594461431726813E-003;-6.548119708895683E-003;
2.414166666666667E+009;1.862869262695313E-001;-2.669919840991497E-002;-2.853273646906018E-003;-6.595725659281015E-003;
2.414333333333334E+009;1.873632818460465E-001;-2.914379723370075E-002;-3.139042062684894E-003;-6.417849101126194E-003;
2.414500000000000E+009;1.889482736587524E-001;-3.094301372766495E-002;-3.321067662909627E-003;-6.438033655285835E-003;
2.414666666666667E+009;1.900520622730255E-001;-3.281628713011742E-002;-3.565859282389283E-003;-6.381076294928789E-003;
2.414833333333334E+009;1.912887692451477E-001;-3.441132605075836E-002;-3.874752670526505E-003;-6.208199542015791E-003;
2.415000000000000E+009;1.926926821470261E-001;-3.610164299607277E-002;-4.167858045548201E-003;-6.020637229084969E-003;
2.415166666666667E+009;1.941053867340088E-001;-3.746543079614639E-002;-4.379545804113150E-003;-5.786716006696224E-003;
2.415333333333334E+009;1.954953521490097E-001;-3.865181654691696E-002;-4.577676299959421E-003;-5.555036943405867E-003;
2.415500000000000E+009;1.967572122812271E-001;-3.955738991498947E-002;-4.856535233557224E-003;-5.379094742238522E-003;
2.415666666666667E+009;1.980901062488556E-001;-4.060447588562965E-002;-5.053067114204168E-003;-5.267803091555834E-003;
2.415833333333334E+009;1.991390585899353E-001;-4.131435230374336E-002;-5.107806064188480E-003;-4.996265750378370E-003;
2.416000000000000E+009;2.001486718654633E-001;-4.216318577528000E-002;-5.307713057845831E-003;-4.834227263927460E-003;
2.416166666666667E+009;2.012636810541153E-001;-4.282795637845993E-002;-5.358081776648760E-003;-4.603848792612553E-003;
2.416333333333334E+009;2.021075487136841E-001;-4.323748871684074E-002;-5.503430496901274E-003;-4.462202545255423E-003;
2.416500000000000E+009;2.030719220638275E-001;-4.350797086954117E-002;-5.656530614942312E-003;-4.192418418824673E-003;
2.416666666666667E+009;2.035524845123291E-001;-4.377486184239388E-002;-5.645342636853457E-003;-4.165804479271174E-003;
2.416833333333334E+009;2.040714919567108E-001;-4.397837817668915E-002;-5.839751567691565E-003;-3.800609149038792E-003;
2.417000000000000E+009;2.045982778072357E-001;-4.398747906088829E-002;-5.973482504487038E-003;-3.745686495676637E-003;
2.417166666666667E+009;2.047036737203598E-001;-4.386010020971298E-002;-5.958520807325840E-003;-3.335951128974557E-003;
2.417333333333334E+009;2.048207223415375E-001;-4.366046935319901E-002;-5.938723217695952E-003;-3.337017027661204E-003;
2.417500000000000E+009;2.048483937978745E-001;-4.354675859212875E-002;-6.076266057789326E-003;-3.173779463395476E-003;
2.417666666666667E+009;2.046144306659699E-001;-4.316354542970657E-002;-6.196163129061461E-003;-3.010921645909548E-003;
2.417833333333334E+009;2.044777870178223E-001;-4.285568743944168E-002;-6.384825333952904E-003;-2.853147219866514E-003;
2.418000000000000E+009;2.041381597518921E-001;-4.227010905742645E-002;-6.490152794867754E-003;-2.779978327453136E-003;
2.418166666666667E+009;2.035458236932755E-001;-4.192240536212921E-002;-6.505988538265228E-003;-2.535563427954912E-003;
2.418333333333334E+009;2.028344124555588E-001;-4.158002883195877E-002;-6.653038784861565E-003;-2.380109392106533E-003;
2.418500000000000E+009;2.019915878772736E-001;-4.127716645598412E-002;-6.816535722464323E-003;-2.133198780938983E-003;
2.418666666666667E+009;2.012126892805100E-001;-4.101408645510674E-002;-6.897591985762119E-003;-1.778414472937584E-003;
2.418833333333334E+009;1.999979168176651E-001;-4.095687344670296E-002;-6.899355445057154E-003;-1.578716444782913E-003;
2.419000000000000E+009;1.989345401525497E-001;-4.068777710199356E-002;-6.921281106770039E-003;-1.219869940541685E-003;
2.419166666666667E+009;1.978105902671814E-001;-4.072211682796478E-002;-6.963388994336128E-003;-1.070236321538687E-003;
2.419333333333334E+009;1.963437497615814E-001;-4.095118865370750E-002;-6.944462656974793E-003;-8.798432536423206E-004;
2.419500000000000E+009;1.948344707489014E-001;-4.095782712101936E-002;-6.908945739269257E-003;-4.451086570043117E-004;
2.419666666666667E+009;1.932153552770615E-001;-4.145130142569542E-002;-6.973645649850369E-003;-3.107827797066420E-004;
2.419833333333334E+009;1.913606673479080E-001;-4.188458621501923E-002;-6.767462473362684E-003;-1.482383481743455E-006;
2.420000000000000E+009;1.898531317710877E-001;-4.236948490142822E-002;-6.799913477152586E-003;8.897155203158036E-005;
2.420166666666667E+009;1.879741996526718E-001;-4.317506030201912E-002;-6.688701920211315E-003;2.923772553913295E-004;
2.420333333333334E+009;1.863303929567337E-001;-4.399825260043144E-002;-6.751311942934990E-003;3.374596126377583E-004;
2.420500000000000E+009;1.843606382608414E-001;-4.515802487730980E-002;-6.665150169283152E-003;4.656987148337066E-004;
2.420666666666667E+009;1.824766993522644E-001;-4.607952013611794E-002;-6.580723915249109E-003;6.342942360788584E-004;
2.420833333333334E+009;1.807174384593964E-001;-4.733014851808548E-002;-6.625730544328690E-003;9.110934915952385E-004;
2.421000000000000E+009;1.789029836654663E-001;-4.869244620203972E-002;-6.641144398599863E-003;8.628235082142055E-004;
2.421166666666667E+009;1.771617829799652E-001;-5.033583566546440E-002;-6.761583965271711E-003;1.157836755737662E-003;
2.421333333333334E+009;1.753783822059631E-001;-5.179333686828613E-002;-6.722400430589914E-003;1.314506283961237E-003;
2.421500000000000E+009;1.736244112253189E-001;-5.358982458710671E-002;-6.533009465783835E-003;1.422083354555070E-003;
2.421666666666667E+009;1.721353828907013E-001;-5.552282556891441E-002;-6.827146280556917E-003;1.721495762467384E-003;
2.421833333333334E+009;1.705787628889084E-001;-5.723728612065315E-002;-6.738137919455767E-003;1.952429651282728E-003;
2.422000000000000E+009;1.692546755075455E-001;-5.926970392465591E-002;-6.636455189436674E-003;2.257838612422347E-003;
2.422166666666667E+009;1.680257618427277E-001;-6.145421415567398E-002;-6.544742733240128E-003;2.387773944064975E-003;
2.422333333333334E+009;1.665937006473541E-001;-6.350755691528320E-002;-6.441640201956034E-003;2.789584221318364E-003;
2.422500000000000E+009;1.656089127063751E-001;-6.554197520017624E-002;-6.431570742279291E-003;2.926969667896628E-003;
2.422666666666667E+009;1.647188961505890E-001;-6.775684654712677E-002;-6.344358902424574E-003;3.302381373941898E-003;
2.422833333333334E+009;1.639452427625656E-001;-6.992220878601074E-002;-6.266242358833551E-003;3.446151968091726E-003;
2.423000000000000E+009;1.633681803941727E-001;-7.210324704647064E-002;-5.961216986179352E-003;3.802098799496889E-003;
2.423166666666667E+009;1.626722812652588E-001;-7.435122877359390E-002;-5.723971873521805E-003;3.873154288157821E-003;
2.423333333333334E+009;1.622066199779511E-001;-7.661715149879456E-002;-5.508255679160357E-003;4.123828839510679E-003;
2.423500000000000E+009;1.621727943420410E-001;-7.871175557374954E-002;-5.383169744163752E-003;4.325891844928265E-003;
2.423666666666667E+009;1.618515849113464E-001;-8.102265000343323E-002;-5.071070976555347E-003;4.466547630727291E-003;
2.423833333333334E+009;1.618089377880096E-001;-8.300494402647018E-002;-4.920672159641981E-003;4.615980200469494E-003;
2.424000000000000E+009;1.618529409170151E-001;-8.508870005607605E-002;-4.715958610177040E-003;4.734152462333441E-003;
2.424166666666667E+009;1.618579477071762E-001;-8.688628673553467E-002;-4.483126103878021E-003;4.794882144778967E-003;
2.424333333333334E+009;1.622726321220398E-001;-8.888362348079681E-002;-4.213350359350443E-003;4.853872582316399E-003;
2.424500000000000E+009;1.625759303569794E-001;-9.088584780693054E-002;-3.800892503932118E-003;5.104015115648508E-003;
2.424666666666667E+009;1.629523634910584E-001;-9.263369441032410E-002;-3.637374844402075E-003;5.133754108101130E-003;
2.424833333333334E+009;1.636306792497635E-001;-9.419105201959610E-002;-3.571049543097615E-003;5.267417524009943E-003;
2.425000000000000E+009;1.639367043972015E-001;-9.571490436792374E-002;-3.320672549307346E-003;5.179898813366890E-003;
2.425166666666667E+009;1.645045429468155E-001;-9.706482291221619E-002;-3.014925401657820E-003;5.142602138221264E-003;
2.425333333333334E+009;1.650825142860413E-001;-9.833791851997376E-002;-2.701301360502839E-003;5.229295231401920E-003;
2.425500000000000E+009;1.656601727008820E-001;-9.971436858177185E-002;-2.688481472432613E-003;5.272202659398317E-003;
2.425666666666667E+009;1.663429141044617E-001;-1.006785333156586E-001;-2.521677874028683E-003;5.272374488413334E-003;
2.425833333333334E+009;1.667731851339340E-001;-1.017378270626068E-001;-2.398059470579028E-003;5.133416038006544E-003;
2.426000000000000E+009;1.673993170261383E-001;-1.023029536008835E-001;-2.165064448490739E-003;5.254336167126894E-003;
2.426166666666667E+009;1.682229340076447E-001;-1.030297130346298E-001;-2.032204531133175E-003;5.248456727713347E-003;
2.426333333333334E+009;1.686520874500275E-001;-1.036767587065697E-001;-1.896172179840505E-003;5.357671063393354E-003;
2.426500000000000E+009;1.694359183311462E-001;-1.040616855025291E-001;-1.612520427443087E-003;5.242291837930679E-003;
2.426666666666667E+009;1.698837876319885E-001;-1.045595854520798E-001;-1.588601619005203E-003;5.158367566764355E-003;
2.426833333333334E+009;1.704799085855484E-001;-1.049569919705391E-001;-1.396743580698967E-003;5.411253776401281E-003;
2.427000000000000E+009;1.707993596792221E-001;-1.051260754466057E-001;-1.238183700479567E-003;5.163975059986115E-003;
2.427166666666667E+009;1.712794452905655E-001;-1.052066981792450E-001;-1.188255031593144E-003;5.059421062469482E-003;
2.427333333333334E+009;1.714973896741867E-001;-1.054898947477341E-001;-1.014175941236317E-003;4.972905851900578E-003;
2.427500000000000E+009;1.716004461050034E-001;-1.055422052741051E-001;-8.296428713947535E-004;5.019696429371834E-003;
2.427666666666667E+009;1.715341657400131E-001;-1.054865419864655E-001;-7.654398214071989E-004;4.897273611277342E-003;
