# Version 1.00
#
freq[Hz];re:Trc1_S11;im:Trc1_S11;re:Trc2_S21;im:Trc2_S21;
2.400000000000000E+009;1.579741835594177E-001;6.220467761158943E-002;1.608040300197899E-003;3.262245561927557E-003;
2.400166666666667E+009;1.577435582876205E-001;6.066728010773659E-002;1.581855467520654E-003;3.255255986005068E-003;
2.400333333333334E+009;1.576277464628220E-001;5.862347036600113E-002;1.763585722073913E-003;2.887176349759102E-003;
2.400500000000000E+009;1.576227396726608E-001;5.682020261883736E-002;1.996547216549516E-003;3.008630825206637E-003;
2.400666666666667E+009;1.575292944908142E-001;5.477270856499672E-002;2.013600198552012E-003;2.848768839612603E-003;
2.400833333333334E+009;1.575801819562912E-001;5.281692743301392E-002;2.128229709342122E-003;2.998806303367019E-003;
2.401000000000000E+009;1.576096564531326E-001;5.080152302980423E-002;2.304879482835531E-003;2.726317616179586E-003;
2.401166666666667E+009;1.579285115003586E-001;4.869033023715019E-002;2.258135005831718E-003;2.532221842557192E-003;
2.401333333333334E+009;1.580373793840408E-001;4.655719175934792E-002;2.470585983246565E-003;2.529624849557877E-003;
2.401500000000000E+009;1.584982722997665E-001;4.437941312789917E-002;2.556374995037913E-003;2.418598625808954E-003;
2.401666666666667E+009;1.588086038827896E-001;4.240128025412560E-002;2.651758724823594E-003;2.236010041087866E-003;
2.401833333333334E+009;1.590176969766617E-001;4.040073975920677E-002;2.722365781664848E-003;2.155866008251905E-003;
2.402000000000000E+009;1.594175994396210E-001;3.853579610586166E-002;2.725454512983561E-003;2.121967030689120E-003;
2.402166666666667E+009;1.601957380771637E-001;3.648157417774200E-002;2.592356875538826E-003;2.075941767543554E-003;
2.402333333333334E+009;1.605921983718872E-001;3.459506854414940E-002;2.816299675032497E-003;2.024633809924126E-003;
2.402500000000000E+009;1.613167375326157E-001;3.289697319269180E-002;2.892255317419767E-003;1.818180666305125E-003;
2.402666666666667E+009;1.620564013719559E-001;3.108491003513336E-002;2.916535129770637E-003;1.736412406899035E-003;
2.402833333333334E+009;1.627530753612518E-001;2.931434288620949E-002;2.851960249245167E-003;1.626830664463341E-003;
2.403000000000000E+009;1.636716723442078E-001;2.784138172864914E-002;2.856301143765450E-003;1.363738905638456E-003;
2.403166666666667E+009;1.644524633884430E-001;2.600717358291149E-002;2.781542018055916E-003;1.530314562842250E-003;
2.403333333333334E+009;1.655000299215317E-001;2.484627999365330E-002;2.937935525551438E-003;1.330716535449028E-003;
2.403500000000000E+009;1.663448214530945E-001;2.336909621953964E-002;2.850637538358569E-003;1.094856765121222E-003;
2.403666666666667E+009;1.673540771007538E-001;2.200443856418133E-002;2.724827267229557E-003;1.105174305848777E-003;
2.403833333333334E+009;1.683592200279236E-001;2.066025696694851E-002;2.857383340597153E-003;9.933223482221365E-004;
2.404000000000000E+009;1.694443076848984E-001;1.966043561697006E-002;2.929293317720294E-003;9.314152412116528E-004;
2.404166666666667E+009;1.704204976558685E-001;1.839091256260872E-002;2.743859076872468E-003;7.378348382189870E-004;
2.404333333333334E+009;1.713207066059113E-001;1.741684600710869E-002;3.051789011806250E-003;5.630755331367254E-004;
2.404500000000000E+009;1.722878217697144E-001;1.638182625174522E-002;2.806204371154308E-003;7.157776271924377E-004;
2.404666666666667E+009;1.733738034963608E-001;1.559041440486908E-002;2.919317223131657E-003;5.569451604969800E-004;
2.404833333333334E+009;1.740776300430298E-001;1.477780658751726E-002;2.864972455427051E-003;5.091404309496284E-004;
2.405000000000000E+009;1.750863641500473E-001;1.410541590303183E-002;2.701121382415295E-003;4.373272822704166E-004;
2.405166666666667E+009;1.757879257202148E-001;1.345227472484112E-002;2.723298501223326E-003;3.236763877794147E-004;
2.405333333333334E+009;1.767087876796722E-001;1.279832888394594E-002;2.792494837194681E-003;1.326971832895652E-004;
2.405500000000000E+009;1.773779243230820E-001;1.252695359289646E-002;2.791293896734715E-003;1.475576282246038E-004;
2.405666666666667E+009;1.780482232570648E-001;1.204042322933674E-002;2.847628667950630E-003;1.693311060080305E-004;
2.405833333333334E+009;1.784379780292511E-001;1.169900223612785E-002;2.835345920175314E-003;-1.051432336680591E-004;
2.406000000000000E+009;1.791621446609497E-001;1.121190935373306E-002;2.668246859684587E-003;-1.877956492535304E-005;
2.406166666666667E+009;1.793866753578186E-001;1.094923075288534E-002;2.783486619591713E-003;-7.034999725874513E-005;
2.406333333333334E+009;1.799461245536804E-001;1.075999904423952E-002;2.665466396138072E-003;-1.376443688059226E-004;
2.406500000000000E+009;1.802393943071365E-001;1.035295892506838E-002;2.730411710217595E-003;-1.855009759310633E-004;
2.406666666666667E+009;1.802405565977097E-001;1.020383741706610E-002;2.807184588164091E-003;-2.736490860115737E-004;
2.406833333333334E+009;1.805786341428757E-001;9.762763977050781E-003;2.831369871273637E-003;-2.287987299496308E-004;
2.407000000000000E+009;1.807132512331009E-001;9.532018564641476E-003;2.673997543752194E-003;-4.371363902464509E-004;
2.407166666666667E+009;1.807754486799240E-001;9.129480458796024E-003;2.751571824774146E-003;-3.386725147720426E-004;
2.407333333333334E+009;1.805865168571472E-001;8.660783059895039E-003;2.828103257343173E-003;-5.132528604008257E-004;
2.407500000000000E+009;1.804045587778091E-001;8.348328061401844E-003;2.726225415244699E-003;-6.891534430906177E-004;
2.407666666666667E+009;1.802354604005814E-001;7.989848032593727E-003;2.633187454193831E-003;-6.132515845820308E-004;
2.407833333333334E+009;1.797949075698853E-001;7.380945608019829E-003;2.575495978817344E-003;-6.157775060273707E-004;
2.408000000000000E+009;1.794584989547730E-001;6.702094804495573E-003;2.605124143883586E-003;-8.203000179491937E-004;
2.408166666666667E+009;1.789791435003281E-001;6.214454770088196E-003;2.702393569052219E-003;-9.044270846061409E-004;
2.408333333333334E+009;1.786138713359833E-001;5.485701374709606E-003;2.529062330722809E-003;-8.550311322323978E-004;
2.408500000000000E+009;1.780046671628952E-001;4.676776006817818E-003;2.600878942757845E-003;-1.048231846652925E-003;
2.408666666666667E+009;1.774345338344574E-001;3.608624218031764E-003;2.524179639294744E-003;-1.197179895825684E-003;
2.408833333333334E+009;1.767100989818573E-001;2.702983794733882E-003;2.527855569496751E-003;-1.030797488056123E-003;
2.409000000000000E+009;1.759018898010254E-001;1.656993757933378E-003;2.580189146101475E-003;-1.138281077146530E-003;
2.409166666666667E+009;1.754574030637741E-001;6.034956313669682E-004;2.463593380525708E-003;-1.323575619608164E-003;
2.409333333333334E+009;1.747161000967026E-001;-8.712250273674727E-004;2.514912514016032E-003;-1.399150700308383E-003;
2.409500000000000E+009;1.740175187587738E-001;-2.058724407106638E-003;2.451108768582344E-003;-1.503370469436050E-003;
2.409666666666667E+009;1.732703596353531E-001;-3.448036499321461E-003;2.453847788274288E-003;-1.567019149661064E-003;
2.409833333333334E+009;1.725572794675827E-001;-4.884334281086922E-003;2.367474604398012E-003;-1.736611942760646E-003;
2.410000000000000E+009;1.718983948230743E-001;-6.386667024344206E-003;2.340678358450532E-003;-1.622306182980537E-003;
2.410166666666667E+009;1.713997423648834E-001;-8.104673586785793E-003;2.281846012920141E-003;-1.811745576560497E-003;
2.410333333333334E+009;1.706957668066025E-001;-9.563096798956394E-003;2.196581568568945E-003;-1.833192305639386E-003;
2.410500000000000E+009;1.701213717460632E-001;-1.151277124881744E-002;2.286884468048811E-003;-1.921450486406684E-003;
2.410666666666667E+009;1.696652024984360E-001;-1.346352417021990E-002;2.161498647183180E-003;-2.070721704512835E-003;
2.410833333333334E+009;1.692260056734085E-001;-1.502283662557602E-002;2.077783457934856E-003;-2.024919493123889E-003;
2.411000000000000E+009;1.689569354057312E-001;-1.688116416335106E-002;2.018322935327888E-003;-2.219079528003931E-003;
2.411166666666667E+009;1.686654090881348E-001;-1.876499690115452E-002;1.931217382661998E-003;-2.292574383318424E-003;
2.411333333333334E+009;1.682771146297455E-001;-2.081028744578362E-002;1.786389155313373E-003;-2.417492214590311E-003;
2.411500000000000E+009;1.677660793066025E-001;-2.281022071838379E-002;1.658309949561954E-003;-2.385508269071579E-003;
2.411666666666667E+009;1.679827421903610E-001;-2.476545609533787E-002;1.586282975040376E-003;-2.488041529431939E-003;
2.411833333333334E+009;1.679707467556000E-001;-2.663225121796131E-002;1.529505243524909E-003;-2.561464905738831E-003;
2.412000000000000E+009;1.681053638458252E-001;-2.874203398823738E-002;1.294258865527809E-003;-2.645161468535662E-003;
2.412166666666667E+009;1.679226756095886E-001;-3.058823011815548E-002;1.428268267773092E-003;-2.593145007267594E-003;
2.412333333333334E+009;1.683713346719742E-001;-3.238100185990334E-002;1.049097860231996E-003;-2.652871189638972E-003;
2.412500000000000E+009;1.685102134943008E-001;-3.446312993764877E-002;1.103934482671320E-003;-2.683780621737242E-003;
2.412666666666667E+009;1.689608544111252E-001;-3.640494868159294E-002;9.999567409977317E-004;-2.704254817217588E-003;
2.412833333333334E+009;1.693124026060104E-001;-3.822316601872444E-002;7.549678557552397E-004;-2.809039084240794E-003;
2.413000000000000E+009;1.694606095552445E-001;-3.996299579739571E-002;6.576540181413293E-004;-2.693794202059507E-003;
2.413166666666667E+009;1.699484288692474E-001;-4.174854978919029E-002;4.771577951032668E-004;-2.811830490827560E-003;
2.413333333333334E+009;1.703435182571411E-001;-4.335001483559609E-002;4.637838865164667E-004;-2.619880950078368E-003;
2.413500000000000E+009;1.709814667701721E-001;-4.494478181004524E-002;4.192940832581371E-004;-2.767381025478244E-003;
2.413666666666667E+009;1.715880930423737E-001;-4.648825898766518E-002;2.523921721149236E-004;-2.662863582372665E-003;
2.413833333333334E+009;1.720905005931854E-001;-4.786327481269836E-002;2.941732236649841E-004;-2.623964101076126E-003;
2.414000000000000E+009;1.725367009639740E-001;-4.940316453576088E-002;8.235996574512683E-006;-2.590234391391277E-003;
2.414166666666667E+009;1.731889992952347E-001;-5.074199661612511E-002;-4.256439206073992E-005;-2.571796998381615E-003;
2.414333333333334E+009;1.737058907747269E-001;-5.192918330430985E-002;2.939086698461324E-005;-2.605586079880595E-003;
2.414500000000000E+009;1.743931323289871E-001;-5.299905315041542E-002;-1.710225624265149E-004;-2.353414427489042E-003;
2.414666666666667E+009;1.747856140136719E-001;-5.393764376640320E-002;-2.507733006495982E-004;-2.636697841808200E-003;
2.414833333333334E+009;1.752282381057739E-001;-5.493891611695290E-002;-2.819443761836737E-004;-2.282389439642429E-003;
2.415000000000000E+009;1.756964325904846E-001;-5.575900524854660E-002;-4.022404900752008E-004;-2.508003031834960E-003;
2.415166666666667E+009;1.761455684900284E-001;-5.653433501720429E-002;-4.180169489700347E-004;-2.421803772449493E-003;
2.415333333333334E+009;1.765971034765244E-001;-5.734015628695488E-002;-2.962720463983715E-004;-2.230576938018203E-003;
2.415500000000000E+009;1.769436150789261E-001;-5.782797187566757E-002;-6.326762377284467E-004;-2.230429323390126E-003;
2.415666666666667E+009;1.772636473178864E-001;-5.834359303116798E-002;-5.145067698322237E-004;-2.315882593393326E-003;
2.415833333333334E+009;1.774757802486420E-001;-5.898434296250343E-002;-6.834365776740015E-004;-2.227675868198276E-003;
2.416000000000000E+009;1.774598360061646E-001;-5.921632051467896E-002;-6.510951207019389E-004;-2.238336484879255E-003;
2.416166666666667E+009;1.777413636445999E-001;-5.957296490669251E-002;-9.442771552130580E-004;-2.153732581064105E-003;
2.416333333333334E+009;1.776455193758011E-001;-5.997812002897263E-002;-7.925114477984607E-004;-2.090138150379062E-003;
2.416500000000000E+009;1.775257140398026E-001;-6.022635847330093E-002;-9.973500855267048E-004;-2.113573020324111E-003;
2.416666666666667E+009;1.772731691598892E-001;-6.040480732917786E-002;-9.592119604349136E-004;-1.906020799651742E-003;
2.416833333333334E+009;1.771310120820999E-001;-6.081659346818924E-002;-7.856584270484746E-004;-2.014343626797199E-003;
2.417000000000000E+009;1.765617281198502E-001;-6.092333793640137E-002;-9.254749165847898E-004;-1.900006202049553E-003;
2.417166666666667E+009;1.761059910058975E-001;-6.113659217953682E-002;-1.169882714748383E-003;-1.891195192001760E-003;
2.417333333333334E+009;1.756984442472458E-001;-6.128273159265518E-002;-8.692382834851742E-004;-1.719017396681011E-003;
2.417500000000000E+009;1.749573051929474E-001;-6.154497712850571E-002;-1.082692178897560E-003;-1.850594650022686E-003;
2.417666666666667E+009;1.744719594717026E-001;-6.173028051853180E-002;-1.081761205568910E-003;-1.754775294102728E-003;
2.417833333333334E+009;1.736182421445847E-001;-6.202264130115509E-002;-1.208103843964636E-003;-1.579778734594584E-003;
2.418000000000000E+009;1.725731641054153E-001;-6.246253475546837E-002;-1.210710848681629E-003;-1.644062460400164E-003;
2.418166666666667E+009;1.715913563966751E-001;-6.262852996587753E-002;-1.095235231332481E-003;-1.567875035107136E-003;
2.418333333333334E+009;1.709143817424774E-001;-6.312225759029388E-002;-1.181274536065757E-003;-1.558139687404037E-003;
2.418500000000000E+009;1.696860939264298E-001;-6.340122222900391E-002;-1.206725602969527E-003;-1.495243632234633E-003;
2.418666666666667E+009;1.687084585428238E-001;-6.401658058166504E-002;-1.205333508551121E-003;-1.417781575582922E-003;
2.418833333333334E+009;1.674008220434189E-001;-6.447438895702362E-002;-1.163387787528336E-003;-1.329304068349302E-003;
2.419000000000000E+009;1.661168932914734E-001;-6.512017548084259E-002;-1.241092337295413E-003;-1.386207295581698E-003;
2.419166666666667E+009;1.650849431753159E-001;-6.591745465993881E-002;-1.196289900690317E-003;-1.395547995343804E-003;
2.419333333333334E+009;1.637451946735382E-001;-6.626633554697037E-002;-1.117278705351055E-003;-1.410223427228630E-003;
2.419500000000000E+009;1.626131832599640E-001;-6.749298423528671E-002;-1.209554378874600E-003;-1.314350403845310E-003;
2.419666666666667E+009;1.614713519811630E-001;-6.831416487693787E-002;-1.112489495426416E-003;-1.316273002885282E-003;
2.419833333333334E+009;1.602612286806107E-001;-6.925986707210541E-002;-1.120287226513028E-003;-1.328845857642591E-003;
2.420000000000000E+009;1.591427624225617E-001;-7.021913677453995E-002;-1.292621134780347E-003;-1.125232898630202E-003;
2.420166666666667E+009;1.579952687025070E-001;-7.148073613643646E-002;-1.160010811872780E-003;-1.325275399722159E-003;
2.420333333333334E+009;1.569358408451080E-001;-7.273214310407639E-002;-1.299893949180841E-003;-1.248830347321928E-003;
2.420500000000000E+009;1.558675467967987E-001;-7.381469011306763E-002;-1.291272579692304E-003;-1.209788140840828E-003;
2.420666666666667E+009;1.548416316509247E-001;-7.501864433288574E-002;-1.340732676908374E-003;-1.289712730795145E-003;
2.420833333333334E+009;1.540024280548096E-001;-7.676237821578980E-002;-1.371972495689988E-003;-1.138243707828224E-003;
2.421000000000000E+009;1.531708836555481E-001;-7.812871038913727E-002;-1.264013117179275E-003;-1.240967074409127E-003;
2.421166666666667E+009;1.523777544498444E-001;-7.965549081563950E-002;-1.367504824884236E-003;-1.168019021861255E-003;
2.421333333333334E+009;1.517642885446549E-001;-8.124995231628418E-002;-1.523357350379229E-003;-1.187944319099188E-003;
2.421500000000000E+009;1.510194838047028E-001;-8.263782411813736E-002;-1.454792218282819E-003;-1.089263125322759E-003;
2.421666666666667E+009;1.506677567958832E-001;-8.441359549760819E-002;-1.636617933399975E-003;-1.037329435348511E-003;
2.421833333333334E+009;1.502724289894104E-001;-8.623591810464859E-002;-1.479374244809151E-003;-1.146003138273954E-003;
2.422000000000000E+009;1.498214006423950E-001;-8.775057643651962E-002;-1.681770780123770E-003;-1.060324604623020E-003;
2.422166666666667E+009;1.496681869029999E-001;-8.966191112995148E-002;-1.631258404813707E-003;-1.058040768839419E-003;
2.422333333333334E+009;1.494884341955185E-001;-9.111825376749039E-002;-1.704369438812137E-003;-1.005090889520943E-003;
2.422500000000000E+009;1.492730975151062E-001;-9.301067143678665E-002;-1.820255303755403E-003;-9.725863346830010E-004;
2.422666666666667E+009;1.492967158555985E-001;-9.485794603824616E-002;-1.762998057529330E-003;-8.856747881509364E-004;
2.422833333333334E+009;1.493604630231857E-001;-9.643259644508362E-002;-1.841025892645121E-003;-9.278090437874198E-004;
2.423000000000000E+009;1.495680063962936E-001;-9.819572418928146E-002;-1.897474634461105E-003;-7.436311570927501E-004;
2.423166666666667E+009;1.495828479528427E-001;-9.970081597566605E-002;-1.977548003196716E-003;-6.931448588147759E-004;
2.423333333333334E+009;1.501581966876984E-001;-1.011006236076355E-001;-2.035106765106320E-003;-7.541074301116169E-004;
2.423500000000000E+009;1.503085345029831E-001;-1.027909517288208E-001;-1.982050482183695E-003;-7.388255326077342E-004;
2.423666666666667E+009;1.505701690912247E-001;-1.043641716241837E-001;-2.158096292987466E-003;-6.596419261768460E-004;
2.423833333333334E+009;1.511632055044174E-001;-1.057118102908135E-001;-2.121740952134132E-003;-3.553522401489317E-004;
2.424000000000000E+009;1.514324247837067E-001;-1.069454327225685E-001;-2.230971120297909E-003;-4.203355638310313E-004;
2.424166666666667E+009;1.519465893507004E-001;-1.082137078046799E-001;-2.147313905879855E-003;-3.607004473451525E-004;
2.424333333333334E+009;1.526258289813995E-001;-1.094755977392197E-001;-2.184008713811636E-003;-2.432851179037243E-004;
2.424500000000000E+009;1.530042737722397E-001;-1.106166765093803E-001;-2.035523997619748E-003;-2.452982007525861E-004;
2.424666666666667E+009;1.536525487899780E-001;-1.115521714091301E-001;-2.209286438301206E-003;-3.947722143493593E-005;
2.424833333333334E+009;1.537782251834869E-001;-1.127055436372757E-001;-2.097426215186715E-003;-4.335617632023059E-005;
2.425000000000000E+009;1.543927937746048E-001;-1.137463599443436E-001;-2.174472203478217E-003;3.530468165990897E-005;
2.425166666666667E+009;1.547157317399979E-001;-1.144283041357994E-001;-2.133092610165477E-003;3.508739464450628E-004;
2.425333333333334E+009;1.551520228385925E-001;-1.151369661092758E-001;-2.232024213299155E-003;3.420439024921507E-004;
2.425500000000000E+009;1.555147767066956E-001;-1.157885864377022E-001;-2.219813410192728E-003;6.056358688510954E-004;
2.425666666666667E+009;1.556935608386993E-001;-1.163966134190559E-001;-2.010387368500233E-003;5.749013507738709E-004;
2.425833333333334E+009;1.559805721044540E-001;-1.168709993362427E-001;-1.992872217670083E-003;5.943740834482014E-004;
2.426000000000000E+009;1.561264395713806E-001;-1.174926236271858E-001;-1.858791802078486E-003;7.182049448601902E-004;
2.426166666666667E+009;1.564721167087555E-001;-1.177759319543839E-001;-1.807685475796461E-003;7.594908238388598E-004;
2.426333333333334E+009;1.563257873058319E-001;-1.180258691310883E-001;-1.847316161729395E-003;8.310685516335070E-004;
2.426500000000000E+009;1.563563048839569E-001;-1.183396503329277E-001;-1.744959619827569E-003;8.029575692489743E-004;
2.426666666666667E+009;1.564769446849823E-001;-1.184098422527313E-001;-1.661516143940389E-003;1.034807064570487E-003;
2.426833333333334E+009;1.560419648885727E-001;-1.185114085674286E-001;-1.584610086865723E-003;1.106432988308370E-003;
2.427000000000000E+009;1.557832360267639E-001;-1.187041401863098E-001;-1.499915379099548E-003;9.611267014406622E-004;
2.427166666666667E+009;1.554729789495468E-001;-1.187516227364540E-001;-1.474117627367377E-003;1.250551780685782E-003;
2.427333333333334E+009;1.548800319433212E-001;-1.188198253512383E-001;-1.404841430485249E-003;1.075853360816836E-003;
2.427500000000000E+009;1.543641984462738E-001;-1.190259382128716E-001;-1.273141009733081E-003;1.218014396727085E-003;
2.427666666666667E+009;1.536542624235153E-001;-1.191445887088776E-001;-1.362324808724225E-003;1.197171746753156E-003;
