# Version 1.00
#
freq[Hz];re:Trc1_S11;im:Trc1_S11;re:Trc2_S21;im:Trc2_S21;
2.400000000000000E+009;1.578837037086487E-001;6.218834966421127E-002;1.797495409846306E-003;3.215775359421969E-003;
2.400166666666667E+009;1.578001827001572E-001;6.074051931500435E-002;1.788700930774212E-003;3.058687783777714E-003;
2.400333333333334E+009;1.575495004653931E-001;5.857951939105988E-002;2.002598484978080E-003;3.065471537411213E-003;
2.400500000000000E+009;1.576490402221680E-001;5.683201923966408E-002;2.102483529597521E-003;2.911475254222751E-003;
2.400666666666667E+009;1.575948148965836E-001;5.479296669363976E-002;2.193174324929714E-003;2.886926522478461E-003;
2.400833333333334E+009;1.576493531465530E-001;5.292471870779991E-002;2.387826330959797E-003;2.697412390261889E-003;
2.401000000000000E+009;1.577255427837372E-001;5.068185552954674E-002;2.393863396719098E-003;2.625172957777977E-003;
2.401166666666667E+009;1.579406112432480E-001;4.868527129292488E-002;2.444603713229299E-003;2.378573874011636E-003;
2.401333333333334E+009;1.581840515136719E-001;4.659790918231010E-002;2.532301004976034E-003;2.466155681759119E-003;
2.401500000000000E+009;1.585834920406342E-001;4.451533406972885E-002;2.540396759286523E-003;2.325517823919654E-003;
2.401666666666667E+009;1.586903333663940E-001;4.247425496578217E-002;2.796699525788426E-003;2.216446911916137E-003;
2.401833333333334E+009;1.590794026851654E-001;4.036516696214676E-002;2.790535334497690E-003;1.945994677953422E-003;
2.402000000000000E+009;1.595922261476517E-001;3.838404640555382E-002;2.666818909347057E-003;1.977917039766908E-003;
2.402166666666667E+009;1.600531637668610E-001;3.641221299767494E-002;2.794805448502302E-003;1.777129014953971E-003;
2.402333333333334E+009;1.604582518339157E-001;3.461436927318573E-002;2.974066883325577E-003;1.673474675044417E-003;
2.402500000000000E+009;1.613955944776535E-001;3.264715522527695E-002;2.856981707736850E-003;1.628256519325078E-003;
2.402666666666667E+009;1.621033847332001E-001;3.100573085248470E-002;2.947071334347129E-003;1.454935874789953E-003;
2.402833333333334E+009;1.628516614437103E-001;2.922306768596172E-002;2.809053286910057E-003;1.457400969229639E-003;
2.403000000000000E+009;1.636606156826019E-001;2.762601338326931E-002;2.914562122896314E-003;1.271654036827385E-003;
2.403166666666667E+009;1.646432876586914E-001;2.609863132238388E-002;3.046512138098478E-003;1.192217809148133E-003;
2.403333333333334E+009;1.655148863792419E-001;2.473942935466766E-002;2.979533979669213E-003;9.290878660976887E-004;
2.403500000000000E+009;1.663665324449539E-001;2.332612127065659E-002;3.020797157660127E-003;9.200978092849255E-004;
2.403666666666667E+009;1.672943830490112E-001;2.200759388506413E-002;2.852556062862277E-003;9.761095279827714E-004;
2.403833333333334E+009;1.685505360364914E-001;2.063787542283535E-002;3.088055178523064E-003;8.041451219469309E-004;
2.404000000000000E+009;1.692194491624832E-001;1.954201422631741E-002;2.913335571065545E-003;7.600267417728901E-004;
2.404166666666667E+009;1.701859235763550E-001;1.828638277947903E-002;2.984984777867794E-003;6.334258941933513E-004;
2.404333333333334E+009;1.713259071111679E-001;1.745350845158100E-002;2.871143165975809E-003;4.116486816201359E-004;
2.404500000000000E+009;1.720614880323410E-001;1.640741527080536E-002;2.887064125388861E-003;4.832346457988024E-004;
2.404666666666667E+009;1.731948554515839E-001;1.560197863727808E-002;2.847210504114628E-003;2.557534899096936E-004;
2.404833333333334E+009;1.740323454141617E-001;1.481410395354033E-002;2.805950818583369E-003;2.236807195004076E-004;
2.405000000000000E+009;1.749750375747681E-001;1.408735848963261E-002;2.762567717581987E-003;2.730332780629396E-004;
2.405166666666667E+009;1.758827269077301E-001;1.353261526674032E-002;2.781607909128070E-003;8.360736683243886E-005;
2.405333333333334E+009;1.765469610691071E-001;1.279829349368811E-002;2.686556661501527E-003;-2.198470792791341E-005;
2.405500000000000E+009;1.773516535758972E-001;1.251097489148378E-002;2.703344449400902E-003;-1.398103631800041E-005;
2.405666666666667E+009;1.779464185237885E-001;1.202035881578922E-002;2.731835469603539E-003;-7.235859084175900E-005;
2.405833333333334E+009;1.784818470478058E-001;1.174632180482149E-002;2.809890545904636E-003;-2.739065894274972E-005;
2.406000000000000E+009;1.791734546422958E-001;1.121005043387413E-002;2.795710694044828E-003;-2.665706269908696E-004;
2.406166666666667E+009;1.794751882553101E-001;1.096101105213165E-002;2.867584815248847E-003;-2.429355372441933E-004;
2.406333333333334E+009;1.799730658531189E-001;1.059253886342049E-002;2.782694064080715E-003;-2.165903279092163E-004;
2.406500000000000E+009;1.802622377872467E-001;1.023202016949654E-002;2.664691768586636E-003;-2.937421959359199E-004;
2.406666666666667E+009;1.803733706474304E-001;1.006725896149874E-002;2.566833980381489E-003;-4.064279200974852E-004;
2.406833333333334E+009;1.807083636522293E-001;9.675546549260616E-003;2.608614508062601E-003;-2.859122760128230E-004;
2.407000000000000E+009;1.807110607624054E-001;9.443929418921471E-003;2.639114623889327E-003;-5.352005828171969E-004;
2.407166666666667E+009;1.807396560907364E-001;9.180139750242233E-003;2.648812951520085E-003;-4.897958133369684E-004;
2.407333333333334E+009;1.806702464818955E-001;8.555302396416664E-003;2.644846448674798E-003;-6.470607477240264E-004;
2.407500000000000E+009;1.804083287715912E-001;8.347707800567150E-003;2.686856081709266E-003;-6.715988274663687E-004;
2.407666666666667E+009;1.801856905221939E-001;7.887612096965313E-003;2.708195941522718E-003;-7.322948658838868E-004;
2.407833333333334E+009;1.797561794519424E-001;7.242912426590920E-003;2.619241364300251E-003;-9.320091921836138E-004;
2.408000000000000E+009;1.794431209564209E-001;6.665215361863375E-003;2.715390641242266E-003;-1.017186674289405E-003;
2.408166666666667E+009;1.789268106222153E-001;6.048167590051889E-003;2.617418300360441E-003;-1.112396479584277E-003;
2.408333333333334E+009;1.786639392375946E-001;5.368173122406006E-003;2.609650138765574E-003;-9.229962015524507E-004;
2.408500000000000E+009;1.780508756637573E-001;4.410067573189735E-003;2.507192781195045E-003;-1.081850728951395E-003;
2.408666666666667E+009;1.773256510496140E-001;3.567836945876479E-003;2.512405859306455E-003;-9.960199240595102E-004;
2.408833333333334E+009;1.766735464334488E-001;2.641680417582393E-003;2.503182971850038E-003;-1.281723845750094E-003;
2.409000000000000E+009;1.759926378726959E-001;1.674482831731439E-003;2.636377234011889E-003;-1.335693406872451E-003;
2.409166666666667E+009;1.753693222999573E-001;5.049355095252395E-004;2.425113925710321E-003;-1.494303345680237E-003;
2.409333333333334E+009;1.748389899730682E-001;-7.991559687070549E-004;2.502264222130179E-003;-1.599872135557234E-003;
2.409500000000000E+009;1.740343272686005E-001;-2.292555524036288E-003;2.333204494789243E-003;-1.584681449458003E-003;
2.409666666666667E+009;1.733282655477524E-001;-3.568444401025772E-003;2.428082050755620E-003;-1.732825767248869E-003;
2.409833333333334E+009;1.723440587520599E-001;-4.924634471535683E-003;2.334056189283729E-003;-1.876219292171300E-003;
2.410000000000000E+009;1.719449460506439E-001;-6.523093674331904E-003;2.246777061372995E-003;-1.868834369815886E-003;
2.410166666666667E+009;1.713484674692154E-001;-8.046627976000309E-003;2.203471492975950E-003;-1.941990107297897E-003;
2.410333333333334E+009;1.705555021762848E-001;-9.706122800707817E-003;2.209484577178955E-003;-2.042625332251191E-003;
2.410500000000000E+009;1.701999604701996E-001;-1.164639741182327E-002;2.069211797788739E-003;-2.164052799344063E-003;
2.410666666666667E+009;1.696005910634995E-001;-1.354561280459166E-002;1.921337563544512E-003;-2.260244684293866E-003;
2.410833333333334E+009;1.692205518484116E-001;-1.520826295018196E-002;1.950619160197675E-003;-2.352734329178929E-003;
2.411000000000000E+009;1.686712652444840E-001;-1.697223447263241E-002;1.776726450771093E-003;-2.225617179647088E-003;
2.411166666666667E+009;1.683803349733353E-001;-1.886567100882530E-002;1.714015728794038E-003;-2.400634111836553E-003;
2.411333333333334E+009;1.682227700948715E-001;-2.081922069191933E-002;1.546987914480269E-003;-2.560667926445603E-003;
2.411500000000000E+009;1.681087762117386E-001;-2.286162599921227E-002;1.467038993723691E-003;-2.558045089244843E-003;
2.411666666666667E+009;1.678784042596817E-001;-2.478162385523319E-002;1.439293846487999E-003;-2.565062372013927E-003;
2.411833333333334E+009;1.678109318017960E-001;-2.674010023474693E-002;1.190268900245428E-003;-2.573887119069696E-003;
2.412000000000000E+009;1.678964197635651E-001;-2.862719446420670E-002;1.153945224359632E-003;-2.614381257444620E-003;
2.412166666666667E+009;1.679853349924088E-001;-3.060760349035263E-002;1.076437532901764E-003;-2.791119739413261E-003;
2.412333333333334E+009;1.681283861398697E-001;-3.260217979550362E-002;9.790154872462153E-004;-2.807948039844632E-003;
2.412500000000000E+009;1.683118641376495E-001;-3.430265188217163E-002;9.681201772764325E-004;-2.763911848887801E-003;
2.412666666666667E+009;1.687436699867249E-001;-3.641694784164429E-002;6.695397314615548E-004;-2.783675445243716E-003;
2.412833333333334E+009;1.691147387027741E-001;-3.826268762350082E-002;5.876052309758961E-004;-2.656220458447933E-003;
2.413000000000000E+009;1.693954467773438E-001;-3.991012275218964E-002;4.938024794682860E-004;-2.661843784153462E-003;
2.413166666666667E+009;1.697211265563965E-001;-4.192887619137764E-002;4.548359429463744E-004;-2.675004769116640E-003;
2.413333333333334E+009;1.702596098184586E-001;-4.331802576780319E-002;3.635663015302271E-004;-2.595368539914489E-003;
2.413500000000000E+009;1.708995848894119E-001;-4.497413337230682E-002;2.452591434121132E-004;-2.704331185668707E-003;
2.413666666666667E+009;1.715084314346314E-001;-4.665393009781838E-002;1.260899734916166E-004;-2.610237570479512E-003;
2.413833333333334E+009;1.720427125692368E-001;-4.794659093022347E-002;-1.967337084352039E-005;-2.572454512119293E-003;
2.414000000000000E+009;1.724296808242798E-001;-4.929368942975998E-002;-1.340876624453813E-004;-2.741273492574692E-003;
2.414166666666667E+009;1.730836033821106E-001;-5.073599889874458E-002;-1.777900615707040E-004;-2.473305677995086E-003;
2.414333333333334E+009;1.736124306917191E-001;-5.199783295392990E-002;-2.737870672717691E-004;-2.482754411175847E-003;
2.414500000000000E+009;1.742985695600510E-001;-5.300517007708550E-002;-1.857553579611704E-004;-2.408054657280445E-003;
2.414666666666667E+009;1.748815178871155E-001;-5.394424125552177E-002;-4.504894604906440E-004;-2.391999820247293E-003;
2.414833333333334E+009;1.753939390182495E-001;-5.509131401777268E-002;-3.839664568658918E-004;-2.310737036168575E-003;
2.415000000000000E+009;1.757011115550995E-001;-5.575690791010857E-002;-4.795798449777067E-004;-2.316072117537260E-003;
2.415166666666667E+009;1.761981248855591E-001;-5.647079646587372E-002;-5.814082687720656E-004;-2.232222119346261E-003;
2.415333333333334E+009;1.765217781066895E-001;-5.726581439375877E-002;-6.433009402826428E-004;-2.387461019679904E-003;
2.415500000000000E+009;1.769362837076187E-001;-5.778508260846138E-002;-6.824192241765559E-004;-2.235223539173603E-003;
2.415666666666667E+009;1.771688610315323E-001;-5.831492319703102E-002;-6.959484308026731E-004;-2.122615231201053E-003;
2.415833333333334E+009;1.773410886526108E-001;-5.873114615678787E-002;-8.203646866604686E-004;-2.165123354643583E-003;
2.416000000000000E+009;1.773850917816162E-001;-5.925859138369560E-002;-8.430698071606457E-004;-2.099788049235940E-003;
2.416166666666667E+009;1.776608079671860E-001;-5.954194813966751E-002;-9.038239368237555E-004;-2.054246375337243E-003;
2.416333333333334E+009;1.775339096784592E-001;-5.983768403530121E-002;-9.555113501846790E-004;-1.951695419847965E-003;
2.416500000000000E+009;1.774572134017944E-001;-6.021551415324211E-002;-1.003525452688336E-003;-2.057730685919523E-003;
2.416666666666667E+009;1.772693395614624E-001;-6.039309129118919E-002;-9.280921076424420E-004;-1.997790532186627E-003;
2.416833333333334E+009;1.770451664924622E-001;-6.080116704106331E-002;-9.751271572895348E-004;-1.725889043882489E-003;
2.417000000000000E+009;1.765468269586563E-001;-6.094422191381455E-002;-1.016047084704042E-003;-1.757591613568366E-003;
2.417166666666667E+009;1.760727316141129E-001;-6.106282025575638E-002;-1.036084606312215E-003;-1.804423867724836E-003;
2.417333333333334E+009;1.756203323602676E-001;-6.122591346502304E-002;-1.140335807576776E-003;-1.652166713029146E-003;
2.417500000000000E+009;1.749931126832962E-001;-6.170097365975380E-002;-1.067576697096229E-003;-1.813448732718825E-003;
2.417666666666667E+009;1.743345260620117E-001;-6.172271445393562E-002;-1.214344985783100E-003;-1.512557384558022E-003;
2.417833333333334E+009;1.734609603881836E-001;-6.196720153093338E-002;-1.336458255536854E-003;-1.468359609134495E-003;
2.418000000000000E+009;1.726376861333847E-001;-6.238668039441109E-002;-1.197828329168260E-003;-1.534310635179281E-003;
2.418166666666667E+009;1.716182380914688E-001;-6.254073232412338E-002;-1.216652919538319E-003;-1.626415760256350E-003;
2.418333333333334E+009;1.709108501672745E-001;-6.289245188236237E-002;-1.254820381291211E-003;-1.383888185955584E-003;
2.418500000000000E+009;1.696322113275528E-001;-6.353794783353806E-002;-1.221853191964328E-003;-1.469204551540315E-003;
2.418666666666667E+009;1.686840504407883E-001;-6.405396014451981E-002;-1.255132956430316E-003;-1.415999024175108E-003;
2.418833333333334E+009;1.674237847328186E-001;-6.463877856731415E-002;-1.294931978918612E-003;-1.432164222933352E-003;
2.419000000000000E+009;1.662123650312424E-001;-6.513962149620056E-002;-1.243687351234257E-003;-1.311086933128536E-003;
2.419166666666667E+009;1.651026159524918E-001;-6.582819670438767E-002;-1.220651436597109E-003;-1.136847771704197E-003;
2.419333333333334E+009;1.636743843555450E-001;-6.635230779647827E-002;-1.329489867202938E-003;-1.234490890055895E-003;
2.419500000000000E+009;1.626035124063492E-001;-6.741082668304443E-002;-1.339675392955542E-003;-1.049088663421571E-003;
2.419666666666667E+009;1.614592224359512E-001;-6.846866011619568E-002;-1.322804018855095E-003;-1.195180579088628E-003;
2.419833333333334E+009;1.600870043039322E-001;-6.913684308528900E-002;-1.407815609127283E-003;-1.221403712406755E-003;
2.420000000000000E+009;1.591088026762009E-001;-7.032238692045212E-002;-1.239584526047111E-003;-1.202463055960834E-003;
2.420166666666667E+009;1.579993516206741E-001;-7.152203470468521E-002;-1.403039437718689E-003;-1.120208762586117E-003;
2.420333333333334E+009;1.568604558706284E-001;-7.276576757431030E-002;-1.359173562377691E-003;-1.063040108419955E-003;
2.420500000000000E+009;1.558473855257034E-001;-7.374045252799988E-002;-1.422708737663925E-003;-1.062246505171061E-003;
2.420666666666667E+009;1.548546552658081E-001;-7.515067607164383E-002;-1.307707163505256E-003;-1.052569947205484E-003;
2.420833333333334E+009;1.539452522993088E-001;-7.677499204874039E-002;-1.369269215501845E-003;-1.112943748012185E-003;
2.421000000000000E+009;1.531375199556351E-001;-7.813921570777893E-002;-1.411822508089244E-003;-1.048079691827297E-003;
2.421166666666667E+009;1.525405645370483E-001;-7.954757660627365E-002;-1.356724184006453E-003;-8.943148422986269E-004;
2.421333333333334E+009;1.518119722604752E-001;-8.122994005680084E-002;-1.486348337493837E-003;-9.140913025476039E-004;
2.421500000000000E+009;1.509999781847000E-001;-8.287172764539719E-002;-1.576753449626267E-003;-1.157567836344242E-003;
2.421666666666667E+009;1.506568491458893E-001;-8.443129807710648E-002;-1.631058054044843E-003;-9.620783966965973E-004;
2.421833333333334E+009;1.502590030431747E-001;-8.614093810319901E-002;-1.518141129054129E-003;-9.218121413141489E-004;
2.422000000000000E+009;1.499657630920410E-001;-8.788058906793594E-002;-1.592638785950840E-003;-8.727154345251620E-004;
2.422166666666667E+009;1.495727449655533E-001;-8.961094915866852E-002;-1.747711794450879E-003;-1.029789214953780E-003;
2.422333333333334E+009;1.494384407997131E-001;-9.131804108619690E-002;-1.723753637634218E-003;-7.353321998380125E-004;
2.422500000000000E+009;1.492924988269806E-001;-9.288047254085541E-002;-1.705732662230730E-003;-8.582806913182139E-004;
2.422666666666667E+009;1.490823477506638E-001;-9.471979737281799E-002;-1.631424529477954E-003;-9.375513182021678E-004;
2.422833333333334E+009;1.494867056608200E-001;-9.648258239030838E-002;-1.724068657495081E-003;-8.752836147323251E-004;
2.423000000000000E+009;1.495582163333893E-001;-9.805513918399811E-002;-1.860513701103628E-003;-7.946371915750206E-004;
2.423166666666667E+009;1.497788280248642E-001;-9.973102062940598E-002;-1.898273476399481E-003;-5.998141132295132E-004;
2.423333333333334E+009;1.501786857843399E-001;-1.009387895464897E-001;-1.989955548197031E-003;-5.391632439568639E-004;
2.423500000000000E+009;1.503622829914093E-001;-1.028771102428436E-001;-1.914333784952760E-003;-5.854666815139353E-004;
2.423666666666667E+009;1.505316346883774E-001;-1.043820083141327E-001;-2.001923741772771E-003;-4.850557306781411E-004;
2.423833333333334E+009;1.511515676975250E-001;-1.059131920337677E-001;-1.835532370023429E-003;-3.596997994463891E-004;
2.424000000000000E+009;1.516071707010269E-001;-1.070111468434334E-001;-2.089801710098982E-003;-2.820420777425170E-004;
2.424166666666667E+009;1.520381122827530E-001;-1.084741950035095E-001;-2.113526687026024E-003;-6.736398790962994E-005;
2.424333333333334E+009;1.524472534656525E-001;-1.096586734056473E-001;-1.968112541362643E-003;-5.066403900855221E-005;
2.424500000000000E+009;1.529712378978729E-001;-1.107681840658188E-001;-2.116430550813675E-003;8.268403689726256E-006;
2.424666666666667E+009;1.536160111427307E-001;-1.116982549428940E-001;-2.030367264524102E-003;5.450386743177660E-005;
2.424833333333334E+009;1.539698392152786E-001;-1.128029450774193E-001;-2.191192237660289E-003;6.076660793041810E-005;
2.425000000000000E+009;1.544433534145355E-001;-1.136937513947487E-001;-2.212206134572625E-003;1.702114677755162E-004;
2.425166666666667E+009;1.546717882156372E-001;-1.145340874791145E-001;-2.106700092554092E-003;3.219206701032817E-004;
2.425333333333334E+009;1.552163660526276E-001;-1.152289211750031E-001;-2.045034430921078E-003;3.904406330548227E-004;
2.425500000000000E+009;1.556277722120285E-001;-1.159240901470184E-001;-2.143867546692491E-003;4.919367493130267E-004;
2.425666666666667E+009;1.556704491376877E-001;-1.165688335895538E-001;-1.933153951540589E-003;6.172448047436774E-004;
2.425833333333334E+009;1.560115516185761E-001;-1.170510128140450E-001;-2.020704559981823E-003;6.512155523523688E-004;
2.426000000000000E+009;1.561105549335480E-001;-1.175354570150375E-001;-1.951463171280921E-003;6.914197583682835E-004;
2.426166666666667E+009;1.564661115407944E-001;-1.179453283548355E-001;-1.871049520559609E-003;7.376233115792275E-004;
2.426333333333334E+009;1.563193053007126E-001;-1.182146891951561E-001;-1.857225783169270E-003;9.038266143761575E-004;
2.426500000000000E+009;1.563076972961426E-001;-1.183487325906754E-001;-1.750434050336480E-003;8.982466533780098E-004;
2.426666666666667E+009;1.563079357147217E-001;-1.184263080358505E-001;-1.604773220606148E-003;1.059756381437182E-003;
2.426833333333334E+009;1.560453176498413E-001;-1.186746209859848E-001;-1.665694871917367E-003;1.075473264791071E-003;
2.427000000000000E+009;1.556695997714996E-001;-1.189149543642998E-001;-1.568967709317803E-003;1.057377317920327E-003;
2.427166666666667E+009;1.553833633661270E-001;-1.187454685568810E-001;-1.494513824582100E-003;1.086448202840984E-003;
2.427333333333334E+009;1.548031568527222E-001;-1.189417988061905E-001;-1.448580296710134E-003;1.218152465298772E-003;
2.427500000000000E+009;1.544077694416046E-001;-1.189932525157929E-001;-1.376887434162200E-003;1.057772547937930E-003;
2.427666666666667E+009;1.535492986440659E-001;-1.192745417356491E-001;-1.297437585890293E-003;1.070259953849018E-003;
