# Version 1.00
#
freq[Hz];re:Trc1_S11;im:Trc1_S11;re:Trc2_S21;im:Trc2_S21;
2.400000000000000E+009;1.507847756147385E-001;1.153209209442139E-001;2.144671976566315E-003;1.501664984971285E-003;
2.400166666666667E+009;1.505640447139740E-001;1.132011786103249E-001;2.024395624175668E-003;1.242964877746999E-003;
2.400333333333334E+009;1.503609865903854E-001;1.109730824828148E-001;2.067921916022897E-003;8.385646506212652E-004;
2.400500000000000E+009;1.503052562475205E-001;1.084460839629173E-001;2.127367304638028E-003;5.460961256176233E-004;
2.400666666666667E+009;1.503561139106751E-001;1.060723066329956E-001;1.780104823410511E-003;1.032529908115976E-004;
2.400833333333334E+009;1.501816362142563E-001;1.032791882753372E-001;1.749483053572476E-003;-1.183457789011300E-004;
2.401000000000000E+009;1.503546386957169E-001;1.005250439047813E-001;1.495084841735661E-003;-3.367141762282699E-004;
2.401166666666667E+009;1.502345055341721E-001;9.778118133544922E-002;1.331010833382607E-003;-5.042829434387386E-004;
2.401333333333334E+009;1.507904976606369E-001;9.496548026800156E-002;8.426505373790860E-004;-6.911050295457244E-004;
2.401500000000000E+009;1.510054320096970E-001;9.212048351764679E-002;6.865318864583969E-004;-8.249551756307483E-004;
2.401666666666667E+009;1.513353288173676E-001;8.910933136940002E-002;3.573395661078394E-004;-7.894135778769851E-004;
2.401833333333334E+009;1.519605368375778E-001;8.636198192834854E-002;8.676393917994574E-005;-7.871615234762430E-004;
2.402000000000000E+009;1.526705175638199E-001;8.364625275135040E-002;-2.567995397839695E-004;-6.609106203541160E-004;
2.402166666666667E+009;1.535287797451019E-001;8.093389868736267E-002;-3.013783425558358E-004;-5.232684197835624E-004;
2.402333333333334E+009;1.545329242944717E-001;7.803997397422791E-002;-6.426762556657195E-004;-3.150326083414257E-004;
2.402500000000000E+009;1.558287590742111E-001;7.542094588279724E-002;-7.265833555720747E-004;-1.588546729180962E-004;
2.402666666666667E+009;1.568938791751862E-001;7.297600805759430E-002;-8.373878663405776E-004;-3.792435109062353E-006;
2.402833333333334E+009;1.584948450326920E-001;7.044422626495361E-002;-8.653386612422764E-004;2.068653266178444E-004;
2.403000000000000E+009;1.600489616394043E-001;6.793680787086487E-002;-8.861715323291719E-004;4.384907078929246E-004;
2.403166666666667E+009;1.619963645935059E-001;6.542241573333740E-002;-8.881776011548936E-004;5.930843180976808E-004;
2.403333333333334E+009;1.635409444570541E-001;6.304622441530228E-002;-8.464960264973342E-004;7.786331698298454E-004;
2.403500000000000E+009;1.654152125120163E-001;6.078546494245529E-002;-7.232968928292394E-004;1.016965834423900E-003;
2.403666666666667E+009;1.674851477146149E-001;5.886019021272659E-002;-6.757805822417140E-004;1.046952907927334E-003;
2.403833333333334E+009;1.693525761365891E-001;5.681540071964264E-002;-4.490761784836650E-004;1.074094441719353E-003;
2.404000000000000E+009;1.710485816001892E-001;5.470442399382591E-002;-3.932943509425968E-004;1.239775447174907E-003;
2.404166666666667E+009;1.730058044195175E-001;5.304857715964317E-002;-2.132228109985590E-004;1.316706300713122E-003;
2.404333333333334E+009;1.749782115221024E-001;5.124413594603539E-002;-3.275833732914180E-004;1.227803644724190E-003;
2.404500000000000E+009;1.767956614494324E-001;4.976148530840874E-002;-2.602827589726076E-005;1.294501242227852E-003;
2.404666666666667E+009;1.788036227226257E-001;4.860989376902580E-002;-1.570828608237207E-004;1.231999602168798E-003;
2.404833333333334E+009;1.805767863988876E-001;4.724132642149925E-002;-1.871635868155863E-005;1.409999909810722E-003;
2.405000000000000E+009;1.822901219129562E-001;4.645412415266037E-002;1.469889684813097E-004;1.281217322684825E-003;
2.405166666666667E+009;1.841500252485275E-001;4.555290564894676E-002;4.151864777668379E-005;1.420279615558684E-003;
2.405333333333334E+009;1.857400983572006E-001;4.495966807007790E-002;-5.424785285867984E-006;1.439460902474821E-003;
2.405500000000000E+009;1.874217689037323E-001;4.429870471358299E-002;1.366632059216499E-004;1.334868953563273E-003;
2.405666666666667E+009;1.890584975481033E-001;4.398606345057488E-002;3.653386374935508E-004;1.525837345980108E-003;
2.405833333333334E+009;1.905183792114258E-001;4.371453449130058E-002;3.649818827398121E-004;1.344733173027635E-003;
2.406000000000000E+009;1.920366138219833E-001;4.343090206384659E-002;5.823982646688819E-004;1.462002284824848E-003;
2.406166666666667E+009;1.932097524404526E-001;4.318565130233765E-002;5.404875264503062E-004;1.392374164424837E-003;
2.406333333333334E+009;1.945004463195801E-001;4.315270483493805E-002;6.447567720897496E-004;1.468129456043243E-003;
2.406500000000000E+009;1.955732405185700E-001;4.321392253041267E-002;7.185156573541462E-004;1.440587453544140E-003;
2.406666666666667E+009;1.964613050222397E-001;4.332958161830902E-002;7.967827259562910E-004;1.408170792274177E-003;
2.406833333333334E+009;1.973014920949936E-001;4.323510080575943E-002;9.078581351786852E-004;1.416396698914468E-003;
2.407000000000000E+009;1.979281008243561E-001;4.345505684614182E-002;9.416015236638486E-004;1.338958973065019E-003;
2.407166666666667E+009;1.985407769680023E-001;4.333093762397766E-002;1.201440813019872E-003;1.285842969082296E-003;
2.407333333333334E+009;1.986506730318070E-001;4.349657148122788E-002;1.234239432960749E-003;1.312075299210846E-003;
2.407500000000000E+009;1.987557560205460E-001;4.366290569305420E-002;1.266933046281338E-003;1.061260816641152E-003;
2.407666666666667E+009;1.990463137626648E-001;4.356341809034348E-002;1.314376713708043E-003;8.897561929188669E-004;
2.407833333333334E+009;1.986404657363892E-001;4.354254528880119E-002;1.326415804214776E-003;1.022278214804828E-003;
2.408000000000000E+009;1.987448781728745E-001;4.345547407865524E-002;1.413514488376677E-003;9.111515246331692E-004;
2.408166666666667E+009;1.981463581323624E-001;4.334604740142822E-002;1.478361780755222E-003;7.965844706632197E-004;
2.408333333333334E+009;1.977860033512116E-001;4.296216741204262E-002;1.378414803184569E-003;6.776308873668313E-004;
2.408500000000000E+009;1.970129013061523E-001;4.277373477816582E-002;1.573696034029126E-003;6.468261708505452E-004;
2.408666666666667E+009;1.963571161031723E-001;4.235677048563957E-002;1.478619873523712E-003;5.978795816190541E-004;
2.408833333333334E+009;1.956542432308197E-001;4.172968491911888E-002;1.522434409707785E-003;6.638852646574378E-004;
2.409000000000000E+009;1.947605311870575E-001;4.110985249280930E-002;1.600768067874014E-003;4.530012956820428E-004;
2.409166666666667E+009;1.936213523149490E-001;4.024740681052208E-002;1.536686671897769E-003;3.890161460731179E-004;
2.409333333333334E+009;1.925660967826843E-001;3.941609337925911E-002;1.476939651183784E-003;4.162295663263649E-004;
2.409500000000000E+009;1.913648992776871E-001;3.822534531354904E-002;1.451358431950212E-003;3.632178995758295E-004;
2.409666666666667E+009;1.903226971626282E-001;3.702072799205780E-002;1.533138565719128E-003;1.573108311276883E-004;
2.409833333333334E+009;1.890341043472290E-001;3.569673001766205E-002;1.534784329123795E-003;9.426662290934473E-005;
2.410000000000000E+009;1.877700686454773E-001;3.415134921669960E-002;1.546641811728478E-003;2.283152724658066E-007;
2.410166666666667E+009;1.866588890552521E-001;3.258105367422104E-002;1.511237234808505E-003;-8.003533002920449E-005;
2.410333333333334E+009;1.854624450206757E-001;3.104313276708126E-002;1.398835680447519E-003;-1.887574180727825E-004;
2.410500000000000E+009;1.843484044075012E-001;2.921867556869984E-002;1.495068892836571E-003;-3.387037431821227E-004;
2.410666666666667E+009;1.833067536354065E-001;2.706903219223023E-002;1.563249039463699E-003;-4.859523614868522E-004;
2.410833333333334E+009;1.824461519718170E-001;2.482516504824162E-002;1.359927118755877E-003;-4.011379496660084E-004;
2.411000000000000E+009;1.815046370029450E-001;2.276602014899254E-002;1.206745626404882E-003;-4.181246913503856E-004;
2.411166666666667E+009;1.808068305253983E-001;2.065202966332436E-002;1.255332026630640E-003;-5.730564589612186E-004;
2.411333333333334E+009;1.799320876598358E-001;1.811320148408413E-002;1.062577706761658E-003;-4.969355650246143E-004;
2.411500000000000E+009;1.793350130319595E-001;1.572839543223381E-002;1.109471311792731E-003;-5.899904062971473E-004;
2.411666666666667E+009;1.790248304605484E-001;1.344586815685034E-002;9.633538429625332E-004;-5.879182717762888E-004;
2.411833333333334E+009;1.785505563020706E-001;1.072382647544146E-002;7.948600687086582E-004;-6.509711383841932E-004;
2.412000000000000E+009;1.787053197622299E-001;8.109667338430882E-003;8.393467869609594E-004;-5.766775575466454E-004;
2.412166666666667E+009;1.783863455057144E-001;5.842105951160193E-003;6.847026525065303E-004;-5.394445615820587E-004;
2.412333333333334E+009;1.785439252853394E-001;3.238782752305269E-003;6.000522407703102E-004;-5.822257953695953E-004;
2.412500000000000E+009;1.787524968385696E-001;5.974022205919027E-004;5.931931664235890E-004;-4.945351392962039E-004;
2.412666666666667E+009;1.791048943996429E-001;-2.155089052394033E-003;5.121020949445665E-004;-3.509166126605123E-004;
2.412833333333334E+009;1.797389537096024E-001;-4.505282267928124E-003;4.105773987248540E-004;-2.066077431663871E-004;
2.413000000000000E+009;1.803691536188126E-001;-6.969497539103031E-003;4.910258576273918E-004;-3.079838934354484E-004;
2.413166666666667E+009;1.810071617364883E-001;-9.549377486109734E-003;4.235631786286831E-004;-2.038418169831857E-004;
2.413333333333334E+009;1.820611357688904E-001;-1.196768321096897E-002;5.299700424075127E-004;-3.297647053841502E-004;
2.413500000000000E+009;1.829878836870194E-001;-1.450327411293984E-002;6.110090180300176E-004;-7.420445763273165E-005;
2.413666666666667E+009;1.840978711843491E-001;-1.668493822216988E-002;6.169875850901008E-004;-2.165595651604235E-004;
2.413833333333334E+009;1.853080540895462E-001;-1.897234655916691E-002;6.992882699705660E-004;-1.543499238323420E-004;
2.414000000000000E+009;1.864201277494431E-001;-2.106941305100918E-002;9.850941132754087E-004;-1.207742971018888E-004;
2.414166666666667E+009;1.877659857273102E-001;-2.306357398629189E-002;8.435194613412023E-004;-1.589390740264207E-004;
2.414333333333334E+009;1.887878477573395E-001;-2.526808530092239E-002;9.044836042448878E-004;-1.867710379883647E-004;
2.414500000000000E+009;1.900252252817154E-001;-2.678265422582626E-002;1.017529517412186E-003;-3.154181467834860E-004;
2.414666666666667E+009;1.914243698120117E-001;-2.864902652800083E-002;1.049519400112331E-003;-4.660170816350728E-004;
2.414833333333334E+009;1.925880461931229E-001;-3.013923019170761E-002;9.684199467301369E-004;-5.235907738097012E-004;
2.415000000000000E+009;1.937806457281113E-001;-3.159037604928017E-002;9.499533916823566E-004;-5.744756781496108E-004;
2.415166666666667E+009;1.951448023319244E-001;-3.292063623666763E-002;1.013494096696377E-003;-6.285125273279846E-004;
2.415333333333334E+009;1.965009421110153E-001;-3.402412310242653E-002;7.331133238039911E-004;-8.132831426337361E-004;
2.415500000000000E+009;1.976602971553803E-001;-3.475223109126091E-002;9.219860658049583E-004;-8.401507511734963E-004;
2.415666666666667E+009;1.990235596895218E-001;-3.579118102788925E-002;7.372163818217814E-004;-9.313834598287940E-004;
2.415833333333334E+009;2.000031322240830E-001;-3.639047592878342E-002;5.702732596546412E-004;-9.260631049983203E-004;
2.416000000000000E+009;2.009442448616028E-001;-3.711436688899994E-002;3.374798689037561E-004;-1.027152524329722E-003;
2.416166666666667E+009;2.018052339553833E-001;-3.770562261343002E-002;2.686327788978815E-004;-8.451085304841399E-004;
2.416333333333334E+009;2.026744782924652E-001;-3.792773932218552E-002;1.740472216624767E-004;-7.258497644215822E-004;
2.416500000000000E+009;2.032467871904373E-001;-3.833936154842377E-002;9.923278412315995E-005;-6.356394733302295E-004;
2.416666666666667E+009;2.038520425558090E-001;-3.864197060465813E-002;1.805125648388639E-004;-6.310663302429020E-004;
2.416833333333334E+009;2.041251957416534E-001;-3.859579563140869E-002;1.909173006424680E-004;-5.667578079737723E-004;
2.417000000000000E+009;2.045169472694397E-001;-3.865293413400650E-002;1.999050291487947E-004;-3.651643928606063E-004;
2.417166666666667E+009;2.044828385114670E-001;-3.851196914911270E-002;3.271744935773313E-004;-3.961638431064785E-004;
2.417333333333334E+009;2.043193727731705E-001;-3.831403702497482E-002;2.440412790747359E-004;-3.248958964832127E-004;
2.417500000000000E+009;2.043787240982056E-001;-3.809653595089912E-002;4.502347728703171E-004;-4.465444071684033E-004;
2.417666666666667E+009;2.040153145790100E-001;-3.788169100880623E-002;5.594448302872479E-004;-3.978922322858125E-004;
2.417833333333334E+009;2.036420553922653E-001;-3.765750303864479E-002;5.863010883331299E-004;-6.039328873157501E-004;
2.418000000000000E+009;2.032634466886520E-001;-3.707212582230568E-002;4.347495851106942E-004;-5.780994542874396E-004;
2.418166666666667E+009;2.026969045400620E-001;-3.687325492501259E-002;4.773709515575320E-004;-6.779883988201618E-004;
2.418333333333334E+009;2.019037455320358E-001;-3.658403456211090E-002;4.367986985016614E-004;-6.784158758819103E-004;
2.418500000000000E+009;2.010510712862015E-001;-3.641958907246590E-002;4.300709988456219E-004;-6.426741601899266E-004;
2.418666666666667E+009;2.003028392791748E-001;-3.613281995058060E-002;3.894903347827494E-004;-8.874730556271970E-004;
2.418833333333334E+009;1.992101371288300E-001;-3.612859174609184E-002;1.144020789070055E-004;-5.905104335397482E-004;
2.419000000000000E+009;1.978898495435715E-001;-3.609686717391014E-002;4.214731598040089E-005;-7.146102725528181E-004;
2.419166666666667E+009;1.968835890293121E-001;-3.639388456940651E-002;-1.457720645703375E-005;-6.627074326388538E-004;
2.419333333333334E+009;1.955561190843582E-001;-3.672430291771889E-002;-1.058250782079995E-004;-5.556794931180775E-004;
2.419500000000000E+009;1.940402537584305E-001;-3.694231435656548E-002;-2.213846310041845E-004;-4.582505789585412E-004;
2.419666666666667E+009;1.925377249717712E-001;-3.762176260352135E-002;-2.599211875349283E-004;-2.908500609919429E-004;
2.419833333333334E+009;1.908542364835739E-001;-3.815255686640739E-002;-8.411956514464691E-005;-5.793960008304566E-005;
2.420000000000000E+009;1.893518716096878E-001;-3.885462135076523E-002;-1.742139575071633E-004;8.759884804021567E-005;
2.420166666666667E+009;1.876910477876663E-001;-3.984082490205765E-002;1.568830339238048E-004;2.279666659887880E-004;
2.420333333333334E+009;1.860199272632599E-001;-4.090664163231850E-002;1.093797764042392E-004;1.800402824301273E-004;
2.420500000000000E+009;1.843094080686569E-001;-4.219036549329758E-002;4.276137915439904E-004;3.506096836645156E-004;
2.420666666666667E+009;1.825449168682098E-001;-4.327232018113136E-002;6.076697027310729E-004;4.653034848161042E-004;
2.420833333333334E+009;1.807087510824204E-001;-4.455805569887161E-002;8.110256749205291E-004;4.142859252169728E-004;
2.421000000000000E+009;1.791185140609741E-001;-4.602372273802757E-002;9.584382642060518E-004;4.864445945713669E-004;
2.421166666666667E+009;1.775802522897720E-001;-4.776415973901749E-002;1.163941691629589E-003;2.155949041480199E-004;
2.421333333333334E+009;1.757371723651886E-001;-4.930919408798218E-002;1.459842314943671E-003;1.164165150839835E-004;
2.421500000000000E+009;1.741665303707123E-001;-5.111312121152878E-002;1.515359734185040E-003;-1.490222257416463E-005;
2.421666666666667E+009;1.727724522352219E-001;-5.297240614891052E-002;1.557557610794902E-003;-2.011269825743511E-004;
2.421833333333334E+009;1.714109629392624E-001;-5.480432882905006E-002;1.786645269021392E-003;-4.209523322060704E-004;
2.422000000000000E+009;1.701300740242004E-001;-5.654348060488701E-002;1.733236946165562E-003;-7.496178150177002E-004;
2.422166666666667E+009;1.691149920225143E-001;-5.882648006081581E-002;1.936874934472144E-003;-8.695144788362086E-004;
2.422333333333334E+009;1.681586802005768E-001;-6.070793792605400E-002;1.839046482928097E-003;-1.213719137012959E-003;
2.422500000000000E+009;1.672167032957077E-001;-6.274203956127167E-002;1.902057090774179E-003;-1.308840466663241E-003;
2.422666666666667E+009;1.663183271884918E-001;-6.463614851236343E-002;1.758918049745262E-003;-1.648131641559303E-003;
2.422833333333334E+009;1.657078266143799E-001;-6.686389446258545E-002;1.689958968199790E-003;-1.904996228404343E-003;
2.423000000000000E+009;1.651204824447632E-001;-6.890528649091721E-002;1.463833614252508E-003;-1.930737285874784E-003;
2.423166666666667E+009;1.647135913372040E-001;-7.093477249145508E-002;1.282226992771030E-003;-2.178262686356902E-003;
2.423333333333334E+009;1.644474267959595E-001;-7.304918766021729E-002;1.177468337118626E-003;-2.336265286430717E-003;
2.423500000000000E+009;1.645075231790543E-001;-7.503141462802887E-002;1.065857592038810E-003;-2.464321674779058E-003;
2.423666666666667E+009;1.644208878278732E-001;-7.712766528129578E-002;8.267351659014821E-004;-2.596525708213449E-003;
2.423833333333334E+009;1.644971072673798E-001;-7.907908409833908E-002;6.556960870511830E-004;-2.670126501470804E-003;
2.424000000000000E+009;1.645670533180237E-001;-8.087249845266342E-002;4.767065984196961E-004;-2.758871531113982E-003;
2.424166666666667E+009;1.646555215120316E-001;-8.276055753231049E-002;3.614273737184703E-004;-2.814277308061719E-003;
2.424333333333334E+009;1.648868322372437E-001;-8.440224081277847E-002;5.403213435783982E-005;-2.755987457931042E-003;
2.424500000000000E+009;1.653093099594116E-001;-8.628561347723007E-002;-1.942008384503424E-004;-2.786959055811167E-003;
2.424666666666667E+009;1.657392829656601E-001;-8.782362192869186E-002;-3.023885365109891E-004;-2.777125453576446E-003;
2.424833333333334E+009;1.662867814302445E-001;-8.929838985204697E-002;-4.987206775695086E-004;-2.770008519291878E-003;
2.425000000000000E+009;1.668143868446350E-001;-9.062776714563370E-002;-7.197869708761573E-004;-2.954222029075027E-003;
2.425166666666667E+009;1.672463566064835E-001;-9.193281084299088E-002;-8.527541067451239E-004;-2.804794814437628E-003;
2.425333333333334E+009;1.677012890577316E-001;-9.305473417043686E-002;-1.120611676014960E-003;-2.651227870956063E-003;
2.425500000000000E+009;1.684022545814514E-001;-9.415175765752792E-002;-1.333098625764251E-003;-2.575915073975921E-003;
2.425666666666667E+009;1.688640266656876E-001;-9.490340948104858E-002;-1.302315737120807E-003;-2.385586500167847E-003;
2.425833333333334E+009;1.694294363260269E-001;-9.587036818265915E-002;-1.566626015119255E-003;-2.289152937009931E-003;
2.426000000000000E+009;1.700546741485596E-001;-9.649828821420670E-002;-1.689925091341138E-003;-2.479712478816509E-003;
2.426166666666667E+009;1.706337779760361E-001;-9.706833958625794E-002;-1.992641948163509E-003;-2.075925935059786E-003;
2.426333333333334E+009;1.710456162691116E-001;-9.776061773300171E-002;-1.990099670365453E-003;-2.102670026943088E-003;
2.426500000000000E+009;1.717709451913834E-001;-9.812876582145691E-002;-2.242596354335547E-003;-1.889961189590395E-003;
2.426666666666667E+009;1.721240878105164E-001;-9.857164323329926E-002;-2.212209859862924E-003;-1.707127899862826E-003;
2.426833333333334E+009;1.727229058742523E-001;-9.886910766363144E-002;-2.207408891990781E-003;-1.567931962199509E-003;
2.427000000000000E+009;1.728921532630920E-001;-9.916570782661438E-002;-2.252228092402220E-003;-1.396128092892468E-003;
2.427166666666667E+009;1.732245981693268E-001;-9.940437972545624E-002;-2.374757779762149E-003;-1.241752062924206E-003;
2.427333333333334E+009;1.733664572238922E-001;-9.959440678358078E-002;-2.372689312323928E-003;-1.142462249845266E-003;
2.427500000000000E+009;1.733316183090210E-001;-9.984211623668671E-002;-2.386100357398391E-003;-9.395244414918125E-004;
2.427666666666667E+009;1.732170879840851E-001;-9.997477382421494E-002;-2.413604641333222E-003;-7.842429331503809E-004;
2.427833333333334E+009;1.730938851833344E-001;-1.001224070787430E-001;-2.471058396622539E-003;-6.682307575829327E-004;
