# Version 1.00
#
freq[Hz];re:Trc1_S11;im:Trc1_S11;re:Trc2_S21;im:Trc2_S21;
2.400000000000000E+009;1.518816649913788E-001;1.153497099876404E-001;2.590239280834794E-003;1.517124823294580E-003;
2.400166666666667E+009;1.515616923570633E-001;1.131300553679466E-001;2.664763247594237E-003;9.432364022359252E-004;
2.400333333333334E+009;1.515610665082932E-001;1.109023541212082E-001;2.609348855912685E-003;7.610180182382464E-004;
2.400500000000000E+009;1.515082269906998E-001;1.084147319197655E-001;2.448453335091472E-003;3.320650721434504E-004;
2.400666666666667E+009;1.513676792383194E-001;1.058883145451546E-001;2.238685032352805E-003;5.603690442512743E-005;
2.400833333333334E+009;1.514268517494202E-001;1.030686572194099E-001;2.111330861225724E-003;-3.406102478038520E-004;
2.401000000000000E+009;1.513854861259460E-001;1.001782715320587E-001;2.080505015328527E-003;-6.156477029435337E-004;
2.401166666666667E+009;1.515329182147980E-001;9.753459692001343E-002;1.733831712044776E-003;-8.501078700646758E-004;
2.401333333333334E+009;1.517758369445801E-001;9.448309242725372E-002;1.368812518194318E-003;-1.027745660394430E-003;
2.401500000000000E+009;1.521072685718536E-001;9.165366739034653E-002;1.227718428708613E-003;-9.483668254688382E-004;
2.401666666666667E+009;1.524156779050827E-001;8.881714940071106E-002;8.473678608424962E-004;-1.212127506732941E-003;
2.401833333333334E+009;1.529936194419861E-001;8.580115437507629E-002;4.728247586172074E-004;-9.449025383219123E-004;
2.402000000000000E+009;1.536955535411835E-001;8.291468769311905E-002;1.690429053269327E-004;-9.667622507549822E-004;
2.402166666666667E+009;1.542900204658508E-001;8.050655573606491E-002;-7.560469675809145E-004;-1.647202880121768E-003;
2.402333333333334E+009;1.552553772926331E-001;7.760918885469437E-002;-3.910987579729408E-004;-1.815010560676456E-003;
2.402500000000000E+009;1.567035615444183E-001;7.521529495716095E-002;-1.546284882351756E-003;-1.130045391619206E-003;
2.402666666666667E+009;1.576688587665558E-001;7.237243652343750E-002;-1.110739030991681E-004;-8.130855858325958E-004;
2.402833333333334E+009;1.595223397016525E-001;6.972815096378326E-002;-8.484744466841221E-004;5.532624782063067E-004;
2.403000000000000E+009;1.607493460178375E-001;6.723812222480774E-002;-6.915685371495783E-004;-1.190233087982051E-004;
2.403166666666667E+009;1.626926511526108E-001;6.493455916643143E-002;-7.399251335300505E-004;-7.381935574812815E-005;
2.403333333333334E+009;1.641660779714584E-001;6.250541657209396E-002;-5.979693960398436E-004;9.014720853883773E-005;
2.403500000000000E+009;1.661046445369721E-001;6.018896400928497E-002;-6.789721664972603E-004;3.253481118008494E-004;
2.403666666666667E+009;1.679602861404419E-001;5.798034742474556E-002;-6.247439887374640E-004;4.977091448381543E-004;
2.403833333333334E+009;1.700304746627808E-001;5.605384707450867E-002;-4.755798727273941E-004;5.851656314916909E-004;
2.404000000000000E+009;1.717040836811066E-001;5.411338806152344E-002;-4.117987409699708E-004;5.994811072014272E-004;
2.404166666666667E+009;1.737168282270432E-001;5.239017680287361E-002;-4.132641479372978E-004;6.538470624946058E-004;
2.404333333333334E+009;1.755529642105103E-001;5.069546774029732E-002;-5.042092525400221E-004;6.011327495798469E-004;
2.404500000000000E+009;1.775317788124085E-001;4.905725643038750E-002;-2.805610711220652E-004;6.515911663882434E-004;
2.404666666666667E+009;1.792103797197342E-001;4.774255305528641E-002;-1.474246382713318E-004;8.180006989277899E-004;
2.404833333333334E+009;1.813201457262039E-001;4.654575884342194E-002;-1.554453774588183E-004;8.679331513121724E-004;
2.405000000000000E+009;1.828034967184067E-001;4.562396928668022E-002;-3.138679894618690E-004;6.664262036792934E-004;
2.405166666666667E+009;1.846779435873032E-001;4.475649818778038E-002;-9.148025128524751E-006;8.392821764573455E-004;
2.405333333333334E+009;1.863968372344971E-001;4.415158182382584E-002;-1.630141341593117E-004;9.786162991076708E-004;
2.405500000000000E+009;1.880884170532227E-001;4.350819438695908E-002;-1.302773889619857E-004;9.141435148194432E-004;
2.405666666666667E+009;1.897267550230026E-001;4.338720813393593E-002;-1.005379017442465E-003;-4.814817511942238E-004;
2.405833333333334E+009;1.910335868597031E-001;4.286814108490944E-002;3.179019258823246E-004;-3.141033521387726E-004;
2.406000000000000E+009;1.922114640474320E-001;4.255194216966629E-002;9.790217736735940E-004;6.744595011696219E-004;
2.406166666666667E+009;1.938569694757462E-001;4.216343536973000E-002;-4.420168115757406E-004;9.677308262325823E-004;
2.406333333333334E+009;1.948665529489517E-001;4.210520535707474E-002;1.134308840846643E-004;1.221495098434389E-003;
2.406500000000000E+009;1.959487944841385E-001;4.222463443875313E-002;1.030194907798432E-004;1.137458370067179E-003;
2.406666666666667E+009;1.967850923538208E-001;4.210344329476357E-002;3.083302290178835E-004;9.741573594510555E-004;
2.406833333333334E+009;1.976424157619476E-001;4.215411841869354E-002;4.454377049114555E-004;1.097178552299738E-003;
2.407000000000000E+009;1.981494426727295E-001;4.239212349057198E-002;4.686333413701505E-004;1.217582495883107E-003;
2.407166666666667E+009;1.986384391784668E-001;4.220150411128998E-002;4.382556653581560E-004;1.355292275547981E-003;
2.407333333333334E+009;1.988790035247803E-001;4.260379448533058E-002;6.686196429654956E-004;1.198020414449275E-003;
2.407500000000000E+009;1.987868547439575E-001;4.259258508682251E-002;7.605293067172170E-004;1.084569608792663E-003;
2.407666666666667E+009;1.991664022207260E-001;4.267644509673119E-002;7.683790754526854E-004;9.775627404451370E-004;
2.407833333333334E+009;1.987024843692780E-001;4.256056994199753E-002;9.353835484944284E-004;9.688904392533004E-004;
2.408000000000000E+009;1.986646652221680E-001;4.259438067674637E-002;7.976762135513127E-004;8.862083195708692E-004;
2.408166666666667E+009;1.981254816055298E-001;4.240354150533676E-002;8.411015151068568E-004;7.857192540541291E-004;
2.408333333333334E+009;1.977297365665436E-001;4.203867167234421E-002;8.863412658683956E-004;7.924138917587698E-004;
2.408500000000000E+009;1.968703120946884E-001;4.173382371664047E-002;9.414230589754880E-004;7.034862064756453E-004;
2.408666666666667E+009;1.963049769401550E-001;4.154801741242409E-002;9.686036501079798E-004;6.022629095241427E-004;
2.408833333333334E+009;1.955728381872177E-001;4.087659716606140E-002;9.999771136790514E-004;6.947579677216709E-004;
2.409000000000000E+009;1.945890337228775E-001;4.015007242560387E-002;1.016628695651889E-003;5.810313741676509E-004;
2.409166666666667E+009;1.936152130365372E-001;3.934808447957039E-002;1.033752341754735E-003;7.181677501648665E-004;
2.409333333333334E+009;1.925773322582245E-001;3.857469186186791E-002;9.801430860534310E-004;5.976457614451647E-004;
2.409500000000000E+009;1.913039833307266E-001;3.723789379000664E-002;1.021856674924493E-003;4.477633337955922E-004;
2.409666666666667E+009;1.900805830955505E-001;3.599921241402626E-002;1.073030754923821E-003;5.724948714487255E-004;
2.409833333333334E+009;1.888676881790161E-001;3.484077006578445E-002;1.081708236597478E-003;4.478609189391136E-004;
2.410000000000000E+009;1.877929717302322E-001;3.323774412274361E-002;1.127983327023685E-003;3.081390750594437E-004;
2.410166666666667E+009;1.866089254617691E-001;3.156077489256859E-002;1.127127674408257E-003;3.066505014430732E-004;
2.410333333333334E+009;1.855182796716690E-001;2.995062060654163E-002;1.038075890392065E-003;1.088872668333352E-004;
2.410500000000000E+009;1.841551214456558E-001;2.800109982490540E-002;1.154489582404494E-003;1.632331550354138E-004;
2.410666666666667E+009;1.829841881990433E-001;2.586341649293900E-002;9.880549041554332E-004;7.888302934588864E-005;
2.410833333333334E+009;1.821678727865219E-001;2.376277372241020E-002;1.057642628438771E-003;-9.867682820186019E-005;
2.411000000000000E+009;1.812278628349304E-001;2.164286002516747E-002;1.036366913467646E-003;-1.335900742560625E-004;
2.411166666666667E+009;1.802990287542343E-001;1.948913559317589E-002;1.056349254213274E-003;-1.483562809880823E-004;
2.411333333333334E+009;1.795883029699326E-001;1.692175678908825E-002;7.608835003338754E-004;-1.642331772018224E-004;
2.411500000000000E+009;1.789374500513077E-001;1.457130536437035E-002;8.266252698376775E-004;-1.722068991512060E-004;
2.411666666666667E+009;1.784440129995346E-001;1.226134598255158E-002;6.227245321497321E-004;-9.565126674715430E-005;
2.411833333333334E+009;1.779771000146866E-001;9.759536013007164E-003;6.255484186112881E-004;-1.728040078887716E-004;
2.412000000000000E+009;1.776714026927948E-001;7.148550823330879E-003;6.204462843015790E-004;-2.179720031563193E-004;
2.412166666666667E+009;1.777210831642151E-001;4.695614334195852E-003;5.402393289841712E-004;-1.728306961013004E-004;
2.412333333333334E+009;1.778364628553391E-001;1.970865763723850E-003;6.746307481080294E-004;3.977189408033155E-005;
2.412500000000000E+009;1.781260967254639E-001;-4.419550532475114E-004;5.358488415367901E-004;8.360402716789395E-005;
2.412666666666667E+009;1.782892495393753E-001;-2.807539654895663E-003;4.485267563723028E-004;2.317594589840155E-005;
2.412833333333334E+009;1.788059622049332E-001;-5.591595545411110E-003;3.979578905273229E-004;1.544281549286097E-004;
2.413000000000000E+009;1.794697195291519E-001;-8.050139993429184E-003;5.183104076422751E-004;2.354120078962296E-004;
2.413166666666667E+009;1.803335100412369E-001;-1.038082968443632E-002;5.986560136079788E-004;2.614418044686317E-004;
2.413333333333334E+009;1.812516897916794E-001;-1.297177281230688E-002;5.283966893330216E-004;2.193260588683188E-004;
2.413500000000000E+009;1.820918023586273E-001;-1.531492453068495E-002;6.007127813063562E-004;2.557189727667719E-004;
2.413666666666667E+009;1.831650435924530E-001;-1.756775565445423E-002;7.943547680042684E-004;3.417594125494361E-004;
2.413833333333334E+009;1.841775923967362E-001;-1.973120495676994E-002;9.450703510083258E-004;3.756854857783765E-004;
2.414000000000000E+009;1.852560788393021E-001;-2.184484526515007E-002;8.683292544446886E-004;4.087184497620910E-004;
2.414166666666667E+009;1.865571588277817E-001;-2.388257719576359E-002;1.131886849179864E-003;4.574381164275110E-004;
2.414333333333334E+009;1.877152472734451E-001;-2.607573755085468E-002;1.082881586626172E-003;1.794772397261113E-004;
2.414500000000000E+009;1.889488548040390E-001;-2.754292823374271E-002;1.204979605972767E-003;2.055601944448426E-004;
2.414666666666667E+009;1.902378052473068E-001;-2.917015179991722E-002;1.315649831667543E-003;-2.759053313639015E-005;
2.414833333333334E+009;1.916582584381104E-001;-3.084218129515648E-002;1.242427853867412E-003;-1.314931432716548E-004;
2.415000000000000E+009;1.927329152822495E-001;-3.206185251474381E-002;1.262276433408260E-003;-1.905390090541914E-004;
2.415166666666667E+009;1.941649466753006E-001;-3.334863111376762E-002;1.200369442813098E-003;-3.967809316236526E-004;
2.415333333333334E+009;1.954353898763657E-001;-3.445024788379669E-002;1.050336752086878E-003;-3.876994014717639E-004;
2.415500000000000E+009;1.966449320316315E-001;-3.529155999422073E-002;1.162627944722772E-003;-5.667628720402718E-004;
2.415666666666667E+009;1.978522539138794E-001;-3.603303804993630E-002;1.102957874536514E-003;-5.236958386376500E-004;
2.415833333333334E+009;1.987338960170746E-001;-3.693740069866180E-002;9.287017164751887E-004;-7.820887258276343E-004;
2.416000000000000E+009;1.997758448123932E-001;-3.753331303596497E-002;8.643972105346620E-004;-7.534099277108908E-004;
2.416166666666667E+009;2.007633894681931E-001;-3.804742917418480E-002;8.975143427960575E-004;-7.310092332772911E-004;
2.416333333333334E+009;2.015308141708374E-001;-3.834096714854240E-002;8.216893766075373E-004;-7.369213271886110E-004;
2.416500000000000E+009;2.020392715930939E-001;-3.858290240168572E-002;6.652509910054505E-004;-5.205548950470984E-004;
2.416666666666667E+009;2.025877237319946E-001;-3.885371610522270E-002;4.563896509353072E-004;-4.818748566322029E-004;
2.416833333333334E+009;2.028761655092239E-001;-3.882648423314095E-002;6.532175466418266E-004;-3.551988920662552E-004;
2.417000000000000E+009;2.031547874212265E-001;-3.888020291924477E-002;6.911563104949892E-004;-3.481037856545299E-004;
2.417166666666667E+009;2.031850814819336E-001;-3.861238807439804E-002;8.112755022011697E-004;-2.750999701675028E-004;
2.417333333333334E+009;2.030510306358337E-001;-3.825365379452705E-002;8.581167203374207E-004;-4.284606256987900E-004;
2.417500000000000E+009;2.029449492692947E-001;-3.832707926630974E-002;9.252052404917777E-004;-3.462219028733671E-004;
2.417666666666667E+009;2.025515437126160E-001;-3.782551363110542E-002;9.303187835030258E-004;-5.041465628892183E-004;
2.417833333333334E+009;2.023366689682007E-001;-3.748816624283791E-002;1.092402380891144E-003;-5.666606011800468E-004;
2.418000000000000E+009;2.017626613378525E-001;-3.691605478525162E-002;8.039601962082088E-004;-6.360528641380370E-004;
2.418166666666667E+009;2.011957019567490E-001;-3.676806762814522E-002;9.581603226251900E-004;-6.954546552151442E-004;
2.418333333333334E+009;2.004770338535309E-001;-3.631351888179779E-002;8.394768228754401E-004;-9.758520754985511E-004;
2.418500000000000E+009;1.996173113584518E-001;-3.613996133208275E-002;9.504068875685334E-004;-8.578615961596370E-004;
2.418666666666667E+009;1.988642811775208E-001;-3.587093576788902E-002;8.288737153634429E-004;-8.939772960729897E-004;
2.418833333333334E+009;1.977645903825760E-001;-3.576451539993286E-002;5.580307915806770E-004;-9.847803739830852E-004;
2.419000000000000E+009;1.965055614709854E-001;-3.578308224678040E-002;3.652116574812681E-004;-8.605342009104788E-004;
2.419166666666667E+009;1.955131441354752E-001;-3.576337918639183E-002;2.956306852865964E-004;-9.062587050721049E-004;
2.419333333333334E+009;1.942142546176910E-001;-3.609523549675942E-002;2.885025460273027E-004;-8.388676797039807E-004;
2.419500000000000E+009;1.926187276840210E-001;-3.638778999447823E-002;1.436063612345606E-004;-6.285207346081734E-004;
2.419666666666667E+009;1.912002563476563E-001;-3.693575039505959E-002;1.436024758731946E-004;-5.123912123963237E-004;
2.419833333333334E+009;1.895746886730194E-001;-3.754993900656700E-002;1.333994587184861E-004;-5.337808979675174E-004;
2.420000000000000E+009;1.881010383367539E-001;-3.825659677386284E-002;1.822304038796574E-004;-2.446873986627907E-004;
2.420166666666667E+009;1.863251328468323E-001;-3.914097324013710E-002;3.727583389263600E-004;-1.841953635448590E-004;
2.420333333333334E+009;1.846847683191299E-001;-4.003562405705452E-002;4.202829441055656E-004;-3.761089101317339E-005;
2.420500000000000E+009;1.828985959291458E-001;-4.132500663399696E-002;6.014889804646373E-004;-3.391728023416363E-005;
2.420666666666667E+009;1.812669038772583E-001;-4.241311922669411E-002;7.774101686663926E-004;1.129554730141535E-004;
2.420833333333334E+009;1.794667243957520E-001;-4.374214261770248E-002;1.016317750327289E-003;-4.780900053447112E-005;
2.421000000000000E+009;1.778644919395447E-001;-4.506489261984825E-002;1.239959266968072E-003;-1.060331123881042E-004;
2.421166666666667E+009;1.763137131929398E-001;-4.662135243415833E-002;1.352652441710234E-003;-1.236647949554026E-004;
2.421333333333334E+009;1.744228452444077E-001;-4.809368029236794E-002;1.682370202615857E-003;-2.387198765063658E-004;
2.421500000000000E+009;1.730145961046219E-001;-4.991549625992775E-002;1.737306709401310E-003;-3.259877848904580E-004;
2.421666666666667E+009;1.717031300067902E-001;-5.180649086833000E-002;1.790271722711623E-003;-6.926651694811881E-004;
2.421833333333334E+009;1.704308986663818E-001;-5.357266217470169E-002;1.942084636539221E-003;-9.924971964210272E-004;
2.422000000000000E+009;1.691830605268478E-001;-5.544064939022064E-002;1.934052328579128E-003;-1.087923534214497E-003;
2.422166666666667E+009;1.681929826736450E-001;-5.731265991926193E-002;1.867390121333301E-003;-1.184627646580339E-003;
2.422333333333334E+009;1.670297682285309E-001;-5.918788164854050E-002;1.898979535326362E-003;-1.598254777491093E-003;
2.422500000000000E+009;1.663141995668411E-001;-6.143171712756157E-002;1.751477364450693E-003;-1.817727810703218E-003;
2.422666666666667E+009;1.656483858823776E-001;-6.343758851289749E-002;1.783127896487713E-003;-2.137017436325550E-003;
2.422833333333334E+009;1.650155633687973E-001;-6.546951830387116E-002;1.506527187302709E-003;-2.254314487800002E-003;
2.423000000000000E+009;1.645324826240540E-001;-6.758453696966171E-002;1.224559615366161E-003;-2.496176632121205E-003;
2.423166666666667E+009;1.641384065151215E-001;-6.970470398664475E-002;1.184635213576257E-003;-2.724570687860251E-003;
2.423333333333334E+009;1.640419214963913E-001;-7.162008434534073E-002;1.021826406940818E-003;-2.779691480100155E-003;
2.423500000000000E+009;1.640006750822067E-001;-7.369944453239441E-002;7.359991432167590E-004;-2.892425982281566E-003;
2.423666666666667E+009;1.640634834766388E-001;-7.563631981611252E-002;4.734325339086354E-004;-2.907954156398773E-003;
2.423833333333334E+009;1.639039516448975E-001;-7.752002030611038E-002;4.705456958618015E-004;-3.097869688645005E-003;
2.424000000000000E+009;1.641451567411423E-001;-7.962572574615479E-002;1.109776276280172E-004;-3.028752515092492E-003;
2.424166666666667E+009;1.642342656850815E-001;-8.141832798719406E-002;-4.616704245563597E-005;-3.075623651966453E-003;
2.424333333333334E+009;1.646364629268646E-001;-8.305677026510239E-002;-2.794895553961396E-004;-3.116340376436710E-003;
2.424500000000000E+009;1.650603413581848E-001;-8.491898328065872E-002;-4.759038565680385E-004;-3.101321868598461E-003;
2.424666666666667E+009;1.654552817344666E-001;-8.645515888929367E-002;-6.696900236420333E-004;-3.170111216604710E-003;
2.424833333333334E+009;1.661792546510696E-001;-8.795790374279022E-002;-9.531714022159576E-004;-2.984413877129555E-003;
2.425000000000000E+009;1.666914820671082E-001;-8.908117562532425E-002;-1.244201790541410E-003;-2.921591512858868E-003;
2.425166666666667E+009;1.672678291797638E-001;-9.033522754907608E-002;-1.312915817834437E-003;-2.921136328950524E-003;
2.425333333333334E+009;1.677958965301514E-001;-9.146016836166382E-002;-1.506857108324766E-003;-2.920100232586265E-003;
2.425500000000000E+009;1.684402823448181E-001;-9.267693758010864E-002;-1.666741329245269E-003;-2.728216815739870E-003;
2.425666666666667E+009;1.691253036260605E-001;-9.351928532123566E-002;-1.831853878684342E-003;-2.569829346612096E-003;
2.425833333333334E+009;1.695787161588669E-001;-9.448145329952240E-002;-1.998012885451317E-003;-2.537408843636513E-003;
2.426000000000000E+009;1.703242957592011E-001;-9.502363204956055E-002;-2.145766513422132E-003;-2.417871495708823E-003;
2.426166666666667E+009;1.709343492984772E-001;-9.568324685096741E-002;-2.269414253532887E-003;-2.200372051447630E-003;
2.426333333333334E+009;1.713587194681168E-001;-9.634102135896683E-002;-2.441613236442208E-003;-1.885846839286387E-003;
2.426500000000000E+009;1.720270216464996E-001;-9.673278778791428E-002;-2.508253557607532E-003;-1.872038119472563E-003;
2.426666666666667E+009;1.725903600454330E-001;-9.703329205513001E-002;-2.617664635181427E-003;-1.635875785723329E-003;
2.426833333333334E+009;1.731552481651306E-001;-9.751226752996445E-002;-2.633003517985344E-003;-1.479324535466731E-003;
2.427000000000000E+009;1.734952032566071E-001;-9.787202626466751E-002;-2.672496950253844E-003;-1.380043337121606E-003;
2.427166666666667E+009;1.737558990716934E-001;-9.803687036037445E-002;-2.777808113023639E-003;-1.209379872307181E-003;
2.427333333333334E+009;1.739858090877533E-001;-9.836181998252869E-002;-2.756986301392317E-003;-1.014890847727656E-003;
2.427500000000000E+009;1.738727688789368E-001;-9.861938655376434E-002;-2.671960042789578E-003;-7.961751543916762E-004;
2.427666666666667E+009;1.739242076873779E-001;-9.878196567296982E-002;-2.842005807906389E-003;-6.380638806149364E-004;
2.427833333333334E+009;1.737914234399796E-001;-9.891017526388168E-002;-2.676674863323569E-003;-4.878115141764283E-004;
