# Version 1.00
#
freq[Hz];re:Trc1_S11;im:Trc1_S11;re:Trc2_S21;im:Trc2_S21;
2.400000000000000E+009;1.506108343601227E-001;1.154295876622200E-001;2.048995113000274E-003;1.593627617694438E-003;
2.400166666666667E+009;1.500916481018066E-001;1.131470352411270E-001;2.168058417737484E-003;1.351145911030471E-003;
2.400333333333334E+009;1.500089913606644E-001;1.111434325575829E-001;2.264567650854588E-003;8.557671098969877E-004;
2.400500000000000E+009;1.500840634107590E-001;1.084417328238487E-001;2.247193828225136E-003;4.884428926743567E-004;
2.400666666666667E+009;1.501367688179016E-001;1.060149297118187E-001;2.055494580417872E-003;2.947150787804276E-004;
2.400833333333334E+009;1.499683409929276E-001;1.032228097319603E-001;1.849201275035739E-003;-2.390872687101364E-004;
2.401000000000000E+009;1.500497013330460E-001;1.005009189248085E-001;1.664244686253369E-003;-3.048024373129010E-004;
2.401166666666667E+009;1.501456499099731E-001;9.755800664424896E-002;1.387575757689774E-003;-5.253545241430402E-004;
2.401333333333334E+009;1.503577828407288E-001;9.487865865230560E-002;9.395394008606672E-004;-7.159842061810195E-004;
2.401500000000000E+009;1.507367193698883E-001;9.202621132135391E-002;8.088461472652853E-004;-8.176648407243192E-004;
2.401666666666667E+009;1.510305702686310E-001;8.912898600101471E-002;6.689016008749604E-004;-8.552340441383421E-004;
2.401833333333334E+009;1.516102403402329E-001;8.640233427286148E-002;1.534662587800995E-004;-8.344569359906018E-004;
2.402000000000000E+009;1.521894037723541E-001;8.354043215513229E-002;-4.959009402227821E-006;-8.393995813094080E-004;
2.402166666666667E+009;1.530658602714539E-001;8.078867197036743E-002;-2.066865563392639E-004;-5.957487155683339E-004;
2.402333333333334E+009;1.540652066469193E-001;7.816511392593384E-002;-4.089264839421958E-004;-3.995819424744695E-004;
2.402500000000000E+009;1.553823053836823E-001;7.526405155658722E-002;-7.713624509051442E-004;-3.514534619171172E-004;
2.402666666666667E+009;1.564905792474747E-001;7.305406779050827E-002;-6.962354527786374E-004;-8.551589417038485E-005;
2.402833333333334E+009;1.580616980791092E-001;7.030328363180161E-002;-8.733366266824305E-004;1.909003040054813E-004;
2.403000000000000E+009;1.595689058303833E-001;6.788323074579239E-002;-8.765212842263281E-004;3.597008762881160E-004;
2.403166666666667E+009;1.614167392253876E-001;6.556578725576401E-002;-8.179076830856502E-004;5.062003619968891E-004;
2.403333333333334E+009;1.631143093109131E-001;6.330341100692749E-002;-8.186608320102096E-004;6.853863014839590E-004;
2.403500000000000E+009;1.649205833673477E-001;6.095191091299057E-002;-7.761509623378515E-004;9.093139669857919E-004;
2.403666666666667E+009;1.668635904788971E-001;5.896565690636635E-002;-7.290490902960300E-004;9.704156545922160E-004;
2.403833333333334E+009;1.688057184219360E-001;5.703578144311905E-002;-5.361608928069472E-004;1.049213577061892E-003;
2.404000000000000E+009;1.705170720815659E-001;5.508857592940331E-002;-3.788735193666071E-004;1.149513060227037E-003;
2.404166666666667E+009;1.725828051567078E-001;5.325809493660927E-002;-1.587828155606985E-004;1.122766523621976E-003;
2.404333333333334E+009;1.745479851961136E-001;5.163075774908066E-002;-1.640275877434760E-004;1.138331834226847E-003;
2.404500000000000E+009;1.765088140964508E-001;5.008965730667114E-002;9.984146345232148E-006;1.350019127130508E-003;
2.404666666666667E+009;1.783939898014069E-001;4.873730614781380E-002;1.317550595558714E-005;1.144233625382185E-003;
2.404833333333334E+009;1.803415417671204E-001;4.751738160848618E-002;8.027913281694055E-005;1.344348769634962E-003;
2.405000000000000E+009;1.819276064634323E-001;4.676182940602303E-002;5.602427700068802E-005;1.282567158341408E-003;
2.405166666666667E+009;1.837085634469986E-001;4.573637247085571E-002;4.481675205170177E-005;1.250691595487297E-003;
2.405333333333334E+009;1.854635030031204E-001;4.509425163269043E-002;2.380610676482320E-004;1.242616213858128E-003;
2.405500000000000E+009;1.873989403247833E-001;4.459469765424728E-002;1.636403903830797E-004;1.175040029920638E-003;
2.405666666666667E+009;1.887536793947220E-001;4.415055364370346E-002;2.674693823792040E-004;1.328205922618508E-003;
2.405833333333334E+009;1.905936449766159E-001;4.395217075943947E-002;3.407468902878463E-004;1.255131443031132E-003;
2.406000000000000E+009;1.916850060224533E-001;4.366500675678253E-002;3.592989814933389E-004;1.475587836466730E-003;
2.406166666666667E+009;1.930794864892960E-001;4.342791810631752E-002;6.490794476121664E-004;1.510126516222954E-003;
2.406333333333334E+009;1.943376809358597E-001;4.354007169604302E-002;6.993272691033781E-004;1.433198689483106E-003;
2.406500000000000E+009;1.954098045825958E-001;4.348367825150490E-002;7.565439445897937E-004;1.360195921733975E-003;
2.406666666666667E+009;1.963185369968414E-001;4.345147311687470E-002;8.309166296385229E-004;1.205023610964418E-003;
2.406833333333334E+009;1.971778720617294E-001;4.343491420149803E-002;9.583954233676195E-004;1.404849230311811E-003;
2.407000000000000E+009;1.976735591888428E-001;4.381611943244934E-002;8.722684578970075E-004;1.294456538744271E-003;
2.407166666666667E+009;1.984533816576004E-001;4.341059550642967E-002;1.008807448670268E-003;1.273671630769968E-003;
2.407333333333334E+009;1.984929740428925E-001;4.384298622608185E-002;1.163109205663204E-003;1.193096977658570E-003;
2.407500000000000E+009;1.986605823040009E-001;4.399793222546578E-002;1.211920520290732E-003;8.263583295047283E-004;
2.407666666666667E+009;1.987460702657700E-001;4.377121850848198E-002;1.593250432051718E-003;1.726657035760582E-003;
2.407833333333334E+009;1.982493698596954E-001;4.401432722806931E-002;2.062775660306215E-003;5.841319216415286E-004;
2.408000000000000E+009;1.986177116632462E-001;4.390703514218330E-002;1.339433016255498E-003;5.573551170527935E-004;
2.408166666666667E+009;1.982020884752274E-001;4.371660202741623E-002;1.414507045410574E-003;7.937913178466260E-004;
2.408333333333334E+009;1.977505236864090E-001;4.332242906093597E-002;1.504020765423775E-003;7.800685125403106E-004;
2.408500000000000E+009;1.970071196556091E-001;4.322041943669319E-002;1.443547662347555E-003;7.077265181578696E-004;
2.408666666666667E+009;1.964019238948822E-001;4.270485416054726E-002;1.406978117302060E-003;5.264925421215594E-004;
2.408833333333334E+009;1.957398802042007E-001;4.210284352302551E-002;1.383101218380034E-003;4.587143484968692E-004;
2.409000000000000E+009;1.945712268352509E-001;4.145379737019539E-002;1.447998220100999E-003;5.682143382728100E-004;
2.409166666666667E+009;1.937500685453415E-001;4.060810059309006E-002;1.468611881136894E-003;4.870041157118976E-004;
2.409333333333334E+009;1.926408708095551E-001;3.989284113049507E-002;1.424804795533419E-003;3.882171004079282E-004;
2.409500000000000E+009;1.914624273777008E-001;3.882112726569176E-002;1.295245485380292E-003;3.228562127333134E-004;
2.409666666666667E+009;1.903553754091263E-001;3.742409870028496E-002;1.495533506385982E-003;1.638948742765933E-004;
2.409833333333334E+009;1.891245245933533E-001;3.607428073883057E-002;1.577903167344630E-003;6.190315616549924E-005;
2.410000000000000E+009;1.880185902118683E-001;3.449456393718720E-002;1.537526608444750E-003;1.026272439048626E-004;
2.410166666666667E+009;1.868419349193573E-001;3.295474499464035E-002;1.487106317654252E-003;-2.542478432587814E-005;
2.410333333333334E+009;1.858508884906769E-001;3.131301328539848E-002;1.311430474743247E-003;-2.269983524456620E-004;
2.410500000000000E+009;1.845294237136841E-001;2.957980521023274E-002;1.550161628983915E-003;-2.157925046049058E-004;
2.410666666666667E+009;1.834196895360947E-001;2.728198841214180E-002;1.333730760961771E-003;-3.597475879359990E-004;
2.410833333333334E+009;1.827738136053085E-001;2.513916604220867E-002;1.184625551104546E-003;-4.796685243491083E-004;
2.411000000000000E+009;1.816593706607819E-001;2.289851941168308E-002;1.187279005534947E-003;-5.060366238467395E-004;
2.411166666666667E+009;1.809274256229401E-001;2.080354467034340E-002;1.107008312828839E-003;-4.863989015575498E-004;
2.411333333333334E+009;1.802932173013687E-001;1.839808933436871E-002;1.034103566780686E-003;-5.498999380506575E-004;
2.411500000000000E+009;1.796723753213882E-001;1.586779020726681E-002;9.532539406791329E-004;-6.835965323261917E-004;
2.411666666666667E+009;1.793235838413239E-001;1.350808236747980E-002;8.261604816652834E-004;-5.378659698180854E-004;
2.411833333333334E+009;1.787181794643402E-001;1.110845897346735E-002;7.038561743684113E-004;-5.959215923212469E-004;
2.412000000000000E+009;1.788308322429657E-001;8.476466871798039E-003;7.271885988302529E-004;-6.392534705810249E-004;
2.412166666666667E+009;1.788100302219391E-001;6.038293708115816E-003;5.809136200696230E-004;-4.998685326427221E-004;
2.412333333333334E+009;1.788302510976791E-001;3.343204269185662E-003;5.183228640817106E-004;-3.776121884584427E-004;
2.412500000000000E+009;1.790021508932114E-001;7.191585027612746E-004;4.571048775687814E-004;-4.507214762270451E-004;
2.412666666666667E+009;1.794536262750626E-001;-2.105857944115996E-003;2.870470052585006E-004;-3.674129548016936E-004;
2.412833333333334E+009;1.798823922872543E-001;-4.656388889998198E-003;4.859598411712796E-004;-3.297015500720590E-004;
2.413000000000000E+009;1.805984824895859E-001;-7.103742565959692E-003;3.401202848181129E-004;-2.831840247381479E-004;
2.413166666666667E+009;1.812892556190491E-001;-9.569658897817135E-003;4.518288478720933E-004;-1.711861696094275E-004;
2.413333333333334E+009;1.823148131370544E-001;-1.210025511682034E-002;4.978199722245336E-004;-4.554100814857520E-005;
2.413500000000000E+009;1.832066923379898E-001;-1.457891147583723E-002;4.635359800886363E-004;-1.427628594683483E-004;
2.413666666666667E+009;1.843999475240707E-001;-1.695807836949825E-002;4.665763408411294E-004;2.602358836156782E-005;
2.413833333333334E+009;1.852925419807434E-001;-1.914507336914539E-002;5.752225988544524E-004;-7.887628271419089E-006;
2.414000000000000E+009;1.865456700325012E-001;-2.122218720614910E-002;6.653662421740592E-004;-3.528636807459407E-005;
2.414166666666667E+009;1.877271980047226E-001;-2.337352745234966E-002;8.957643876783550E-004;-3.449463838478550E-005;
2.414333333333334E+009;1.888338923454285E-001;-2.542691677808762E-002;9.436429827474058E-004;-1.720832369755954E-004;
2.414500000000000E+009;1.901763081550598E-001;-2.705965377390385E-002;8.851505117490888E-004;-2.865096903406084E-004;
2.414666666666667E+009;1.915314793586731E-001;-2.897803857922554E-002;9.402147843502462E-004;-2.997482952196151E-004;
2.414833333333334E+009;1.927940845489502E-001;-3.033121302723885E-002;9.713143226690590E-004;-4.577053477987647E-004;
2.415000000000000E+009;1.938526630401611E-001;-3.185533359646797E-002;9.397754911333323E-004;-4.541297385003418E-004;
2.415166666666667E+009;1.952027082443237E-001;-3.325517848134041E-002;1.108064781874418E-003;-7.058060145936906E-004;
2.415333333333334E+009;1.964128762483597E-001;-3.427790477871895E-002;9.649699204601347E-004;-5.496312514878810E-004;
2.415500000000000E+009;1.978185325860977E-001;-3.499686717987061E-002;8.870388846844435E-004;-6.372673087753356E-004;
2.415666666666667E+009;1.989496350288391E-001;-3.598805889487267E-002;7.673358195461333E-004;-7.759162108413875E-004;
2.415833333333334E+009;1.999322921037674E-001;-3.676822781562805E-002;6.422295700758696E-004;-7.954968023113906E-004;
2.416000000000000E+009;2.007821053266525E-001;-3.740249946713448E-002;2.535178500693291E-004;-8.560937712900341E-004;
2.416166666666667E+009;2.018138766288757E-001;-3.799946606159210E-002;2.719747135415673E-004;-6.638541817665100E-004;
2.416333333333334E+009;2.025834918022156E-001;-3.830526769161224E-002;2.908910973928869E-004;-6.908465293236077E-004;
2.416500000000000E+009;2.033073157072067E-001;-3.853089362382889E-002;1.334060070803389E-004;-5.401860689744353E-004;
2.416666666666667E+009;2.036814987659454E-001;-3.888671100139618E-002;1.370216195937246E-004;-5.077650421299040E-004;
2.416833333333334E+009;2.040509879589081E-001;-3.896988555788994E-002;2.413418114883825E-004;-3.292695910204202E-004;
2.417000000000000E+009;2.043496072292328E-001;-3.892255574464798E-002;4.365380736999214E-004;-3.292450855951756E-004;
2.417166666666667E+009;2.043300569057465E-001;-3.880888223648071E-002;4.319961008150131E-004;-2.166611957363784E-004;
2.417333333333334E+009;2.042228430509567E-001;-3.851597383618355E-002;5.887158331461251E-004;-2.823987742885947E-004;
2.417500000000000E+009;2.041896283626556E-001;-3.828564286231995E-002;5.329277482815087E-004;-2.894955687224865E-004;
2.417666666666667E+009;2.038409411907196E-001;-3.794244676828384E-002;7.091477746143937E-004;-3.798395337071270E-004;
2.417833333333334E+009;2.036129683256149E-001;-3.766322880983353E-002;6.368774338625372E-004;-1.971009041881189E-004;
2.418000000000000E+009;2.031113803386688E-001;-3.730580210685730E-002;5.902806296944618E-004;-4.438000032678247E-004;
2.418166666666667E+009;2.025145739316940E-001;-3.686368837952614E-002;5.396057968027890E-004;-6.800697883591056E-004;
2.418333333333334E+009;2.016912847757340E-001;-3.671116754412651E-002;4.786508507095277E-004;-7.439917535521090E-004;
2.418500000000000E+009;2.009034305810928E-001;-3.651918470859528E-002;5.513595533557236E-004;-7.385271601378918E-004;
2.418666666666667E+009;2.001758366823196E-001;-3.626503050327301E-002;4.608272574841976E-004;-8.598743006587029E-004;
2.418833333333334E+009;1.991564482450485E-001;-3.625249862670898E-002;3.199184138793498E-004;-7.901796489022672E-004;
2.419000000000000E+009;1.978444010019302E-001;-3.634234145283699E-002;2.119903947459534E-004;-6.746346480213106E-004;
2.419166666666667E+009;1.966778188943863E-001;-3.647002577781677E-002;1.414622674928978E-004;-6.801747949793935E-004;
2.419333333333334E+009;1.954147368669510E-001;-3.668021410703659E-002;4.170681495452300E-005;-5.564305465668440E-004;
2.419500000000000E+009;1.938786804676056E-001;-3.706343099474907E-002;-5.949152182438411E-005;-4.832152626477182E-004;
2.419666666666667E+009;1.923434436321259E-001;-3.770709410309792E-002;-6.592003774130717E-005;-3.198233025614172E-004;
2.419833333333334E+009;1.907969564199448E-001;-3.830333426594734E-002;1.121492095990107E-004;-1.645782176638022E-004;
2.420000000000000E+009;1.891169846057892E-001;-3.909281641244888E-002;1.316840061917901E-004;9.447196498513222E-005;
2.420166666666667E+009;1.874742805957794E-001;-3.973768651485443E-002;9.668388520367444E-005;1.735019613988698E-004;
2.420333333333334E+009;1.857205331325531E-001;-4.078698530793190E-002;4.041162028443068E-004;3.713292535394430E-004;
2.420500000000000E+009;1.838734745979309E-001;-4.208984225988388E-002;4.324296023696661E-004;3.089474048465490E-004;
2.420666666666667E+009;1.822280138731003E-001;-4.312884062528610E-002;5.887230508960784E-004;2.181550080422312E-004;
2.420833333333334E+009;1.805173456668854E-001;-4.452474042773247E-002;8.374800090678036E-004;4.036942264065146E-004;
2.421000000000000E+009;1.788864284753799E-001;-4.601365700364113E-002;1.137480256147683E-003;2.230018144473434E-004;
2.421166666666667E+009;1.772003471851349E-001;-4.768964275717735E-002;1.319065224379301E-003;2.273632126161829E-004;
2.421333333333334E+009;1.754499971866608E-001;-4.914889112114906E-002;1.547586405649781E-003;4.283585440134630E-005;
2.421500000000000E+009;1.739126741886139E-001;-5.094987154006958E-002;1.635367283597589E-003;-2.984785533044487E-004;
2.421666666666667E+009;1.725344657897949E-001;-5.257663875818253E-002;1.731614582240582E-003;-5.502604180946946E-004;
2.421833333333334E+009;1.712254285812378E-001;-5.451582372188568E-002;1.896796864457429E-003;-5.877274670638144E-004;
2.422000000000000E+009;1.699345409870148E-001;-5.634710192680359E-002;2.007502596825361E-003;-8.541838033124805E-004;
2.422166666666667E+009;1.689323186874390E-001;-5.838958546519280E-002;1.923422911204398E-003;-9.997317101806402E-004;
2.422333333333334E+009;1.677617281675339E-001;-6.034853309392929E-002;1.884834258817136E-003;-1.201337436214089E-003;
2.422500000000000E+009;1.668407022953033E-001;-6.243507564067841E-002;1.858014962635934E-003;-1.459188875742257E-003;
2.422666666666667E+009;1.661439090967178E-001;-6.450092792510986E-002;1.689962460659444E-003;-1.718827756121755E-003;
2.422833333333334E+009;1.655323058366776E-001;-6.664997339248657E-002;1.639187335968018E-003;-1.973212230950594E-003;
2.423000000000000E+009;1.650378257036209E-001;-6.859666854143143E-002;1.414024853147566E-003;-2.080577891319990E-003;
2.423166666666667E+009;1.646056324243546E-001;-7.081178575754166E-002;1.295729773119092E-003;-2.397267380729318E-003;
2.423333333333334E+009;1.641965061426163E-001;-7.282885909080505E-002;1.148936804383993E-003;-2.379008568823338E-003;
2.423500000000000E+009;1.643265187740326E-001;-7.474166899919510E-002;1.042857067659497E-003;-2.616235055029392E-003;
2.423666666666667E+009;1.643533855676651E-001;-7.683209329843521E-002;7.790763047523797E-004;-2.645278349518776E-003;
2.423833333333334E+009;1.643026769161224E-001;-7.884299755096436E-002;3.761673287954181E-004;-2.790918108075857E-003;
2.424000000000000E+009;1.644085794687271E-001;-8.067810535430908E-002;3.723881964106113E-004;-2.879399340599775E-003;
2.424166666666667E+009;1.646470725536346E-001;-8.240339159965515E-002;2.193871623603627E-004;-2.966785803437233E-003;
2.424333333333334E+009;1.649080514907837E-001;-8.415647596120834E-002;4.228354009683244E-005;-2.881746273487806E-003;
2.424500000000000E+009;1.652333438396454E-001;-8.617267757654190E-002;-2.404640545137227E-004;-2.953691873699427E-003;
2.424666666666667E+009;1.656500697135925E-001;-8.761779963970184E-002;-3.828139742836356E-004;-2.941483398899436E-003;
2.424833333333334E+009;1.661745160818100E-001;-8.908325433731079E-002;-6.381131825037301E-004;-2.886381931602955E-003;
2.425000000000000E+009;1.667160987854004E-001;-9.036833792924881E-002;-8.077521342784166E-004;-2.878380473703146E-003;
2.425166666666667E+009;1.673331558704376E-001;-9.161015599966049E-002;-1.062733354046941E-003;-2.780236070975661E-003;
2.425333333333334E+009;1.676762700080872E-001;-9.290355443954468E-002;-1.106780138798058E-003;-2.647534245625138E-003;
2.425500000000000E+009;1.682360619306564E-001;-9.398580342531204E-002;-1.399511704221368E-003;-2.544327406212688E-003;
2.425666666666667E+009;1.688950508832932E-001;-9.473296999931335E-002;-1.602424308657646E-003;-2.535775071009994E-003;
2.425833333333334E+009;1.694883704185486E-001;-9.575533866882324E-002;-1.814953051507473E-003;-2.410145709291101E-003;
2.426000000000000E+009;1.701244860887528E-001;-9.624291956424713E-002;-1.717247301712632E-003;-2.327636117115617E-003;
2.426166666666667E+009;1.706230342388153E-001;-9.693289548158646E-002;-2.018886385485530E-003;-2.142421202734113E-003;
2.426333333333334E+009;1.711394041776657E-001;-9.755543619394302E-002;-2.148011466488242E-003;-2.005581744015217E-003;
2.426500000000000E+009;1.716220080852509E-001;-9.792442619800568E-002;-2.269544173032045E-003;-1.758668804541230E-003;
2.426666666666667E+009;1.722163259983063E-001;-9.825297445058823E-002;-2.280476735904813E-003;-1.743709435686469E-003;
2.426833333333334E+009;1.726743131875992E-001;-9.868423640727997E-002;-2.252802718430758E-003;-1.558835036121309E-003;
2.427000000000000E+009;1.729454547166824E-001;-9.895260632038117E-002;-2.580585656687617E-003;-1.538022072054446E-003;
2.427166666666667E+009;1.731902956962585E-001;-9.917578846216202E-002;-2.396701369434595E-003;-1.239663222804666E-003;
2.427333333333334E+009;1.733307540416718E-001;-9.943809360265732E-002;-2.505855401977897E-003;-1.046175020746887E-003;
2.427500000000000E+009;1.733472496271133E-001;-9.961369633674622E-002;-2.503702649846673E-003;-9.831549832597375E-004;
2.427666666666667E+009;1.731839478015900E-001;-9.968116879463196E-002;-2.569785108789802E-003;-8.272049599327147E-004;
2.427833333333334E+009;1.731730550527573E-001;-9.992805123329163E-002;-2.593515440821648E-003;-7.009351393207908E-004;
