# Version 1.00
#
freq[Hz];re:Trc1_S11;im:Trc1_S11;re:Trc2_S21;im:Trc2_S21;
2.400000000000000E+009;1.561146527528763E-001;1.115068122744560E-001;-2.566090319305658E-003;6.849532946944237E-004;
2.400166666666667E+009;1.556093543767929E-001;1.092725694179535E-001;-2.496666973456740E-003;6.070344825275242E-004;
2.400333333333334E+009;1.553034782409668E-001;1.070252805948257E-001;-2.531838603317738E-003;5.523064755834639E-004;
2.400500000000000E+009;1.550358980894089E-001;1.042824387550354E-001;-2.525315387174487E-003;4.328109207563102E-004;
2.400666666666667E+009;1.547928899526596E-001;1.018808037042618E-001;-2.682583872228861E-003;4.749360668938607E-004;
2.400833333333334E+009;1.545386016368866E-001;9.917176514863968E-002;-2.761265030130744E-003;4.313884419389069E-004;
2.401000000000000E+009;1.545235216617584E-001;9.616836160421372E-002;-2.905922709032893E-003;3.971340775024146E-004;
2.401166666666667E+009;1.542948931455612E-001;9.339275211095810E-002;-2.933286828920245E-003;4.868687829002738E-004;
2.401333333333334E+009;1.544175297021866E-001;9.041637182235718E-002;-3.052081447094679E-003;5.195775884203613E-004;
2.401500000000000E+009;1.545635461807251E-001;8.752928674221039E-002;-3.263964317739010E-003;6.925392663106322E-004;
2.401666666666667E+009;1.546723395586014E-001;8.455156534910202E-002;-3.490656847134233E-003;9.253511670976877E-004;
2.401833333333334E+009;1.549952626228333E-001;8.153331279754639E-002;-3.396185114979744E-003;8.276805747300386E-004;
2.402000000000000E+009;1.556869298219681E-001;7.852047681808472E-002;-3.493643132969737E-003;1.158646075055003E-003;
2.402166666666667E+009;1.563844680786133E-001;7.594557851552963E-002;-3.532661590725184E-003;1.309084706008434E-003;
2.402333333333334E+009;1.571356207132340E-001;7.274033129215241E-002;-3.553623333573341E-003;1.486023189499974E-003;
2.402500000000000E+009;1.580055207014084E-001;7.007561624050140E-002;-3.477358492091298E-003;1.791373011656106E-003;
2.402666666666667E+009;1.590014994144440E-001;6.759065389633179E-002;-3.527420572936535E-003;2.009125892072916E-003;
2.402833333333334E+009;1.604065895080566E-001;6.489121913909912E-002;-3.458720631897450E-003;2.035105600953102E-003;
2.403000000000000E+009;1.618449836969376E-001;6.229458004236221E-002;-3.293999470770359E-003;2.261970657855272E-003;
2.403166666666667E+009;1.633475273847580E-001;5.953916534781456E-002;-3.306836588308215E-003;2.321868902072310E-003;
2.403333333333334E+009;1.650490015745163E-001;5.738983675837517E-002;-3.003177465870976E-003;2.417648676782847E-003;
2.403500000000000E+009;1.668443381786346E-001;5.501837283372879E-002;-3.012002678588033E-003;2.534823259338737E-003;
2.403666666666667E+009;1.686829924583435E-001;5.281718447804451E-002;-3.023166209459305E-003;2.434599678963423E-003;
2.403833333333334E+009;1.703680455684662E-001;5.073522031307221E-002;-2.683104714378715E-003;2.612180076539516E-003;
2.404000000000000E+009;1.720150858163834E-001;4.865939542651177E-002;-2.680705860257149E-003;2.573539735749364E-003;
2.404166666666667E+009;1.739092916250229E-001;4.684732854366303E-002;-2.718038158491254E-003;2.722810022532940E-003;
2.404333333333334E+009;1.758118867874146E-001;4.511416703462601E-002;-2.607162110507488E-003;2.554385690018535E-003;
2.404500000000000E+009;1.776286363601685E-001;4.354406520724297E-002;-2.629985334351659E-003;2.765048993751407E-003;
2.404666666666667E+009;1.793943494558334E-001;4.242389276623726E-002;-2.810517558827996E-003;2.902745502069593E-003;
2.404833333333334E+009;1.812323331832886E-001;4.106353968381882E-002;-2.663207007572055E-003;3.023145953193307E-003;
2.405000000000000E+009;1.828739643096924E-001;4.033370316028595E-002;-2.764141652733088E-003;3.096185158938170E-003;
2.405166666666667E+009;1.845210939645767E-001;3.941643610596657E-002;-2.654187148436904E-003;3.339844755828381E-003;
2.405333333333334E+009;1.862299293279648E-001;3.886633738875389E-002;-2.575939521193504E-003;3.455197671428323E-003;
2.405500000000000E+009;1.879900246858597E-001;3.820051625370979E-002;-2.517742104828358E-003;3.670340869575739E-003;
2.405666666666667E+009;1.895187944173813E-001;3.793961182236671E-002;-2.435465343296528E-003;3.844092134386301E-003;
2.405833333333334E+009;1.909609884023666E-001;3.760708495974541E-002;-2.024807734414935E-003;3.898750524967909E-003;
2.406000000000000E+009;1.922867596149445E-001;3.744644299149513E-002;-2.059673191979528E-003;4.021793603897095E-003;
2.406166666666667E+009;1.935072243213654E-001;3.738263621926308E-002;-1.648501260206103E-003;4.038335755467415E-003;
2.406333333333334E+009;1.948397308588028E-001;3.740274161100388E-002;-1.526719424873591E-003;4.204541910439730E-003;
2.406500000000000E+009;1.957740634679794E-001;3.758344426751137E-002;-1.328933169133961E-003;4.228734411299229E-003;
2.406666666666667E+009;1.966423541307449E-001;3.778175264596939E-002;-1.089972793124616E-003;4.386747255921364E-003;
2.406833333333334E+009;1.974844634532929E-001;3.789249807596207E-002;-9.595412993803620E-004;4.197597969323397E-003;
2.407000000000000E+009;1.979773491621018E-001;3.838777169585228E-002;-9.093711269088090E-004;4.160373006016016E-003;
2.407166666666667E+009;1.987162679433823E-001;3.826290741562843E-002;-8.402618695981801E-004;4.228706471621990E-003;
2.407333333333334E+009;1.988371610641480E-001;3.875726833939552E-002;-6.149513064883649E-004;4.369481932371855E-003;
2.407500000000000E+009;1.990003734827042E-001;3.906149044632912E-002;-5.513721844181418E-004;4.354182630777359E-003;
2.407666666666667E+009;1.991289258003235E-001;3.913466259837151E-002;-6.396709941327572E-004;4.330944735556841E-003;
2.407833333333334E+009;1.987984478473663E-001;3.917964920401573E-002;-8.912872872315347E-004;4.819901194423437E-003;
2.408000000000000E+009;1.988083124160767E-001;3.938173130154610E-002;-1.533653557999060E-004;4.485811106860638E-003;
2.408166666666667E+009;1.981890797615051E-001;3.941041976213455E-002;-4.090564907528460E-004;4.405125044286251E-003;
2.408333333333334E+009;1.978957504034042E-001;3.926248475909233E-002;-2.670912654139102E-004;4.832875914871693E-003;
2.408500000000000E+009;1.972390115261078E-001;3.909234330058098E-002;3.858756681438536E-004;4.488889593631029E-003;
2.408666666666667E+009;1.966427564620972E-001;3.890893608331680E-002;-4.129494482185692E-004;4.699771292507649E-003;
2.408833333333334E+009;1.957552284002304E-001;3.847084566950798E-002;2.821114321704954E-004;4.649198148399591E-003;
2.409000000000000E+009;1.948522478342056E-001;3.766304254531860E-002;2.309811243321747E-004;5.144475493580103E-003;
2.409166666666667E+009;1.937033385038376E-001;3.720214962959290E-002;3.825544845312834E-004;4.588885232806206E-003;
2.409333333333334E+009;1.927727460861206E-001;3.645658493041992E-002;5.398486391641200E-004;4.933018703013659E-003;
2.409500000000000E+009;1.913625150918961E-001;3.528936952352524E-002;8.255229913629592E-004;4.924260545521975E-003;
2.409666666666667E+009;1.900830268859863E-001;3.418035432696343E-002;1.061007147654891E-003;5.006548017263413E-003;
2.409833333333334E+009;1.887521743774414E-001;3.292880952358246E-002;1.192315132357180E-003;4.947485867887735E-003;
2.410000000000000E+009;1.876340806484222E-001;3.157400712370873E-002;1.588766695931554E-003;4.918949212878943E-003;
2.410166666666667E+009;1.862566918134689E-001;2.995596639811993E-002;1.811656286008656E-003;4.877459723502398E-003;
2.410333333333334E+009;1.850492209196091E-001;2.841221168637276E-002;1.941709662787616E-003;4.925484303385019E-003;
2.410500000000000E+009;1.838882416486740E-001;2.664746157824993E-002;2.056296914815903E-003;4.811221268028021E-003;
2.410666666666667E+009;1.826906800270081E-001;2.443974278867245E-002;2.301890635862947E-003;4.848128650337458E-003;
2.410833333333334E+009;1.817711144685745E-001;2.238309383392334E-002;2.423688070848584E-003;4.612027667462826E-003;
2.411000000000000E+009;1.807108968496323E-001;2.026386186480522E-002;2.710731700062752E-003;4.540081601589918E-003;
2.411166666666667E+009;1.799377351999283E-001;1.828366704285145E-002;2.878061728551984E-003;4.352149553596973E-003;
2.411333333333334E+009;1.789875924587250E-001;1.566927693784237E-002;2.896287478506565E-003;4.386617336422205E-003;
2.411500000000000E+009;1.783733665943146E-001;1.327228732407093E-002;3.233148716390133E-003;4.394075833261013E-003;
2.411666666666667E+009;1.779650449752808E-001;1.092226058244705E-002;3.342293435707688E-003;4.198150709271431E-003;
2.411833333333334E+009;1.772925108671188E-001;8.353292010724545E-003;3.464274341240525E-003;4.156699869781733E-003;
2.412000000000000E+009;1.773242503404617E-001;5.666511598974466E-003;3.682008478790522E-003;4.041465930640698E-003;
2.412166666666667E+009;1.772389560937882E-001;3.308919724076986E-003;3.695529419928789E-003;3.967075143009424E-003;
2.412333333333334E+009;1.772236227989197E-001;6.014429964125156E-004;3.839357756078243E-003;3.905049758031964E-003;
2.412500000000000E+009;1.777697950601578E-001;-2.020236104726791E-003;4.111109767109156E-003;3.659387351945043E-003;
2.412666666666667E+009;1.777967363595963E-001;-4.679857287555933E-003;4.250887781381607E-003;3.677548374980688E-003;
2.412833333333334E+009;1.784308403730393E-001;-7.369698025286198E-003;4.572903737425804E-003;3.592065069824457E-003;
2.413000000000000E+009;1.790611743927002E-001;-9.934822097420692E-003;4.619867075234652E-003;3.446234390139580E-003;
2.413166666666667E+009;1.798531264066696E-001;-1.224796753376722E-002;4.927548114210367E-003;3.220925573259592E-003;
2.413333333333334E+009;1.808848828077316E-001;-1.479624677449465E-002;5.070805549621582E-003;3.041733987629414E-003;
2.413500000000000E+009;1.817616969347000E-001;-1.727853342890739E-002;5.401817616075277E-003;2.586791524663568E-003;
2.413666666666667E+009;1.829487979412079E-001;-1.990429498255253E-002;5.473091267049313E-003;2.341368701308966E-003;
2.413833333333334E+009;1.840443015098572E-001;-2.193261869251728E-002;5.599161144345999E-003;1.812768983654678E-003;
2.414000000000000E+009;1.852649301290512E-001;-2.417594380676746E-002;5.614407360553742E-003;1.463219523429871E-003;
2.414166666666667E+009;1.865619570016861E-001;-2.624713256955147E-002;5.698575172573328E-003;1.133885118179023E-003;
2.414333333333334E+009;1.878673136234283E-001;-2.841486595571041E-002;5.759015679359436E-003;8.692269911989570E-004;
2.414500000000000E+009;1.890250742435455E-001;-3.011599183082581E-002;5.673918407410383E-003;4.715082468464971E-004;
2.414666666666667E+009;1.906145215034485E-001;-3.180192410945892E-002;5.478906445205212E-003;1.927468110807240E-004;
2.414833333333334E+009;1.919199228286743E-001;-3.326934576034546E-002;5.435535684227943E-003;-6.633403972955421E-005;
2.415000000000000E+009;1.931478232145309E-001;-3.485068678855896E-002;5.435893777757883E-003;-3.277257783338428E-004;
2.415166666666667E+009;1.947715133428574E-001;-3.602258488535881E-002;5.188679788261652E-003;-4.688137560151517E-004;
2.415333333333334E+009;1.960135251283646E-001;-3.713372349739075E-002;5.026761442422867E-003;-7.958470378071070E-004;
2.415500000000000E+009;1.973963230848312E-001;-3.803467005491257E-002;4.967375658452511E-003;-9.929636726155877E-004;
2.415666666666667E+009;1.987205147743225E-001;-3.896726295351982E-002;4.611319862306118E-003;-1.185061992146075E-003;
2.415833333333334E+009;1.998463273048401E-001;-3.959481418132782E-002;4.689969588071108E-003;-1.443347078748047E-003;
2.416000000000000E+009;2.009986340999603E-001;-4.038483649492264E-002;4.415111150592566E-003;-1.551712397485972E-003;
2.416166666666667E+009;2.019865959882736E-001;-4.084165766835213E-002;4.150488413870335E-003;-1.736405072733760E-003;
2.416333333333334E+009;2.030779570341110E-001;-4.122912138700485E-002;4.045441746711731E-003;-1.804897910915315E-003;
2.416500000000000E+009;2.038102149963379E-001;-4.151277989149094E-002;3.927865531295538E-003;-1.921218005008996E-003;
2.416666666666667E+009;2.044495046138763E-001;-4.176730290055275E-002;3.796142525970936E-003;-1.949361874721944E-003;
2.416833333333334E+009;2.049183994531632E-001;-4.180837050080299E-002;3.521133214235306E-003;-2.123973332345486E-003;
2.417000000000000E+009;2.053996920585632E-001;-4.186774790287018E-002;3.177369246259332E-003;-2.013517078012228E-003;
2.417166666666667E+009;2.054885923862457E-001;-4.175706580281258E-002;3.053664462640882E-003;-2.106578787788749E-003;
2.417333333333334E+009;2.053955197334290E-001;-4.155538603663445E-002;2.827310934662819E-003;-2.216740977019072E-003;
2.417500000000000E+009;2.054511457681656E-001;-4.138688370585442E-002;2.749202772974968E-003;-2.042205305770040E-003;
2.417666666666667E+009;2.051043957471848E-001;-4.097635671496391E-002;2.569447737187147E-003;-1.961448229849339E-003;
2.417833333333334E+009;2.049179375171661E-001;-4.072952270507813E-002;2.372277667745948E-003;-2.058709971606731E-003;
2.418000000000000E+009;2.044416517019272E-001;-4.028964042663574E-002;2.449499443173409E-003;-1.964074559509754E-003;
2.418166666666667E+009;2.038401067256928E-001;-4.005962237715721E-002;2.312488853931427E-003;-1.892148749902844E-003;
2.418333333333334E+009;2.031358480453491E-001;-3.965136408805847E-002;2.188584534451366E-003;-1.728027244098485E-003;
2.418500000000000E+009;2.021846026182175E-001;-3.948627039790154E-002;2.253131708130240E-003;-1.742773223668337E-003;
2.418666666666667E+009;2.013535052537918E-001;-3.922590985894203E-002;2.025372814387083E-003;-1.618032809346914E-003;
2.418833333333334E+009;2.001106888055801E-001;-3.915177658200264E-002;1.984253060072660E-003;-1.597104128450155E-003;
2.419000000000000E+009;1.988648325204849E-001;-3.911976516246796E-002;2.029822906479240E-003;-1.454733777791262E-003;
2.419166666666667E+009;1.976659446954727E-001;-3.925950452685356E-002;1.992220059037209E-003;-1.380806788802147E-003;
2.419333333333334E+009;1.962350904941559E-001;-3.946587443351746E-002;2.186378231272101E-003;-1.256187912076712E-003;
2.419500000000000E+009;1.946997642517090E-001;-3.976458311080933E-002;2.018840285018086E-003;-1.185515429824591E-003;
2.419666666666667E+009;1.931335628032684E-001;-4.031233862042427E-002;2.213494153693318E-003;-1.025499426759780E-003;
2.419833333333334E+009;1.913724243640900E-001;-4.084488749504089E-002;2.261462854221463E-003;-1.128761912696064E-003;
2.420000000000000E+009;1.897452324628830E-001;-4.162358492612839E-002;2.318327547982335E-003;-1.010174048133194E-003;
2.420166666666667E+009;1.880816519260407E-001;-4.223566129803658E-002;2.609495539218187E-003;-9.318803204223514E-004;
2.420333333333334E+009;1.861333996057510E-001;-4.326807707548142E-002;2.768404316157103E-003;-9.337100782431662E-004;
2.420500000000000E+009;1.843852847814560E-001;-4.450238496065140E-002;2.893947297707200E-003;-9.185260860249400E-004;
2.420666666666667E+009;1.825384348630905E-001;-4.561896249651909E-002;3.100334433838725E-003;-1.104170223698020E-003;
2.420833333333334E+009;1.807361394166946E-001;-4.691899940371513E-002;3.153871512040496E-003;-1.216929638758302E-003;
2.421000000000000E+009;1.790738701820374E-001;-4.858431965112686E-002;3.356235567480326E-003;-1.252570305950940E-003;
2.421166666666667E+009;1.774607300758362E-001;-5.003265663981438E-002;3.615824971348047E-003;-1.531419344246388E-003;
2.421333333333334E+009;1.756154596805573E-001;-5.174851417541504E-002;3.583752783015370E-003;-1.650488702580333E-003;
2.421500000000000E+009;1.740189045667648E-001;-5.361765995621681E-002;3.691446036100388E-003;-1.861183089204133E-003;
2.421666666666667E+009;1.725178956985474E-001;-5.557316914200783E-002;3.910820931196213E-003;-1.918693073093891E-003;
2.421833333333334E+009;1.712504476308823E-001;-5.734924226999283E-002;3.830229863524437E-003;-2.437812509015203E-003;
2.422000000000000E+009;1.698662638664246E-001;-5.943271145224571E-002;3.854454960674048E-003;-2.730439649894834E-003;
2.422166666666667E+009;1.686676442623138E-001;-6.152362748980522E-002;3.888894105330110E-003;-2.970540663227439E-003;
2.422333333333334E+009;1.676326394081116E-001;-6.393267214298248E-002;3.795134136453271E-003;-3.200412029400468E-003;
2.422500000000000E+009;1.666340231895447E-001;-6.586962193250656E-002;3.677344415336847E-003;-3.529763082042337E-003;
2.422666666666667E+009;1.656462848186493E-001;-6.821879744529724E-002;3.567684674635530E-003;-3.689109813421965E-003;
2.422833333333334E+009;1.652513146400452E-001;-7.036675512790680E-002;3.395554842427373E-003;-3.826396539807320E-003;
2.423000000000000E+009;1.645861119031906E-001;-7.258235663175583E-002;3.293312620371580E-003;-4.119158256798983E-003;
2.423166666666667E+009;1.639867424964905E-001;-7.493691891431809E-002;3.008584957569838E-003;-4.199250601232052E-003;
2.423333333333334E+009;1.636142134666443E-001;-7.707800716161728E-002;3.137236926704645E-003;-4.298196639865637E-003;
2.423500000000000E+009;1.635244637727737E-001;-7.917246222496033E-002;2.750742016360164E-003;-4.640972241759300E-003;
2.423666666666667E+009;1.635184437036514E-001;-8.141218125820160E-002;2.627988345921040E-003;-4.709329921752214E-003;
2.423833333333334E+009;1.633809655904770E-001;-8.342392742633820E-002;2.314859302714467E-003;-4.874818492680788E-003;
2.424000000000000E+009;1.635016500949860E-001;-8.553357422351837E-002;2.299858955666423E-003;-5.001840181648731E-003;
2.424166666666667E+009;1.636597961187363E-001;-8.741217851638794E-002;2.030780306085944E-003;-5.289519671350718E-003;
2.424333333333334E+009;1.639399379491806E-001;-8.907090127468109E-002;1.964410766959190E-003;-5.457932129502296E-003;
2.424500000000000E+009;1.643206179141998E-001;-9.095624834299088E-002;1.700509572401643E-003;-5.581467412412167E-003;
2.424666666666667E+009;1.645895093679428E-001;-9.264182299375534E-002;1.210721908137202E-003;-5.848014261573553E-003;
2.424833333333334E+009;1.652904599905014E-001;-9.421560913324356E-002;9.858389385044575E-004;-5.824558902531862E-003;
2.425000000000000E+009;1.658450067043304E-001;-9.566604346036911E-002;8.608385687693954E-004;-5.968017969280481E-003;
2.425166666666667E+009;1.661595404148102E-001;-9.696149826049805E-002;4.811103863175958E-004;-6.187668535858393E-003;
2.425333333333334E+009;1.667324304580689E-001;-9.813794493675232E-002;-5.418969976744847E-006;-6.259724497795105E-003;
2.425500000000000E+009;1.673673838376999E-001;-9.931481629610062E-002;-2.273151185363531E-004;-6.198348011821508E-003;
2.425666666666667E+009;1.680664867162705E-001;-1.001194268465042E-001;-7.191272452473640E-004;-6.248753052204847E-003;
2.425833333333334E+009;1.685281097888947E-001;-1.012433543801308E-001;-9.375341469421983E-004;-6.072567310184240E-003;
2.426000000000000E+009;1.692027896642685E-001;-1.017307192087174E-001;-1.345662400126457E-003;-6.025821436196566E-003;
2.426166666666667E+009;1.698676794767380E-001;-1.023253872990608E-001;-1.681348658166826E-003;-5.943774711340666E-003;
2.426333333333334E+009;1.700631976127625E-001;-1.029783710837364E-001;-1.989412354305387E-003;-5.587414838373661E-003;
2.426500000000000E+009;1.707189381122589E-001;-1.033128723502159E-001;-2.276362851262093E-003;-5.506097804754973E-003;
2.426666666666667E+009;1.712283492088318E-001;-1.037020087242127E-001;-2.493490464985371E-003;-5.208558868616819E-003;
2.426833333333334E+009;1.717159152030945E-001;-1.040338948369026E-001;-2.776286797598004E-003;-5.113053601235151E-003;
2.427000000000000E+009;1.719010174274445E-001;-1.042740195989609E-001;-2.852717647328973E-003;-4.872843157500029E-003;
2.427166666666667E+009;1.721899658441544E-001;-1.042195335030556E-001;-3.023676341399550E-003;-4.469414241611958E-003;
2.427333333333334E+009;1.722874045372009E-001;-1.045931354165077E-001;-3.203066997230053E-003;-4.320980049669743E-003;
2.427500000000000E+009;1.722414791584015E-001;-1.045548766851425E-001;-3.338228445500135E-003;-4.144998732954264E-003;
2.427666666666667E+009;1.722302585840225E-001;-1.046013310551643E-001;-3.450738964602351E-003;-3.995296079665422E-003;
2.427833333333334E+009;1.720657348632813E-001;-1.045544594526291E-001;-3.384900046512485E-003;-3.815330332145095E-003;
