# Version 1.00
#
freq[Hz];re:Trc1_S11;im:Trc1_S11;re:Trc2_S21;im:Trc2_S21;
2.400000000000000E+009;1.562653779983521E-001;1.114172786474228E-001;-2.586572198197246E-003;7.931318832561374E-004;
2.400166666666667E+009;1.556603908538818E-001;1.090435460209847E-001;-2.603495959192514E-003;6.242572562769055E-004;
2.400333333333334E+009;1.553569734096527E-001;1.069203019142151E-001;-2.680780366063118E-003;7.058865739963949E-004;
2.400500000000000E+009;1.552622914314270E-001;1.042830720543861E-001;-2.818583743646741E-003;6.287496653385460E-004;
2.400666666666667E+009;1.547021120786667E-001;1.016454547643662E-001;-2.840577624738216E-003;6.006759940646589E-004;
2.400833333333334E+009;1.545004397630692E-001;9.885425120592117E-002;-2.960081212222576E-003;6.302277906797826E-004;
2.401000000000000E+009;1.543688327074051E-001;9.588366746902466E-002;-3.087203949689865E-003;6.255612825043500E-004;
2.401166666666667E+009;1.541028767824173E-001;9.309211373329163E-002;-3.211095230653882E-003;7.795319543220103E-004;
2.401333333333334E+009;1.543511748313904E-001;9.018076956272125E-002;-3.368751611560583E-003;7.437196327373385E-004;
2.401500000000000E+009;1.543489396572113E-001;8.727113902568817E-002;-3.331006038933992E-003;9.496015845797956E-004;
2.401666666666667E+009;1.545240134000778E-001;8.428990840911865E-002;-3.531564492732287E-003;9.709093719720841E-004;
2.401833333333334E+009;1.547687798738480E-001;8.132301270961762E-002;-3.571308683604002E-003;1.146293478086591E-003;
2.402000000000000E+009;1.554148644208908E-001;7.836528867483139E-002;-3.602177603170276E-003;1.219898811541498E-003;
2.402166666666667E+009;1.560728549957275E-001;7.573954015970230E-002;-3.779791295528412E-003;1.399980974383652E-003;
2.402333333333334E+009;1.570628732442856E-001;7.266336679458618E-002;-3.649783087894321E-003;1.759603503160179E-003;
2.402500000000000E+009;1.579136401414871E-001;6.989161670207977E-002;-3.719293512403965E-003;1.988010480999947E-003;
2.402666666666667E+009;1.591142863035202E-001;6.729276478290558E-002;-3.706478280946612E-003;2.045921748504043E-003;
2.402833333333334E+009;1.602659225463867E-001;6.472020596265793E-002;-3.464634064584971E-003;2.274309517815709E-003;
2.403000000000000E+009;1.617301404476166E-001;6.196365132927895E-002;-3.486654954031110E-003;2.411845140159130E-003;
2.403166666666667E+009;1.636526733636856E-001;5.966214835643768E-002;-3.323524259030819E-003;2.681436482816935E-003;
2.403333333333334E+009;1.648292988538742E-001;5.724889412522316E-002;-3.250253153964877E-003;2.593947574496269E-003;
2.403500000000000E+009;1.667982488870621E-001;5.489479005336762E-002;-3.087550867348909E-003;2.890900010243058E-003;
2.403666666666667E+009;1.684954166412354E-001;5.260786786675453E-002;-2.886383794248104E-003;2.792241051793098E-003;
2.403833333333334E+009;1.703399419784546E-001;5.059638246893883E-002;-2.806580392643809E-003;2.868721261620522E-003;
2.404000000000000E+009;1.719030886888504E-001;4.839827120304108E-002;-2.735337708145380E-003;2.888683928176761E-003;
2.404166666666667E+009;1.739598065614700E-001;4.662407562136650E-002;-2.818191656842828E-003;2.886034781113267E-003;
2.404333333333334E+009;1.755635589361191E-001;4.512174800038338E-002;-2.755975583568215E-003;2.893691882491112E-003;
2.404500000000000E+009;1.774205118417740E-001;4.348774626851082E-002;-2.716399729251862E-003;3.124513430520892E-003;
2.404666666666667E+009;1.794308274984360E-001;4.214529320597649E-002;-2.702522557228804E-003;3.169430186972022E-003;
2.404833333333334E+009;1.812411844730377E-001;4.097428917884827E-002;-2.837473293766379E-003;3.291408065706492E-003;
2.405000000000000E+009;1.828073263168335E-001;4.001637920737267E-002;-2.592300996184349E-003;3.515375312417746E-003;
2.405166666666667E+009;1.845022588968277E-001;3.925130516290665E-002;-2.566231414675713E-003;3.651679726317525E-003;
2.405333333333334E+009;1.861918419599533E-001;3.873791545629501E-002;-2.432038076221943E-003;3.884229576215148E-003;
2.405500000000000E+009;1.879956573247910E-001;3.822708502411842E-002;-2.177916234359145E-003;4.104779101908207E-003;
2.405666666666667E+009;1.894445717334747E-001;3.778141364455223E-002;-2.226727083325386E-003;4.231720231473446E-003;
2.405833333333334E+009;1.910385936498642E-001;3.753897175192833E-002;-1.900552306324244E-003;4.415497649461031E-003;
2.406000000000000E+009;1.923721134662628E-001;3.724259138107300E-002;-1.802777987904847E-003;4.464573692530394E-003;
2.406166666666667E+009;1.935928761959076E-001;3.713110461831093E-002;-1.504327054135501E-003;4.442632198333740E-003;
2.406333333333334E+009;1.947188675403595E-001;3.721888735890389E-002;-1.281872740946710E-003;4.711721558123827E-003;
2.406500000000000E+009;1.957790851593018E-001;3.742992505431175E-002;-1.176193472929299E-003;4.511713050305843E-003;
2.406666666666667E+009;1.967528015375137E-001;3.751151636242867E-002;-1.002968056127429E-003;4.604067653417587E-003;
2.406833333333334E+009;1.975485831499100E-001;3.781284019351006E-002;-7.683148141950369E-004;4.520459566265345E-003;
2.407000000000000E+009;1.980333030223846E-001;3.814034909009934E-002;-6.166655803099275E-004;4.428773187100887E-003;
2.407166666666667E+009;1.986562758684158E-001;3.817630186676979E-002;-5.710924160666764E-004;4.524343647062779E-003;
2.407333333333334E+009;1.988658756017685E-001;3.847887739539146E-002;-4.413374699652195E-004;4.384069237858057E-003;
2.407500000000000E+009;1.989958882331848E-001;3.884930536150932E-002;-3.441313165239990E-004;4.495768342167139E-003;
2.407666666666667E+009;1.991215944290161E-001;3.898658603429794E-002;-2.429825108265504E-004;4.456505645066500E-003;
2.407833333333334E+009;1.988657116889954E-001;3.914806991815567E-002;-1.221222482854500E-004;4.518202971667051E-003;
2.408000000000000E+009;1.988246440887451E-001;3.927313163876534E-002;-1.225411106133834E-004;4.539071116596460E-003;
2.408166666666667E+009;1.982885301113129E-001;3.905726224184036E-002;-1.191518895211630E-004;4.475221503525972E-003;
2.408333333333334E+009;1.978892534971237E-001;3.900841996073723E-002;-9.661789226811379E-005;4.526593722403050E-003;
2.408500000000000E+009;1.972360312938690E-001;3.893935680389404E-002;1.814050629036501E-004;4.655897617340088E-003;
2.408666666666667E+009;1.964832097291946E-001;3.879180178046227E-002;8.732684364076704E-005;4.762984812259674E-003;
2.408833333333334E+009;1.958442032337189E-001;3.828644379973412E-002;3.060106246266514E-004;4.746181424707174E-003;
2.409000000000000E+009;1.948459744453430E-001;3.776846826076508E-002;4.411038244143128E-004;4.880620632320643E-003;
2.409166666666667E+009;1.936885863542557E-001;3.701852262020111E-002;6.398755940608680E-004;4.898089449852705E-003;
2.409333333333334E+009;1.926662921905518E-001;3.640145435929298E-002;1.010776381008327E-003;4.957897122949362E-003;
2.409500000000000E+009;1.912273764610291E-001;3.525025397539139E-002;1.026465673930943E-003;5.063993856310844E-003;
2.409666666666667E+009;1.901358664035797E-001;3.408207744359970E-002;1.319895149208605E-003;5.128674209117889E-003;
2.409833333333334E+009;1.888275593519211E-001;3.288200125098229E-002;1.428919029422104E-003;5.067952442914248E-003;
2.410000000000000E+009;1.876018196344376E-001;3.151619434356690E-002;1.616965513676405E-003;5.042764358222485E-003;
2.410166666666667E+009;1.864313185214996E-001;2.989934384822846E-002;1.920412178151310E-003;4.924804437905550E-003;
2.410333333333334E+009;1.851466000080109E-001;2.841567434370518E-002;2.164032077416778E-003;4.795415326952934E-003;
2.410500000000000E+009;1.838849931955338E-001;2.661185711622238E-002;2.201630035415292E-003;4.678264260292053E-003;
2.410666666666667E+009;1.827251464128494E-001;2.447692118585110E-002;2.561713801696897E-003;4.798149224370718E-003;
2.410833333333334E+009;1.819762587547302E-001;2.236834913492203E-002;2.670613350346685E-003;4.624293651431799E-003;
2.411000000000000E+009;1.807660013437271E-001;2.032985165715218E-002;2.805930329486728E-003;4.531941376626492E-003;
2.411166666666667E+009;1.797376871109009E-001;1.812616363167763E-002;2.893619937822223E-003;4.451891873031855E-003;
2.411333333333334E+009;1.789646297693253E-001;1.546368468552828E-002;3.088560188189149E-003;4.415126517415047E-003;
2.411500000000000E+009;1.783553957939148E-001;1.318369619548321E-002;3.322514472529292E-003;4.280358087271452E-003;
2.411666666666667E+009;1.780086308717728E-001;1.072360295802355E-002;3.397824941202998E-003;4.222008865326643E-003;
2.411833333333334E+009;1.772342175245285E-001;8.348134346306324E-003;3.638289403170347E-003;4.044201690703630E-003;
2.412000000000000E+009;1.772992461919785E-001;5.610437598079443E-003;3.760183462873101E-003;4.016534425318241E-003;
2.412166666666667E+009;1.772301346063614E-001;3.166849026456475E-003;3.939916379749775E-003;3.943091724067926E-003;
2.412333333333334E+009;1.772371679544449E-001;5.539781413972378E-004;4.078747238963842E-003;3.895315341651440E-003;
2.412500000000000E+009;1.773976236581802E-001;-2.177466172724962E-003;4.284386523067951E-003;3.741357242688537E-003;
2.412666666666667E+009;1.777360290288925E-001;-4.773237276822329E-003;4.599608015269041E-003;3.608854953199625E-003;
2.412833333333334E+009;1.785613149404526E-001;-7.256324402987957E-003;4.772888030856848E-003;3.539730561897159E-003;
2.413000000000000E+009;1.790720522403717E-001;-9.866292588412762E-003;4.918456077575684E-003;3.297713119536638E-003;
2.413166666666667E+009;1.798232793807983E-001;-1.223369408398867E-002;5.169054493308067E-003;3.113067708909512E-003;
2.413333333333334E+009;1.808796375989914E-001;-1.497176848351955E-002;5.331519525498152E-003;2.750731306150556E-003;
2.413500000000000E+009;1.816998720169067E-001;-1.737486943602562E-002;5.698004737496376E-003;2.622230444103479E-003;
2.413666666666667E+009;1.828727722167969E-001;-1.974295265972614E-002;5.693792831152678E-003;2.320221625268459E-003;
2.413833333333334E+009;1.839852780103684E-001;-2.210497297346592E-002;5.954011343419552E-003;1.964548369869590E-003;
2.414000000000000E+009;1.851333230733872E-001;-2.409184724092484E-002;6.069133058190346E-003;1.480662846006453E-003;
2.414166666666667E+009;1.864372193813324E-001;-2.623270638287067E-002;5.981116089969873E-003;1.189184375107288E-003;
2.414333333333334E+009;1.877909004688263E-001;-2.845649793744087E-002;6.002067122608423E-003;7.544151740148664E-004;
2.414500000000000E+009;1.890385150909424E-001;-3.026795759797096E-002;5.832091439515352E-003;4.177726223133504E-004;
2.414666666666667E+009;1.905878037214279E-001;-3.184401243925095E-002;5.838945042341948E-003;9.182725625578314E-005;
2.414833333333334E+009;1.919683665037155E-001;-3.333823755383492E-002;5.697451066225767E-003;-2.551067154854536E-004;
2.415000000000000E+009;1.932907849550247E-001;-3.492550924420357E-002;5.661658477038145E-003;-5.398230860009790E-004;
2.415166666666667E+009;1.947623640298843E-001;-3.624646365642548E-002;5.533595103770495E-003;-7.428231765516102E-004;
2.415333333333334E+009;1.960774511098862E-001;-3.725470602512360E-002;5.127031356096268E-003;-1.002321369014680E-003;
2.415500000000000E+009;1.974748075008392E-001;-3.816428408026695E-002;5.146052222698927E-003;-1.088086515665054E-003;
2.415666666666667E+009;1.988494247198105E-001;-3.904851898550987E-002;4.987786523997784E-003;-1.333871972747147E-003;
2.415833333333334E+009;1.998616307973862E-001;-3.974099457263947E-002;4.781501833349466E-003;-1.613967935554683E-003;
2.416000000000000E+009;2.009838521480560E-001;-4.046336561441422E-002;4.681495483964682E-003;-1.699550542980433E-003;
2.416166666666667E+009;2.020531594753265E-001;-4.100198298692703E-002;4.563186317682266E-003;-1.850059721618891E-003;
2.416333333333334E+009;2.029285132884979E-001;-4.119640216231346E-002;4.187232349067926E-003;-1.938496716320515E-003;
2.416500000000000E+009;2.038578838109970E-001;-4.165289923548698E-002;4.027854651212692E-003;-2.119480632245541E-003;
2.416666666666667E+009;2.043429911136627E-001;-4.198692366480827E-002;3.789345966652036E-003;-2.359179081395268E-003;
2.416833333333334E+009;2.049156725406647E-001;-4.196307435631752E-002;3.649874823167920E-003;-2.383111277595162E-003;
2.417000000000000E+009;2.053098231554031E-001;-4.214149340987206E-002;3.389473306015134E-003;-2.261324785649777E-003;
2.417166666666667E+009;2.053773999214172E-001;-4.189300537109375E-002;3.185292240232229E-003;-2.415482420474291E-003;
2.417333333333334E+009;2.054029852151871E-001;-4.173132032155991E-002;3.031521337106824E-003;-2.432964043691754E-003;
2.417500000000000E+009;2.052986919879913E-001;-4.162507876753807E-002;2.790848026052117E-003;-2.410995773971081E-003;
2.417666666666667E+009;2.050050199031830E-001;-4.119742661714554E-002;2.734855515882373E-003;-2.384374383836985E-003;
2.417833333333334E+009;2.048777341842651E-001;-4.093807190656662E-002;2.638471079990268E-003;-2.229445381090045E-003;
2.418000000000000E+009;2.042914628982544E-001;-4.054170846939087E-002;2.388228196650744E-003;-2.251835074275732E-003;
2.418166666666667E+009;2.037582099437714E-001;-4.023901000618935E-002;2.319285878911614E-003;-2.155453665181994E-003;
2.418333333333334E+009;2.028751224279404E-001;-3.988863527774811E-002;2.329885261133313E-003;-2.030393574386835E-003;
2.418500000000000E+009;2.019710540771484E-001;-3.981049731373787E-002;2.137127565219998E-003;-1.970881596207619E-003;
2.418666666666667E+009;2.011322081089020E-001;-3.949047997593880E-002;2.112099900841713E-003;-1.715107006020844E-003;
2.418833333333334E+009;2.000370472669601E-001;-3.938778489828110E-002;2.005095593631268E-003;-1.824289327487350E-003;
2.419000000000000E+009;1.987578421831131E-001;-3.945134580135346E-002;2.181103918701410E-003;-1.671268255449832E-003;
2.419166666666667E+009;1.975859701633453E-001;-3.948102518916130E-002;1.852345303632319E-003;-1.633450505323708E-003;
2.419333333333334E+009;1.960372477769852E-001;-3.979099914431572E-002;1.862368546426296E-003;-1.509346417151392E-003;
2.419500000000000E+009;1.945034265518189E-001;-3.986495733261108E-002;2.003996632993221E-003;-1.390800112858415E-003;
2.419666666666667E+009;1.929090917110443E-001;-4.063672199845314E-002;2.143878024071455E-003;-1.342396135441959E-003;
2.419833333333334E+009;1.912419050931931E-001;-4.097613692283630E-002;2.148224739357829E-003;-1.166967209428549E-003;
2.420000000000000E+009;1.895187348127365E-001;-4.166018217802048E-002;2.420941600576043E-003;-1.224488019943237E-003;
2.420166666666667E+009;1.878536194562912E-001;-4.238111898303032E-002;2.488135360181332E-003;-1.208593719638884E-003;
2.420333333333334E+009;1.860894709825516E-001;-4.343353211879730E-002;2.628550166264176E-003;-1.249961904250085E-003;
2.420500000000000E+009;1.841794252395630E-001;-4.443926736712456E-002;2.688997425138950E-003;-1.191656221635640E-003;
2.420666666666667E+009;1.824501603841782E-001;-4.564655944705010E-002;2.956266282126308E-003;-1.274643582291901E-003;
2.420833333333334E+009;1.805836409330368E-001;-4.704992100596428E-002;3.071841318160296E-003;-1.376859843730927E-003;
2.421000000000000E+009;1.788626909255981E-001;-4.867226630449295E-002;3.268534550443292E-003;-1.444432768039405E-003;
2.421166666666667E+009;1.771247237920761E-001;-5.028932914137840E-002;3.350179176777601E-003;-1.626860466785729E-003;
2.421333333333334E+009;1.754345595836639E-001;-5.196125060319901E-002;3.515037940815091E-003;-1.839459524489939E-003;
2.421500000000000E+009;1.739588826894760E-001;-5.377928167581558E-002;3.648410318419337E-003;-2.164033940061927E-003;
2.421666666666667E+009;1.723840385675430E-001;-5.548726394772530E-002;3.663973882794380E-003;-2.332863165065646E-003;
2.421833333333334E+009;1.709260642528534E-001;-5.750912055373192E-002;3.651643870398402E-003;-2.588572446256876E-003;
2.422000000000000E+009;1.697142273187637E-001;-5.936825275421143E-002;3.636703826487064E-003;-2.699699485674501E-003;
2.422166666666667E+009;1.687536388635635E-001;-6.174526363611221E-002;3.526802873238921E-003;-3.117214422672987E-003;
2.422333333333334E+009;1.676304191350937E-001;-6.386914849281311E-002;3.588275983929634E-003;-3.356809495016933E-003;
2.422500000000000E+009;1.665661334991455E-001;-6.599089503288269E-002;3.571450710296631E-003;-3.585859201848507E-003;
2.422666666666667E+009;1.658650487661362E-001;-6.819489598274231E-002;3.297598566859961E-003;-3.757557598873973E-003;
2.422833333333334E+009;1.651007235050201E-001;-7.049962133169174E-002;3.119771834462881E-003;-4.067921545356512E-003;
2.423000000000000E+009;1.644149124622345E-001;-7.277734577655792E-002;2.930177142843604E-003;-4.261682741343975E-003;
2.423166666666667E+009;1.640014648437500E-001;-7.490861415863037E-002;2.979721873998642E-003;-4.342891275882721E-003;
2.423333333333334E+009;1.636846512556076E-001;-7.723636925220490E-002;2.883692737668753E-003;-4.631521180272102E-003;
2.423500000000000E+009;1.634102165699005E-001;-7.931383699178696E-002;2.591371769085527E-003;-4.779544658958912E-003;
2.423666666666667E+009;1.634835749864578E-001;-8.150495588779450E-002;2.504159696400166E-003;-4.886175505816937E-003;
2.423833333333334E+009;1.634007990360260E-001;-8.345591276884079E-002;2.234741346910596E-003;-5.003727972507477E-003;
2.424000000000000E+009;1.634975373744965E-001;-8.545589447021484E-002;2.101455349475145E-003;-5.309164989739656E-003;
2.424166666666667E+009;1.635261625051498E-001;-8.722651004791260E-002;1.850072061643004E-003;-5.476000253111124E-003;
2.424333333333334E+009;1.638592332601547E-001;-8.918730169534683E-002;1.664278912357986E-003;-5.544261541217566E-003;
2.424500000000000E+009;1.644124090671539E-001;-9.118548035621643E-002;1.375694759190083E-003;-5.682779941707850E-003;
2.424666666666667E+009;1.645813584327698E-001;-9.275181591510773E-002;1.184511929750443E-003;-5.842298269271851E-003;
2.424833333333334E+009;1.652923226356506E-001;-9.427127987146378E-002;8.936215308494866E-004;-5.989254452288151E-003;
2.425000000000000E+009;1.656811982393265E-001;-9.573615342378616E-002;5.152914091013372E-004;-6.023987196385860E-003;
2.425166666666667E+009;1.661592870950699E-001;-9.704448282718658E-002;9.197122562909499E-005;-6.163528189063072E-003;
2.425333333333334E+009;1.667571067810059E-001;-9.821370989084244E-002;-1.568862062413245E-004;-6.211237516254187E-003;
2.425500000000000E+009;1.673639714717865E-001;-9.938924014568329E-002;-4.461213247850537E-004;-6.184448953717947E-003;
2.425666666666667E+009;1.679163575172424E-001;-1.001550555229187E-001;-8.251905092038214E-004;-6.240011192858219E-003;
2.425833333333334E+009;1.684236973524094E-001;-1.012323275208473E-001;-1.319407252594829E-003;-6.012834142893553E-003;
2.426000000000000E+009;1.690981239080429E-001;-1.018117815256119E-001;-1.517069875262678E-003;-6.049229297786951E-003;
2.426166666666667E+009;1.697409600019455E-001;-1.024676859378815E-001;-1.923223142512143E-003;-5.834093317389488E-003;
2.426333333333334E+009;1.700052171945572E-001;-1.030754148960114E-001;-2.230972750112414E-003;-5.689796525985003E-003;
2.426500000000000E+009;1.706164628267288E-001;-1.033510938286781E-001;-2.465506549924612E-003;-5.581923294812441E-003;
2.426666666666667E+009;1.710779219865799E-001;-1.036969274282455E-001;-2.780200680717826E-003;-5.358155816793442E-003;
2.426833333333334E+009;1.716395169496536E-001;-1.040353253483772E-001;-2.823294838890433E-003;-4.983238875865936E-003;
2.427000000000000E+009;1.718660891056061E-001;-1.042580604553223E-001;-3.172277705743909E-003;-4.864050075411797E-003;
2.427166666666667E+009;1.721339821815491E-001;-1.043040379881859E-001;-3.317428054288030E-003;-4.526909440755844E-003;
2.427333333333334E+009;1.722820401191711E-001;-1.044572740793228E-001;-3.340255701914430E-003;-4.288522992283106E-003;
2.427500000000000E+009;1.721846312284470E-001;-1.046382486820221E-001;-3.541247686371207E-003;-4.214338492602110E-003;
2.427666666666667E+009;1.720788776874542E-001;-1.046241223812103E-001;-3.441261593252420E-003;-3.898999420925975E-003;
2.427833333333334E+009;1.718616187572479E-001;-1.046876683831215E-001;-3.602573182433844E-003;-3.775221761316061E-003;
