# Version 1.00
#
freq[Hz];re:Trc1_S11;im:Trc1_S11;re:Trc2_S21;im:Trc2_S21;
2.400000000000000E+009;1.558643281459808E-001;1.109586060047150E-001;2.346703317016363E-003;1.014489098452032E-003;
2.400166666666667E+009;1.553300917148590E-001;1.085839867591858E-001;2.489231992512941E-003;9.821515996009111E-004;
2.400333333333334E+009;1.550550311803818E-001;1.064514890313149E-001;2.613643417134881E-003;7.708924822509289E-004;
2.400500000000000E+009;1.548111289739609E-001;1.038025692105293E-001;2.496281638741493E-003;4.533792671281844E-004;
2.400666666666667E+009;1.545939743518829E-001;1.013267412781715E-001;2.460399176925421E-003;3.981358313467354E-004;
2.400833333333334E+009;1.543005257844925E-001;9.839358925819397E-002;2.510705497115850E-003;2.411230670986697E-004;
2.401000000000000E+009;1.543213874101639E-001;9.560205042362213E-002;2.478535752743483E-003;1.812906120903790E-004;
2.401166666666667E+009;1.541041135787964E-001;9.263273328542709E-002;2.418427029624581E-003;-3.642648880486377E-005;
2.401333333333334E+009;1.541844606399536E-001;8.981063216924667E-002;2.193362917751074E-003;-7.989219011506066E-005;
2.401500000000000E+009;1.545354574918747E-001;8.670217543840408E-002;2.339868806302548E-003;-5.918921306147240E-005;
2.401666666666667E+009;1.545957773923874E-001;8.393312990665436E-002;2.156457165256143E-003;-1.257153344340622E-004;
2.401833333333334E+009;1.550311893224716E-001;8.075386285781860E-002;2.109415596351028E-003;-3.313096822239459E-004;
2.402000000000000E+009;1.555581092834473E-001;7.787796109914780E-002;2.171187195926905E-003;-3.800315316766501E-004;
2.402166666666667E+009;1.561627835035324E-001;7.518570125102997E-002;1.997037092223764E-003;-4.665054148063064E-004;
2.402333333333334E+009;1.569287478923798E-001;7.199535518884659E-002;2.058706013485789E-003;-3.988232638221234E-004;
2.402500000000000E+009;1.580270528793335E-001;6.912408769130707E-002;1.898201182484627E-003;-4.211640334688127E-004;
2.402666666666667E+009;1.588344275951386E-001;6.656213849782944E-002;1.917091896757484E-003;-3.701866953633726E-004;
2.402833333333334E+009;1.603310257196426E-001;6.401183456182480E-002;1.905247801914811E-003;-4.166875733062625E-004;
2.403000000000000E+009;1.617074161767960E-001;6.134507805109024E-002;1.903982483781874E-003;-4.922329098917544E-004;
2.403166666666667E+009;1.633076369762421E-001;5.888362601399422E-002;1.862336648628116E-003;-4.966685082763434E-004;
2.403333333333334E+009;1.647558957338333E-001;5.631326511502266E-002;2.115118550136685E-003;-8.013637270778418E-004;
2.403500000000000E+009;1.664085984230042E-001;5.402524769306183E-002;1.895887893624604E-003;-3.209318965673447E-004;
2.403666666666667E+009;1.683602184057236E-001;5.191352218389511E-002;2.014457480981946E-003;-4.171303007751703E-004;
2.403833333333334E+009;1.701150685548782E-001;4.979525506496429E-002;2.115468261763454E-003;-9.199560154229403E-004;
2.404000000000000E+009;1.716397553682327E-001;4.768436029553413E-002;2.152531873434782E-003;-1.175057725049555E-003;
2.404166666666667E+009;1.736104637384415E-001;4.589870944619179E-002;2.136964583769441E-003;-9.733525221236050E-004;
2.404333333333334E+009;1.754593998193741E-001;4.415930807590485E-002;2.582246903330088E-003;-1.316353678703308E-003;
2.404500000000000E+009;1.770814359188080E-001;4.277480393648148E-002;2.085013780742884E-003;-1.466077170334756E-003;
2.404666666666667E+009;1.790789365768433E-001;4.147413000464439E-002;1.769302529282868E-003;-1.720815547741950E-003;
2.404833333333334E+009;1.807623505592346E-001;4.014971107244492E-002;1.797114382497966E-003;-1.509665860794485E-003;
2.405000000000000E+009;1.824096590280533E-001;3.943466395139694E-002;1.673506456427276E-003;-1.721391687169671E-003;
2.405166666666667E+009;1.840500980615616E-001;3.854143619537354E-002;1.509661437012255E-003;-1.864254241809249E-003;
2.405333333333334E+009;1.857185363769531E-001;3.792675584554672E-002;1.436120481230319E-003;-2.039467683061957E-003;
2.405500000000000E+009;1.874728798866272E-001;3.754356130957604E-002;1.236041542142630E-003;-1.994853373616934E-003;
2.405666666666667E+009;1.889567673206329E-001;3.711837157607079E-002;1.089950092136860E-003;-1.892032334581018E-003;
2.405833333333334E+009;1.906114220619202E-001;3.698345646262169E-002;8.212995599023998E-004;-1.898726448416710E-003;
2.406000000000000E+009;1.918637305498123E-001;3.674013912677765E-002;6.818476249463856E-004;-2.105574123561382E-003;
2.406166666666667E+009;1.930957883596420E-001;3.663044795393944E-002;6.770539912395179E-004;-1.872594817541540E-003;
2.406333333333334E+009;1.942147314548492E-001;3.683738783001900E-002;5.932262865826488E-004;-1.928221550770104E-003;
2.406500000000000E+009;1.951829940080643E-001;3.695123270153999E-002;3.933353873435408E-004;-1.765067689120770E-003;
2.406666666666667E+009;1.960704028606415E-001;3.714456409215927E-002;3.575978043954819E-004;-1.695354119874537E-003;
2.406833333333334E+009;1.968342363834381E-001;3.735069930553436E-002;3.239758079871535E-004;-1.727569149807096E-003;
2.407000000000000E+009;1.973871141672134E-001;3.766546398401260E-002;1.373341219732538E-004;-1.614620210602880E-003;
2.407166666666667E+009;1.979116499423981E-001;3.765529766678810E-002;3.237463533878326E-004;-1.531944144517183E-003;
2.407333333333334E+009;1.980708837509155E-001;3.811947628855705E-002;3.431384684517980E-004;-1.415473991073668E-003;
2.407500000000000E+009;1.981130838394165E-001;3.842546045780182E-002;3.052048268727958E-004;-1.320449169725180E-003;
2.407666666666667E+009;1.981640011072159E-001;3.869383782148361E-002;9.426479664398357E-005;-1.256850780919194E-003;
2.407833333333334E+009;1.979320496320725E-001;3.893617168068886E-002;3.500010352581739E-004;-1.371049787849188E-003;
2.408000000000000E+009;1.979915052652359E-001;3.907715529203415E-002;2.936976670753211E-004;-1.417110324837267E-003;
2.408166666666667E+009;1.974616795778275E-001;3.906968981027603E-002;3.375693340785801E-004;-1.277399365790188E-003;
2.408333333333334E+009;1.971112191677094E-001;3.881917521357536E-002;1.823716302169487E-004;-1.191302784718573E-003;
2.408500000000000E+009;1.963849663734436E-001;3.884061798453331E-002;1.942818344105035E-004;-1.305719255469739E-003;
2.408666666666667E+009;1.956453174352646E-001;3.853145241737366E-002;2.148435160052031E-004;-1.270099077373743E-003;
2.408833333333334E+009;1.949714720249176E-001;3.817630559206009E-002;4.244966257829219E-004;-1.225971151143313E-003;
2.409000000000000E+009;1.937714219093323E-001;3.760498762130737E-002;2.394863113295287E-004;-1.226855907589197E-003;
2.409166666666667E+009;1.928957104682922E-001;3.699548915028572E-002;2.205644268542528E-004;-1.194427604787052E-003;
2.409333333333334E+009;1.916829049587250E-001;3.633680194616318E-002;4.115729825571179E-004;-1.546816318295896E-003;
2.409500000000000E+009;1.905420720577240E-001;3.527421876788139E-002;3.891367523465306E-004;-1.355940592475236E-003;
2.409666666666667E+009;1.892962008714676E-001;3.411976993083954E-002;4.386461223475635E-004;-1.437494996935129E-003;
2.409833333333334E+009;1.881374567747116E-001;3.294005990028381E-002;4.597867664415389E-004;-1.583394710905850E-003;
2.410000000000000E+009;1.868588626384735E-001;3.164223954081535E-002;3.541511541698128E-004;-1.751748844981194E-003;
2.410166666666667E+009;1.856607943773270E-001;3.000586107373238E-002;3.422569134272635E-004;-1.809002715162933E-003;
2.410333333333334E+009;1.845467388629913E-001;2.841692790389061E-002;2.209385274909437E-004;-1.802033861167729E-003;
2.410500000000000E+009;1.832208633422852E-001;2.652653679251671E-002;2.579821157269180E-004;-1.940311281941831E-003;
2.410666666666667E+009;1.821520328521729E-001;2.451998554170132E-002;-4.245389936841093E-005;-2.012302633374929E-003;
2.410833333333334E+009;1.812509149312973E-001;2.242483012378216E-002;-9.259550279239193E-005;-1.996008679270744E-003;
2.411000000000000E+009;1.800178140401840E-001;2.019465900957584E-002;-2.277895400766283E-004;-2.118263393640518E-003;
2.411166666666667E+009;1.793302595615387E-001;1.807881891727448E-002;-4.312427190598100E-004;-2.059774473309517E-003;
2.411333333333334E+009;1.783928871154785E-001;1.571964845061302E-002;-5.523731815628707E-004;-2.059905789792538E-003;
2.411500000000000E+009;1.777347326278687E-001;1.314668264240027E-002;-5.495491786859930E-004;-1.949199591763318E-003;
2.411666666666667E+009;1.773590892553330E-001;1.089192740619183E-002;-7.736945408396423E-004;-1.978500280529261E-003;
2.411833333333334E+009;1.768534779548645E-001;8.364036679267883E-003;-7.333765970543027E-004;-1.899036695249379E-003;
2.412000000000000E+009;1.767672151327133E-001;5.598817486315966E-003;-1.023524440824986E-003;-1.785877975635231E-003;
2.412166666666667E+009;1.766493618488312E-001;3.088833065703511E-003;-1.041732029989362E-003;-1.712315133772790E-003;
2.412333333333334E+009;1.766550242900848E-001;6.212813314050436E-004;-1.111148623749614E-003;-1.772648305632174E-003;
2.412500000000000E+009;1.770426779985428E-001;-1.991422614082694E-003;-1.155191566795111E-003;-1.454995828680694E-003;
2.412666666666667E+009;1.772331744432449E-001;-4.585663322359324E-003;-1.297272159717977E-003;-1.349508645944297E-003;
2.412833333333334E+009;1.778673529624939E-001;-7.385506294667721E-003;-1.316280104219914E-003;-1.354776322841644E-003;
2.413000000000000E+009;1.784484684467316E-001;-9.801607578992844E-003;-1.134678605012596E-003;-1.214180141687393E-003;
2.413166666666667E+009;1.793254166841507E-001;-1.226390898227692E-002;-1.313718152232468E-003;-1.111366669647396E-003;
2.413333333333334E+009;1.801585406064987E-001;-1.484127156436443E-002;-1.365744858048856E-003;-1.147708273492754E-003;
2.413500000000000E+009;1.812077462673187E-001;-1.740711554884911E-002;-1.420160289853811E-003;-9.727457654662430E-004;
2.413666666666667E+009;1.823692768812180E-001;-1.965831220149994E-002;-1.308698789216578E-003;-8.629595395177603E-004;
2.413833333333334E+009;1.834507882595062E-001;-2.208036184310913E-002;-1.289344741962850E-003;-8.384396787732840E-004;
2.414000000000000E+009;1.845200210809708E-001;-2.425739541649818E-002;-1.205130247399211E-003;-7.677250541746616E-004;
2.414166666666667E+009;1.859814375638962E-001;-2.611583285033703E-002;-1.108504831790924E-003;-8.707866072654724E-004;
2.414333333333334E+009;1.872663646936417E-001;-2.826151624321938E-002;-1.240562065504491E-003;-7.393156411126256E-004;
2.414500000000000E+009;1.886916607618332E-001;-2.983743697404862E-002;-1.186673645861447E-003;-8.877370855771005E-004;
2.414666666666667E+009;1.900953054428101E-001;-3.171211108565331E-002;-1.204694737680256E-003;-8.247037767432630E-004;
2.414833333333334E+009;1.914562135934830E-001;-3.319311887025833E-002;-1.153032411821187E-003;-9.126958320848644E-004;
2.415000000000000E+009;1.927151829004288E-001;-3.476599976420403E-002;-1.300973352044821E-003;-7.545202970504761E-004;
2.415166666666667E+009;1.942309886217117E-001;-3.597339242696762E-002;-1.246718689799309E-003;-8.600959554314613E-004;
2.415333333333334E+009;1.957220584154129E-001;-3.705039992928505E-002;-1.441366272047162E-003;-8.202479220926762E-004;
2.415500000000000E+009;1.971623897552490E-001;-3.807119652628899E-002;-1.294035813771188E-003;-7.723570452071726E-004;
2.415666666666667E+009;1.984172612428665E-001;-3.894514963030815E-002;-1.412682700902224E-003;-6.058177677914500E-004;
2.415833333333334E+009;1.995093822479248E-001;-3.961332887411118E-002;-1.424404792487621E-003;-6.790812476538122E-004;
2.416000000000000E+009;2.005903422832489E-001;-4.025440290570259E-002;-1.412692829035223E-003;-4.607540031429380E-004;
2.416166666666667E+009;2.016160339117050E-001;-4.080738499760628E-002;-1.537896343506873E-003;-5.495565710589290E-004;
2.416333333333334E+009;2.025903910398483E-001;-4.123845323920250E-002;-1.532865455374122E-003;-5.339959170669317E-004;
2.416500000000000E+009;2.034419327974320E-001;-4.141994565725327E-002;-1.535694231279194E-003;-3.953227424062789E-004;
2.416666666666667E+009;2.039056271314621E-001;-4.184611514210701E-002;-1.472920412197709E-003;-3.084167256020010E-004;
2.416833333333334E+009;2.044174373149872E-001;-4.176121205091476E-002;-1.621161820366979E-003;-2.185295161325485E-004;
2.417000000000000E+009;2.048275172710419E-001;-4.189397022128105E-002;-1.600443385541439E-003;-1.253199880011380E-004;
2.417166666666667E+009;2.048745900392532E-001;-4.166669398546219E-002;-1.501809223555028E-003;-1.240730052813888E-004;
2.417333333333334E+009;2.049514502286911E-001;-4.134212434291840E-002;-1.635064720176160E-003;-1.851983688538894E-004;
2.417500000000000E+009;2.048231959342957E-001;-4.134186357259750E-002;-1.579786418005824E-003;-3.846038089250214E-005;
2.417666666666667E+009;2.045042067766190E-001;-4.086719825863838E-002;-1.503245788626373E-003;-9.748860975378193E-006;
2.417833333333334E+009;2.043273299932480E-001;-4.044389352202416E-002;-1.509051653556526E-003;6.286791904130951E-005;
2.418000000000000E+009;2.038794159889221E-001;-4.002418369054794E-002;-1.469278475269675E-003;3.322307051689677E-008;
2.418166666666667E+009;2.032620906829834E-001;-3.970307111740112E-002;-1.483686151914299E-003;1.016920286929235E-004;
2.418333333333334E+009;2.024362832307816E-001;-3.953166678547859E-002;-1.559694414027035E-003;1.794186537154019E-004;
2.418500000000000E+009;2.016698420047760E-001;-3.925803676247597E-002;-1.552976784296334E-003;4.446688762982376E-005;
2.418666666666667E+009;2.008492797613144E-001;-3.888514265418053E-002;-1.542754820547998E-003;1.445783273084089E-004;
2.418833333333334E+009;1.996127367019653E-001;-3.869602084159851E-002;-1.514933304861188E-003;2.155215333914384E-004;
2.419000000000000E+009;1.984018087387085E-001;-3.869319334626198E-002;-1.405951450578868E-003;2.076374075841159E-004;
2.419166666666667E+009;1.971170902252197E-001;-3.879162296652794E-002;-1.431328360922635E-003;3.630692081060261E-004;
2.419333333333334E+009;1.957909464836121E-001;-3.910535946488380E-002;-1.460351399146020E-003;3.776146331802011E-004;
2.419500000000000E+009;1.942503154277802E-001;-3.934118524193764E-002;-1.584607176482678E-003;3.482386819086969E-004;
2.419666666666667E+009;1.926519125699997E-001;-3.992201015353203E-002;-1.528661348856986E-003;5.211334791965783E-004;
2.419833333333334E+009;1.909874975681305E-001;-4.038174450397492E-002;-1.454186625778675E-003;6.007769843563438E-004;
2.420000000000000E+009;1.893674731254578E-001;-4.104303196072578E-002;-1.519532524980605E-003;5.718059837818146E-004;
2.420166666666667E+009;1.876213103532791E-001;-4.189337790012360E-002;-1.547639723867178E-003;6.287419819273055E-004;
2.420333333333334E+009;1.859393268823624E-001;-4.297419637441635E-002;-1.603421056643128E-003;6.940842722542584E-004;
2.420500000000000E+009;1.839872002601624E-001;-4.406527057290077E-002;-1.554289949126542E-003;8.187861531041563E-004;
2.420666666666667E+009;1.823402643203735E-001;-4.499958083033562E-002;-1.582957920618355E-003;9.251340525224805E-004;
2.420833333333334E+009;1.805257201194763E-001;-4.659519717097282E-002;-1.588620827533305E-003;1.027037622407079E-003;
2.421000000000000E+009;1.787610501050949E-001;-4.803308472037315E-002;-1.411215984262526E-003;1.091612735763192E-003;
2.421166666666667E+009;1.771322190761566E-001;-4.977031424641609E-002;-1.354492502287030E-003;1.278443960472941E-003;
2.421333333333334E+009;1.753154098987579E-001;-5.145296454429627E-002;-1.336163491941989E-003;1.342898700386286E-003;
2.421500000000000E+009;1.736821085214615E-001;-5.321262776851654E-002;-1.050303224474192E-003;1.450542826205492E-003;
2.421666666666667E+009;1.722323596477509E-001;-5.523275211453438E-002;-9.607986430637538E-004;1.352247432805598E-003;
2.421833333333334E+009;1.708386838436127E-001;-5.722667276859283E-002;-8.286779629997909E-004;1.503112493082881E-003;
2.422000000000000E+009;1.695823222398758E-001;-5.903183296322823E-002;-7.269409834407270E-004;1.349067082628608E-003;
2.422166666666667E+009;1.686166226863861E-001;-6.123202666640282E-002;-6.459769210778177E-004;1.453709672205150E-003;
2.422333333333334E+009;1.672926247119904E-001;-6.349448114633560E-002;-4.527037090156227E-004;1.224523759447038E-003;
2.422500000000000E+009;1.663870811462402E-001;-6.563804298639298E-002;-4.558141517918557E-004;1.422328059561551E-003;
2.422666666666667E+009;1.654461175203323E-001;-6.785359233617783E-002;-4.942698287777603E-004;1.385458628647029E-003;
2.422833333333334E+009;1.649194359779358E-001;-7.003045082092285E-002;-4.405998333822936E-004;1.407373812980950E-003;
2.423000000000000E+009;1.642449200153351E-001;-7.242204993963242E-002;-3.785478475037962E-004;1.369352918118238E-003;
2.423166666666667E+009;1.637546718120575E-001;-7.444508373737335E-002;-3.447509661782533E-004;1.270188135094941E-003;
2.423333333333334E+009;1.635529398918152E-001;-7.670421153306961E-002;-3.285061393398792E-004;1.276735565625131E-003;
2.423500000000000E+009;1.632843911647797E-001;-7.884077727794647E-002;-2.909449394792318E-004;1.231253147125244E-003;
2.423666666666667E+009;1.632842570543289E-001;-8.104633539915085E-002;-3.037653514184058E-004;1.326861442066729E-003;
2.423833333333334E+009;1.632795035839081E-001;-8.308304101228714E-002;-2.944707812275738E-004;1.366526703350246E-003;
2.424000000000000E+009;1.634489595890045E-001;-8.511938154697418E-002;4.862127389060333E-005;1.368686673231423E-003;
2.424166666666667E+009;1.633721739053726E-001;-8.675989508628845E-002;1.290281070396304E-004;1.372071797959507E-003;
2.424333333333334E+009;1.636416614055634E-001;-8.863977342844009E-002;1.312897529714974E-005;1.292846864089370E-003;
2.424500000000000E+009;1.643289774656296E-001;-9.077677875757217E-002;2.162075688829646E-004;1.390382181853056E-003;
2.424666666666667E+009;1.646671891212463E-001;-9.226242452859879E-002;3.197376208845526E-004;1.377811306156218E-003;
2.424833333333334E+009;1.652995645999908E-001;-9.378308057785034E-002;3.632550942711532E-004;1.282498938962817E-003;
2.425000000000000E+009;1.657401621341705E-001;-9.536462277173996E-002;4.113813338335604E-004;1.242605503648520E-003;
2.425166666666667E+009;1.661921888589859E-001;-9.655085206031799E-002;6.431504734791815E-004;1.091098994947970E-003;
2.425333333333334E+009;1.667997092008591E-001;-9.766351431608200E-002;5.409505101852119E-004;7.902294164523482E-004;
2.425500000000000E+009;1.673303246498108E-001;-9.886920452117920E-002;6.330671021714807E-004;8.645593770779669E-004;
2.425666666666667E+009;1.680048257112503E-001;-9.970390051603317E-002;6.715010385960341E-004;8.865135605446994E-004;
2.425833333333334E+009;1.685178279876709E-001;-1.008251309394836E-001;6.186672253534198E-004;7.275011739693582E-004;
2.426000000000000E+009;1.691303551197052E-001;-1.013768464326859E-001;6.880629807710648E-004;6.214773748070002E-004;
2.426166666666667E+009;1.698070764541626E-001;-1.019798442721367E-001;4.007380048278719E-004;5.834557232446969E-004;
2.426333333333334E+009;1.702067255973816E-001;-1.024824529886246E-001;5.501561099663377E-004;5.615087575279176E-004;
2.426500000000000E+009;1.708309054374695E-001;-1.027882322669029E-001;6.654223543591797E-004;5.900758551433682E-004;
2.426666666666667E+009;1.713513433933258E-001;-1.032692641019821E-001;5.229559610597789E-004;4.834375577047467E-004;
2.426833333333334E+009;1.718700677156448E-001;-1.035543829202652E-001;4.620478139258921E-004;4.052547155879438E-004;
2.427000000000000E+009;1.721547693014145E-001;-1.038039401173592E-001;5.378290079534054E-004;3.989245742559433E-004;
2.427166666666667E+009;1.724884808063507E-001;-1.037971004843712E-001;4.254937812220305E-004;2.287621318828315E-004;
2.427333333333334E+009;1.725616008043289E-001;-1.040896549820900E-001;4.305599140934646E-004;2.376624761382118E-004;
2.427500000000000E+009;1.725435256958008E-001;-1.041155979037285E-001;3.908766666427255E-004;1.955917250597850E-004;
2.427666666666667E+009;1.724328547716141E-001;-1.041502133011818E-001;2.320366620551795E-004;1.886733080027625E-004;
