# Version 1.00
#
freq[Hz];re:Trc1_S11;im:Trc1_S11;re:Trc2_S21;im:Trc2_S21;
2.400000000000000E+009;1.555705666542053E-001;1.106370463967323E-001;5.689314100891352E-003;-6.658455240540206E-004;
2.400166666666667E+009;1.550171524286270E-001;1.083230972290039E-001;5.615786649286747E-003;-8.853952749632299E-004;
2.400333333333334E+009;1.547927260398865E-001;1.061824187636375E-001;5.371548235416412E-003;-1.275583868846297E-003;
2.400500000000000E+009;1.544018387794495E-001;1.034677848219872E-001;5.293406546115875E-003;-1.568660372868180E-003;
2.400666666666667E+009;1.541278064250946E-001;1.011055558919907E-001;5.034838803112507E-003;-1.623978605493903E-003;
2.400833333333334E+009;1.539269685745239E-001;9.815638512372971E-002;4.918086808174849E-003;-1.702227047644556E-003;
2.401000000000000E+009;1.538864672183991E-001;9.529103338718414E-002;4.695200826972723E-003;-1.867904793471098E-003;
2.401166666666667E+009;1.537229418754578E-001;9.254590421915054E-002;4.691435024142265E-003;-2.017080318182707E-003;
2.401333333333334E+009;1.537753790616989E-001;8.949200063943863E-002;4.383624531328678E-003;-2.184142824262381E-003;
2.401500000000000E+009;1.538419872522354E-001;8.653970807790756E-002;4.536228254437447E-003;-2.329281996935606E-003;
2.401666666666667E+009;1.540639698505402E-001;8.357011526823044E-002;4.129799548536539E-003;-2.474603476002812E-003;
2.401833333333334E+009;1.543442755937576E-001;8.048859983682632E-002;4.118680953979492E-003;-2.510163933038712E-003;
2.402000000000000E+009;1.550218760967255E-001;7.751210778951645E-002;4.070768132805824E-003;-2.824216848239303E-003;
2.402166666666667E+009;1.555735617876053E-001;7.488273084163666E-002;4.092354793101549E-003;-2.867541741579771E-003;
2.402333333333334E+009;1.564494818449020E-001;7.186970114707947E-002;3.897278336808085E-003;-2.971317386254668E-003;
2.402500000000000E+009;1.575089395046234E-001;6.900729984045029E-002;3.800719510763884E-003;-3.130555851384997E-003;
2.402666666666667E+009;1.584145426750183E-001;6.663351505994797E-002;3.538256278261542E-003;-3.308973507955670E-003;
2.402833333333334E+009;1.598120182752609E-001;6.383347511291504E-002;3.472697222605348E-003;-3.347377991303802E-003;
2.403000000000000E+009;1.612049341201782E-001;6.124417111277580E-002;3.284199861809611E-003;-3.432606114074588E-003;
2.403166666666667E+009;1.627852469682694E-001;5.872276052832604E-002;3.175476333126426E-003;-3.543107304722071E-003;
2.403333333333334E+009;1.644162684679031E-001;5.630370229482651E-002;2.868347102776170E-003;-3.767332062125206E-003;
2.403500000000000E+009;1.659571081399918E-001;5.409101769328117E-002;2.812836784869432E-003;-3.849273314699531E-003;
2.403666666666667E+009;1.678695827722549E-001;5.189128592610359E-002;2.546462696045637E-003;-3.845546627417207E-003;
2.403833333333334E+009;1.695339530706406E-001;4.983665794134140E-002;2.385807456448674E-003;-4.138133488595486E-003;
2.404000000000000E+009;1.711553782224655E-001;4.769070819020271E-002;2.133082365617156E-003;-4.102149046957493E-003;
2.404166666666667E+009;1.731617450714111E-001;4.610459879040718E-002;1.970036188140512E-003;-4.207583144307137E-003;
2.404333333333334E+009;1.749246120452881E-001;4.435884207487106E-002;1.829132554121316E-003;-4.078183788806200E-003;
2.404500000000000E+009;1.767458915710449E-001;4.284979403018951E-002;1.430082018487155E-003;-4.383801016956568E-003;
2.404666666666667E+009;1.784574538469315E-001;4.152397066354752E-002;1.186373294331133E-003;-4.319533705711365E-003;
2.404833333333334E+009;1.805247366428375E-001;4.026238992810249E-002;9.420461719855666E-004;-4.310668911784887E-003;
2.405000000000000E+009;1.819482296705246E-001;3.945613652467728E-002;6.725015700794756E-004;-4.135343711823225E-003;
2.405166666666667E+009;1.837031692266464E-001;3.863541409373283E-002;5.138708511367440E-004;-4.258799832314253E-003;
2.405333333333334E+009;1.853930801153183E-001;3.816501423716545E-002;3.446967748459429E-004;-4.171069711446762E-003;
2.405500000000000E+009;1.872138828039169E-001;3.768980875611305E-002;3.097059379797429E-004;-4.082735627889633E-003;
2.405666666666667E+009;1.885423213243485E-001;3.728841617703438E-002;-4.070926297572441E-005;-3.885931102558971E-003;
2.405833333333334E+009;1.901253014802933E-001;3.710382804274559E-002;-1.212839633808471E-004;-3.866986604407430E-003;
2.406000000000000E+009;1.913256198167801E-001;3.685315325856209E-002;-2.204273332608864E-004;-3.732553217560053E-003;
2.406166666666667E+009;1.926702708005905E-001;3.679858148097992E-002;-3.059980517718941E-004;-3.444631118327379E-003;
2.406333333333334E+009;1.938851475715637E-001;3.702820837497711E-002;-4.844323557335883E-004;-3.350491868332028E-003;
2.406500000000000E+009;1.948369741439819E-001;3.713278844952583E-002;-3.602532378863543E-004;-3.260171273723245E-003;
2.406666666666667E+009;1.958016902208328E-001;3.744594380259514E-002;-5.912157357670367E-004;-3.070380771532655E-003;
2.406833333333334E+009;1.964282542467117E-001;3.756587579846382E-002;-4.954084870405495E-004;-3.070354927331209E-003;
2.407000000000000E+009;1.969510167837143E-001;3.800074011087418E-002;-6.505813216790557E-004;-2.932829083874822E-003;
2.407166666666667E+009;1.975637972354889E-001;3.809991106390953E-002;-6.470888620242477E-004;-2.896741498261690E-003;
2.407333333333334E+009;1.976855844259262E-001;3.865379467606545E-002;-5.569994682446122E-004;-2.884518820792437E-003;
2.407500000000000E+009;1.978520601987839E-001;3.901872783899307E-002;-5.797494086436927E-004;-2.819014713168144E-003;
2.407666666666667E+009;1.980114877223969E-001;3.908953070640564E-002;-5.987671902403235E-004;-2.794797299429774E-003;
2.407833333333334E+009;1.976796239614487E-001;3.944643214344978E-002;-4.796062130481005E-004;-2.610533265396953E-003;
2.408000000000000E+009;1.977238506078720E-001;3.956333175301552E-002;-6.026659975759685E-004;-2.725778380408883E-003;
2.408166666666667E+009;1.971027404069901E-001;3.956871107220650E-002;-5.783218657597899E-004;-2.619977109134197E-003;
2.408333333333334E+009;1.966990232467651E-001;3.957461938261986E-002;-7.262906874530017E-004;-2.713675377890468E-003;
2.408500000000000E+009;1.961627155542374E-001;3.961189091205597E-002;-4.873002180829644E-004;-2.587445080280304E-003;
2.408666666666667E+009;1.955249160528183E-001;3.939388319849968E-002;-3.813999355770648E-004;-2.512231469154358E-003;
2.408833333333334E+009;1.947381496429443E-001;3.900730609893799E-002;-5.066554876975715E-004;-2.428009174764156E-003;
2.409000000000000E+009;1.938188821077347E-001;3.849536180496216E-002;-4.497611662372947E-004;-2.653252100571990E-003;
2.409166666666667E+009;1.928800344467163E-001;3.792742639780045E-002;-3.967190568801016E-004;-2.485275501385331E-003;
2.409333333333334E+009;1.917819380760193E-001;3.714674711227417E-002;-4.643125867005438E-004;-2.718892414122820E-003;
2.409500000000000E+009;1.906454563140869E-001;3.612105920910835E-002;-4.477592592593283E-004;-2.736379858106375E-003;
2.409666666666667E+009;1.892717927694321E-001;3.516580909490585E-002;-4.985521663911641E-004;-2.640758408233523E-003;
2.409833333333334E+009;1.882059127092362E-001;3.373560309410095E-002;-5.249097011983395E-004;-2.963383682072163E-003;
2.410000000000000E+009;1.870629638433456E-001;3.232051059603691E-002;-3.302441909909248E-004;-3.100267611443996E-003;
2.410166666666667E+009;1.858653277158737E-001;3.074569068849087E-002;-7.689533522352576E-004;-3.118991153314710E-003;
2.410333333333334E+009;1.847464591264725E-001;2.910655178129673E-002;-8.244949858635664E-004;-3.359520342200995E-003;
2.410500000000000E+009;1.835009604692459E-001;2.728497795760632E-002;-9.897329146042466E-004;-3.411293728277087E-003;
2.410666666666667E+009;1.824648380279541E-001;2.521290071308613E-002;-1.146221067756414E-003;-3.434963291510940E-003;
2.410833333333334E+009;1.815738379955292E-001;2.315180748701096E-002;-1.533186179585755E-003;-3.364879637956619E-003;
2.411000000000000E+009;1.804919540882111E-001;2.071155235171318E-002;-1.414215657860041E-003;-3.473485121503472E-003;
2.411166666666667E+009;1.796695590019226E-001;1.873610913753510E-002;-1.732391421683133E-003;-3.315234556794167E-003;
2.411333333333334E+009;1.788818538188934E-001;1.628582924604416E-002;-1.981362467631698E-003;-3.319929819554091E-003;
2.411500000000000E+009;1.780719012022018E-001;1.388945057988167E-002;-2.165743615478277E-003;-3.292240202426910E-003;
2.411666666666667E+009;1.778459101915360E-001;1.144055183976889E-002;-2.335166092962027E-003;-3.111684694886208E-003;
2.411833333333334E+009;1.772519797086716E-001;8.809206075966358E-003;-2.525220392271876E-003;-3.072894643992186E-003;
2.412000000000000E+009;1.772961169481278E-001;6.056577898561955E-003;-2.614188240841031E-003;-2.917821751907468E-003;
2.412166666666667E+009;1.771079450845718E-001;3.564311657100916E-003;-2.825414761900902E-003;-2.834516577422619E-003;
2.412333333333334E+009;1.770872920751572E-001;8.165311883203685E-004;-2.867182483896613E-003;-2.546431031078100E-003;
2.412500000000000E+009;1.773714721202850E-001;-1.549118082039058E-003;-3.028952050954104E-003;-2.559168729931116E-003;
2.412666666666667E+009;1.778268218040466E-001;-4.335328005254269E-003;-2.952755428850651E-003;-2.244293456897140E-003;
2.412833333333334E+009;1.783112734556198E-001;-7.030066568404436E-003;-3.223943524062634E-003;-2.193276537582278E-003;
2.413000000000000E+009;1.791780591011047E-001;-9.541824460029602E-003;-3.380408976227045E-003;-2.113510388880968E-003;
2.413166666666667E+009;1.797736585140228E-001;-1.192830968648195E-002;-3.243755782023072E-003;-1.927081728354096E-003;
2.413333333333334E+009;1.808997690677643E-001;-1.456250436604023E-002;-3.219118341803551E-003;-1.669187797233462E-003;
2.413500000000000E+009;1.818972826004028E-001;-1.699045486748219E-002;-3.385270712897182E-003;-1.348087331280112E-003;
2.413666666666667E+009;1.830024272203445E-001;-1.953461021184921E-002;-3.095258260145783E-003;-1.418252591975033E-003;
2.413833333333334E+009;1.840819418430328E-001;-2.175197750329971E-002;-3.367682220414281E-003;-1.105889794416726E-003;
2.414000000000000E+009;1.853119134902954E-001;-2.399289235472679E-002;-3.367270110175014E-003;-9.398531983606517E-004;
2.414166666666667E+009;1.867201179265976E-001;-2.612438425421715E-002;-3.367903409525752E-003;-9.411696810275316E-004;
2.414333333333334E+009;1.879969835281372E-001;-2.828697115182877E-002;-3.192639444023371E-003;-9.716907516121864E-004;
2.414500000000000E+009;1.893897354602814E-001;-2.997632883489132E-002;-3.444034839048982E-003;-6.769190076738596E-004;
2.414666666666667E+009;1.907624304294586E-001;-3.160648047924042E-002;-3.331693587824702E-003;-6.492144893854857E-004;
2.414833333333334E+009;1.921886354684830E-001;-3.328266739845276E-002;-3.229285590350628E-003;-5.661801551468670E-004;
2.415000000000000E+009;1.935528963804245E-001;-3.479143232107163E-002;-3.278247313573957E-003;-3.654960601124913E-004;
2.415166666666667E+009;1.949759274721146E-001;-3.594917431473732E-002;-3.373200073838234E-003;-2.410098240943626E-004;
2.415333333333334E+009;1.963659971952438E-001;-3.712030872702599E-002;-3.335332032293081E-003;-8.388088463107124E-005;
2.415500000000000E+009;1.977238208055496E-001;-3.808455914258957E-002;-3.282877849414945E-003;-6.393223884515464E-005;
2.415666666666667E+009;1.990817487239838E-001;-3.914534300565720E-002;-3.139546606689692E-003;-2.330557254026644E-005;
2.415833333333334E+009;2.002288848161697E-001;-3.980849683284760E-002;-3.134218975901604E-003;1.946381089510396E-004;
2.416000000000000E+009;2.011776268482208E-001;-4.036422073841095E-002;-3.208618843927980E-003;3.377640387043357E-004;
2.416166666666667E+009;2.023416161537170E-001;-4.115710780024529E-002;-3.225120948627591E-003;4.269742930773646E-004;
2.416333333333334E+009;2.032285928726196E-001;-4.145528376102448E-002;-2.975395414978266E-003;5.191023810766637E-004;
2.416500000000000E+009;2.040662914514542E-001;-4.165812581777573E-002;-3.044928424060345E-003;5.773709272034466E-004;
2.416666666666667E+009;2.045796960592270E-001;-4.211783409118652E-002;-2.858786610886455E-003;5.696482257917523E-004;
2.416833333333334E+009;2.049969136714935E-001;-4.203333705663681E-002;-2.845505950972438E-003;7.129021105356515E-004;
2.417000000000000E+009;2.054436504840851E-001;-4.212007299065590E-002;-2.731460379436612E-003;7.978336652740836E-004;
2.417166666666667E+009;2.054311186075211E-001;-4.192027077078819E-002;-2.849157433956862E-003;9.544973727315664E-004;
2.417333333333334E+009;2.054246515035629E-001;-4.173243790864945E-002;-2.890264615416527E-003;1.022015698254108E-003;
2.417500000000000E+009;2.055701762437820E-001;-4.150740802288055E-002;-2.658926416188479E-003;9.034913964569569E-004;
2.417666666666667E+009;2.052661776542664E-001;-4.109454154968262E-002;-2.690909430384636E-003;1.009170082397759E-003;
2.417833333333334E+009;2.050077319145203E-001;-4.083053767681122E-002;-2.555414568632841E-003;1.133487443439663E-003;
2.418000000000000E+009;2.045327574014664E-001;-4.035825282335281E-002;-2.611911157146096E-003;1.160719431936741E-003;
2.418166666666667E+009;2.039285898208618E-001;-4.013799130916596E-002;-2.591393887996674E-003;1.297283335588872E-003;
2.418333333333334E+009;2.031373083591461E-001;-3.971621394157410E-002;-2.508071716874838E-003;1.374869490973651E-003;
2.418500000000000E+009;2.022995203733444E-001;-3.957453370094299E-002;-2.473684260621667E-003;1.445750007405877E-003;
2.418666666666667E+009;2.015110105276108E-001;-3.918204084038734E-002;-2.564717549830675E-003;1.714234938845038E-003;
2.418833333333334E+009;2.002807408571243E-001;-3.931172564625740E-002;-2.468809252604842E-003;1.619075657799840E-003;
2.419000000000000E+009;1.990310698747635E-001;-3.919940814375877E-002;-2.407646272331476E-003;1.716952421702445E-003;
2.419166666666667E+009;1.978425979614258E-001;-3.932959213852882E-002;-2.240643836557865E-003;1.856723916716874E-003;
2.419333333333334E+009;1.963993459939957E-001;-3.962646797299385E-002;-2.268399577587843E-003;1.738202408887446E-003;
2.419500000000000E+009;1.948881298303604E-001;-3.989099711179733E-002;-1.976385246962309E-003;1.953865401446819E-003;
2.419666666666667E+009;1.931817829608917E-001;-4.044415429234505E-002;-1.855987822636962E-003;2.094911178573966E-003;
2.419833333333334E+009;1.915064454078674E-001;-4.096606001257896E-002;-1.868404098786414E-003;2.059446182101965E-003;
2.420000000000000E+009;1.898923665285111E-001;-4.173943772912026E-002;-1.598684699274600E-003;1.880430732853711E-003;
2.420166666666667E+009;1.881427168846130E-001;-4.250499233603478E-002;-1.566677703522146E-003;1.891273306682706E-003;
2.420333333333334E+009;1.863709539175034E-001;-4.359884560108185E-002;-1.746814697980881E-003;1.997915096580982E-003;
2.420500000000000E+009;1.844318658113480E-001;-4.474481195211411E-002;-1.517683151178062E-003;1.982059329748154E-003;
2.420666666666667E+009;1.827758699655533E-001;-4.593517631292343E-002;-1.499040750786662E-003;1.960967434570193E-003;
2.420833333333334E+009;1.807482689619064E-001;-4.742335155606270E-002;-1.418950152583420E-003;1.901273848488927E-003;
2.421000000000000E+009;1.791879534721375E-001;-4.893071204423904E-002;-1.428454532288015E-003;1.940194168128073E-003;
2.421166666666667E+009;1.775211244821549E-001;-5.052717775106430E-002;-1.454949378967285E-003;1.897006295621395E-003;
2.421333333333334E+009;1.757594496011734E-001;-5.207407847046852E-002;-1.286905608139932E-003;1.932552782818675E-003;
2.421500000000000E+009;1.740306615829468E-001;-5.413749814033508E-002;-1.435262151062489E-003;1.973597100004554E-003;
2.421666666666667E+009;1.725999563932419E-001;-5.604359507560730E-002;-1.323590986430645E-003;1.907335827127099E-003;
2.421833333333334E+009;1.713504046201706E-001;-5.807875096797943E-002;-1.196433557197452E-003;1.988139236345887E-003;
2.422000000000000E+009;1.698236465454102E-001;-5.992578715085983E-002;-1.198293990455568E-003;1.988138537853956E-003;
2.422166666666667E+009;1.688153445720673E-001;-6.219020858407021E-002;-1.174954464659095E-003;2.047308487817645E-003;
2.422333333333334E+009;1.675522625446320E-001;-6.443174928426743E-002;-9.785159491002560E-004;2.131326124072075E-003;
2.422500000000000E+009;1.665591895580292E-001;-6.652358919382095E-002;-1.063980511389673E-003;2.048036549240351E-003;
2.422666666666667E+009;1.654779762029648E-001;-6.876786053180695E-002;-9.033024543896318E-004;2.088431734591723E-003;
2.422833333333334E+009;1.650747507810593E-001;-7.111308723688126E-002;-8.514216169714928E-004;2.020851941779256E-003;
2.423000000000000E+009;1.642397642135620E-001;-7.321270555257797E-002;-7.344331243075430E-004;2.138378098607063E-003;
2.423166666666667E+009;1.637960225343704E-001;-7.539930939674377E-002;-5.624906625598669E-004;2.090875757858157E-003;
2.423333333333334E+009;1.634609252214432E-001;-7.786887884140015E-002;-5.256224540062249E-004;2.168674953281879E-003;
2.423500000000000E+009;1.631102710962296E-001;-7.985495030879974E-002;-5.795336328446865E-004;2.029782161116600E-003;
2.423666666666667E+009;1.631411910057068E-001;-8.194828033447266E-002;-4.947722190991044E-004;2.185614779591560E-003;
2.423833333333334E+009;1.631032824516296E-001;-8.399193733930588E-002;-5.804841639474034E-004;2.149742795154452E-003;
2.424000000000000E+009;1.632585525512695E-001;-8.608408272266388E-002;-4.030195414088666E-004;2.035102806985378E-003;
2.424166666666667E+009;1.632131487131119E-001;-8.778795599937439E-002;-3.421399451326579E-004;1.904095639474690E-003;
2.424333333333334E+009;1.635398268699646E-001;-8.973134309053421E-002;-2.287713432451710E-004;2.043853513896465E-003;
2.424500000000000E+009;1.638965457677841E-001;-9.160873293876648E-002;-3.185997484251857E-004;1.990555087104440E-003;
2.424666666666667E+009;1.642439663410187E-001;-9.323438256978989E-002;-7.995154737727717E-005;1.994242426007986E-003;
2.424833333333334E+009;1.649395525455475E-001;-9.476491063833237E-002;-9.830697672441602E-005;1.830980414524674E-003;
2.425000000000000E+009;1.653918176889420E-001;-9.620355069637299E-002;-4.447786486707628E-004;1.957492204383016E-003;
2.425166666666667E+009;1.659234911203384E-001;-9.744060784578323E-002;-3.009532811120153E-004;1.867346465587616E-003;
2.425333333333334E+009;1.663310974836350E-001;-9.864776581525803E-002;-3.009022038895637E-004;1.830675522796810E-003;
2.425500000000000E+009;1.670052260160446E-001;-9.969143569469452E-002;-3.364825097378343E-004;1.847635372541845E-003;
2.425666666666667E+009;1.675144433975220E-001;-1.006039679050446E-001;-3.466895723249763E-004;1.933998428285122E-003;
2.425833333333334E+009;1.681392788887024E-001;-1.016286537051201E-001;-2.457666560076177E-004;1.962713897228241E-003;
2.426000000000000E+009;1.687746047973633E-001;-1.020868867635727E-001;-1.453533914173022E-004;1.913501531817019E-003;
2.426166666666667E+009;1.693423837423325E-001;-1.026465520262718E-001;-6.653831223957241E-005;1.868329592980444E-003;
2.426333333333334E+009;1.696560978889465E-001;-1.032386943697929E-001;8.473487105220556E-005;2.191723091527820E-003;
2.426500000000000E+009;1.703321784734726E-001;-1.035368740558624E-001;-7.409818408632418E-006;2.218873240053654E-003;
2.426666666666667E+009;1.707707494497299E-001;-1.040572002530098E-001;2.505599150026683E-005;2.012906363233924E-003;
2.426833333333334E+009;1.712737828493118E-001;-1.041605994105339E-001;-5.880888420506381E-005;2.082716906443238E-003;
2.427000000000000E+009;1.714410632848740E-001;-1.044139713048935E-001;1.120806555263698E-004;2.236749744042754E-003;
2.427166666666667E+009;1.717345714569092E-001;-1.044416800141335E-001;2.056280354736373E-004;2.121404046192765E-003;
2.427333333333334E+009;1.718775033950806E-001;-1.046108976006508E-001;1.109861841541715E-004;2.286955481395125E-003;
2.427500000000000E+009;1.718579232692719E-001;-1.046985164284706E-001;3.311918699182570E-004;2.286655828356743E-003;
2.427666666666667E+009;1.717690229415894E-001;-1.046115458011627E-001;2.470180334057659E-004;2.243367256596685E-003;
