# Version 1.00
#
freq[Hz];re:Trc1_S11;im:Trc1_S11;re:Trc2_S21;im:Trc2_S21;
2.400000000000000E+009;1.556668728590012E-001;1.107057482004166E-001;5.836281925439835E-003;-7.368836668320000E-004;
2.400166666666667E+009;1.549554169178009E-001;1.085566282272339E-001;5.559307057410479E-003;-9.138387977145612E-004;
2.400333333333334E+009;1.548213064670563E-001;1.061642915010452E-001;5.447060335427523E-003;-1.142406254075468E-003;
2.400500000000000E+009;1.544337719678879E-001;1.034256219863892E-001;5.214493721723557E-003;-1.362575101666153E-003;
2.400666666666667E+009;1.542986929416657E-001;1.010117754340172E-001;5.107296165078878E-003;-1.647190772928298E-003;
2.400833333333334E+009;1.539715826511383E-001;9.823495894670487E-002;4.947639070451260E-003;-1.780506107024849E-003;
2.401000000000000E+009;1.540508717298508E-001;9.517975896596909E-002;4.918974824249744E-003;-1.920515089295805E-003;
2.401166666666667E+009;1.536647528409958E-001;9.242583811283112E-002;4.668690729886293E-003;-2.081931568682194E-003;
2.401333333333334E+009;1.538724601268768E-001;8.951714634895325E-002;4.495692905038595E-003;-2.190388506278396E-003;
2.401500000000000E+009;1.539758145809174E-001;8.651534467935562E-002;4.445022437721491E-003;-2.230770187452436E-003;
2.401666666666667E+009;1.540340483188629E-001;8.345051109790802E-002;4.376568831503391E-003;-2.571239834651351E-003;
2.401833333333334E+009;1.543214619159699E-001;8.063978701829910E-002;4.277528729289770E-003;-2.699463861063123E-003;
2.402000000000000E+009;1.549458205699921E-001;7.748540490865707E-002;4.042676184326410E-003;-2.786119468510151E-003;
2.402166666666667E+009;1.556705534458160E-001;7.478277385234833E-002;3.964561969041824E-003;-2.856390550732613E-003;
2.402333333333334E+009;1.564884930849075E-001;7.187203317880631E-002;3.854089649394155E-003;-2.920125378295779E-003;
2.402500000000000E+009;1.573675125837326E-001;6.905973702669144E-002;3.880691947415471E-003;-3.156028455123305E-003;
2.402666666666667E+009;1.584706306457520E-001;6.667650490999222E-002;3.652995685115457E-003;-3.347917925566435E-003;
2.402833333333334E+009;1.596800982952118E-001;6.373182684183121E-002;3.427889896556735E-003;-3.284383332356811E-003;
2.403000000000000E+009;1.612034291028976E-001;6.130842864513397E-002;3.418040229007602E-003;-3.502068808302283E-003;
2.403166666666667E+009;1.627379208803177E-001;5.863139405846596E-002;3.221378428861499E-003;-3.498262958601117E-003;
2.403333333333334E+009;1.643697768449783E-001;5.621159449219704E-002;3.048457205295563E-003;-3.727008821442723E-003;
2.403500000000000E+009;1.658768504858017E-001;5.404404178261757E-002;2.882799599319696E-003;-3.779077669605613E-003;
2.403666666666667E+009;1.678804755210877E-001;5.197721719741821E-002;2.637649420648813E-003;-4.010320641100407E-003;
2.403833333333334E+009;1.695029735565186E-001;4.969327151775360E-002;2.548924647271633E-003;-4.156801383942366E-003;
2.404000000000000E+009;1.712219566106796E-001;4.777866229414940E-002;2.367117209360004E-003;-4.195266868919134E-003;
2.404166666666667E+009;1.732235252857208E-001;4.605459049344063E-002;2.021598862484098E-003;-4.402066580951214E-003;
2.404333333333334E+009;1.748722046613693E-001;4.424783959984779E-002;1.772710354998708E-003;-4.254225175827742E-003;
2.404500000000000E+009;1.766078025102615E-001;4.270051792263985E-002;1.669507008045912E-003;-4.332637414336205E-003;
2.404666666666667E+009;1.784437000751495E-001;4.158223420381546E-002;1.307991449721158E-003;-4.260026384145021E-003;
2.404833333333334E+009;1.801625788211823E-001;4.022294282913208E-002;1.103889662772417E-003;-4.151477012783289E-003;
2.405000000000000E+009;1.818538755178452E-001;3.940612822771072E-002;2.028486225754023E-003;-3.977030981332064E-003;
2.405166666666667E+009;1.835320889949799E-001;3.864733129739761E-002;1.082002301700413E-003;-4.063543863594532E-003;
2.405333333333334E+009;1.853657066822052E-001;3.813692554831505E-002;-2.074968942906708E-004;-4.773725755512714E-003;
2.405500000000000E+009;1.869198530912399E-001;3.744485229253769E-002;-3.032022796105593E-004;-2.762383082881570E-003;
2.405666666666667E+009;1.882657408714294E-001;3.728863224387169E-002;8.949940674938262E-004;-2.528981538489461E-003;
2.405833333333334E+009;1.899310648441315E-001;3.716199100017548E-002;5.047819577157497E-004;-3.091362770646811E-003;
2.406000000000000E+009;1.911908686161041E-001;3.692501038312912E-002;1.678483531577513E-004;-2.459544455632567E-003;
2.406166666666667E+009;1.925972104072571E-001;3.685955703258514E-002;-8.187288767658174E-004;-3.269203472882509E-003;
2.406333333333334E+009;1.935751587152481E-001;3.715724125504494E-002;9.405007003806531E-004;-3.586239647120237E-003;
2.406500000000000E+009;1.947692334651947E-001;3.717054054141045E-002;-2.229626988992095E-004;-3.196630859747529E-003;
2.406666666666667E+009;1.956909149885178E-001;3.742253035306931E-002;-5.334145389497280E-004;-3.314400324597955E-003;
2.406833333333334E+009;1.963834613561630E-001;3.759593516588211E-002;-4.307029303163290E-004;-3.129865042865276E-003;
2.407000000000000E+009;1.968545168638229E-001;3.813979029655457E-002;-3.528760280460119E-004;-3.119925968348980E-003;
2.407166666666667E+009;1.974530816078186E-001;3.808806091547012E-002;-5.766868707723916E-004;-2.908520866185427E-003;
2.407333333333334E+009;1.977552920579910E-001;3.855289891362190E-002;-5.765983369201422E-004;-2.875368809327483E-003;
2.407500000000000E+009;1.977214515209198E-001;3.892559185624123E-002;-6.322819972410798E-004;-2.848285716027021E-003;
2.407666666666667E+009;1.979360282421112E-001;3.916489705443382E-002;-4.320895823184401E-004;-2.722528530284762E-003;
2.407833333333334E+009;1.975662112236023E-001;3.938674181699753E-002;-6.737727089785039E-004;-2.697246149182320E-003;
2.408000000000000E+009;1.977477967739105E-001;3.962209448218346E-002;-5.851073074154556E-004;-2.821133704856038E-003;
2.408166666666667E+009;1.970828771591187E-001;3.965222835540772E-002;-6.003546877764165E-004;-2.650061855092645E-003;
2.408333333333334E+009;1.968428641557694E-001;3.951660171151161E-002;-6.257116328924894E-004;-2.667367225512862E-003;
2.408500000000000E+009;1.960698813199997E-001;3.970932215452194E-002;-5.269470275379717E-004;-2.626814646646380E-003;
2.408666666666667E+009;1.954942196607590E-001;3.939688205718994E-002;-5.553262308239937E-004;-2.451230771839619E-003;
2.408833333333334E+009;1.947053670883179E-001;3.902737423777580E-002;-5.359495989978313E-004;-2.644266467541456E-003;
2.409000000000000E+009;1.937888264656067E-001;3.838997706770897E-002;-4.149025771766901E-004;-2.564079128205776E-003;
2.409166666666667E+009;1.927398890256882E-001;3.783344104886055E-002;-4.188815655652434E-004;-2.684971550479531E-003;
2.409333333333334E+009;1.918182224035263E-001;3.705132380127907E-002;-4.096849297638983E-004;-2.737964736297727E-003;
2.409500000000000E+009;1.906126737594605E-001;3.604630380868912E-002;-3.921951865777373E-004;-2.860593376681209E-003;
2.409666666666667E+009;1.894224286079407E-001;3.510406613349915E-002;-4.657467361539602E-004;-2.947477856650949E-003;
2.409833333333334E+009;1.882143467664719E-001;3.376128152012825E-002;-4.535689658951014E-004;-3.035849193111062E-003;
2.410000000000000E+009;1.871086210012436E-001;3.232219070196152E-002;-5.958979600109160E-004;-3.235933603718877E-003;
2.410166666666667E+009;1.859468817710877E-001;3.075875714421272E-002;-7.269093766808510E-004;-3.210362046957016E-003;
2.410333333333334E+009;1.845984905958176E-001;2.908659353852272E-002;-9.273416944779456E-004;-3.337659174576402E-003;
2.410500000000000E+009;1.834870278835297E-001;2.728167921304703E-002;-1.114083104766905E-003;-3.476079087704420E-003;
2.410666666666667E+009;1.823144108057022E-001;2.516169473528862E-002;-1.228852546773851E-003;-3.448268165811896E-003;
2.410833333333334E+009;1.814712733030319E-001;2.297759242355824E-002;-1.411320990882814E-003;-3.417051862925291E-003;
2.411000000000000E+009;1.803871840238571E-001;2.092813886702061E-002;-1.699471846222878E-003;-3.493658034130931E-003;
2.411166666666667E+009;1.795397698879242E-001;1.878191903233528E-002;-1.840612269006670E-003;-3.402779111638665E-003;
2.411333333333334E+009;1.788307726383209E-001;1.612663269042969E-002;-2.075047465041280E-003;-3.360190894454718E-003;
2.411500000000000E+009;1.781627833843231E-001;1.378325000405312E-002;-2.262322232127190E-003;-3.256615716964006E-003;
2.411666666666667E+009;1.777646243572235E-001;1.148754730820656E-002;-2.483242424204946E-003;-3.167038084939122E-003;
2.411833333333334E+009;1.773305386304855E-001;8.785196579992771E-003;-2.665930427610874E-003;-3.023867029696703E-003;
2.412000000000000E+009;1.772111356258392E-001;5.954539868980646E-003;-2.662820275872946E-003;-2.993609989061952E-003;
2.412166666666667E+009;1.771041154861450E-001;3.450891934335232E-003;-2.823699032887816E-003;-2.836411586031318E-003;
2.412333333333334E+009;1.771866679191589E-001;9.400008129887283E-004;-2.823306480422616E-003;-2.721699653193355E-003;
2.412500000000000E+009;1.775527000427246E-001;-1.726348302327097E-003;-3.170993877574801E-003;-2.480999799445272E-003;
2.412666666666667E+009;1.778767108917236E-001;-4.322080872952938E-003;-3.217352088540793E-003;-2.488018944859505E-003;
2.412833333333334E+009;1.784027367830277E-001;-6.908442825078964E-003;-3.221230814233422E-003;-2.189083490520716E-003;
2.413000000000000E+009;1.791049987077713E-001;-9.481949731707573E-003;-3.370114834979177E-003;-2.004537498578429E-003;
2.413166666666667E+009;1.798020601272583E-001;-1.197996269911528E-002;-3.372295526787639E-003;-1.966487616300583E-003;
2.413333333333334E+009;1.808505654335022E-001;-1.460745744407177E-002;-3.361988579854369E-003;-1.740870764479041E-003;
2.413500000000000E+009;1.818194687366486E-001;-1.707531698048115E-002;-3.431654535233975E-003;-1.442059176042676E-003;
2.413666666666667E+009;1.829405277967453E-001;-1.954265125095844E-002;-3.420338034629822E-003;-1.287975232116878E-003;
2.413833333333334E+009;1.841724067926407E-001;-2.181499265134335E-002;-3.413507947698236E-003;-1.224625739268959E-003;
2.414000000000000E+009;1.851991117000580E-001;-2.410293743014336E-002;-3.308357205241919E-003;-1.051601022481918E-003;
2.414166666666667E+009;1.866340488195419E-001;-2.608032710850239E-002;-3.441937966272235E-003;-7.887594401836395E-004;
2.414333333333334E+009;1.879697293043137E-001;-2.826529927551746E-002;-3.401806112378836E-003;-8.605775074101985E-004;
2.414500000000000E+009;1.893549859523773E-001;-2.992663532495499E-002;-3.316591726616025E-003;-5.766351241618395E-004;
2.414666666666667E+009;1.907966434955597E-001;-3.170697018504143E-002;-3.337583737447858E-003;-4.823622002732009E-004;
2.414833333333334E+009;1.920333206653595E-001;-3.320976346731186E-002;-3.149082185700536E-003;-3.689544682856649E-004;
2.415000000000000E+009;1.934963911771774E-001;-3.478601947426796E-002;-3.289566142484546E-003;-2.822400419972837E-004;
2.415166666666667E+009;1.949781477451325E-001;-3.614898771047592E-002;-3.358399728313088E-003;-1.140085878432728E-004;
2.415333333333334E+009;1.964119225740433E-001;-3.716283291578293E-002;-3.243557410314679E-003;-2.107127220369875E-004;
2.415500000000000E+009;1.977798342704773E-001;-3.811556845903397E-002;-3.334774868562818E-003;-5.503373904502951E-005;
2.415666666666667E+009;1.991295218467712E-001;-3.899180144071579E-002;-3.248113440349698E-003;1.024592711473815E-004;
2.415833333333334E+009;2.001984715461731E-001;-3.963594511151314E-002;-3.242887789383531E-003;2.135439717676491E-004;
2.416000000000000E+009;2.011470645666122E-001;-4.037695005536079E-002;-3.017941722646356E-003;3.536741714924574E-004;
2.416166666666667E+009;2.023490518331528E-001;-4.111998528242111E-002;-3.215850563719869E-003;3.958884335588664E-004;
2.416333333333334E+009;2.032504379749298E-001;-4.137713462114334E-002;-3.062875708565116E-003;4.146783030591905E-004;
2.416500000000000E+009;2.040558904409409E-001;-4.171366244554520E-002;-3.116691950708628E-003;6.620207568630576E-004;
2.416666666666667E+009;2.046228796243668E-001;-4.204809665679932E-002;-3.000196767970920E-003;7.201913977041841E-004;
2.416833333333334E+009;2.050600051879883E-001;-4.205476492643356E-002;-2.857576357200742E-003;7.705727475695312E-004;
2.417000000000000E+009;2.054530978202820E-001;-4.206679388880730E-002;-2.775947563350201E-003;7.369232480414212E-004;
2.417166666666667E+009;2.054722756147385E-001;-4.188041388988495E-002;-2.670621965080500E-003;7.767431670799851E-004;
2.417333333333334E+009;2.054067105054855E-001;-4.165484383702278E-002;-2.726972335949540E-003;9.085561614483595E-004;
2.417500000000000E+009;2.054930776357651E-001;-4.156965389847755E-002;-2.716847229748964E-003;8.972572977654636E-004;
2.417666666666667E+009;2.051555514335632E-001;-4.110877588391304E-002;-2.691291272640228E-003;9.905858896672726E-004;
2.417833333333334E+009;2.049708813428879E-001;-4.078364744782448E-002;-2.763352822512388E-003;1.045646029524505E-003;
2.418000000000000E+009;2.046066969633102E-001;-4.032938554883003E-002;-2.765656914561987E-003;1.136854640208185E-003;
2.418166666666667E+009;2.038851082324982E-001;-4.006404429674149E-002;-2.574403071776032E-003;1.205817563459277E-003;
2.418333333333334E+009;2.031225264072418E-001;-3.972638770937920E-002;-2.663367427885532E-003;1.319793402217329E-003;
2.418500000000000E+009;2.021879851818085E-001;-3.943561390042305E-002;-2.603288739919663E-003;1.477359561249614E-003;
2.418666666666667E+009;2.014371305704117E-001;-3.924680501222611E-002;-2.545722760260105E-003;1.585504971444607E-003;
2.418833333333334E+009;2.002415359020233E-001;-3.910619392991066E-002;-2.457769121974707E-003;1.600783318281174E-003;
2.419000000000000E+009;1.990587860345841E-001;-3.909466788172722E-002;-2.447695238515735E-003;1.647801720537245E-003;
2.419166666666667E+009;1.978352367877960E-001;-3.925776854157448E-002;-2.272313926368952E-003;1.846419530920684E-003;
2.419333333333334E+009;1.963810026645660E-001;-3.971334174275398E-002;-2.032042946666479E-003;1.811437774449587E-003;
2.419500000000000E+009;1.948312073945999E-001;-3.990062326192856E-002;-2.052432857453823E-003;1.913830055855215E-003;
2.419666666666667E+009;1.931611746549606E-001;-4.057445749640465E-002;-1.948646735399962E-003;1.953474944457412E-003;
2.419833333333334E+009;1.915182471275330E-001;-4.089871421456337E-002;-2.001814777031541E-003;1.971008954569697E-003;
2.420000000000000E+009;1.899490505456924E-001;-4.180392250418663E-002;-1.838688389398158E-003;1.934642670676112E-003;
2.420166666666667E+009;1.881214082241058E-001;-4.247428476810455E-002;-1.644579344429076E-003;1.933197258040309E-003;
2.420333333333334E+009;1.863450109958649E-001;-4.347830638289452E-002;-1.494136406108737E-003;1.945489901117981E-003;
2.420500000000000E+009;1.845417916774750E-001;-4.475014284253120E-002;-1.502280938439071E-003;1.962713198736310E-003;
2.420666666666667E+009;1.827285289764404E-001;-4.600109159946442E-002;-1.557817333377898E-003;1.898799207992852E-003;
2.420833333333334E+009;1.807826012372971E-001;-4.723160713911057E-002;-1.483479049056768E-003;1.912580220960081E-003;
2.421000000000000E+009;1.791182011365891E-001;-4.882618784904480E-002;-1.319803530350328E-003;1.941684866324067E-003;
2.421166666666667E+009;1.775470972061157E-001;-5.056485533714294E-002;-1.487312372773886E-003;1.966721378266811E-003;
2.421333333333334E+009;1.755069196224213E-001;-5.204565450549126E-002;-1.378969056531787E-003;2.023529028519988E-003;
2.421500000000000E+009;1.741153746843338E-001;-5.407891422510147E-002;-1.481315586715937E-003;1.914834254421294E-003;
2.421666666666667E+009;1.725068539381027E-001;-5.604243651032448E-002;-1.338613219559193E-003;2.118199132382870E-003;
2.421833333333334E+009;1.712596565485001E-001;-5.795140564441681E-002;-1.249520224519074E-003;1.993649872019887E-003;
2.422000000000000E+009;1.697318553924561E-001;-6.002877652645111E-002;-1.289392122998834E-003;2.242778195068240E-003;
2.422166666666667E+009;1.687437891960144E-001;-6.231154501438141E-002;-1.004327787086368E-003;2.054756740108132E-003;
2.422333333333334E+009;1.673491299152374E-001;-6.469935178756714E-002;-1.140793086960912E-003;2.284024143591523E-003;
2.422500000000000E+009;1.664162874221802E-001;-6.661938875913620E-002;-1.122958958148956E-003;2.170762745663524E-003;
2.422666666666667E+009;1.655825227499008E-001;-6.879629939794540E-002;-8.176140836440027E-004;2.252018079161644E-003;
2.422833333333334E+009;1.648435890674591E-001;-7.087252289056778E-002;-9.756641811691225E-004;2.209326252341270E-003;
2.423000000000000E+009;1.642307937145233E-001;-7.327564060688019E-002;-8.995166281238198E-004;2.189308404922485E-003;
2.423166666666667E+009;1.637020856142044E-001;-7.534177601337433E-002;-7.772604585625231E-004;2.026289002969861E-003;
2.423333333333334E+009;1.633716225624085E-001;-7.777995616197586E-002;-7.127042626962066E-004;2.181310206651688E-003;
2.423500000000000E+009;1.633261293172836E-001;-7.971567660570145E-002;-7.443286594934762E-004;2.107339212670922E-003;
2.423666666666667E+009;1.630634963512421E-001;-8.192604780197144E-002;-4.998040967620909E-004;2.143567427992821E-003;
2.423833333333334E+009;1.631458401679993E-001;-8.390361070632935E-002;-5.650314851664007E-004;2.023402135819197E-003;
2.424000000000000E+009;1.630618721246719E-001;-8.602732419967651E-002;-3.795248921960592E-004;2.130664652213454E-003;
2.424166666666667E+009;1.633082032203674E-001;-8.781670778989792E-002;-5.017739604227245E-004;1.967549556866288E-003;
2.424333333333334E+009;1.634582579135895E-001;-8.949282020330429E-002;-4.566652933135629E-004;2.097092103213072E-003;
2.424500000000000E+009;1.639142483472824E-001;-9.159398823976517E-002;-3.531422407831997E-004;1.987538533285260E-003;
2.424666666666667E+009;1.642508059740067E-001;-9.326540678739548E-002;-2.607352507766336E-004;1.983287744224072E-003;
2.424833333333334E+009;1.650495678186417E-001;-9.470460563898087E-002;-3.539835743140429E-004;2.076555043458939E-003;
2.425000000000000E+009;1.654695868492127E-001;-9.619049727916718E-002;-1.879352494142950E-004;2.004337264224887E-003;
2.425166666666667E+009;1.658630818128586E-001;-9.733485430479050E-002;-2.573170058894903E-004;2.050772542133927E-003;
2.425333333333334E+009;1.663012802600861E-001;-9.845522046089172E-002;-3.349439648445696E-004;1.954876817762852E-003;
2.425500000000000E+009;1.669766306877136E-001;-9.965973347425461E-002;-3.518961020745337E-004;2.002593828365207E-003;
2.425666666666667E+009;1.676527559757233E-001;-1.005197167396545E-001;-4.121208621654660E-004;1.945023890584707E-003;
2.425833333333334E+009;1.681413948535919E-001;-1.014370545744896E-001;-2.842150279320777E-004;2.148120896890760E-003;
2.426000000000000E+009;1.686437726020813E-001;-1.021073982119560E-001;-2.767804544419050E-004;2.159185241907835E-003;
2.426166666666667E+009;1.693949699401856E-001;-1.026144549250603E-001;-6.246583507163450E-005;2.204020740464330E-003;
2.426333333333334E+009;1.697622388601303E-001;-1.032442450523377E-001;-1.463631924707443E-004;2.176845446228981E-003;
2.426500000000000E+009;1.704002022743225E-001;-1.035451814532280E-001;-2.511932980269194E-004;2.335020108148456E-003;
2.426666666666667E+009;1.707542389631271E-001;-1.039110645651817E-001;-2.276480663567781E-004;2.372638788074255E-003;
2.426833333333334E+009;1.712659299373627E-001;-1.041060686111450E-001;-4.879901825916022E-005;2.299625426530838E-003;
2.427000000000000E+009;1.715269833803177E-001;-1.043923869729042E-001;-3.358697722433135E-005;2.341564977541566E-003;
2.427166666666667E+009;1.716963499784470E-001;-1.045342236757278E-001;2.064630825771019E-004;2.481146715581417E-003;
2.427333333333334E+009;1.718583703041077E-001;-1.046221256256104E-001;3.051940293516964E-004;2.412218833342195E-003;
2.427500000000000E+009;1.717883348464966E-001;-1.046112850308418E-001;4.017340834252536E-004;2.503644907847047E-003;
2.427666666666667E+009;1.717743575572968E-001;-1.045548841357231E-001;3.918783331755549E-004;2.311679767444730E-003;
