# Version 1.00
#
freq[Hz];re:Trc1_S11;im:Trc1_S11;re:Trc2_S21;im:Trc2_S21;
2.400000000000000E+009;1.554316729307175E-001;1.067567020654678E-001;-1.292213797569275E-003;-1.929172547534108E-003;
2.400166666666667E+009;1.549135893583298E-001;1.043633669614792E-001;-1.392563688568771E-003;-1.707026152871549E-003;
2.400333333333334E+009;1.551971286535263E-001;1.020490005612373E-001;-1.357437809929252E-003;-1.480069709941745E-003;
2.400500000000000E+009;1.550299823284149E-001;9.929543733596802E-002;-1.293758861720562E-003;-1.232181442901492E-003;
2.400666666666667E+009;1.550181359052658E-001;9.686750173568726E-002;-1.166932284832001E-003;-1.104967668652535E-003;
2.400833333333334E+009;1.551795601844788E-001;9.391774982213974E-002;-1.062494353391230E-003;-7.347997161559761E-004;
2.401000000000000E+009;1.552988886833191E-001;9.103813022375107E-002;-9.318112279288471E-004;-4.714868264272809E-004;
2.401166666666667E+009;1.554995477199554E-001;8.835701644420624E-002;-6.712257745675743E-004;-5.384542164392769E-004;
2.401333333333334E+009;1.557060182094574E-001;8.549194037914276E-002;-6.704702973365784E-004;-4.343589534983039E-004;
2.401500000000000E+009;1.562099456787109E-001;8.234248310327530E-002;-2.652343828231096E-004;-5.140759167261422E-004;
2.401666666666667E+009;1.564658284187317E-001;7.975555956363678E-002;-2.904243010561913E-004;-4.324863839428872E-004;
2.401833333333334E+009;1.571421325206757E-001;7.692474871873856E-002;1.518446806585416E-004;-5.437203799374402E-004;
2.402000000000000E+009;1.580005288124085E-001;7.408033311367035E-002;2.541897119954228E-004;-5.959852132946253E-004;
2.402166666666667E+009;1.586691290140152E-001;7.148640602827072E-002;4.421599151100963E-004;-8.404727559536696E-004;
2.402333333333334E+009;1.595993489027023E-001;6.871116906404495E-002;4.962323000654578E-004;-8.575125830247998E-004;
2.402500000000000E+009;1.609488427639008E-001;6.600615382194519E-002;4.982721293345094E-004;-9.850886417552829E-004;
2.402666666666667E+009;1.620258092880249E-001;6.382437050342560E-002;6.076556164771318E-004;-1.067585544660687E-003;
2.402833333333334E+009;1.633522808551788E-001;6.119370460510254E-002;5.500027327798307E-004;-1.430713455192745E-003;
2.403000000000000E+009;1.648592501878738E-001;5.883658304810524E-002;4.769657389260829E-004;-1.545583480037749E-003;
2.403166666666667E+009;1.665612608194351E-001;5.658145621418953E-002;4.477640613913536E-004;-1.577867427840829E-003;
2.403333333333334E+009;1.678747832775116E-001;5.440030619502068E-002;6.401519640348852E-004;-1.779732992872596E-003;
2.403500000000000E+009;1.696601063013077E-001;5.241760984063149E-002;3.352063067723066E-004;-1.748821581713855E-003;
2.403666666666667E+009;1.712957620620728E-001;5.046704038977623E-002;2.164787438232452E-004;-1.758425030857325E-003;
2.403833333333334E+009;1.729669421911240E-001;4.856479167938232E-002;1.909931452246383E-004;-1.737581565976143E-003;
2.404000000000000E+009;1.743932813405991E-001;4.688068479299545E-002;2.059663383988664E-004;-1.863870304077864E-003;
2.404166666666667E+009;1.762779057025909E-001;4.533677548170090E-002;5.884261918254197E-005;-1.728009083308280E-003;
2.404333333333334E+009;1.778538525104523E-001;4.381175711750984E-002;1.077462220564485E-004;-1.661618123762310E-003;
2.404500000000000E+009;1.794896721839905E-001;4.242096096277237E-002;3.237423243263038E-006;-1.880969968624413E-003;
2.404666666666667E+009;1.810089498758316E-001;4.132279381155968E-002;8.402521780226380E-005;-1.951153157278895E-003;
2.404833333333334E+009;1.827833056449890E-001;4.031587764620781E-002;1.445857924409211E-004;-2.019241917878389E-003;
2.405000000000000E+009;1.840917617082596E-001;3.950059041380882E-002;-3.046437814191449E-005;-2.175610279664397E-003;
2.405166666666667E+009;1.856240630149841E-001;3.876749426126480E-002;-9.392553329234943E-005;-2.049793023616076E-003;
2.405333333333334E+009;1.870349794626236E-001;3.835329040884972E-002;-5.743397923652083E-005;-2.188464161008596E-003;
2.405500000000000E+009;1.884127408266068E-001;3.786579892039299E-002;-1.750560622895137E-004;-2.339441096410155E-003;
2.405666666666667E+009;1.896134912967682E-001;3.747491911053658E-002;-1.327184872934595E-004;-2.388697583228350E-003;
2.405833333333334E+009;1.908469498157501E-001;3.720579296350479E-002;-1.933984312927350E-004;-2.328316215425730E-003;
2.406000000000000E+009;1.917888075113297E-001;3.701275959610939E-002;-3.894063702318817E-004;-2.352064242586494E-003;
2.406166666666667E+009;1.927363127470017E-001;3.678562864661217E-002;-4.551984020508826E-004;-2.349036280065775E-003;
2.406333333333334E+009;1.938132941722870E-001;3.700440376996994E-002;-5.084453732706606E-004;-2.497530775144696E-003;
2.406500000000000E+009;1.943963319063187E-001;3.698459640145302E-002;-6.769988103769720E-004;-2.406529150903225E-003;
2.406666666666667E+009;1.950207501649857E-001;3.705136850476265E-002;-8.267692173831165E-004;-2.606993773952127E-003;
2.406833333333334E+009;1.955406814813614E-001;3.704262897372246E-002;-7.506150868721306E-004;-2.584762405604124E-003;
2.407000000000000E+009;1.957803219556809E-001;3.727290034294128E-002;-1.004295423626900E-003;-2.633543452247977E-003;
2.407166666666667E+009;1.961201727390289E-001;3.708193451166153E-002;-1.048567472025752E-003;-2.591989468783140E-003;
2.407333333333334E+009;1.960503906011581E-001;3.725937381386757E-002;-1.505867694504559E-003;-2.695623319596052E-003;
2.407500000000000E+009;1.958782076835632E-001;3.727638721466065E-002;-1.315801870077848E-003;-2.619950566440821E-003;
2.407666666666667E+009;1.959387809038162E-001;3.732452169060707E-002;-1.301398035138845E-003;-2.551566576585174E-003;
2.407833333333334E+009;1.954630166292191E-001;3.732246905565262E-002;-1.407504081726074E-003;-2.548807533457875E-003;
2.408000000000000E+009;1.953649371862412E-001;3.726337105035782E-002;-1.595131237991154E-003;-2.485237317159772E-003;
2.408166666666667E+009;1.947136372327805E-001;3.694342076778412E-002;-1.774258911609650E-003;-2.547593554481864E-003;
2.408333333333334E+009;1.942593157291412E-001;3.641100972890854E-002;-1.868154504336417E-003;-2.606634981930256E-003;
2.408500000000000E+009;1.935315728187561E-001;3.614298254251480E-002;-1.806555548682809E-003;-2.470545005053282E-003;
2.408666666666667E+009;1.928352862596512E-001;3.567352518439293E-002;-1.985752023756504E-003;-2.470592968165875E-003;
2.408833333333334E+009;1.921477764844894E-001;3.485841304063797E-002;-2.159200841560960E-003;-2.430678112432361E-003;
2.409000000000000E+009;1.910638511180878E-001;3.417520597577095E-002;-2.170756692066789E-003;-2.451301319524646E-003;
2.409166666666667E+009;1.902542710304260E-001;3.317799791693687E-002;-2.292782766744494E-003;-2.355511765927076E-003;
2.409333333333334E+009;1.893377602100372E-001;3.217987716197968E-002;-2.448789542540908E-003;-2.292089629918337E-003;
2.409500000000000E+009;1.880951076745987E-001;3.090688772499561E-002;-2.425266662612557E-003;-2.236632863059640E-003;
2.409666666666667E+009;1.871167719364166E-001;2.946065552532673E-002;-2.551212906837463E-003;-2.149932552129030E-003;
2.409833333333334E+009;1.859919428825378E-001;2.805636823177338E-002;-2.670784713700414E-003;-2.063349820673466E-003;
2.410000000000000E+009;1.850237697362900E-001;2.645332925021648E-002;-2.764768665656447E-003;-2.032659947872162E-003;
2.410166666666667E+009;1.840941458940506E-001;2.457336895167828E-002;-2.841614885255694E-003;-1.995959784835577E-003;
2.410333333333334E+009;1.831230372190476E-001;2.284375205636025E-002;-2.922416431829333E-003;-1.738305087201297E-003;
2.410500000000000E+009;1.821797639131546E-001;2.087794616818428E-002;-3.049196675419807E-003;-1.658445340581238E-003;
2.410666666666667E+009;1.811513751745224E-001;1.868178136646748E-002;-3.189247334375978E-003;-1.648941542953253E-003;
2.410833333333334E+009;1.805327385663986E-001;1.644853129982948E-002;-3.181852400302887E-003;-1.627972815185785E-003;
2.411000000000000E+009;1.797134131193161E-001;1.428624615073204E-002;-3.203075146302581E-003;-1.660886104218662E-003;
2.411166666666667E+009;1.791765391826630E-001;1.216513477265835E-002;-3.175786463543773E-003;-1.317788497544825E-003;
2.411333333333334E+009;1.786865144968033E-001;9.453805163502693E-003;-3.314965870231390E-003;-1.417862367816269E-003;
2.411500000000000E+009;1.781550645828247E-001;7.276919670403004E-003;-3.260385477915406E-003;-1.136774779297411E-003;
2.411666666666667E+009;1.779620349407196E-001;4.925943911075592E-003;-3.418526612222195E-003;-1.024227822199464E-003;
2.411833333333334E+009;1.775960773229599E-001;2.550927922129631E-003;-3.457280108705163E-003;-1.129176234826446E-003;
2.412000000000000E+009;1.778747439384460E-001;-1.767906796885654E-004;-3.444608766585589E-003;-1.008228980936110E-003;
2.412166666666667E+009;1.778865009546280E-001;-2.408506115898490E-003;-3.485359251499176E-003;-9.659090428613126E-004;
2.412333333333334E+009;1.780454218387604E-001;-4.841169808059931E-003;-3.645400982350111E-003;-8.744925144128501E-004;
2.412500000000000E+009;1.786111295223236E-001;-7.387433201074600E-003;-3.666202072054148E-003;-9.170758421532810E-004;
2.412666666666667E+009;1.789926737546921E-001;-9.779041633009911E-003;-3.694329410791397E-003;-6.978152669034898E-004;
2.412833333333334E+009;1.797608137130737E-001;-1.227166131138802E-002;-3.810888621956110E-003;-5.127125186845660E-004;
2.413000000000000E+009;1.805984079837799E-001;-1.448255684226751E-002;-4.045272246003151E-003;-5.462950211949647E-004;
2.413166666666667E+009;1.813788563013077E-001;-1.683154329657555E-002;-4.072031006217003E-003;-4.268488846719265E-004;
2.413333333333334E+009;1.824371665716171E-001;-1.901893690228462E-002;-4.223387688398361E-003;-1.875165326055139E-004;
2.413500000000000E+009;1.833310276269913E-001;-2.140709199011326E-002;-4.301779903471470E-003;-1.988032454391941E-004;
2.413666666666667E+009;1.845848560333252E-001;-2.358400262892246E-002;-4.492703359574080E-003;1.764959160936996E-004;
2.413833333333334E+009;1.856320351362228E-001;-2.556225657463074E-002;-4.522340837866068E-003;4.553999460767955E-004;
2.414000000000000E+009;1.867657303810120E-001;-2.747114934027195E-002;-4.393085371702910E-003;6.277935463003814E-004;
2.414166666666667E+009;1.881090849637985E-001;-2.921681664884090E-002;-4.602760542184115E-003;9.603315847925842E-004;
2.414333333333334E+009;1.891366690397263E-001;-3.117983229458332E-002;-4.427386913448572E-003;1.133772311732173E-003;
2.414500000000000E+009;1.906219273805618E-001;-3.268333151936531E-002;-4.484791308641434E-003;1.339303096756339E-003;
2.414666666666667E+009;1.916305422782898E-001;-3.409296274185181E-002;-4.460177384316921E-003;1.654469524510205E-003;
2.414833333333334E+009;1.930363178253174E-001;-3.550577908754349E-002;-4.352260846644640E-003;1.980216009542346E-003;
2.415000000000000E+009;1.940891742706299E-001;-3.671802952885628E-002;-4.199673887342215E-003;2.218079986050725E-003;
2.415166666666667E+009;1.952878087759018E-001;-3.790018707513809E-002;-4.061675164848566E-003;2.317270031198859E-003;
2.415333333333334E+009;1.964010596275330E-001;-3.884641826152802E-002;-4.072475712746382E-003;2.427450148388743E-003;
2.415500000000000E+009;1.976420581340790E-001;-3.958503156900406E-002;-3.780245548114181E-003;2.744565717875958E-003;
2.415666666666667E+009;1.986249685287476E-001;-4.024193063378334E-002;-3.490692237392068E-003;2.818768145516515E-003;
2.415833333333334E+009;1.994877755641937E-001;-4.097673669457436E-002;-3.431858262047172E-003;3.146249800920487E-003;
2.416000000000000E+009;2.002602517604828E-001;-4.162921383976936E-002;-3.135247621685267E-003;3.090422134846449E-003;
2.416166666666667E+009;2.010344117879868E-001;-4.216930270195007E-002;-3.029772080481052E-003;3.278973046690226E-003;
2.416333333333334E+009;2.016055583953857E-001;-4.235323518514633E-002;-2.963389735668898E-003;3.436776576563716E-003;
2.416500000000000E+009;2.021425813436508E-001;-4.259045422077179E-002;-2.521451329812408E-003;3.542938036844134E-003;
2.416666666666667E+009;2.025007456541061E-001;-4.293166100978851E-002;-2.257010666653514E-003;3.444975242018700E-003;
2.416833333333334E+009;2.027390003204346E-001;-4.281276091933250E-002;-2.088382374495268E-003;3.516304073855281E-003;
2.417000000000000E+009;2.027434408664703E-001;-4.303774610161781E-002;-1.935872249305248E-003;3.502637846395373E-003;
2.417166666666667E+009;2.024756520986557E-001;-4.284711182117462E-002;-1.720738247968257E-003;3.536488162353635E-003;
2.417333333333334E+009;2.023127526044846E-001;-4.271127283573151E-002;-1.742088119499385E-003;3.517196513712406E-003;
2.417500000000000E+009;2.020437568426132E-001;-4.270741716027260E-002;-1.667040865868330E-003;3.417760599404573E-003;
2.417666666666667E+009;2.014526575803757E-001;-4.247761517763138E-002;-1.361929345875979E-003;3.486716188490391E-003;
2.417833333333334E+009;2.011374533176422E-001;-4.221663251519203E-002;-1.337040914222598E-003;3.532156348228455E-003;
2.418000000000000E+009;2.004056870937347E-001;-4.195586964488030E-002;-1.139393541961908E-003;3.471843432635069E-003;
2.418166666666667E+009;1.995353251695633E-001;-4.195447266101837E-002;-1.056144014000893E-003;3.490929026156664E-003;
2.418333333333334E+009;1.986276209354401E-001;-4.175870493054390E-002;-9.593982249498367E-004;3.452023258432746E-003;
2.418500000000000E+009;1.977135390043259E-001;-4.165094718337059E-002;-7.204241701401770E-004;3.275511786341667E-003;
2.418666666666667E+009;1.967590004205704E-001;-4.162824898958206E-002;-6.078837905079126E-004;3.273189766332507E-003;
2.418833333333334E+009;1.955232173204422E-001;-4.186628386378288E-002;-5.452099139802158E-004;3.372195642441511E-003;
2.419000000000000E+009;1.942489594221115E-001;-4.201876744627953E-002;-4.480718926060945E-004;3.204375039786100E-003;
2.419166666666667E+009;1.928651779890060E-001;-4.219361394643784E-002;-2.877648221328855E-004;3.121995367109776E-003;
2.419333333333334E+009;1.915481984615326E-001;-4.280899837613106E-002;-5.454525307868607E-005;2.922084648162127E-003;
2.419500000000000E+009;1.899641752243042E-001;-4.315537214279175E-002;-3.956200453103520E-005;2.744966652244330E-003;
2.419666666666667E+009;1.884218156337738E-001;-4.406957328319550E-002;-3.523399573168717E-005;2.625180874019861E-003;
2.419833333333334E+009;1.866977959871292E-001;-4.469354078173637E-002;-1.361934409942478E-004;2.349754562601447E-003;
2.420000000000000E+009;1.851471811532974E-001;-4.550463706254959E-002;-1.594157220097259E-004;2.346876543015242E-003;
2.420166666666667E+009;1.836405396461487E-001;-4.654685035347939E-002;-1.885121018858627E-004;2.055642427876592E-003;
2.420333333333334E+009;1.819308549165726E-001;-4.778218269348145E-002;-4.178836243227124E-004;2.060829661786556E-003;
2.420500000000000E+009;1.802262514829636E-001;-4.916767030954361E-002;-4.801398026756942E-004;1.851806533522904E-003;
2.420666666666667E+009;1.787039786577225E-001;-5.005294457077980E-002;-6.615112652070820E-004;1.985182287171483E-003;
2.420833333333334E+009;1.769477277994156E-001;-5.173326283693314E-002;-5.856983480043709E-004;1.909550977870822E-003;
2.421000000000000E+009;1.755032241344452E-001;-5.338425189256668E-002;-8.142917067743838E-004;2.134781097993255E-003;
2.421166666666667E+009;1.741380244493485E-001;-5.504874140024185E-002;-1.082027330994606E-003;2.156520728021860E-003;
2.421333333333334E+009;1.724648922681809E-001;-5.650744587182999E-002;-1.100247725844383E-003;2.323341090232134E-003;
2.421500000000000E+009;1.710309386253357E-001;-5.863416567444801E-002;-1.231652102433145E-003;2.406175713986158E-003;
2.421666666666667E+009;1.700193285942078E-001;-6.031426414847374E-002;-1.116715138778091E-003;2.700178185477853E-003;
2.421833333333334E+009;1.687742471694946E-001;-6.224533542990685E-002;-1.174082979559898E-003;2.950396621599793E-003;
2.422000000000000E+009;1.676464825868607E-001;-6.419426947832108E-002;-1.186340115964413E-003;3.000037046149373E-003;
2.422166666666667E+009;1.667880862951279E-001;-6.644038110971451E-002;-1.065493910573423E-003;3.202385734766722E-003;
2.422333333333334E+009;1.657974570989609E-001;-6.839999556541443E-002;-8.785486570559442E-004;3.382176626473665E-003;
2.422500000000000E+009;1.649791449308395E-001;-7.036304473876953E-002;-9.995987638831139E-004;3.495644312351942E-003;
2.422666666666667E+009;1.645654737949371E-001;-7.236973196268082E-002;-7.896263268776238E-004;3.585543483495712E-003;
2.422833333333334E+009;1.639033257961273E-001;-7.446474581956863E-002;-6.360443076118827E-004;3.721484215930104E-003;
2.423000000000000E+009;1.634999960660934E-001;-7.654877752065659E-002;-3.671712183859199E-004;3.942094277590513E-003;
2.423166666666667E+009;1.631740480661392E-001;-7.861470431089401E-002;-2.240588510176167E-004;3.929541446268559E-003;
2.423333333333334E+009;1.629127413034439E-001;-8.062795549631119E-002;-1.027005346259102E-004;4.038641229271889E-003;
2.423500000000000E+009;1.627909541130066E-001;-8.249704539775848E-002;8.505246114509646E-006;4.051582887768745E-003;
2.423666666666667E+009;1.629196405410767E-001;-8.438149094581604E-002;6.165514787426218E-005;4.038382787257433E-003;
2.423833333333334E+009;1.627155095338821E-001;-8.605462312698364E-002;2.577782433945686E-004;4.166796337813139E-003;
2.424000000000000E+009;1.629227399826050E-001;-8.810035884380341E-002;3.306709404569119E-004;4.201624542474747E-003;
2.424166666666667E+009;1.629805415868759E-001;-8.957335352897644E-002;4.796007997356355E-004;4.113873932510614E-003;
2.424333333333334E+009;1.633130311965942E-001;-9.107881039381027E-002;6.262317765504122E-004;4.406763240695000E-003;
2.424500000000000E+009;1.636814773082733E-001;-9.292141348123550E-002;8.433322655037046E-004;4.272505175322294E-003;
2.424666666666667E+009;1.640064418315888E-001;-9.427465498447418E-002;1.142276567406952E-003;4.513210617005825E-003;
2.424833333333334E+009;1.645435839891434E-001;-9.555105865001679E-002;1.327331410720944E-003;4.410090856254101E-003;
2.425000000000000E+009;1.649623364210129E-001;-9.672137349843979E-002;1.585181918926537E-003;4.538252018392086E-003;
2.425166666666667E+009;1.652521491050720E-001;-9.786070138216019E-002;1.774090109393001E-003;4.442306701093912E-003;
2.425333333333334E+009;1.655356287956238E-001;-9.878569096326828E-002;1.934661995619535E-003;4.369803238660097E-003;
2.425500000000000E+009;1.660507917404175E-001;-9.987714886665344E-002;2.235672436654568E-003;4.481618292629719E-003;
2.425666666666667E+009;1.665479242801666E-001;-1.005618795752525E-001;2.642704639583826E-003;4.326624795794487E-003;
2.425833333333334E+009;1.667332798242569E-001;-1.013320609927177E-001;2.721638884395361E-003;4.281865432858467E-003;
2.426000000000000E+009;1.671189665794373E-001;-1.016334965825081E-001;3.016351489350200E-003;4.069625865668058E-003;
2.426166666666667E+009;1.675866693258286E-001;-1.022048592567444E-001;3.384813433513045E-003;4.055182449519634E-003;
2.426333333333334E+009;1.676562875509262E-001;-1.028104647994041E-001;3.629546146839857E-003;3.742984263226390E-003;
2.426500000000000E+009;1.680619418621063E-001;-1.029885262250900E-001;3.769468516111374E-003;3.538966644555330E-003;
2.426666666666667E+009;1.683074533939362E-001;-1.033508405089378E-001;3.936405759304762E-003;3.305018646642566E-003;
2.426833333333334E+009;1.686385571956635E-001;-1.034879386425018E-001;4.042848013341427E-003;3.260945901274681E-003;
2.427000000000000E+009;1.685400903224945E-001;-1.037464588880539E-001;3.967753611505032E-003;2.957100979983807E-003;
2.427166666666667E+009;1.686163842678070E-001;-1.037947088479996E-001;4.243687260895968E-003;2.650827867910266E-003;
2.427333333333334E+009;1.684512048959732E-001;-1.039657816290855E-001;4.181213211268187E-003;2.519563771784306E-003;
2.427500000000000E+009;1.681870818138123E-001;-1.041461527347565E-001;4.497440066188574E-003;2.210547216236591E-003;
2.427666666666667E+009;1.678676754236221E-001;-1.042309850454330E-001;4.461260046809912E-003;1.981640700250864E-003;
