# Version 1.00
#
freq[Hz];re:Trc1_S11;im:Trc1_S11;re:Trc2_S21;im:Trc2_S21;
2.400000000000000E+009;1.557136178016663E-001;1.062766462564468E-001;-1.215917756780982E-003;-1.979949418455362E-003;
2.400166666666667E+009;1.551246196031570E-001;1.043028235435486E-001;-1.276591443456709E-003;-1.840379205532372E-003;
2.400333333333334E+009;1.553795039653778E-001;1.018219217658043E-001;-1.339721493422985E-003;-1.595517504028976E-003;
2.400500000000000E+009;1.551196277141571E-001;9.897540509700775E-002;-1.229076064191759E-003;-1.332469517365098E-003;
2.400666666666667E+009;1.553443670272827E-001;9.650138020515442E-002;-1.326779718510807E-003;-1.067232573404908E-003;
2.400833333333334E+009;1.552502214908600E-001;9.355988353490830E-002;-1.139096100814641E-003;-9.086301433853805E-004;
2.401000000000000E+009;1.554204523563385E-001;9.070209413766861E-002;-9.563605417497456E-004;-6.600347696803510E-004;
2.401166666666667E+009;1.555555015802383E-001;8.791724592447281E-002;-7.155408384278417E-004;-5.156505503691733E-004;
2.401333333333334E+009;1.559911668300629E-001;8.507829904556274E-002;-4.886912647634745E-004;-5.552133079618216E-004;
2.401500000000000E+009;1.563007980585098E-001;8.222614973783493E-002;-2.668770321179181E-004;-4.703149024862796E-004;
2.401666666666667E+009;1.567583829164505E-001;7.922001183032990E-002;-2.282072091475129E-004;-3.227977140340954E-004;
2.401833333333334E+009;1.573572605848312E-001;7.641396671533585E-002;2.346476539969444E-004;-4.664651060011238E-004;
2.402000000000000E+009;1.580254286527634E-001;7.361795008182526E-002;3.880767035298049E-004;-6.146772066131234E-004;
2.402166666666667E+009;1.587571799755096E-001;7.111684232950211E-002;4.546417912933976E-004;-8.377836202271283E-004;
2.402333333333334E+009;1.596375554800034E-001;6.819310039281845E-002;3.227450943086296E-004;-9.342727717012167E-004;
2.402500000000000E+009;1.607711464166641E-001;6.576515734195709E-002;4.746018967125565E-004;-1.009514438919723E-003;
2.402666666666667E+009;1.618628352880478E-001;6.331944465637207E-002;5.887588486075401E-004;-1.286936458200216E-003;
2.402833333333334E+009;1.632886528968811E-001;6.091411039233208E-002;5.993425729684532E-004;-1.384991221129894E-003;
2.403000000000000E+009;1.646521836519241E-001;5.849748849868774E-002;3.433027304708958E-004;-1.483494532294571E-003;
2.403166666666667E+009;1.662724167108536E-001;5.634255334734917E-002;3.687817952595651E-004;-1.688911113888025E-003;
2.403333333333334E+009;1.676032990217209E-001;5.403394997119904E-002;4.208759637549520E-004;-1.732671866193414E-003;
2.403500000000000E+009;1.693619340658188E-001;5.195103585720062E-002;1.313150569330901E-004;-1.720651634968817E-003;
2.403666666666667E+009;1.711984872817993E-001;5.004719644784927E-002;2.340310020372272E-004;-1.659738598391414E-003;
2.403833333333334E+009;1.732248961925507E-001;4.772859811782837E-002;1.880754483863711E-003;-1.868429593741894E-003;
2.404000000000000E+009;1.749298274517059E-001;4.680366814136505E-002;5.974055384285748E-004;-3.689833829412237E-005;
2.404166666666667E+009;1.758226603269577E-001;4.490298405289650E-002;-6.818610127083957E-004;-2.224358962848783E-003;
2.404333333333334E+009;1.777674108743668E-001;4.351692274212837E-002;1.146353406511480E-005;-1.915300497785211E-003;
2.404500000000000E+009;1.792798489332199E-001;4.186825826764107E-002;1.786412576620933E-005;-1.875051530078054E-003;
2.404666666666667E+009;1.809373050928116E-001;4.089990630745888E-002;-4.571141835185699E-005;-1.881286385469139E-003;
2.404833333333334E+009;1.826503574848175E-001;3.976632282137871E-002;1.286047045141459E-004;-2.002921188250184E-003;
2.405000000000000E+009;1.840067207813263E-001;3.919377177953720E-002;-4.174538116785698E-005;-1.930803526192904E-003;
2.405166666666667E+009;1.853508800268173E-001;3.842259943485260E-002;-1.477144542150199E-004;-2.228332217782736E-003;
2.405333333333334E+009;1.868351697921753E-001;3.789650648832321E-002;-1.433773140888661E-004;-2.129253232851625E-003;
2.405500000000000E+009;1.881204992532730E-001;3.736670687794685E-002;-8.199617877835408E-005;-2.174901776015759E-003;
2.405666666666667E+009;1.894046068191528E-001;3.693559393286705E-002;-5.102638533571735E-005;-2.447732258588076E-003;
2.405833333333334E+009;1.906279325485230E-001;3.664601594209671E-002;3.403958180570044E-005;-2.983517479151487E-003;
2.406000000000000E+009;1.914341300725937E-001;3.703975304961205E-002;-1.305376994423568E-003;-2.166015794500709E-003;
2.406166666666667E+009;1.926363855600357E-001;3.662938624620438E-002;-8.421782986260951E-004;-2.018892671912909E-003;
2.406333333333334E+009;1.930546462535858E-001;3.687889873981476E-002;-1.764765125699341E-003;-2.719430020079017E-003;
2.406500000000000E+009;1.939682215452194E-001;3.704197332262993E-002;-1.974747981876135E-003;-1.971555175259709E-003;
2.406666666666667E+009;1.946836411952972E-001;3.617123514413834E-002;3.327254671603441E-004;-3.715690691024065E-003;
2.406833333333334E+009;1.952911615371704E-001;3.669307380914688E-002;-9.734251070767641E-004;-2.680011093616486E-003;
2.407000000000000E+009;1.954868733882904E-001;3.684780746698380E-002;-8.149432251229882E-004;-2.610890660434961E-003;
2.407166666666667E+009;1.958717256784439E-001;3.676657378673554E-002;-1.159284263849258E-003;-2.534833969548345E-003;
2.407333333333334E+009;1.956833153963089E-001;3.700079768896103E-002;-1.065696473233402E-003;-2.491534221917391E-003;
2.407500000000000E+009;1.956423819065094E-001;3.707563132047653E-002;-1.237794756889343E-003;-2.685661660507321E-003;
2.407666666666667E+009;1.956135779619217E-001;3.701314702630043E-002;-1.478739548474550E-003;-2.570750424638391E-003;
2.407833333333334E+009;1.952733844518662E-001;3.720672056078911E-002;-1.179737038910389E-003;-3.434366779401898E-003;
2.408000000000000E+009;1.950294971466065E-001;3.691715374588966E-002;-1.291945925913751E-003;-2.340910723432899E-003;
2.408166666666667E+009;1.940393298864365E-001;3.674646839499474E-002;-9.772133780643344E-004;-1.344640157185495E-003;
2.408333333333334E+009;1.939948648214340E-001;3.616716340184212E-002;-2.052577910944820E-003;-2.820561174303293E-003;
2.408500000000000E+009;1.929136514663696E-001;3.582245111465454E-002;-1.911581726744771E-003;-1.390861696563661E-003;
2.408666666666667E+009;1.925525814294815E-001;3.545379638671875E-002;-2.009002491831780E-003;-2.617509337142110E-003;
2.408833333333334E+009;1.916236728429794E-001;3.483277559280396E-002;-1.962103880941868E-003;-1.785220112651587E-003;
2.409000000000000E+009;1.907539367675781E-001;3.380011394619942E-002;-2.561610890552402E-003;-2.293296623975039E-003;
2.409166666666667E+009;1.899943500757217E-001;3.294333070516586E-002;-2.611543517559767E-003;-2.845440292730928E-003;
2.409333333333334E+009;1.887518167495728E-001;3.213803842663765E-002;-1.889888430014253E-003;-1.902450807392597E-003;
2.409500000000000E+009;1.878606379032135E-001;3.084198385477066E-002;-2.503799507394433E-003;-2.161960350349546E-003;
2.409666666666667E+009;1.866511702537537E-001;2.946395054459572E-002;-2.609113231301308E-003;-2.318875631317496E-003;
2.409833333333334E+009;1.855617910623550E-001;2.788059599697590E-002;-2.631195588037372E-003;-2.169406274333596E-003;
2.410000000000000E+009;1.846422106027603E-001;2.645992487668991E-002;-2.717021154239774E-003;-2.149087609723210E-003;
2.410166666666667E+009;1.836833953857422E-001;2.467280440032482E-002;-2.944070613011718E-003;-1.930360449478030E-003;
2.410333333333334E+009;1.825164854526520E-001;2.285695262253285E-002;-3.029846120625734E-003;-1.799594378098846E-003;
2.410500000000000E+009;1.817014068365097E-001;2.097084186971188E-002;-3.208295674994588E-003;-1.768687972798944E-003;
2.410666666666667E+009;1.807617247104645E-001;1.855274103581905E-002;-3.239823738113046E-003;-1.636088360100985E-003;
2.410833333333334E+009;1.801245063543320E-001;1.655302196741104E-002;-3.205256303772330E-003;-1.558670192025602E-003;
2.411000000000000E+009;1.792890131473541E-001;1.445745397359133E-002;-3.257423406466842E-003;-1.389584504067898E-003;
2.411166666666667E+009;1.785634309053421E-001;1.213368680328131E-002;-3.411138895899057E-003;-1.235863775946200E-003;
2.411333333333334E+009;1.781848371028900E-001;9.792950935661793E-003;-3.205936402082443E-003;-1.224951352924109E-003;
2.411500000000000E+009;1.777181476354599E-001;7.451756857335568E-003;-3.367427969351411E-003;-1.245751511305571E-003;
2.411666666666667E+009;1.776312142610550E-001;4.973846022039652E-003;-3.291003406047821E-003;-1.021971460431814E-003;
2.411833333333334E+009;1.773608177900314E-001;2.529170829802752E-003;-3.360572503879666E-003;-1.030510175041854E-003;
2.412000000000000E+009;1.774498224258423E-001;4.948681817040779E-005;-3.340097609907389E-003;-9.712169412523508E-004;
2.412166666666667E+009;1.775626540184021E-001;-2.290246542543173E-003;-3.659221576526761E-003;-8.031911565922201E-004;
2.412333333333334E+009;1.776531338691711E-001;-4.617732949554920E-003;-3.427579766139388E-003;-9.281772654503584E-004;
2.412500000000000E+009;1.782278120517731E-001;-7.177050225436688E-003;-3.758298698812723E-003;-7.279782439582050E-004;
2.412666666666667E+009;1.787685751914978E-001;-9.696542285382748E-003;-3.636598354205489E-003;-7.556254277005792E-004;
2.412833333333334E+009;1.794989258050919E-001;-1.193106267601252E-002;-4.016394726932049E-003;-6.062858738005161E-004;
2.413000000000000E+009;1.800484508275986E-001;-1.431797072291374E-002;-3.991199657320976E-003;-4.091207229066640E-004;
2.413166666666667E+009;1.811779737472534E-001;-1.662491075694561E-002;-4.226592835038900E-003;-3.364564036019146E-004;
2.413333333333334E+009;1.819898188114166E-001;-1.900268904864788E-002;-4.268454387784004E-003;-1.865761296357960E-004;
2.413500000000000E+009;1.828767955303192E-001;-2.120555005967617E-002;-4.400095902383328E-003;-6.809596379753202E-005;
2.413666666666667E+009;1.842031627893448E-001;-2.342618815600872E-002;-4.473542328923941E-003;1.604060089448467E-004;
2.413833333333334E+009;1.851956397294998E-001;-2.526449784636498E-002;-4.620906431227922E-003;4.351659736130387E-004;
2.414000000000000E+009;1.864606291055679E-001;-2.744055353105068E-002;-4.453915636986494E-003;7.487948751077056E-004;
2.414166666666667E+009;1.877898722887039E-001;-2.911773510277271E-002;-4.628035705536604E-003;8.965265587903559E-004;
2.414333333333334E+009;1.887237429618835E-001;-3.092181496322155E-002;-4.630455747246742E-003;1.294874236918986E-003;
2.414500000000000E+009;1.902664303779602E-001;-3.235177695751190E-002;-4.472048021852970E-003;1.415226957760751E-003;
2.414666666666667E+009;1.913336664438248E-001;-3.393584489822388E-002;-4.385011270642281E-003;1.656689681112766E-003;
2.414833333333334E+009;1.926531344652176E-001;-3.521330654621124E-002;-4.290396347641945E-003;1.887199818156660E-003;
2.415000000000000E+009;1.938076466321945E-001;-3.655348718166351E-002;-4.146591760218144E-003;2.231269609183073E-003;
2.415166666666667E+009;1.950383931398392E-001;-3.768807277083397E-002;-4.139470867812634E-003;2.290792763233185E-003;
2.415333333333334E+009;1.961870938539505E-001;-3.856361284852028E-002;-3.913155756890774E-003;2.587433205917478E-003;
2.415500000000000E+009;1.973374038934708E-001;-3.929397463798523E-002;-3.721882589161396E-003;2.766036894172430E-003;
2.415666666666667E+009;1.984304934740067E-001;-4.007784277200699E-002;-3.518831916153431E-003;2.874949481338263E-003;
2.415833333333334E+009;1.993058919906616E-001;-4.076396673917770E-002;-3.440479515120387E-003;2.991145709529519E-003;
2.416000000000000E+009;2.000617533922195E-001;-4.129822924733162E-002;-3.310133470222354E-003;3.336550900712609E-003;
2.416166666666667E+009;2.008298188447952E-001;-4.183495417237282E-002;-2.839018125087023E-003;3.282754682004452E-003;
2.416333333333334E+009;2.014845162630081E-001;-4.207824543118477E-002;-2.669074805453420E-003;3.329544793814421E-003;
2.416500000000000E+009;2.019586861133575E-001;-4.232930764555931E-002;-2.522889990359545E-003;3.480040002614260E-003;
2.416666666666667E+009;2.023725360631943E-001;-4.258813336491585E-002;-2.369544701650739E-003;3.343074582517147E-003;
2.416833333333334E+009;2.024664729833603E-001;-4.270521178841591E-002;-2.093316754326224E-003;3.632751526311040E-003;
2.417000000000000E+009;2.025204896926880E-001;-4.274312406778336E-002;-1.902469084598124E-003;3.560336073860526E-003;
2.417166666666667E+009;2.023683339357376E-001;-4.269318282604218E-002;-1.791569171473384E-003;3.431654302403331E-003;
2.417333333333334E+009;2.020907849073410E-001;-4.239487275481224E-002;-1.687156152911484E-003;3.397489199414849E-003;
2.417500000000000E+009;2.018479108810425E-001;-4.243049025535584E-002;-1.591870561242104E-003;3.482103347778320E-003;
2.417666666666667E+009;2.013084590435028E-001;-4.222124442458153E-002;-1.331495470367372E-003;3.389954101294279E-003;
2.417833333333334E+009;2.009348571300507E-001;-4.192387685179710E-002;-1.292705419473350E-003;3.637211630120874E-003;
2.418000000000000E+009;2.003297060728073E-001;-4.169652983546257E-002;-1.218548743054271E-003;3.376145847141743E-003;
2.418166666666667E+009;1.995138078927994E-001;-4.145791754126549E-002;-9.606569074094296E-004;3.284763311967254E-003;
2.418333333333334E+009;1.985863894224167E-001;-4.143771529197693E-002;-7.255483069457114E-004;3.389850025996566E-003;
2.418500000000000E+009;1.975302994251251E-001;-4.151220247149468E-002;-6.430859211832285E-004;3.435825929045677E-003;
2.418666666666667E+009;1.966798752546310E-001;-4.132021591067314E-002;-5.757910548709333E-004;3.329538740217686E-003;
2.418833333333334E+009;1.955328732728958E-001;-4.163053259253502E-002;-4.465394304133952E-004;3.168051363900304E-003;
2.419000000000000E+009;1.941317319869995E-001;-4.172326996922493E-002;-3.126304945908487E-004;3.056080546230078E-003;
2.419166666666667E+009;1.928769201040268E-001;-4.195928201079369E-002;-1.335012784693390E-004;2.926054177805781E-003;
2.419333333333334E+009;1.914620846509934E-001;-4.260313883423805E-002;1.374157436657697E-004;2.749042818322778E-003;
2.419500000000000E+009;1.899015307426453E-001;-4.304950684309006E-002;4.418496246216819E-005;2.731295768171549E-003;
2.419666666666667E+009;1.884312331676483E-001;-4.380727559328079E-002;4.146887658862397E-005;2.525019459426403E-003;
2.419833333333334E+009;1.866524666547775E-001;-4.450448602437973E-002;-7.164133421611041E-005;2.362011699005961E-003;
2.420000000000000E+009;1.851488351821899E-001;-4.535874351859093E-002;-2.135939284926280E-004;2.274037338793278E-003;
2.420166666666667E+009;1.835678368806839E-001;-4.623779281973839E-002;-2.773969899863005E-004;2.152540255337954E-003;
2.420333333333334E+009;1.819270402193070E-001;-4.745689406991005E-002;-3.156476013828069E-004;2.092850161716342E-003;
2.420500000000000E+009;1.802628040313721E-001;-4.888743534684181E-002;-4.525346739683300E-004;1.879289513453841E-003;
2.420666666666667E+009;1.785734295845032E-001;-4.999769106507301E-002;-5.958621040917933E-004;1.912863575853407E-003;
2.420833333333334E+009;1.770778596401215E-001;-5.155347287654877E-002;-8.589897188358009E-004;1.961937407031655E-003;
2.421000000000000E+009;1.754781752824783E-001;-5.300135537981987E-002;-8.774174493737519E-004;2.105173887684941E-003;
2.421166666666667E+009;1.740968227386475E-001;-5.487937480211258E-002;-1.061681192368269E-003;2.089135814458132E-003;
2.421333333333334E+009;1.723383814096451E-001;-5.641034618020058E-002;-1.111589837819338E-003;2.379849785938859E-003;
2.421500000000000E+009;1.712749600410461E-001;-5.837113037705421E-002;-1.250480767339468E-003;2.493161009624600E-003;
2.421666666666667E+009;1.699093878269196E-001;-6.018748134374619E-002;-1.358925830572844E-003;2.670668764039874E-003;
2.421833333333334E+009;1.688052415847778E-001;-6.206500157713890E-002;-1.283379504457116E-003;2.896521473303437E-003;
2.422000000000000E+009;1.676836013793945E-001;-6.399307399988174E-002;-1.282041310332716E-003;2.945475513115525E-003;
2.422166666666667E+009;1.667291671037674E-001;-6.611864268779755E-002;-1.017585746012628E-003;3.247809363529086E-003;
2.422333333333334E+009;1.658260822296143E-001;-6.829499453306198E-002;-1.165635301731527E-003;3.305670805275440E-003;
2.422500000000000E+009;1.649785935878754E-001;-7.005031406879425E-002;-1.017400412820280E-003;3.551008645445108E-003;
2.422666666666667E+009;1.644141077995300E-001;-7.235746830701828E-002;-8.768241968937218E-004;3.568154526874423E-003;
2.422833333333334E+009;1.639925688505173E-001;-7.427784800529480E-002;-5.695930449292064E-004;3.739984007552266E-003;
2.423000000000000E+009;1.634356379508972E-001;-7.636768370866776E-002;-4.422886413522065E-004;3.911264706403017E-003;
2.423166666666667E+009;1.630880683660507E-001;-7.836775481700897E-002;-2.707393723540008E-004;3.867824329063296E-003;
2.423333333333334E+009;1.630746126174927E-001;-8.039194345474243E-002;-2.627763606142253E-004;3.836398012936115E-003;
2.423500000000000E+009;1.628917455673218E-001;-8.226288855075836E-002;-8.932152559282258E-005;4.155424889177084E-003;
2.423666666666667E+009;1.629773974418640E-001;-8.418708294630051E-002;6.693012983305380E-005;4.153596702963114E-003;
2.423833333333334E+009;1.628106683492661E-001;-8.597931265830994E-002;1.446523529011756E-004;4.043617751449347E-003;
2.424000000000000E+009;1.629262864589691E-001;-8.780869096517563E-002;3.032491949852556E-004;4.127696622163057E-003;
2.424166666666667E+009;1.630843281745911E-001;-8.925171941518784E-002;3.632438310887665E-004;4.306886810809374E-003;
2.424333333333334E+009;1.633117198944092E-001;-9.093854576349258E-002;6.628095870837569E-004;4.285939503461123E-003;
2.424500000000000E+009;1.636475920677185E-001;-9.261877089738846E-002;7.473730947822332E-004;4.339678678661585E-003;
2.424666666666667E+009;1.638683527708054E-001;-9.407250583171845E-002;1.087301759980619E-003;4.414339549839497E-003;
2.424833333333334E+009;1.646488308906555E-001;-9.540573507547379E-002;1.195788499899209E-003;4.554686136543751E-003;
2.425000000000000E+009;1.648872494697571E-001;-9.649385511875153E-002;1.504439860582352E-003;4.519383888691664E-003;
2.425166666666667E+009;1.651743203401566E-001;-9.758506715297699E-002;1.688440563157201E-003;4.489895887672901E-003;
2.425333333333334E+009;1.655786037445068E-001;-9.852749854326248E-002;1.949590630829334E-003;4.553198814392090E-003;
2.425500000000000E+009;1.660200953483582E-001;-9.961009025573731E-002;2.191342413425446E-003;4.466244485229254E-003;
2.425666666666667E+009;1.665447205305100E-001;-1.002210602164269E-001;2.480413299053907E-003;4.311008378863335E-003;
2.425833333333334E+009;1.668177843093872E-001;-1.010395213961601E-001;2.656140597537160E-003;4.293835721910000E-003;
2.426000000000000E+009;1.672235131263733E-001;-1.014522016048431E-001;2.951208036392927E-003;4.080520011484623E-003;
2.426166666666667E+009;1.676022112369537E-001;-1.019277274608612E-001;3.183902706950903E-003;4.089730326086283E-003;
2.426333333333334E+009;1.678059995174408E-001;-1.025208011269569E-001;3.378222463652492E-003;3.760002087801695E-003;
2.426500000000000E+009;1.681147217750549E-001;-1.027845442295075E-001;3.544688224792481E-003;3.393985331058502E-003;
2.426666666666667E+009;1.684150099754334E-001;-1.030368655920029E-001;3.849906148388982E-003;3.405491355806589E-003;
2.426833333333334E+009;1.686459332704544E-001;-1.032952293753624E-001;3.864521393552423E-003;3.233531024307013E-003;
2.427000000000000E+009;1.686257719993591E-001;-1.035635694861412E-001;4.050729796290398E-003;2.985261380672455E-003;
2.427166666666667E+009;1.687542498111725E-001;-1.035676375031471E-001;4.186552949249744E-003;2.755759749561548E-003;
2.427333333333334E+009;1.684803366661072E-001;-1.038143709301949E-001;4.152968525886536E-003;2.560092601925135E-003;
2.427500000000000E+009;1.683465987443924E-001;-1.040093526244164E-001;4.207558929920197E-003;2.424352336674929E-003;
2.427666666666667E+009;1.679735630750656E-001;-1.039166599512100E-001;4.125025589019060E-003;1.994429621845484E-003;
