# Version 1.00
#
freq[Hz];re:Trc1_S11;im:Trc1_S11;re:Trc2_S21;im:Trc2_S21;
2.400000000000000E+009;1.554304510354996E-001;1.064381897449493E-001;-1.182342180982232E-003;-2.021895721554756E-003;
2.400166666666667E+009;1.552506685256958E-001;1.040357947349548E-001;-1.281072967685759E-003;-1.975874882191420E-003;
2.400333333333334E+009;1.553646922111511E-001;1.016693413257599E-001;-1.456119818612933E-003;-1.470131566748023E-003;
2.400500000000000E+009;1.552045494318008E-001;9.895747154951096E-002;-1.387963187880814E-003;-1.261251629330218E-003;
2.400666666666667E+009;1.552670896053314E-001;9.652642160654068E-002;-1.281625591218472E-003;-1.079894718714058E-003;
2.400833333333334E+009;1.553583592176437E-001;9.366828948259354E-002;-9.069210500456393E-004;-7.997280918061733E-004;
2.401000000000000E+009;1.555051356554031E-001;9.067893773317337E-002;-9.273768519051373E-004;-5.450516473501921E-004;
2.401166666666667E+009;1.554667800664902E-001;8.844659477472305E-002;-7.680866401642561E-004;-4.797241126652807E-004;
2.401333333333334E+009;1.557865887880325E-001;8.522833138704300E-002;-5.089105688966811E-004;-4.880161141045392E-004;
2.401500000000000E+009;1.564451307058334E-001;8.242376148700714E-002;-3.579614276532084E-004;-3.165968228131533E-004;
2.401666666666667E+009;1.565561890602112E-001;7.938601076602936E-002;-2.724119112826884E-004;-4.116480704396963E-004;
2.401833333333334E+009;1.573160588741303E-001;7.655535638332367E-002;1.600642572157085E-004;-4.326532944105566E-004;
2.402000000000000E+009;1.580594927072525E-001;7.323361933231354E-002;3.944612399209291E-004;-6.235211039893329E-004;
2.402166666666667E+009;1.587528437376022E-001;7.097697257995606E-002;3.757655504159629E-004;-7.150914170779288E-004;
2.402333333333334E+009;1.594505757093430E-001;6.804243475198746E-002;5.662644398398697E-004;-7.835167925804853E-004;
2.402500000000000E+009;1.609140336513519E-001;6.575911492109299E-002;5.766735412180424E-004;-9.434411185793579E-004;
2.402666666666667E+009;1.623266190290451E-001;6.295670568943024E-002;6.579408072866499E-004;-1.239203847944737E-003;
2.402833333333334E+009;1.632715612649918E-001;6.080557778477669E-002;6.782800192013383E-004;-1.174069941043854E-003;
2.403000000000000E+009;1.645577698945999E-001;5.849145352840424E-002;4.226081364322454E-004;-1.548292813822627E-003;
2.403166666666667E+009;1.662858426570892E-001;5.630762502551079E-002;5.423534312285483E-004;-1.635573687963188E-003;
2.403333333333334E+009;1.677906364202499E-001;5.405869707465172E-002;3.786349552683532E-004;-1.703409245237708E-003;
2.403500000000000E+009;1.692908555269241E-001;5.198806524276733E-002;3.828844928648323E-004;-1.753349555656314E-003;
2.403666666666667E+009;1.712791621685028E-001;5.020290240645409E-002;1.597216323716566E-004;-1.639941125176847E-003;
2.403833333333334E+009;1.728259474039078E-001;4.827497899532318E-002;1.714472891762853E-004;-1.909871003590524E-003;
2.404000000000000E+009;1.743509024381638E-001;4.643779993057251E-002;-6.087994188419543E-005;-1.807113527320325E-003;
2.404166666666667E+009;1.759461015462875E-001;4.486465826630592E-002;4.397974771563895E-005;-1.917051966302097E-003;
2.404333333333334E+009;1.776118129491806E-001;4.351917281746864E-002;1.310839161305921E-005;-1.718810293823481E-003;
2.404500000000000E+009;1.792676150798798E-001;4.194479435682297E-002;-4.929940041620284E-005;-1.719943131320179E-003;
2.404666666666667E+009;1.808299720287323E-001;4.085050895810127E-002;-7.731973892077804E-005;-2.002180553972721E-003;
2.404833333333334E+009;1.826390624046326E-001;3.975004702806473E-002;1.623815624043346E-004;-1.824282109737396E-003;
2.405000000000000E+009;1.839451640844345E-001;3.907974436879158E-002;-1.077091728802770E-004;-2.008852548897266E-003;
2.405166666666667E+009;1.852158904075623E-001;3.847765177488327E-002;-8.334210724569857E-005;-2.065091393887997E-003;
2.405333333333334E+009;1.866969466209412E-001;3.789747878909111E-002;-4.625276778824627E-005;-2.074345480650663E-003;
2.405500000000000E+009;1.881390810012817E-001;3.745968639850617E-002;-7.857580203562975E-005;-2.240235451608896E-003;
2.405666666666667E+009;1.891576647758484E-001;3.708964586257935E-002;-1.736894337227568E-004;-2.374630188569427E-003;
2.405833333333334E+009;1.901665329933167E-001;3.646916523575783E-002;8.186625200323761E-005;-3.518097568303347E-003;
2.406000000000000E+009;1.912024468183518E-001;3.678369522094727E-002;-1.149966032244265E-003;-3.493426600471139E-003;
2.406166666666667E+009;1.921248584985733E-001;3.655740618705750E-002;-1.217329758219421E-003;-2.805618103593588E-003;
2.406333333333334E+009;1.934636831283569E-001;3.627737239003182E-002;-2.754431443463545E-005;-2.738478360697627E-003;
2.406500000000000E+009;1.942248493432999E-001;3.676476702094078E-002;-8.170597138814628E-004;-2.002440392971039E-003;
2.406666666666667E+009;1.946067065000534E-001;3.729518875479698E-002;-2.086842665448785E-003;-1.517786178737879E-003;
2.406833333333334E+009;1.950994282960892E-001;3.626826778054237E-002;-1.670222263783217E-004;-3.661467926576734E-003;
2.407000000000000E+009;1.955763101577759E-001;3.710079565644264E-002;-1.123553840443492E-003;-2.007840666919947E-003;
2.407166666666667E+009;1.957410722970963E-001;3.669602051377296E-002;-9.183941292576492E-004;-2.903493354097009E-003;
2.407333333333334E+009;1.956640034914017E-001;3.690885379910469E-002;-1.119763124734163E-003;-2.478156704455614E-003;
2.407500000000000E+009;1.955644190311432E-001;3.717580437660217E-002;-1.403683680109680E-003;-2.526554511860013E-003;
2.407666666666667E+009;1.955173760652542E-001;3.708054870367050E-002;-1.396122737787664E-003;-2.475508255884051E-003;
2.407833333333334E+009;1.950422227382660E-001;3.697143122553825E-002;-1.409379765391350E-003;-2.388419117778540E-003;
2.408000000000000E+009;1.949576288461685E-001;3.697714209556580E-002;-1.661418355070055E-003;-2.464420162141323E-003;
2.408166666666667E+009;1.942780017852783E-001;3.667272999882698E-002;-1.567720202729106E-003;-2.384399296715856E-003;
2.408333333333334E+009;1.937958151102066E-001;3.616759553551674E-002;-1.812755246646702E-003;-2.509189536795020E-003;
2.408500000000000E+009;1.932627409696579E-001;3.594075515866280E-002;-1.986188581213355E-003;-2.414791146293283E-003;
2.408666666666667E+009;1.924612671136856E-001;3.534217178821564E-002;-1.945747178979218E-003;-2.609294606372714E-003;
2.408833333333334E+009;1.917414218187332E-001;3.471133112907410E-002;-2.092584036290646E-003;-2.402182668447495E-003;
2.409000000000000E+009;1.907029449939728E-001;3.388147801160812E-002;-2.143070800229907E-003;-2.314744750037789E-003;
2.409166666666667E+009;1.898339539766312E-001;3.299254924058914E-002;-2.239853376522660E-003;-2.440618816763163E-003;
2.409333333333334E+009;1.887558996677399E-001;3.197373449802399E-002;-2.285076538100839E-003;-2.250965684652329E-003;
2.409500000000000E+009;1.878820359706879E-001;3.076082095503807E-002;-2.426072955131531E-003;-2.372652757912874E-003;
2.409666666666667E+009;1.867063641548157E-001;2.934190817177296E-002;-2.606484573334456E-003;-2.173599088564515E-003;
2.409833333333334E+009;1.855105012655258E-001;2.793086320161820E-002;-2.659140154719353E-003;-2.104127546772361E-003;
2.410000000000000E+009;1.847834438085556E-001;2.641821280121803E-002;-2.845924813300371E-003;-2.053117845207453E-003;
2.410166666666667E+009;1.836379766464233E-001;2.460740506649017E-002;-2.895332640036941E-003;-1.926149358041585E-003;
2.410333333333334E+009;1.824277788400650E-001;2.276100032031536E-002;-2.813736675307155E-003;-1.590885687619448E-003;
2.410500000000000E+009;1.816593259572983E-001;2.091091126203537E-002;-3.085589502006769E-003;-1.648789504542947E-003;
2.410666666666667E+009;1.807799935340881E-001;1.868103817105293E-002;-3.151115262880921E-003;-1.750698662362993E-003;
2.410833333333334E+009;1.800522059202194E-001;1.659755967557430E-002;-2.998898737132549E-003;-1.393847400322557E-003;
2.411000000000000E+009;1.792282164096832E-001;1.443583797663450E-002;-3.296716371551156E-003;-1.523948973044753E-003;
2.411166666666667E+009;1.786683797836304E-001;1.214660890400410E-002;-3.219030331820250E-003;-1.250513945706189E-003;
2.411333333333334E+009;1.780562251806259E-001;9.744669310748577E-003;-3.342680865898728E-003;-1.360494992695749E-003;
2.411500000000000E+009;1.776837557554245E-001;7.276633754372597E-003;-3.236850723624229E-003;-1.086377771571279E-003;
2.411666666666667E+009;1.775394827127457E-001;4.947680048644543E-003;-3.458788385614753E-003;-1.176133286207914E-003;
2.411833333333334E+009;1.772019416093826E-001;2.609776332974434E-003;-3.305672435089946E-003;-1.070194412022829E-003;
2.412000000000000E+009;1.772933453321457E-001;1.355624553980306E-004;-3.393535502254963E-003;-1.006703008897603E-003;
2.412166666666667E+009;1.775251328945160E-001;-2.330755116418004E-003;-3.471734933555126E-003;-9.732646285556257E-004;
2.412333333333334E+009;1.777046471834183E-001;-4.809719510376453E-003;-3.525317413732410E-003;-6.410313071683049E-004;
2.412500000000000E+009;1.782591044902802E-001;-7.085763383656740E-003;-3.654374042525888E-003;-8.901727851480246E-004;
2.412666666666667E+009;1.786695122718811E-001;-9.677567519247532E-003;-3.539230441674590E-003;-5.561409634537995E-004;
2.412833333333334E+009;1.793697625398636E-001;-1.200330164283514E-002;-3.937417641282082E-003;-6.601898348890245E-004;
2.413000000000000E+009;1.802251636981964E-001;-1.447064615786076E-002;-4.020665306597948E-003;-4.723063320852816E-004;
2.413166666666667E+009;1.810185611248016E-001;-1.660845801234245E-002;-4.047318361699581E-003;-2.763500087894499E-004;
2.413333333333334E+009;1.820171773433685E-001;-1.901657506823540E-002;-4.244432784616947E-003;-2.197272988269106E-004;
2.413500000000000E+009;1.830006539821625E-001;-2.114599198102951E-002;-4.286271519958973E-003;-1.381230958941160E-005;
2.413666666666667E+009;1.841858327388763E-001;-2.317165210843086E-002;-4.378856159746647E-003;2.980435965582728E-004;
2.413833333333334E+009;1.852522343397141E-001;-2.533300593495369E-002;-4.455355927348137E-003;3.935628919862211E-004;
2.414000000000000E+009;1.863635480403900E-001;-2.720766142010689E-002;-4.670425318181515E-003;5.112199578434229E-004;
2.414166666666667E+009;1.877402961254120E-001;-2.900976687669754E-002;-4.340346902608872E-003;1.035809167660773E-003;
2.414333333333334E+009;1.888321191072464E-001;-3.106500953435898E-002;-4.416013136506081E-003;1.168137532658875E-003;
2.414500000000000E+009;1.903218924999237E-001;-3.237584233283997E-002;-4.453614354133606E-003;1.545106293633580E-003;
2.414666666666667E+009;1.914312839508057E-001;-3.410122171044350E-002;-4.359503276646137E-003;1.783985993824899E-003;
2.414833333333334E+009;1.925074905157089E-001;-3.527206182479858E-002;-4.385672975331545E-003;2.121587982401252E-003;
2.415000000000000E+009;1.936867237091065E-001;-3.659870103001595E-002;-4.171957261860371E-003;2.151293912902474E-003;
2.415166666666667E+009;1.951802968978882E-001;-3.763410076498985E-002;-3.904129611328244E-003;2.365343738347292E-003;
2.415333333333334E+009;1.962169408798218E-001;-3.856721147894859E-002;-3.953748848289251E-003;2.588474191725254E-003;
2.415500000000000E+009;1.972986161708832E-001;-3.939132764935494E-002;-3.738425206393004E-003;2.706037834286690E-003;
2.415666666666667E+009;1.984158009290695E-001;-4.017855599522591E-002;-3.584179095923901E-003;3.029912011697888E-003;
2.415833333333334E+009;1.992617249488831E-001;-4.082217440009117E-002;-3.239449346438050E-003;3.081492381170392E-003;
2.416000000000000E+009;2.001569271087647E-001;-4.127406701445580E-002;-3.161256201565266E-003;3.180248895660043E-003;
2.416166666666667E+009;2.008020281791687E-001;-4.186309128999710E-002;-2.870866330340505E-003;3.370964899659157E-003;
2.416333333333334E+009;2.013794928789139E-001;-4.214667528867722E-002;-2.908954164013267E-003;3.229921683669090E-003;
2.416500000000000E+009;2.019816040992737E-001;-4.236233979463577E-002;-2.651524031534791E-003;3.484093584120274E-003;
2.416666666666667E+009;2.021876424551010E-001;-4.263216629624367E-002;-2.374272560700774E-003;3.553512971848249E-003;
2.416833333333334E+009;2.024625986814499E-001;-4.260471835732460E-002;-2.201206749305129E-003;3.455127356573939E-003;
2.417000000000000E+009;2.025370448827744E-001;-4.279140010476112E-002;-2.014315221458674E-003;3.485743422061205E-003;
2.417166666666667E+009;2.022719532251358E-001;-4.255824163556099E-002;-1.969359349459410E-003;3.521828446537256E-003;
2.417333333333334E+009;2.021638303995132E-001;-4.235587269067764E-002;-1.814278773963451E-003;3.392267972230911E-003;
2.417500000000000E+009;2.017941027879715E-001;-4.230600222945213E-002;-1.442434266209602E-003;3.396502463147044E-003;
2.417666666666667E+009;2.012603878974915E-001;-4.213644191622734E-002;-1.454374403692782E-003;3.380920505151153E-003;
2.417833333333334E+009;2.009406238794327E-001;-4.202080145478249E-002;-1.384067349135876E-003;3.475153818726540E-003;
2.418000000000000E+009;2.002823799848557E-001;-4.170213639736176E-002;-1.106926472857595E-003;3.448449075222015E-003;
2.418166666666667E+009;1.994863450527191E-001;-4.160028696060181E-002;-1.070902333594859E-003;3.466046880930662E-003;
2.418333333333334E+009;1.986098289489746E-001;-4.147159680724144E-002;-8.219934534281492E-004;3.386404132470489E-003;
2.418500000000000E+009;1.976528167724609E-001;-4.146330058574677E-002;-7.733035599812865E-004;3.372629638761282E-003;
2.418666666666667E+009;1.966559886932373E-001;-4.136338457465172E-002;-5.607185885310173E-004;3.225959371775389E-003;
2.418833333333334E+009;1.954616308212280E-001;-4.147877916693687E-002;-3.863698220811784E-004;3.179296152666211E-003;
2.419000000000000E+009;1.940346360206604E-001;-4.178989678621292E-002;-3.186873509548605E-004;3.061618190258741E-003;
2.419166666666667E+009;1.928324848413467E-001;-4.201131686568260E-002;-1.504551983089186E-005;2.929544309154153E-003;
2.419333333333334E+009;1.915514171123505E-001;-4.251781105995178E-002;-4.929643910145387E-005;2.843959722667933E-003;
2.419500000000000E+009;1.899546533823013E-001;-4.289403557777405E-002;-4.312596138333902E-005;2.653852570801973E-003;
2.419666666666667E+009;1.883694678544998E-001;-4.386444389820099E-002;-8.361775689991191E-005;2.331438241526485E-003;
2.419833333333334E+009;1.867034435272217E-001;-4.454512521624565E-002;-3.249102519475855E-005;2.298587001860142E-003;
2.420000000000000E+009;1.851682066917419E-001;-4.533324390649796E-002;2.373250026721507E-005;2.251019701361656E-003;
2.420166666666667E+009;1.835210025310516E-001;-4.621813073754311E-002;-3.146227682009339E-004;2.166770631447434E-003;
2.420333333333334E+009;1.819559186697006E-001;-4.744944348931313E-002;-3.900566371157765E-004;2.066745189949870E-003;
2.420500000000000E+009;1.802871823310852E-001;-4.885204881429672E-002;-3.837838594336063E-004;1.825532643124461E-003;
2.420666666666667E+009;1.785635352134705E-001;-5.006712302565575E-002;-7.143042748793960E-004;2.054580487310886E-003;
2.420833333333334E+009;1.771296858787537E-001;-5.149678513407707E-002;-6.570837576873601E-004;1.946196309290826E-003;
2.421000000000000E+009;1.755359172821045E-001;-5.304873362183571E-002;-8.415445336140692E-004;2.137713599950075E-003;
2.421166666666667E+009;1.741658598184586E-001;-5.481221154332161E-002;-9.429088677279651E-004;2.041900064796209E-003;
2.421333333333334E+009;1.723036170005798E-001;-5.645138025283814E-002;-1.199734513647854E-003;2.283257432281971E-003;
2.421500000000000E+009;1.711466759443283E-001;-5.827956646680832E-002;-1.229249290190637E-003;2.532262820750475E-003;
2.421666666666667E+009;1.699799001216888E-001;-6.018791347742081E-002;-1.167896669358015E-003;2.614620840176940E-003;
2.421833333333334E+009;1.687147766351700E-001;-6.210300326347351E-002;-1.324371551163495E-003;2.797255991026759E-003;
2.422000000000000E+009;1.674440950155258E-001;-6.392982602119446E-002;-1.236101612448692E-003;2.961869351565838E-003;
2.422166666666667E+009;1.668745577335358E-001;-6.606698781251907E-002;-1.065708114765585E-003;3.101010806858540E-003;
2.422333333333334E+009;1.656646281480789E-001;-6.822844594717026E-002;-8.508859318681061E-004;3.305253107100725E-003;
2.422500000000000E+009;1.650900393724442E-001;-7.009305804967880E-002;-1.059373375028372E-003;3.442538203671575E-003;
2.422666666666667E+009;1.643185764551163E-001;-7.208219170570374E-002;-8.097450481727719E-004;3.580864053219557E-003;
2.422833333333334E+009;1.639836132526398E-001;-7.432824373245239E-002;-6.832666113041341E-004;3.680030116811395E-003;
2.423000000000000E+009;1.634958684444428E-001;-7.644397765398026E-002;-6.186065729707480E-004;3.763115499168634E-003;
2.423166666666667E+009;1.631204932928085E-001;-7.824106514453888E-002;-4.033122968394309E-004;3.863832447677851E-003;
2.423333333333334E+009;1.629409044981003E-001;-8.029857277870178E-002;-3.155076701659709E-004;3.997934050858021E-003;
2.423500000000000E+009;1.628173142671585E-001;-8.231081813573837E-002;-2.343634259887040E-004;4.056453704833984E-003;
2.423666666666667E+009;1.628744900226593E-001;-8.417242020368576E-002;1.899514791148249E-005;4.079291597008705E-003;
2.423833333333334E+009;1.627814471721649E-001;-8.583605289459229E-002;1.962802052730694E-004;4.182054195553064E-003;
2.424000000000000E+009;1.630798727273941E-001;-8.763968944549561E-002;3.412911028135568E-004;4.056849516928196E-003;
2.424166666666667E+009;1.630825102329254E-001;-8.936884999275208E-002;4.439100739546120E-004;4.317612387239933E-003;
2.424333333333334E+009;1.634029299020767E-001;-9.101753681898117E-002;6.175832822918892E-004;4.313072189688683E-003;
2.424500000000000E+009;1.637142151594162E-001;-9.265656024217606E-002;8.900738321244717E-004;4.414292518049479E-003;
2.424666666666667E+009;1.639917790889740E-001;-9.401067346334457E-002;1.046567107550800E-003;4.571815952658653E-003;
2.424833333333334E+009;1.644952148199081E-001;-9.523592889308929E-002;1.235325122252107E-003;4.453597124665976E-003;
2.425000000000000E+009;1.647973805665970E-001;-9.646295011043549E-002;1.412482699379325E-003;4.574907943606377E-003;
2.425166666666667E+009;1.650583148002625E-001;-9.760641306638718E-002;1.815508818253875E-003;4.546886775642633E-003;
2.425333333333334E+009;1.655904352664948E-001;-9.857948124408722E-002;2.103929175063968E-003;4.462390206754208E-003;
2.425500000000000E+009;1.659939140081406E-001;-9.954115003347397E-002;2.169900108128786E-003;4.366708919405937E-003;
2.425666666666667E+009;1.664284169673920E-001;-1.002749428153038E-001;2.488288329914212E-003;4.385526757687330E-003;
2.425833333333334E+009;1.667295843362808E-001;-1.011525765061379E-001;2.606088528409600E-003;4.278095439076424E-003;
2.426000000000000E+009;1.672053486108780E-001;-1.014592647552490E-001;2.881343709304929E-003;4.139542579650879E-003;
2.426166666666667E+009;1.676218956708908E-001;-1.019499227404594E-001;3.143205074593425E-003;3.885410027578473E-003;
2.426333333333334E+009;1.676681637763977E-001;-1.025401800870895E-001;3.433427540585399E-003;3.727770410478115E-003;
2.426500000000000E+009;1.680658012628555E-001;-1.026816368103027E-001;3.509233240038157E-003;3.486169269308448E-003;
2.426666666666667E+009;1.683781892061234E-001;-1.030326411128044E-001;3.659053938463330E-003;3.279412863776088E-003;
2.426833333333334E+009;1.686412394046783E-001;-1.033179610967636E-001;3.720000386238098E-003;3.233161289244890E-003;
2.427000000000000E+009;1.685501486063004E-001;-1.034414246678352E-001;4.036364145576954E-003;3.038531634956598E-003;
2.427166666666667E+009;1.686827689409256E-001;-1.036352217197418E-001;3.948723431676626E-003;2.829675562679768E-003;
2.427333333333334E+009;1.685684770345688E-001;-1.037366613745689E-001;4.152704961597920E-003;2.512803534045816E-003;
2.427500000000000E+009;1.682966202497482E-001;-1.039359197020531E-001;4.212533123791218E-003;2.495266729965806E-003;
2.427666666666667E+009;1.680540442466736E-001;-1.039781421422958E-001;4.235442262142897E-003;2.207825891673565E-003;
