# Version 1.00
#
freq[Hz];re:Trc1_S11;im:Trc1_S11;re:Trc2_S21;im:Trc2_S21;
2.400000000000000E+009;1.554838865995407E-001;1.067906692624092E-001;-1.206520362757146E-003;-2.035277197137475E-003;
2.400166666666667E+009;1.551624983549118E-001;1.044005975127220E-001;-1.496538403443992E-003;-1.768224872648716E-003;
2.400333333333334E+009;1.551961451768875E-001;1.020475253462791E-001;-1.482232706621289E-003;-1.627159537747502E-003;
2.400500000000000E+009;1.552115380764008E-001;9.930299222469330E-002;-1.340437447652221E-003;-1.430012402124703E-003;
2.400666666666667E+009;1.554037332534790E-001;9.682717919349670E-002;-1.399507978931069E-003;-1.069627702236176E-003;
2.400833333333334E+009;1.552836596965790E-001;9.400708973407745E-002;-1.193432835862041E-003;-8.298830944113433E-004;
2.401000000000000E+009;1.554102450609207E-001;9.093816578388214E-002;-1.061507035046816E-003;-7.631906773895025E-004;
2.401166666666667E+009;1.555639654397965E-001;8.826033025979996E-002;-7.994443876668811E-004;-4.974143812432885E-004;
2.401333333333334E+009;1.559801101684570E-001;8.547750115394592E-002;-6.277310894802213E-004;-5.246512591838837E-004;
2.401500000000000E+009;1.563003063201904E-001;8.239771425724030E-002;-3.060486924368888E-004;-4.979424993507564E-004;
2.401666666666667E+009;1.567653417587280E-001;7.949730753898621E-002;-1.995473430724815E-004;-3.317835507914424E-004;
2.401833333333334E+009;1.572970896959305E-001;7.656327635049820E-002;1.368040830129758E-004;-4.938562633469701E-004;
2.402000000000000E+009;1.580362766981125E-001;7.383827865123749E-002;2.691724803298712E-004;-5.434245686046779E-004;
2.402166666666667E+009;1.589641422033310E-001;7.135058194398880E-002;4.416301671881229E-004;-7.687942706979811E-004;
2.402333333333334E+009;1.599103212356567E-001;6.848709285259247E-002;5.044431309215725E-004;-8.292568963952363E-004;
2.402500000000000E+009;1.609937101602554E-001;6.590117514133453E-002;5.021351389586926E-004;-1.073042862117291E-003;
2.402666666666667E+009;1.621017307043076E-001;6.364654004573822E-002;5.454322090372443E-004;-1.145934103988111E-003;
2.402833333333334E+009;1.632785052061081E-001;6.114009395241737E-002;5.138907581567764E-004;-1.297917449846864E-003;
2.403000000000000E+009;1.646865159273148E-001;5.871124938130379E-002;4.767475766129792E-004;-1.474317046813667E-003;
2.403166666666667E+009;1.665481030941010E-001;5.668885633349419E-002;4.338137805461884E-004;-1.498697092756629E-003;
2.403333333333334E+009;1.677485257387161E-001;5.441179871559143E-002;3.526434593368322E-004;-1.691676094196737E-003;
2.403500000000000E+009;1.696010231971741E-001;5.227566510438919E-002;2.962601720355451E-004;-1.880242256447673E-003;
2.403666666666667E+009;1.711699664592743E-001;5.040999501943588E-002;1.755040721036494E-004;-1.796713680960238E-003;
2.403833333333334E+009;1.728333979845047E-001;4.853662475943565E-002;-6.035793921910226E-005;-1.833421993069351E-003;
2.404000000000000E+009;1.743418425321579E-001;4.671262204647064E-002;-1.598255039425567E-005;-1.925273914821446E-003;
2.404166666666667E+009;1.762373596429825E-001;4.522483795881271E-002;2.841157038346864E-005;-1.911997795104981E-003;
2.404333333333334E+009;1.779582351446152E-001;4.365148022770882E-002;9.688601858215407E-005;-1.775849726982415E-003;
2.404500000000000E+009;1.794446110725403E-001;4.221041500568390E-002;1.011133281281218E-005;-1.967805903404951E-003;
2.404666666666667E+009;1.810922622680664E-001;4.132076352834702E-002;-7.979362271726131E-005;-1.883290242403746E-003;
2.404833333333334E+009;1.826897263526917E-001;4.016120731830597E-002;-6.052027674741112E-005;-1.849713036790490E-003;
2.405000000000000E+009;1.841575503349304E-001;3.927017748355866E-002;-1.174806966446340E-004;-1.943920389749110E-003;
2.405166666666667E+009;1.856758296489716E-001;3.871092945337296E-002;-8.091399649856612E-005;-2.124794526025653E-003;
2.405333333333334E+009;1.869328469038010E-001;3.818961232900620E-002;-1.060526774381287E-004;-2.109373686835170E-003;
2.405500000000000E+009;1.883628666400909E-001;3.756881132721901E-002;-1.819427416194230E-004;-2.185434103012085E-003;
2.405666666666667E+009;1.895017772912979E-001;3.734519332647324E-002;-2.129118656739593E-004;-2.256239997223020E-003;
2.405833333333334E+009;1.909020692110062E-001;3.715872764587402E-002;-3.504177439026535E-004;-2.403302351012826E-003;
2.406000000000000E+009;1.918392926454544E-001;3.692678362131119E-002;-5.287229432724416E-004;-2.293756930157542E-003;
2.406166666666667E+009;1.927055418491364E-001;3.668493777513504E-002;-5.404403200373054E-004;-2.411474939435720E-003;
2.406333333333334E+009;1.937477588653565E-001;3.679380938410759E-002;-6.202307413332164E-004;-2.422407036647201E-003;
2.406500000000000E+009;1.943490058183670E-001;3.685994446277618E-002;-7.588047883473337E-004;-2.437460236251354E-003;
2.406666666666667E+009;1.949738562107086E-001;3.693062067031860E-002;-9.798665996640921E-004;-2.446874976158142E-003;
2.406833333333334E+009;1.954121291637421E-001;3.689080476760864E-002;-9.326681029051542E-004;-2.450873842462897E-003;
2.407000000000000E+009;1.956070959568024E-001;3.715272247791290E-002;-1.094968756660819E-003;-2.497017849236727E-003;
2.407166666666667E+009;1.960900425910950E-001;3.698618710041046E-002;-9.848253102973104E-004;-2.487418707460165E-003;
2.407333333333334E+009;1.959165334701538E-001;3.715690970420837E-002;-1.146705122664571E-003;-2.450311789289117E-003;
2.407500000000000E+009;1.959414780139923E-001;3.732472658157349E-002;-1.349245198071003E-003;-2.551488578319550E-003;
2.407666666666667E+009;1.957985609769821E-001;3.726190701127052E-002;-1.451792777515948E-003;-2.311331452801824E-003;
2.407833333333334E+009;1.953014582395554E-001;3.709034621715546E-002;-1.453867414966226E-003;-2.441933611407876E-003;
2.408000000000000E+009;1.951410174369812E-001;3.706197813153267E-002;-1.734409830532968E-003;-2.355439821258187E-003;
2.408166666666667E+009;1.946551054716110E-001;3.671140596270561E-002;-1.621642964892089E-003;-2.379095880314708E-003;
2.408333333333334E+009;1.941221058368683E-001;3.630882129073143E-002;-1.790128299035132E-003;-2.697504591196775E-003;
2.408500000000000E+009;1.933970153331757E-001;3.590089082717896E-002;-1.897707814350724E-003;-2.405106090009213E-003;
2.408666666666667E+009;1.926451772451401E-001;3.573205322027206E-002;-1.969859935343266E-003;-2.358296187594533E-003;
2.408833333333334E+009;1.920277774333954E-001;3.489685431122780E-002;-2.021071966737509E-003;-2.320714760571718E-003;
2.409000000000000E+009;1.912419199943543E-001;3.389955312013626E-002;-1.955317333340645E-003;-2.324814675375819E-003;
2.409166666666667E+009;1.900279968976975E-001;3.315397724509239E-002;-2.334717428311706E-003;-2.383012091740966E-003;
2.409333333333334E+009;1.892062723636627E-001;3.203829377889633E-002;-2.289893571287394E-003;-2.326482906937599E-003;
2.409500000000000E+009;1.880422681570053E-001;3.078969940543175E-002;-2.578090876340866E-003;-2.357459161430597E-003;
2.409666666666667E+009;1.869626790285111E-001;2.933653816580772E-002;-2.550643403083086E-003;-2.249696757644415E-003;
2.409833333333334E+009;1.859444081783295E-001;2.795345708727837E-002;-2.673241309821606E-003;-2.140559023246169E-003;
2.410000000000000E+009;1.848666518926621E-001;2.629126608371735E-002;-2.680944511666894E-003;-1.900680945254862E-003;
2.410166666666667E+009;1.838428676128388E-001;2.446288242936134E-002;-3.029674757272005E-003;-1.965315314009786E-003;
2.410333333333334E+009;1.830026358366013E-001;2.271194569766522E-002;-2.959943609312177E-003;-1.923382049426436E-003;
2.410500000000000E+009;1.820657253265381E-001;2.084825560450554E-002;-3.142338246107101E-003;-1.674630912020803E-003;
2.410666666666667E+009;1.810456812381744E-001;1.864583417773247E-002;-3.197991987690330E-003;-1.720711938105524E-003;
2.410833333333334E+009;1.803858578205109E-001;1.638226024806500E-002;-3.132079262286425E-003;-1.487564994022250E-003;
2.411000000000000E+009;1.796115636825562E-001;1.438207738101482E-002;-3.209053305909038E-003;-1.471256255172193E-003;
2.411166666666667E+009;1.790312677621841E-001;1.196142751723528E-002;-3.173654666170478E-003;-1.312596607021987E-003;
2.411333333333334E+009;1.785839349031448E-001;9.565874934196472E-003;-3.383271163329482E-003;-1.236477168276906E-003;
2.411500000000000E+009;1.779022365808487E-001;7.270553614944220E-003;-3.348093014210463E-003;-1.050225575454533E-003;
2.411666666666667E+009;1.779169738292694E-001;4.964061081409454E-003;-3.330285428091884E-003;-9.040718432515860E-004;
2.411833333333334E+009;1.775295287370682E-001;2.413680544123054E-003;-3.360356437042356E-003;-1.113723730668426E-003;
2.412000000000000E+009;1.778589636087418E-001;-3.871857643389376E-006;-3.272385802119970E-003;-8.794238674454391E-004;
2.412166666666667E+009;1.777435988187790E-001;-2.483981894329190E-003;-3.519070567563176E-003;-8.900004322640598E-004;
2.412333333333334E+009;1.779606193304062E-001;-4.832442849874497E-003;-3.646314842626452E-003;-7.728540804237127E-004;
2.412500000000000E+009;1.785385161638260E-001;-7.269323803484440E-003;-3.571203676983714E-003;-7.364617194980383E-004;
2.412666666666667E+009;1.790038198232651E-001;-9.873573668301106E-003;-3.821096615865827E-003;-7.479148916900158E-004;
2.412833333333334E+009;1.797132492065430E-001;-1.217682659626007E-002;-3.836999880149961E-003;-5.744158406741917E-004;
2.413000000000000E+009;1.803846508264542E-001;-1.448426209390163E-002;-3.877116134390235E-003;-6.111719994805753E-004;
2.413166666666667E+009;1.813638061285019E-001;-1.665167883038521E-002;-4.122135695070028E-003;-3.318148083053529E-004;
2.413333333333334E+009;1.823192983865738E-001;-1.911551691591740E-002;-4.236588720232248E-003;-1.191185583593324E-004;
2.413500000000000E+009;1.832177340984345E-001;-2.116943523287773E-002;-4.261625465005636E-003;-8.191133383661509E-005;
2.413666666666667E+009;1.845053732395172E-001;-2.339882776141167E-002;-4.400390200316906E-003;2.297053433721885E-004;
2.413833333333334E+009;1.855531036853790E-001;-2.537036128342152E-002;-4.485624376684427E-003;4.407245723996311E-004;
2.414000000000000E+009;1.866782456636429E-001;-2.734398283064365E-002;-4.468934610486031E-003;6.796576199121773E-004;
2.414166666666667E+009;1.879669427871704E-001;-2.918352000415325E-002;-4.462798126041889E-003;9.883819147944450E-004;
2.414333333333334E+009;1.890799403190613E-001;-3.112793527543545E-002;-4.447421524673700E-003;1.272890600375831E-003;
2.414500000000000E+009;1.905521005392075E-001;-3.266844898462296E-002;-4.533526953309774E-003;1.528200926259160E-003;
2.414666666666667E+009;1.915518939495087E-001;-3.418016806244850E-002;-4.333921242505312E-003;1.850152970291674E-003;
2.414833333333334E+009;1.927667260169983E-001;-3.545263037085533E-002;-4.283524118363857E-003;2.000286011025310E-003;
2.415000000000000E+009;1.940961927175522E-001;-3.665553033351898E-002;-4.089656751602888E-003;2.047959947958589E-003;
2.415166666666667E+009;1.952535212039948E-001;-3.792381286621094E-002;-3.928936086595058E-003;2.551846671849489E-003;
2.415333333333334E+009;1.964706182479858E-001;-3.879005834460259E-002;-3.934958018362522E-003;2.597146434709430E-003;
2.415500000000000E+009;1.973832845687866E-001;-3.943926095962524E-002;-3.700842149555683E-003;2.907752292230725E-003;
2.415666666666667E+009;1.986705362796783E-001;-4.030517116189003E-002;-3.394752508029342E-003;2.882466418668628E-003;
2.415833333333334E+009;1.995042860507965E-001;-4.100698232650757E-002;-3.316059708595276E-003;3.067798446863890E-003;
2.416000000000000E+009;2.003546804189682E-001;-4.149777814745903E-002;-3.188491100445390E-003;3.144051413983107E-003;
2.416166666666667E+009;2.010229825973511E-001;-4.196926206350327E-002;-2.969364635646343E-003;3.247669897973537E-003;
2.416333333333334E+009;2.015797793865204E-001;-4.224285483360291E-002;-2.578462008386850E-003;3.433138597756624E-003;
2.416500000000000E+009;2.020920068025589E-001;-4.254881292581558E-002;-2.627026289701462E-003;3.412786638364196E-003;
2.416666666666667E+009;2.024235427379608E-001;-4.284510388970375E-002;-2.356986282393336E-003;3.477368270978332E-003;
2.416833333333334E+009;2.025849074125290E-001;-4.288762062788010E-002;-2.163587370887399E-003;3.511769464239478E-003;
2.417000000000000E+009;2.027163058519363E-001;-4.294278845191002E-002;-1.966903684660792E-003;3.572990652173758E-003;
2.417166666666667E+009;2.024163901805878E-001;-4.291642084717751E-002;-1.885541947558522E-003;3.494333708658814E-003;
2.417333333333334E+009;2.022490948438644E-001;-4.259533807635307E-002;-1.575282425619662E-003;3.498183796182275E-003;
2.417500000000000E+009;2.019427269697189E-001;-4.259582608938217E-002;-1.444935798645020E-003;3.326558973640204E-003;
2.417666666666667E+009;2.013510912656784E-001;-4.230568185448647E-002;-1.402620924636722E-003;3.377061570063233E-003;
2.417833333333334E+009;2.009957134723663E-001;-4.211293160915375E-002;-1.255137030966580E-003;3.485250053927302E-003;
2.418000000000000E+009;2.003860622644424E-001;-4.194467514753342E-002;-1.149217830970883E-003;3.461756277829409E-003;
2.418166666666667E+009;1.995490938425064E-001;-4.172590747475624E-002;-8.031383040361106E-004;3.432285273447633E-003;
2.418333333333334E+009;1.986398994922638E-001;-4.164046794176102E-002;-9.621377685107291E-004;3.387549193575978E-003;
2.418500000000000E+009;1.976632773876190E-001;-4.163338616490364E-002;-6.765537546016276E-004;3.267370862886310E-003;
2.418666666666667E+009;1.967172324657440E-001;-4.154320806264877E-002;-5.741915665566921E-004;3.326202975586057E-003;
2.418833333333334E+009;1.954748481512070E-001;-4.171842709183693E-002;-4.665888554882258E-004;3.236119635403156E-003;
2.419000000000000E+009;1.940771490335465E-001;-4.200844839215279E-002;-2.538566768635064E-004;3.117877757176757E-003;
2.419166666666667E+009;1.928790658712387E-001;-4.224773123860359E-002;-1.694531965767965E-004;3.006246173754334E-003;
2.419333333333334E+009;1.914834827184677E-001;-4.274456202983856E-002;-1.082948438124731E-004;2.840608125552535E-003;
2.419500000000000E+009;1.898529678583145E-001;-4.317310079932213E-002;-6.049075454939157E-005;2.632607938721776E-003;
2.419666666666667E+009;1.882572174072266E-001;-4.402627423405647E-002;9.713163308333606E-005;2.418321557343006E-003;
2.419833333333334E+009;1.867101937532425E-001;-4.465251415967941E-002;-5.382038216339424E-005;2.464436460286379E-003;
2.420000000000000E+009;1.851470917463303E-001;-4.544511064887047E-002;-1.073750318028033E-004;2.205164870247245E-003;
2.420166666666667E+009;1.836473941802979E-001;-4.645495116710663E-002;-2.259889151901007E-004;2.085905522108078E-003;
2.420333333333334E+009;1.819355636835098E-001;-4.779294133186340E-002;-2.667117514647543E-004;2.003997797146440E-003;
2.420500000000000E+009;1.802032142877579E-001;-4.902958869934082E-002;-3.332418855279684E-004;1.932252431288362E-003;
2.420666666666667E+009;1.786848902702332E-001;-5.028535798192024E-002;-5.755354068242014E-004;1.815167954191566E-003;
2.420833333333334E+009;1.768719106912613E-001;-5.166160687804222E-002;-8.238467853516340E-004;1.982955727726221E-003;
2.421000000000000E+009;1.756084114313126E-001;-5.327122285962105E-002;-9.549915557727218E-004;2.041721949353814E-003;
2.421166666666667E+009;1.740256100893021E-001;-5.493038520216942E-002;-9.365982841700316E-004;2.202679868787527E-003;
2.421333333333334E+009;1.724503636360169E-001;-5.650898441672325E-002;-1.126455026678741E-003;2.134134061634541E-003;
2.421500000000000E+009;1.711312681436539E-001;-5.843698605895042E-002;-1.095377374440432E-003;2.363941166549921E-003;
2.421666666666667E+009;1.698648482561112E-001;-6.028352305293083E-002;-1.317577902227640E-003;2.548336284235120E-003;
2.421833333333334E+009;1.686219274997711E-001;-6.218233704566956E-002;-1.129771349951625E-003;2.717869821935892E-003;
2.422000000000000E+009;1.677344441413879E-001;-6.411821395158768E-002;-1.068686717189848E-003;3.007925348356366E-003;
2.422166666666667E+009;1.668906360864639E-001;-6.627596169710159E-002;-1.120778499171138E-003;3.054335713386536E-003;
2.422333333333334E+009;1.658482104539871E-001;-6.823225319385529E-002;-9.543054620735347E-004;3.323327284306288E-003;
2.422500000000000E+009;1.651361882686615E-001;-7.023023813962936E-002;-8.516797097399831E-004;3.418881213292480E-003;
2.422666666666667E+009;1.643292605876923E-001;-7.221752405166626E-002;-7.435504812747240E-004;3.580004209652543E-003;
2.422833333333334E+009;1.638921648263931E-001;-7.451315224170685E-002;-4.431921115610749E-004;3.610434941947460E-003;
2.423000000000000E+009;1.633512079715729E-001;-7.663476467132568E-002;-4.950355505570769E-004;3.776085563004017E-003;
2.423166666666667E+009;1.630900502204895E-001;-7.853644341230393E-002;-3.985677903983742E-004;3.793322248384357E-003;
2.423333333333334E+009;1.629390418529511E-001;-8.058560639619827E-002;-2.688742242753506E-004;3.896259935572743E-003;
2.423500000000000E+009;1.628708243370056E-001;-8.250212669372559E-002;-8.027933654375374E-005;3.928659018129110E-003;
2.423666666666667E+009;1.627737879753113E-001;-8.430483937263489E-002;1.891912324936129E-005;4.012953490018845E-003;
2.423833333333334E+009;1.627238243818283E-001;-8.608147501945496E-002;1.901178766274825E-004;4.084174986928701E-003;
2.424000000000000E+009;1.629302501678467E-001;-8.794612437486649E-002;4.362142062745988E-004;4.090741276741028E-003;
2.424166666666667E+009;1.630665808916092E-001;-8.960987627506256E-002;5.860686651431024E-004;4.149768501520157E-003;
2.424333333333334E+009;1.633706837892532E-001;-9.110759198665619E-002;6.700911326333880E-004;4.253658000379801E-003;
2.424500000000000E+009;1.636929810047150E-001;-9.283512085676193E-002;9.494160185568035E-004;4.293351434171200E-003;
2.424666666666667E+009;1.638771146535873E-001;-9.415442496538162E-002;1.087066251784563E-003;4.378196783363819E-003;
2.424833333333334E+009;1.645129919052124E-001;-9.544092416763306E-002;1.234653056599200E-003;4.473893903195858E-003;
2.425000000000000E+009;1.649198979139328E-001;-9.670713543891907E-002;1.489079557359219E-003;4.507452715188265E-003;
2.425166666666667E+009;1.651092469692230E-001;-9.775709360837936E-002;1.769018941558898E-003;4.514699336141348E-003;
2.425333333333334E+009;1.655850708484650E-001;-9.873498976230621E-002;2.043719636276364E-003;4.447403829544783E-003;
2.425500000000000E+009;1.659723967313767E-001;-9.959273040294647E-002;2.339102560654283E-003;4.492208827286959E-003;
2.425666666666667E+009;1.664651036262512E-001;-1.003850549459457E-001;2.602644963189960E-003;4.248655866831541E-003;
2.425833333333334E+009;1.667601615190506E-001;-1.011463031172752E-001;2.665495499968529E-003;4.228972364217043E-003;
2.426000000000000E+009;1.671451628208160E-001;-1.016672328114510E-001;2.863223897293210E-003;3.966980148106813E-003;
2.426166666666667E+009;1.675568670034409E-001;-1.021106541156769E-001;3.224862739443779E-003;4.029199946671724E-003;
2.426333333333334E+009;1.677121818065643E-001;-1.026789695024490E-001;3.447889350354672E-003;3.730033757165074E-003;
2.426500000000000E+009;1.681325435638428E-001;-1.029484197497368E-001;3.670147620141506E-003;3.521605627611280E-003;
2.426666666666667E+009;1.682861745357513E-001;-1.032336875796318E-001;3.766354871913791E-003;3.409932134672999E-003;
2.426833333333334E+009;1.685675382614136E-001;-1.035469993948937E-001;3.942882176488638E-003;3.200136590749025E-003;
2.427000000000000E+009;1.685438007116318E-001;-1.037294343113899E-001;4.126193001866341E-003;2.818881534039974E-003;
2.427166666666667E+009;1.685746759176254E-001;-1.038070842623711E-001;3.979200962930918E-003;2.841653302311897E-003;
2.427333333333334E+009;1.685663610696793E-001;-1.038384959101677E-001;4.172181710600853E-003;2.496227854862809E-003;
2.427500000000000E+009;1.681701242923737E-001;-1.040847450494766E-001;4.142183810472488E-003;2.226647455245256E-003;
2.427666666666667E+009;1.679303199052811E-001;-1.041676849126816E-001;4.156315233558416E-003;2.264060778543353E-003;
