# Version 1.00
#
freq[Hz];re:Trc1_S11;im:Trc1_S11;re:Trc2_S21;im:Trc2_S21;
2.400000000000000E+009;1.564630568027496E-001;6.019427627325058E-002;-3.477273043245077E-003;5.564567167311907E-003;
2.400166666666667E+009;1.565308570861816E-001;5.847432836890221E-002;-3.205691464245319E-003;5.773538723587990E-003;
2.400333333333334E+009;1.566251665353775E-001;5.621830001473427E-002;-2.892919117584825E-003;5.768916569650173E-003;
2.400500000000000E+009;1.568783670663834E-001;5.421929061412811E-002;-2.785595832392573E-003;5.926976446062326E-003;
2.400666666666667E+009;1.572543829679489E-001;5.196759849786758E-002;-2.607411006465554E-003;6.043517962098122E-003;
2.400833333333334E+009;1.575128287076950E-001;5.030795186758041E-002;-2.384686609730125E-003;5.942586343735457E-003;
2.401000000000000E+009;1.577253639698029E-001;4.782800376415253E-002;-2.264221897348762E-003;6.047943141311407E-003;
2.401166666666667E+009;1.583623141050339E-001;4.600018635392189E-002;-2.222685143351555E-003;6.275833118706942E-003;
2.401333333333334E+009;1.588578522205353E-001;4.374920949339867E-002;-1.824449049308896E-003;6.219936534762383E-003;
2.401500000000000E+009;1.593239009380341E-001;4.168996959924698E-002;-1.797156874090433E-003;6.381503306329250E-003;
2.401666666666667E+009;1.599890887737274E-001;3.987026214599609E-002;-1.513389288447797E-003;6.339162588119507E-003;
2.401833333333334E+009;1.605433672666550E-001;3.758564591407776E-002;-1.129684387706220E-003;6.503838580101728E-003;
2.402000000000000E+009;1.610843390226364E-001;3.578153625130653E-002;-1.063375617377460E-003;6.535129621624947E-003;
2.402166666666667E+009;1.619364023208618E-001;3.398658707737923E-002;-8.862960967235267E-004;6.523312069475651E-003;
2.402333333333334E+009;1.625621914863586E-001;3.237420320510864E-002;-4.626905138138682E-004;6.619288586080074E-003;
2.402500000000000E+009;1.635388731956482E-001;3.059097379446030E-002;-3.869217471219599E-004;6.652831565588713E-003;
2.402666666666667E+009;1.644375324249268E-001;2.905406989157200E-002;-6.344150460790843E-005;6.706455256789923E-003;
2.402833333333334E+009;1.652874946594238E-001;2.752803638577461E-002;2.987906627822667E-004;6.635193247348070E-003;
2.403000000000000E+009;1.661034524440765E-001;2.599808201193810E-002;5.210316739976406E-004;6.701515521854162E-003;
2.403166666666667E+009;1.672378778457642E-001;2.472939155995846E-002;6.544541101902723E-004;6.695170886814594E-003;
2.403333333333334E+009;1.681194156408310E-001;2.345796674489975E-002;8.914522477425635E-004;6.621136330068111E-003;
2.403500000000000E+009;1.691360771656036E-001;2.229220047593117E-002;1.239818171598017E-003;6.507939659059048E-003;
2.403666666666667E+009;1.699214875698090E-001;2.113490924239159E-002;1.455533085390925E-003;6.515440996736288E-003;
2.403833333333334E+009;1.710485219955444E-001;2.000027708709240E-002;1.676529645919800E-003;6.433980073779821E-003;
2.404000000000000E+009;1.720431894063950E-001;1.924019493162632E-002;2.051706658676267E-003;6.471411325037479E-003;
2.404166666666667E+009;1.728128343820572E-001;1.834086701273918E-002;2.180678071454167E-003;6.350787356495857E-003;
2.404333333333334E+009;1.737598329782486E-001;1.767809130251408E-002;2.422246616333723E-003;6.087637506425381E-003;
2.404500000000000E+009;1.744807362556458E-001;1.681131869554520E-002;2.738929586485028E-003;6.158326286822557E-003;
2.404666666666667E+009;1.754634380340576E-001;1.624547131359577E-002;2.992191351950169E-003;6.015381775796413E-003;
2.404833333333334E+009;1.760394871234894E-001;1.581878773868084E-002;3.246331354603171E-003;6.117051932960749E-003;
2.405000000000000E+009;1.765992045402527E-001;1.537232287228108E-002;3.304397221654654E-003;5.571944639086723E-003;
2.405166666666667E+009;1.774523854255676E-001;1.473490986973047E-002;3.493112511932850E-003;5.755408201366663E-003;
2.405333333333334E+009;1.778212636709213E-001;1.428258791565895E-002;3.824585117399693E-003;5.551110021770001E-003;
2.405500000000000E+009;1.784458607435226E-001;1.397667732089758E-002;4.059499129652977E-003;5.254246760159731E-003;
2.405666666666667E+009;1.788655072450638E-001;1.382036507129669E-002;4.226952791213989E-003;5.077115725725889E-003;
2.405833333333334E+009;1.790207773447037E-001;1.355967484414578E-002;4.531810525804758E-003;5.006656050682068E-003;
2.406000000000000E+009;1.795177608728409E-001;1.327947340905666E-002;4.749460145831108E-003;4.825678188353777E-003;
2.406166666666667E+009;1.795616000890732E-001;1.303664781153202E-002;4.802444484084845E-003;4.439693875610828E-003;
2.406333333333334E+009;1.797912716865540E-001;1.282376516610384E-002;4.958546720445156E-003;4.299091175198555E-003;
2.406500000000000E+009;1.796479076147080E-001;1.237836014479399E-002;5.105942487716675E-003;4.183677025139332E-003;
2.406666666666667E+009;1.794591546058655E-001;1.222017779946327E-002;5.251828115433455E-003;3.932420630007982E-003;
2.406833333333334E+009;1.794279813766480E-001;1.181988324970007E-002;5.457836203277111E-003;3.683926304802299E-003;
2.407000000000000E+009;1.792630255222321E-001;1.137233432382345E-002;5.478521808981895E-003;3.490613307803869E-003;
2.407166666666667E+009;1.790636628866196E-001;1.118580624461174E-002;5.754937417805195E-003;3.159584710374475E-003;
2.407333333333334E+009;1.786900758743286E-001;1.054485607892275E-002;5.761262029409409E-003;2.983700018376112E-003;
2.407500000000000E+009;1.781332045793533E-001;1.014716550707817E-002;5.960502661764622E-003;2.736762398853898E-003;
2.407666666666667E+009;1.777989119291306E-001;9.619413875043392E-003;5.916831549257040E-003;2.483481541275978E-003;
2.407833333333334E+009;1.771120578050613E-001;8.887900039553642E-003;6.031512748450041E-003;2.226686105132103E-003;
2.408000000000000E+009;1.765799075365067E-001;8.002861402928829E-003;6.125886924564838E-003;1.747055328451097E-003;
2.408166666666667E+009;1.760099828243256E-001;7.229502778500319E-003;5.956122186034918E-003;1.537827309221029E-003;
2.408333333333334E+009;1.755341291427612E-001;6.329047493636608E-003;6.176958326250315E-003;1.441421336494386E-003;
2.408500000000000E+009;1.747071146965027E-001;5.225094035267830E-003;6.062245462089777E-003;1.154536148533225E-003;
2.408666666666667E+009;1.740879416465759E-001;4.288307856768370E-003;5.878776311874390E-003;9.048181236721575E-004;
2.408833333333334E+009;1.733581423759460E-001;2.965202322229743E-003;5.939109250903130E-003;7.068007253110409E-004;
2.409000000000000E+009;1.724700331687927E-001;1.790807466022670E-003;5.978308618068695E-003;3.156967286486179E-004;
2.409166666666667E+009;1.719639152288437E-001;4.527607816271484E-004;5.866592284291983E-003;1.402451161993668E-004;
2.409333333333334E+009;1.714539676904678E-001;-9.945672936737537E-004;5.781378597021103E-003;8.115017408272252E-006;
2.409500000000000E+009;1.706558167934418E-001;-2.674151211977005E-003;5.775053985416889E-003;-2.365327673032880E-004;
2.409666666666667E+009;1.699262559413910E-001;-4.123045597225428E-003;5.584286991506815E-003;-4.225540324114263E-004;
2.409833333333334E+009;1.693253219127655E-001;-5.771487019956112E-003;5.574137438088656E-003;-6.371311028487980E-004;
2.410000000000000E+009;1.690174192190170E-001;-7.507693022489548E-003;5.371117498725653E-003;-7.693497464060783E-004;
2.410166666666667E+009;1.686049252748489E-001;-9.169208817183971E-003;5.358945578336716E-003;-1.148654962889850E-003;
2.410333333333334E+009;1.680374592542648E-001;-1.109138038009405E-002;5.256120581179857E-003;-1.110672950744629E-003;
2.410500000000000E+009;1.676764935255051E-001;-1.303673256188631E-002;5.043619312345982E-003;-1.409792108461261E-003;
2.410666666666667E+009;1.672962009906769E-001;-1.477508153766394E-002;5.072456318885088E-003;-1.432546647265554E-003;
2.410833333333334E+009;1.672792434692383E-001;-1.672439463436604E-002;4.887194838374853E-003;-1.572967856191099E-003;
2.411000000000000E+009;1.670992225408554E-001;-1.872251741588116E-002;4.729694221168757E-003;-1.836606417782605E-003;
2.411166666666667E+009;1.669859290122986E-001;-2.075141854584217E-002;4.733903333544731E-003;-1.895490102469921E-003;
2.411333333333334E+009;1.671443134546280E-001;-2.256473153829575E-002;4.384149331599474E-003;-2.093923045322299E-003;
2.411500000000000E+009;1.668815016746521E-001;-2.465501241385937E-002;4.469403997063637E-003;-2.049687085673213E-003;
2.411666666666667E+009;1.673363447189331E-001;-2.669368311762810E-002;4.343981854617596E-003;-2.161080017685890E-003;
2.411833333333334E+009;1.674859374761581E-001;-2.850618213415146E-002;4.220162983983755E-003;-2.316844649612904E-003;
2.412000000000000E+009;1.678849309682846E-001;-3.048279508948326E-002;3.969713579863310E-003;-2.474533626809716E-003;
2.412166666666667E+009;1.682958602905273E-001;-3.229613602161408E-002;3.781252307817340E-003;-2.667942782863975E-003;
2.412333333333334E+009;1.688084453344345E-001;-3.413736820220947E-002;3.772182390093803E-003;-2.726584207266569E-003;
2.412500000000000E+009;1.692027449607849E-001;-3.589644283056259E-002;3.564556594938040E-003;-2.885939786210656E-003;
2.412666666666667E+009;1.698172092437744E-001;-3.788685053586960E-002;3.434542333707213E-003;-2.838447922840715E-003;
2.412833333333334E+009;1.704091429710388E-001;-3.953945264220238E-002;3.414225764572620E-003;-3.160951891914010E-003;
2.413000000000000E+009;1.709968298673630E-001;-4.091048240661621E-002;3.157241968438029E-003;-2.989199478179216E-003;
2.413166666666667E+009;1.716948151588440E-001;-4.277084767818451E-002;3.044078592211008E-003;-3.101089736446738E-003;
2.413333333333334E+009;1.721787005662918E-001;-4.428000375628471E-002;2.879363019019365E-003;-3.285284386947751E-003;
2.413500000000000E+009;1.727460324764252E-001;-4.578270763158798E-002;2.705510240048170E-003;-3.206654218956828E-003;
2.413666666666667E+009;1.737347543239594E-001;-4.691295698285103E-002;2.461986616253853E-003;-3.220225218683481E-003;
2.413833333333334E+009;1.742180883884430E-001;-4.823360219597817E-002;2.516254317015410E-003;-3.455870784819126E-003;
2.414000000000000E+009;1.747594028711319E-001;-4.951598122715950E-002;2.343083266168833E-003;-3.437847364693880E-003;
2.414166666666667E+009;1.754779219627380E-001;-5.067051574587822E-002;2.171528991311789E-003;-3.302849829196930E-003;
2.414333333333334E+009;1.762667298316956E-001;-5.162324383854866E-002;1.999262021854520E-003;-3.444334724918008E-003;
2.414500000000000E+009;1.768584996461868E-001;-5.246423929929733E-002;1.920164329931140E-003;-3.443435765802860E-003;
2.414666666666667E+009;1.772567927837372E-001;-5.329443141818047E-002;1.795822754502296E-003;-3.390436060726643E-003;
2.414833333333334E+009;1.776299029588699E-001;-5.400327965617180E-002;1.585522666573525E-003;-3.453024895861745E-003;
2.415000000000000E+009;1.780229806900024E-001;-5.459910631179810E-002;1.426205970346928E-003;-3.379484871402383E-003;
2.415166666666667E+009;1.784014701843262E-001;-5.529423803091049E-002;1.253557391464710E-003;-3.517501289024949E-003;
2.415333333333334E+009;1.788643449544907E-001;-5.588416382670403E-002;1.159707084298134E-003;-3.546800231561065E-003;
2.415500000000000E+009;1.790030449628830E-001;-5.634717270731926E-002;9.717556531541050E-004;-3.586544888094068E-003;
2.415666666666667E+009;1.791155785322189E-001;-5.643339827656746E-002;9.143136558122933E-004;-3.549992339685559E-003;
2.415833333333334E+009;1.791929304599762E-001;-5.706594139337540E-002;7.104038377292454E-004;-3.547336906194687E-003;
2.416000000000000E+009;1.790189892053604E-001;-5.731467157602310E-002;8.255284628830850E-004;-3.405406139791012E-003;
2.416166666666667E+009;1.790810972452164E-001;-5.761124193668366E-002;4.411799600347877E-004;-3.298770869150758E-003;
2.416333333333334E+009;1.787312328815460E-001;-5.773894116282463E-002;3.519792808219791E-004;-3.255709074437618E-003;
2.416500000000000E+009;1.784864217042923E-001;-5.802500247955322E-002;2.359087666263804E-004;-3.346476936712861E-003;
2.416666666666667E+009;1.779338866472244E-001;-5.805322155356407E-002;3.138560859952122E-004;-3.240208374336362E-003;
2.416833333333334E+009;1.775094717741013E-001;-5.854328349232674E-002;9.756047802511603E-005;-3.054769476875663E-003;
2.417000000000000E+009;1.766355335712433E-001;-5.880144611001015E-002;-7.507432746933773E-005;-3.144904505461454E-003;
2.417166666666667E+009;1.761381775140762E-001;-5.890840291976929E-002;-2.319629857083783E-004;-2.951332135125995E-003;
2.417333333333334E+009;1.753623634576798E-001;-5.913650244474411E-002;-1.761891762726009E-004;-3.102174028754234E-003;
2.417500000000000E+009;1.743797212839127E-001;-5.958200618624687E-002;-3.015510737895966E-004;-3.075379179790616E-003;
2.417666666666667E+009;1.735677868127823E-001;-5.983931943774223E-002;-3.413681406527758E-004;-2.877692691981792E-003;
2.417833333333334E+009;1.725783199071884E-001;-5.999416112899780E-002;-3.587754617910832E-004;-2.895664423704147E-003;
2.418000000000000E+009;1.713226884603500E-001;-6.064655259251595E-002;-5.001884419471026E-004;-2.814559265971184E-003;
2.418166666666667E+009;1.702472418546677E-001;-6.101575866341591E-002;-7.343374309130013E-004;-2.808075631037355E-003;
2.418333333333334E+009;1.692420393228531E-001;-6.162143126130104E-002;-7.260361453518271E-004;-2.656165976077318E-003;
2.418500000000000E+009;1.679193675518036E-001;-6.213853135704994E-002;-6.365120643749833E-004;-2.716633258387446E-003;
2.418666666666667E+009;1.667758971452713E-001;-6.279328465461731E-002;-7.886573439463973E-004;-2.549867378547788E-003;
2.418833333333334E+009;1.654046773910523E-001;-6.354393064975739E-002;-9.158410248346627E-004;-2.373741474002600E-003;
2.419000000000000E+009;1.641174852848053E-001;-6.439927220344544E-002;-8.961944840848446E-004;-2.356351818889380E-003;
2.419166666666667E+009;1.627628356218338E-001;-6.527413427829742E-002;-8.465578430332243E-004;-2.188700251281261E-003;
2.419333333333334E+009;1.613309979438782E-001;-6.601915508508682E-002;-9.477078565396369E-004;-2.497350564226508E-003;
2.419500000000000E+009;1.602105498313904E-001;-6.730757653713226E-002;-1.025951933115721E-003;-2.171815373003483E-003;
2.419666666666667E+009;1.591528058052063E-001;-6.843502074480057E-002;-1.117390114814043E-003;-2.144522964954376E-003;
2.419833333333334E+009;1.577713787555695E-001;-6.940733641386032E-002;-1.238124328665435E-003;-1.925066113471985E-003;
2.420000000000000E+009;1.567618101835251E-001;-7.077298313379288E-002;-1.211105147376657E-003;-1.992857316508889E-003;
2.420166666666667E+009;1.557478457689285E-001;-7.205069065093994E-002;-1.188080175779760E-003;-1.735872006975114E-003;
2.420333333333334E+009;1.547534316778183E-001;-7.336917519569397E-002;-1.202895771712065E-003;-1.739239552989602E-003;
2.420500000000000E+009;1.538819670677185E-001;-7.464420795440674E-002;-1.290238578803837E-003;-1.492685871198773E-003;
2.420666666666667E+009;1.527859121561050E-001;-7.624842971563339E-002;-1.227261964231730E-003;-1.628329395316541E-003;
2.420833333333334E+009;1.523379385471344E-001;-7.789950072765350E-002;-1.412767684087157E-003;-1.500180456787348E-003;
2.421000000000000E+009;1.515152752399445E-001;-7.950721681118012E-002;-1.217225333675742E-003;-1.227949745953083E-003;
2.421166666666667E+009;1.509428918361664E-001;-8.106414973735809E-002;-1.262070960365236E-003;-1.249981112778187E-003;
2.421333333333334E+009;1.505636870861054E-001;-8.278094232082367E-002;-1.099687651731074E-003;-1.274275709874928E-003;
2.421500000000000E+009;1.499852985143662E-001;-8.440349251031876E-002;-1.107693067751825E-003;-1.267635612748563E-003;
2.421666666666667E+009;1.495600342750549E-001;-8.612596243619919E-002;-1.205924781970680E-003;-1.232609967701137E-003;
2.421833333333334E+009;1.494390666484833E-001;-8.779604732990265E-002;-1.246650703251362E-003;-1.069611171260476E-003;
2.422000000000000E+009;1.491857469081879E-001;-8.939740061759949E-002;-1.090298523195088E-003;-1.095741405151784E-003;
2.422166666666667E+009;1.491712182760239E-001;-9.136301279067993E-002;-1.057067187502980E-003;-9.301242535002530E-004;
2.422333333333334E+009;1.492262929677963E-001;-9.288965165615082E-002;-1.002886099740863E-003;-8.577787084504962E-004;
2.422500000000000E+009;1.491989642381668E-001;-9.449075162410736E-002;-1.056007458828390E-003;-7.981619564816356E-004;
2.422666666666667E+009;1.493150442838669E-001;-9.626466035842896E-002;-1.124555710703135E-003;-8.563072187826037E-004;
2.422833333333334E+009;1.496250033378601E-001;-9.782269597053528E-002;-1.142014749348164E-003;-8.327107643708587E-004;
2.423000000000000E+009;1.498023718595505E-001;-9.938351809978485E-002;-9.872433729469776E-004;-7.827801746316254E-004;
2.423166666666667E+009;1.503316462039948E-001;-1.008838936686516E-001;-1.114725717343390E-003;-6.584044895134866E-004;
2.423333333333334E+009;1.509227603673935E-001;-1.023629605770111E-001;-9.635984315536916E-004;-7.524001994170249E-004;
2.423500000000000E+009;1.513323783874512E-001;-1.037939116358757E-001;-8.104603621177375E-004;-7.083888049237430E-004;
2.423666666666667E+009;1.516209840774536E-001;-1.051797717809677E-001;-9.359629475511611E-004;-6.090326351113617E-004;
2.423833333333334E+009;1.522806882858276E-001;-1.064424663782120E-001;-8.226737263612449E-004;-6.806589663028717E-004;
2.424000000000000E+009;1.528622359037399E-001;-1.073806211352348E-001;-8.668982191011310E-004;-3.756608930416405E-004;
2.424166666666667E+009;1.533100903034210E-001;-1.086349412798882E-001;-6.847166805528104E-004;-6.257639615796506E-004;
2.424333333333334E+009;1.539807468652725E-001;-1.095757186412811E-001;-7.283182931132615E-004;-5.304166115820408E-004;
2.424500000000000E+009;1.543635129928589E-001;-1.105122938752174E-001;-7.666554884053767E-004;-5.629918305203319E-004;
2.424666666666667E+009;1.551077961921692E-001;-1.112894341349602E-001;-7.504621171392500E-004;-6.240420043468475E-004;
2.424833333333334E+009;1.553261429071426E-001;-1.122380942106247E-001;-7.277302793227136E-004;-4.938087658956647E-004;
2.425000000000000E+009;1.558813452720642E-001;-1.129882559180260E-001;-5.755331367254257E-004;-3.563027712516487E-004;
2.425166666666667E+009;1.561063230037689E-001;-1.136405169963837E-001;-7.218025857582688E-004;-4.009990079794079E-004;
2.425333333333334E+009;1.565007716417313E-001;-1.140752062201500E-001;-5.230070673860610E-004;-3.776356461457908E-004;
2.425500000000000E+009;1.568743735551834E-001;-1.147336959838867E-001;-5.312708090059459E-004;-4.813113773707300E-004;
2.425666666666667E+009;1.569688469171524E-001;-1.150490790605545E-001;-6.185771198943257E-004;-3.826695319730789E-004;
2.425833333333334E+009;1.571934223175049E-001;-1.155283600091934E-001;-6.225523538887501E-004;-4.113942268304527E-004;
2.426000000000000E+009;1.572649925947189E-001;-1.159204244613648E-001;-5.294163711369038E-004;-3.935509012080729E-004;
2.426166666666667E+009;1.573811024427414E-001;-1.160650253295898E-001;-6.038318970240653E-004;-3.283333790022880E-004;
2.426333333333334E+009;1.571273654699326E-001;-1.162859648466110E-001;-3.453160170465708E-004;-2.823221147991717E-004;
2.426500000000000E+009;1.570648849010468E-001;-1.164382696151733E-001;-3.799591504503042E-004;-4.740020667668432E-004;
2.426666666666667E+009;1.568659991025925E-001;-1.163999810814858E-001;-4.187223094049841E-004;-4.557288484647870E-004;
2.426833333333334E+009;1.564952731132507E-001;-1.165759637951851E-001;-4.767677746713162E-004;-4.201915871817619E-004;
2.427000000000000E+009;1.558945178985596E-001;-1.168994680047035E-001;-4.000857588835061E-004;-3.182425571139902E-004;
2.427166666666667E+009;1.552923619747162E-001;-1.167091503739357E-001;-3.345790610183030E-004;-4.093449388165027E-004;
2.427333333333334E+009;1.546091288328171E-001;-1.168674081563950E-001;-1.942127855727449E-004;-4.910145071335137E-004;
2.427500000000000E+009;1.539504826068878E-001;-1.170390918850899E-001;-3.133051213808358E-004;-4.754713736474514E-004;
2.427666666666667E+009;1.530187726020813E-001;-1.172287687659264E-001;-2.428872539894655E-004;-4.555482009891421E-004;
