# Version 1.00
#
freq[Hz];re:Trc1_S11;im:Trc1_S11;re:Trc2_S21;im:Trc2_S21;
2.400000000000000E+009;1.564034223556519E-001;6.038192659616470E-002;-3.433948382735252E-003;5.774496123194695E-003;
2.400166666666667E+009;1.564799696207047E-001;5.865687876939774E-002;-3.266897518187761E-003;5.861648358404636E-003;
2.400333333333334E+009;1.566236615180969E-001;5.641589313745499E-002;-3.149934113025665E-003;5.836082622408867E-003;
2.400500000000000E+009;1.569550335407257E-001;5.447803065180779E-002;-2.808812307193875E-003;6.000500638037920E-003;
2.400666666666667E+009;1.571089327335358E-001;5.236810445785523E-002;-2.615765668451786E-003;6.142149213701487E-003;
2.400833333333334E+009;1.574553549289703E-001;5.046384409070015E-002;-2.462618285790086E-003;6.317300256341696E-003;
2.401000000000000E+009;1.578864008188248E-001;4.825804755091667E-002;-2.097895834594965E-003;6.243260111659765E-003;
2.401166666666667E+009;1.583286076784134E-001;4.582424089312553E-002;-1.952343736775219E-003;6.143879145383835E-003;
2.401333333333334E+009;1.587073355913162E-001;4.375710338354111E-002;-1.711881021037698E-003;6.220018956810236E-003;
2.401500000000000E+009;1.593980938196182E-001;4.177888482809067E-002;-1.501239952631295E-003;6.374471820890904E-003;
2.401666666666667E+009;1.600159257650375E-001;3.983024880290031E-002;-1.516950200311840E-003;6.429639644920826E-003;
2.401833333333334E+009;1.605974733829498E-001;3.778506442904472E-002;-1.051500788889825E-003;6.538114044815302E-003;
2.402000000000000E+009;1.611210107803345E-001;3.597415983676910E-002;-9.248408023267984E-004;6.600347813218832E-003;
2.402166666666667E+009;1.618584394454956E-001;3.412282094359398E-002;-8.455485804006457E-004;6.663026753813028E-003;
2.402333333333334E+009;1.628582328557968E-001;3.224292024970055E-002;-4.199076793156564E-004;6.586862262338400E-003;
2.402500000000000E+009;1.636762022972107E-001;3.063741885125637E-002;-3.718969528563321E-004;6.742087192833424E-003;
2.402666666666667E+009;1.644617617130280E-001;2.899016067385674E-002;1.041960640577599E-004;6.618118844926357E-003;
2.402833333333334E+009;1.654083132743835E-001;2.756418846547604E-002;3.563608333934099E-004;6.627276539802551E-003;
2.403000000000000E+009;1.662700623273850E-001;2.599589712917805E-002;3.530407848302275E-004;6.747795268893242E-003;
2.403166666666667E+009;1.672566533088684E-001;2.463734149932861E-002;5.540862912312150E-004;6.711476016789675E-003;
2.403333333333334E+009;1.682184338569641E-001;2.349709719419479E-002;8.076719823293388E-004;6.662913132458925E-003;
2.403500000000000E+009;1.691776663064957E-001;2.234204672276974E-002;1.213773153722286E-003;6.684315856546164E-003;
2.403666666666667E+009;1.701246500015259E-001;2.105899900197983E-002;1.296537462621927E-003;6.492982618510723E-003;
2.403833333333334E+009;1.711241155862808E-001;2.007905766367912E-002;1.694552949629724E-003;6.394349038600922E-003;
2.404000000000000E+009;1.719840914011002E-001;1.933158934116364E-002;2.139506395906210E-003;6.511783692985773E-003;
2.404166666666667E+009;1.729740053415299E-001;1.843713037669659E-002;2.095797332003713E-003;6.242976058274508E-003;
2.404333333333334E+009;1.736768186092377E-001;1.766344904899597E-002;2.394720213487744E-003;6.320058368146420E-003;
2.404500000000000E+009;1.745780408382416E-001;1.691494137048721E-002;2.646675333380699E-003;6.115387659519911E-003;
2.404666666666667E+009;1.755158305168152E-001;1.637339591979981E-002;2.984296297654510E-003;5.945290904492140E-003;
2.404833333333334E+009;1.762166917324066E-001;1.571497321128845E-002;3.218425437808037E-003;5.995027255266905E-003;
2.405000000000000E+009;1.769112646579742E-001;1.501320023089647E-002;3.367920406162739E-003;5.945239681750536E-003;
2.405166666666667E+009;1.774322390556335E-001;1.470188982784748E-002;3.658390138298273E-003;5.694793537259102E-003;
2.405333333333334E+009;1.780932992696762E-001;1.414736825972796E-002;3.749655792489648E-003;5.630971863865852E-003;
2.405500000000000E+009;1.785260736942291E-001;1.411721669137478E-002;3.956095781177282E-003;5.395458545535803E-003;
2.405666666666667E+009;1.788852959871292E-001;1.379284262657166E-002;4.167760722339153E-003;5.241032689809799E-003;
2.405833333333334E+009;1.791609525680542E-001;1.363570522516966E-002;4.359128419309855E-003;5.124628543853760E-003;
2.406000000000000E+009;1.794833242893219E-001;1.320771779865027E-002;4.679436329752207E-003;4.955669865012169E-003;
2.406166666666667E+009;1.794290840625763E-001;1.302582863718271E-002;4.779723472893238E-003;4.626459907740355E-003;
2.406333333333334E+009;1.797676980495453E-001;1.277900859713554E-002;5.021985154598951E-003;4.436651244759560E-003;
2.406500000000000E+009;1.797877103090286E-001;1.234997715801001E-002;5.082242656499147E-003;4.272269085049629E-003;
2.406666666666667E+009;1.795292347669601E-001;1.225553825497627E-002;5.326110869646072E-003;3.956899978220463E-003;
2.406833333333334E+009;1.793462634086609E-001;1.191676408052445E-002;5.463138688355684E-003;3.777612932026386E-003;
2.407000000000000E+009;1.794171035289764E-001;1.147252600640059E-002;5.424911156296730E-003;3.588459221646190E-003;
2.407166666666667E+009;1.791103631258011E-001;1.119434274733067E-002;5.527621135115624E-003;3.321085590869188E-003;
2.407333333333334E+009;1.787494570016861E-001;1.060088351368904E-002;5.658808164298534E-003;3.057544352486730E-003;
2.407500000000000E+009;1.781052798032761E-001;1.014117710292339E-002;5.841184873133898E-003;2.830617129802704E-003;
2.407666666666667E+009;1.778389662504196E-001;9.526045992970467E-003;6.020737346261740E-003;2.453423570841551E-003;
2.407833333333334E+009;1.771747022867203E-001;8.775613270699978E-003;6.045167334377766E-003;2.110400935634971E-003;
2.408000000000000E+009;1.766649633646011E-001;7.966821081936359E-003;5.895150825381279E-003;1.861400087364018E-003;
2.408166666666667E+009;1.760110408067703E-001;7.386483717709780E-003;6.038759369403124E-003;1.618825132027268E-003;
2.408333333333334E+009;1.756139695644379E-001;6.368458736687899E-003;6.059324368834496E-003;1.405632472597063E-003;
2.408500000000000E+009;1.748641580343247E-001;5.325542762875557E-003;6.095786113291979E-003;1.252594054676592E-003;
2.408666666666667E+009;1.741105318069458E-001;4.115812014788389E-003;5.934651009738445E-003;8.245334611274302E-004;
2.408833333333334E+009;1.734193116426468E-001;2.885756082832813E-003;5.962523166090250E-003;7.031409768387675E-004;
2.409000000000000E+009;1.726288795471191E-001;1.732600503601134E-003;5.879845004528761E-003;5.428129225037992E-004;
2.409166666666667E+009;1.721272170543671E-001;3.916113346349448E-004;5.780261941254139E-003;1.445260131731629E-004;
2.409333333333334E+009;1.713860929012299E-001;-1.104314229451120E-003;5.829771514981985E-003;5.960794442216866E-005;
2.409500000000000E+009;1.707719266414642E-001;-2.746214391663671E-003;5.640824325382710E-003;-1.889312261482701E-004;
2.409666666666667E+009;1.701932847499847E-001;-4.288012627512217E-003;5.608798004686832E-003;-4.264021408744156E-004;
2.409833333333334E+009;1.693941056728363E-001;-5.828694906085730E-003;5.528372246772051E-003;-5.254158750176430E-004;
2.410000000000000E+009;1.691069602966309E-001;-7.513824384659529E-003;5.413788370788097E-003;-8.840305963531137E-004;
2.410166666666667E+009;1.685248613357544E-001;-9.333156980574131E-003;5.270579829812050E-003;-9.859987767413259E-004;
2.410333333333334E+009;1.682193130254746E-001;-1.113526243716478E-002;5.360372830182314E-003;-1.093740575015545E-003;
2.410500000000000E+009;1.677047461271286E-001;-1.302971970289946E-002;5.149799399077892E-003;-1.249527558684349E-003;
2.410666666666667E+009;1.674759685993195E-001;-1.513094920665026E-002;5.117637570947409E-003;-1.328951562754810E-003;
2.410833333333334E+009;1.674156486988068E-001;-1.693833619356155E-002;4.964003339409828E-003;-1.617184840142727E-003;
2.411000000000000E+009;1.670965254306793E-001;-1.883084885776043E-002;4.810360725969076E-003;-1.737100654281676E-003;
2.411166666666667E+009;1.672848314046860E-001;-2.077756449580193E-002;4.717161878943443E-003;-1.930517260916531E-003;
2.411333333333334E+009;1.670811474323273E-001;-2.279121614992619E-002;4.622156731784344E-003;-2.055187243968248E-003;
2.411500000000000E+009;1.671450883150101E-001;-2.479570545256138E-002;4.473675042390823E-003;-2.379672834649682E-003;
2.411666666666667E+009;1.674358993768692E-001;-2.674630470573902E-002;4.351180512458086E-003;-2.215987071394920E-003;
2.411833333333334E+009;1.676367521286011E-001;-2.849603071808815E-002;4.064640961587429E-003;-2.556076971814036E-003;
2.412000000000000E+009;1.680341362953186E-001;-3.060849756002426E-002;3.884661244228482E-003;-2.496690023690462E-003;
2.412166666666667E+009;1.683546006679535E-001;-3.245165571570396E-002;3.846421604976058E-003;-2.627261681482196E-003;
2.412333333333334E+009;1.687583625316620E-001;-3.427014499902725E-002;3.808148438110948E-003;-2.758113667368889E-003;
2.412500000000000E+009;1.693435311317444E-001;-3.611878305673599E-002;3.620686940848827E-003;-2.810049569234252E-003;
2.412666666666667E+009;1.699644774198532E-001;-3.792989253997803E-002;3.455468220636249E-003;-2.826146781444550E-003;
2.412833333333334E+009;1.705280542373657E-001;-3.962445631623268E-002;3.332001855596900E-003;-3.090256825089455E-003;
2.413000000000000E+009;1.709734648466110E-001;-4.128290340304375E-002;3.090104321017861E-003;-3.061759518459439E-003;
2.413166666666667E+009;1.716749072074890E-001;-4.274338856339455E-002;3.017438342794776E-003;-3.268100786954165E-003;
2.413333333333334E+009;1.721330732107163E-001;-4.430900514125824E-002;2.970451721921563E-003;-3.266735235229135E-003;
2.413500000000000E+009;1.729424446821213E-001;-4.597473517060280E-002;2.714460948482156E-003;-3.276100847870112E-003;
2.413666666666667E+009;1.736393719911575E-001;-4.716436192393303E-002;2.633122494444251E-003;-3.391294507309794E-003;
2.413833333333334E+009;1.741662472486496E-001;-4.842925444245338E-002;2.455730224028230E-003;-3.355192253366113E-003;
2.414000000000000E+009;1.746996045112610E-001;-4.957805946469307E-002;2.293659606948495E-003;-3.472451120615006E-003;
2.414166666666667E+009;1.755063682794571E-001;-5.054854974150658E-002;2.036843216046691E-003;-3.425548318773508E-003;
2.414333333333334E+009;1.759919822216034E-001;-5.171345919370651E-002;2.037113066762686E-003;-3.532728413119912E-003;
2.414500000000000E+009;1.767653226852417E-001;-5.251075699925423E-002;1.757800811901689E-003;-3.454651217907667E-003;
2.414666666666667E+009;1.771969199180603E-001;-5.335337668657303E-002;1.691719051450491E-003;-3.481610212475061E-003;
2.414833333333334E+009;1.776476949453354E-001;-5.415040999650955E-002;1.583728124387562E-003;-3.457344369962812E-003;
2.415000000000000E+009;1.780299395322800E-001;-5.488092079758644E-002;1.393749727867544E-003;-3.523481078445911E-003;
2.415166666666667E+009;1.783177405595779E-001;-5.534772574901581E-002;1.349456491880119E-003;-3.538097022101283E-003;
2.415333333333334E+009;1.786692142486572E-001;-5.596975982189179E-002;9.285875712521374E-004;-3.387546865269542E-003;
2.415500000000000E+009;1.789623051881790E-001;-5.627101287245750E-002;1.073410385288298E-003;-3.382275346666575E-003;
2.415666666666667E+009;1.789852976799011E-001;-5.655137076973915E-002;8.135506068356335E-004;-3.327398095279932E-003;
2.415833333333334E+009;1.791079640388489E-001;-5.706591159105301E-002;7.807118236087263E-004;-3.450938966125250E-003;
2.416000000000000E+009;1.789324432611466E-001;-5.735442042350769E-002;7.247513276524842E-004;-3.173227421939373E-003;
2.416166666666667E+009;1.791341304779053E-001;-5.759322270751000E-002;6.704023107886314E-004;-3.257191739976406E-003;
2.416333333333334E+009;1.787052154541016E-001;-5.776241794228554E-002;4.884860827587545E-004;-3.209100803360343E-003;
2.416500000000000E+009;1.783633977174759E-001;-5.808416008949280E-002;3.515727294143289E-004;-3.269304987043142E-003;
2.416666666666667E+009;1.779316961765289E-001;-5.820834264159203E-002;2.831665624398738E-004;-3.148985328152776E-003;
2.416833333333334E+009;1.775358021259308E-001;-5.851811543107033E-002;2.725988451857120E-004;-3.173956181854010E-003;
2.417000000000000E+009;1.766655892133713E-001;-5.873784422874451E-002;1.288599160034210E-004;-2.951390342786908E-003;
2.417166666666667E+009;1.760697513818741E-001;-5.896843597292900E-002;3.357499508638284E-006;-2.975977025926113E-003;
2.417333333333334E+009;1.753104180097580E-001;-5.908932536840439E-002;-7.472322613466531E-005;-2.879374660551548E-003;
2.417500000000000E+009;1.743248403072357E-001;-5.965539440512657E-002;-1.593645283719525E-004;-2.991158515214920E-003;
2.417666666666667E+009;1.735398471355438E-001;-5.975837633013725E-002;-3.687167481984943E-004;-2.746681449934840E-003;
2.417833333333334E+009;1.724611222743988E-001;-6.008946523070335E-002;-3.628133854363114E-004;-2.823070157319307E-003;
2.418000000000000E+009;1.712437570095062E-001;-6.070138886570931E-002;-4.327937786001712E-004;-2.839638851583004E-003;
2.418166666666667E+009;1.702705323696137E-001;-6.105611845850945E-002;-4.981227684766054E-004;-2.689030254259706E-003;
2.418333333333334E+009;1.692836582660675E-001;-6.167124584317207E-002;-6.435280665755272E-004;-2.661941573023796E-003;
2.418500000000000E+009;1.678694635629654E-001;-6.210188195109367E-002;-7.038727053441107E-004;-2.611520932987332E-003;
2.418666666666667E+009;1.667645126581192E-001;-6.289019435644150E-002;-7.336500566452742E-004;-2.482420299202204E-003;
2.418833333333334E+009;1.653563529253006E-001;-6.360293179750443E-002;-7.865900406613946E-004;-2.472439780831337E-003;
2.419000000000000E+009;1.640730500221252E-001;-6.436888873577118E-002;-8.058179519139230E-004;-2.448225626721978E-003;
2.419166666666667E+009;1.628833413124085E-001;-6.537172198295593E-002;-9.943977929651737E-004;-2.213037107139826E-003;
2.419333333333334E+009;1.612957715988159E-001;-6.604336202144623E-002;-9.906593477353454E-004;-2.208305522799492E-003;
2.419500000000000E+009;1.602461040019989E-001;-6.723349541425705E-002;-9.877899428829551E-004;-2.186202909797430E-003;
2.419666666666667E+009;1.590665131807327E-001;-6.856145709753037E-002;-1.151710865087807E-003;-2.070902381092310E-003;
2.419833333333334E+009;1.578221768140793E-001;-6.941533833742142E-002;-1.276514027267695E-003;-1.991124358028173E-003;
2.420000000000000E+009;1.567274779081345E-001;-7.077560573816299E-002;-1.204820000566542E-003;-1.824099104851484E-003;
2.420166666666667E+009;1.556734740734100E-001;-7.204085588455200E-002;-1.333110383711755E-003;-1.964935800060630E-003;
2.420333333333334E+009;1.546262502670288E-001;-7.349503785371780E-002;-1.377727370709181E-003;-1.667012227699161E-003;
2.420500000000000E+009;1.538268327713013E-001;-7.481443136930466E-002;-1.173634780570865E-003;-1.626849872991443E-003;
2.420666666666667E+009;1.529021412134171E-001;-7.630398124456406E-002;-1.298480434343219E-003;-1.642841845750809E-003;
2.420833333333334E+009;1.521808356046677E-001;-7.785653322935104E-002;-1.319664530456066E-003;-1.503457548096776E-003;
2.421000000000000E+009;1.512615084648132E-001;-7.948408275842667E-002;-1.219339785166085E-003;-1.332669169642031E-003;
2.421166666666667E+009;1.507185250520706E-001;-8.115214854478836E-002;-1.210491987876594E-003;-1.368556288070977E-003;
2.421333333333334E+009;1.503799706697464E-001;-8.278401196002960E-002;-1.273353816941381E-003;-1.388929085806012E-003;
2.421500000000000E+009;1.496763676404953E-001;-8.440140634775162E-002;-1.201313803903759E-003;-1.261974917724729E-003;
2.421666666666667E+009;1.495592892169952E-001;-8.612245321273804E-002;-1.193399657495320E-003;-1.046764547936618E-003;
2.421833333333334E+009;1.493603438138962E-001;-8.783601969480515E-002;-1.238548196852207E-003;-1.153300167061389E-003;
2.422000000000000E+009;1.491813510656357E-001;-8.953765034675598E-002;-1.191616756841540E-003;-1.025362522341311E-003;
2.422166666666667E+009;1.490845084190369E-001;-9.140584617853165E-002;-1.162783475592732E-003;-8.572106598876417E-004;
2.422333333333334E+009;1.491230428218842E-001;-9.293381124734879E-002;-1.134267775341868E-003;-9.408415062353015E-004;
2.422500000000000E+009;1.490044593811035E-001;-9.442610293626785E-002;-1.180406427010894E-003;-1.008883700706065E-003;
2.422666666666667E+009;1.492532342672348E-001;-9.634923189878464E-002;-1.124350936152041E-003;-7.902095094323158E-004;
2.422833333333334E+009;1.494987159967423E-001;-9.781840443611145E-002;-1.107395859435201E-003;-6.187056424096227E-004;
2.423000000000000E+009;1.498160064220429E-001;-9.942279011011124E-002;-1.054467516951263E-003;-7.170539465732873E-004;
2.423166666666667E+009;1.501850336790085E-001;-1.010122448205948E-001;-1.187515212222934E-003;-6.524556083604693E-004;
2.423333333333334E+009;1.507083922624588E-001;-1.021513640880585E-001;-9.679758804850280E-004;-6.732445326633751E-004;
2.423500000000000E+009;1.511816978454590E-001;-1.036464124917984E-001;-9.830266935750842E-004;-5.255886353552342E-004;
2.423666666666667E+009;1.514966934919357E-001;-1.051520854234695E-001;-7.334724650718272E-004;-5.434527993202210E-004;
2.423833333333334E+009;1.522135734558106E-001;-1.062703058123589E-001;-9.510139352642000E-004;-6.298014777712524E-004;
2.424000000000000E+009;1.524849385023117E-001;-1.074390634894371E-001;-8.188924985006452E-004;-5.124869639985263E-004;
2.424166666666667E+009;1.531686335802078E-001;-1.085004061460495E-001;-7.978403591550887E-004;-6.285498966462910E-004;
2.424333333333334E+009;1.538259088993073E-001;-1.095741242170334E-001;-8.948589675128460E-004;-5.117512773722410E-004;
2.424500000000000E+009;1.544268727302551E-001;-1.106657832860947E-001;-7.081994554027915E-004;-5.150032811798155E-004;
2.424666666666667E+009;1.549870520830154E-001;-1.111702024936676E-001;-6.966944201849401E-004;-4.938242491334677E-004;
2.424833333333334E+009;1.550699770450592E-001;-1.121090054512024E-001;-8.728620596230030E-004;-4.151641041971743E-004;
2.425000000000000E+009;1.557785868644714E-001;-1.129090040922165E-001;-7.085657562129200E-004;-4.327705246396363E-004;
2.425166666666667E+009;1.560512185096741E-001;-1.134423092007637E-001;-7.913454319350421E-004;-4.244911542627960E-004;
2.425333333333334E+009;1.564113944768906E-001;-1.141024455428124E-001;-6.816355744376779E-004;-5.660091410391033E-004;
2.425500000000000E+009;1.568299382925034E-001;-1.146592944860458E-001;-6.139908218756318E-004;-3.623308148235083E-004;
2.425666666666667E+009;1.568001955747604E-001;-1.149558499455452E-001;-5.223745247349143E-004;-4.442527424544096E-004;
2.425833333333334E+009;1.570672988891602E-001;-1.154341921210289E-001;-5.674466374330223E-004;-4.739962460007519E-004;
2.426000000000000E+009;1.570286452770233E-001;-1.157918274402618E-001;-6.204662495292723E-004;-4.091647570021451E-004;
2.426166666666667E+009;1.572782695293427E-001;-1.160364374518395E-001;-5.090939812362194E-004;-3.266081912443042E-004;
2.426333333333334E+009;1.570150852203369E-001;-1.162042245268822E-001;-5.813728203065693E-004;-3.217968624085188E-004;
2.426500000000000E+009;1.569727361202240E-001;-1.164370104670525E-001;-5.318745970726013E-004;-3.600562631618232E-004;
2.426666666666667E+009;1.567248404026032E-001;-1.164582148194313E-001;-4.329331568442285E-004;-4.486904363147914E-004;
2.426833333333334E+009;1.563720554113388E-001;-1.165011525154114E-001;-4.834471910726279E-004;-4.241346905473620E-004;
2.427000000000000E+009;1.558547317981720E-001;-1.167197972536087E-001;-3.442982560954988E-004;-4.190741456113756E-004;
2.427166666666667E+009;1.553375571966171E-001;-1.167552098631859E-001;-2.966032479889691E-004;-3.883873287122697E-004;
2.427333333333334E+009;1.544444113969803E-001;-1.168845966458321E-001;-3.589158586692065E-004;-5.298886098898947E-004;
2.427500000000000E+009;1.539178639650345E-001;-1.169070899486542E-001;-3.670834994409233E-004;-4.615261568687856E-004;
2.427666666666667E+009;1.529580801725388E-001;-1.170978099107742E-001;-3.345721343066543E-004;-4.557040811050683E-004;
