# Version 1.00
#
freq[Hz];re:Trc1_S11;im:Trc1_S11;re:Trc2_S21;im:Trc2_S21;
2.400000000000000E+009;1.564042568206787E-001;6.021711602807045E-002;-3.564643207937479E-003;5.534567404538393E-003;
2.400166666666667E+009;1.566111594438553E-001;5.846119299530983E-002;-3.415095387026668E-003;5.609426647424698E-003;
2.400333333333334E+009;1.567189246416092E-001;5.647004023194313E-002;-3.051333129405975E-003;5.940238945186138E-003;
2.400500000000000E+009;1.569783091545105E-001;5.432950705289841E-002;-2.927441848441958E-003;6.016067694872618E-003;
2.400666666666667E+009;1.572904288768768E-001;5.232878774404526E-002;-2.672938862815499E-003;6.010701414197683E-003;
2.400833333333334E+009;1.575997322797775E-001;5.014128983020783E-002;-2.490732586011291E-003;6.067385897040367E-003;
2.401000000000000E+009;1.580212265253067E-001;4.802967607975006E-002;-2.417441690340638E-003;6.197601091116667E-003;
2.401166666666667E+009;1.585032641887665E-001;4.592230916023254E-002;-2.113294787704945E-003;6.133785005658865E-003;
2.401333333333334E+009;1.589122861623764E-001;4.377146437764168E-002;-1.895483583211899E-003;6.173464469611645E-003;
2.401500000000000E+009;1.595357358455658E-001;4.171052202582359E-002;-1.683101407252252E-003;6.390816997736692E-003;
2.401666666666667E+009;1.599303632974625E-001;3.980833664536476E-002;-1.417566905729473E-003;6.560136564075947E-003;
2.401833333333334E+009;1.606246083974838E-001;3.764734044671059E-002;-1.245385617949069E-003;6.634073797613382E-003;
2.402000000000000E+009;1.612979024648666E-001;3.598202392458916E-002;-1.044101663865149E-003;6.664190441370010E-003;
2.402166666666667E+009;1.621231436729431E-001;3.392971307039261E-002;-8.266807999461889E-004;6.578996311873198E-003;
2.402333333333334E+009;1.626551300287247E-001;3.222616389393807E-002;-4.502327356021851E-004;6.606880575418472E-003;
2.402500000000000E+009;1.636942327022553E-001;3.049521148204804E-002;-3.350838669575751E-004;6.715889554470778E-003;
2.402666666666667E+009;1.644914597272873E-001;2.898481860756874E-002;-7.908982661319897E-005;6.623089313507080E-003;
2.402833333333334E+009;1.653131693601608E-001;2.761674858629704E-002;1.119695298257284E-004;6.846580654382706E-003;
2.403000000000000E+009;1.662703305482864E-001;2.603507414460182E-002;4.607478913385421E-004;6.694207899272442E-003;
2.403166666666667E+009;1.672718971967697E-001;2.461907267570496E-002;5.640073213726282E-004;6.747683044523001E-003;
2.403333333333334E+009;1.683743000030518E-001;2.349937893450260E-002;8.648051298223436E-004;6.677157711237669E-003;
2.403500000000000E+009;1.690943688154221E-001;2.234717644751072E-002;1.164749497547746E-003;6.650271359831095E-003;
2.403666666666667E+009;1.701547503471375E-001;2.112220413982868E-002;1.310851541347802E-003;6.441036704927683E-003;
2.403833333333334E+009;1.711740791797638E-001;2.009538188576698E-002;1.613849657587707E-003;6.399265024811029E-003;
2.404000000000000E+009;1.720978170633316E-001;1.915589347481728E-002;1.884507713839412E-003;6.374019198119640E-003;
2.404166666666667E+009;1.729675531387329E-001;1.827231235802174E-002;2.152260392904282E-003;6.503322161734104E-003;
2.404333333333334E+009;1.737270504236221E-001;1.760896109044552E-002;2.469421597197652E-003;6.426014937460423E-003;
2.404500000000000E+009;1.746217757463455E-001;1.667125709354878E-002;2.606813097372651E-003;6.343311630189419E-003;
2.404666666666667E+009;1.753979027271271E-001;1.626273803412914E-002;2.812565071508288E-003;6.062043365091085E-003;
2.404833333333334E+009;1.761332005262375E-001;1.573920994997025E-002;3.104855306446552E-003;6.003162357956171E-003;
2.405000000000000E+009;1.768028885126114E-001;1.518625952303410E-002;3.377478569746018E-003;5.839908029884100E-003;
2.405166666666667E+009;1.775206476449966E-001;1.477446965873241E-002;3.561481367796660E-003;5.854066926985979E-003;
2.405333333333334E+009;1.780233681201935E-001;1.437347475439310E-002;3.826859639957547E-003;5.447713192552328E-003;
2.405500000000000E+009;1.785200089216232E-001;1.401784364134073E-002;4.068208858370781E-003;5.236392375081778E-003;
2.405666666666667E+009;1.788990348577499E-001;1.366439275443554E-002;4.291105084121227E-003;5.311056040227413E-003;
2.405833333333334E+009;1.791569739580154E-001;1.356250513345003E-002;4.300646949559450E-003;5.118747707456350E-003;
2.406000000000000E+009;1.794482618570328E-001;1.300297956913710E-002;4.621411208063364E-003;4.879017826169729E-003;
2.406166666666667E+009;1.794990152120590E-001;1.313155610114336E-002;4.919313360005617E-003;4.667432513087988E-003;
2.406333333333334E+009;1.798636913299561E-001;1.271414570510387E-002;4.981031641364098E-003;4.425038117915392E-003;
2.406500000000000E+009;1.797035485506058E-001;1.242505852133036E-002;5.163954105228186E-003;4.093261435627937E-003;
2.406666666666667E+009;1.795574724674225E-001;1.227345410734415E-002;5.329751409590244E-003;3.999342676252127E-003;
2.406833333333334E+009;1.794935613870621E-001;1.176427770406008E-002;5.518886726349592E-003;3.752871649339795E-003;
2.407000000000000E+009;1.793026030063629E-001;1.152287889271975E-002;5.616623908281326E-003;3.492709947749972E-003;
2.407166666666667E+009;1.790910959243774E-001;1.117244828492403E-002;5.586242303252220E-003;3.239482874050736E-003;
2.407333333333334E+009;1.786246746778488E-001;1.065970212221146E-002;5.502561572939158E-003;2.991159679368138E-003;
2.407500000000000E+009;1.782141029834747E-001;1.010922156274319E-002;5.876332987099886E-003;2.669926034286618E-003;
2.407666666666667E+009;1.778393834829330E-001;9.555947035551071E-003;5.945206154137850E-003;2.533186459913850E-003;
2.407833333333334E+009;1.771066039800644E-001;8.816767483949661E-003;5.898508243262768E-003;2.101872814819217E-003;
2.408000000000000E+009;1.766077131032944E-001;7.892743684351444E-003;5.909698083996773E-003;2.166618593037128E-003;
2.408166666666667E+009;1.759625524282455E-001;7.290821988135576E-003;6.150019355118275E-003;1.801602425985038E-003;
2.408333333333334E+009;1.755742877721787E-001;6.372089497745037E-003;6.055928766727448E-003;1.644193427637219E-003;
2.408500000000000E+009;1.747374981641769E-001;5.193650256842375E-003;6.059944164007902E-003;1.036534900777042E-003;
2.408666666666667E+009;1.742367297410965E-001;4.090112168341875E-003;5.963488481938839E-003;8.199693402275443E-004;
2.408833333333334E+009;1.733595579862595E-001;3.059023758396506E-003;5.842708516865969E-003;7.397668669000268E-004;
2.409000000000000E+009;1.726753711700440E-001;1.584652229212225E-003;5.934782326221466E-003;4.920813371427357E-004;
2.409166666666667E+009;1.720567792654038E-001;2.242879127152264E-004;5.837053526192904E-003;1.891131978482008E-004;
2.409333333333334E+009;1.714767962694168E-001;-1.169463270343840E-003;5.890168715268374E-003;3.105167706962675E-005;
2.409500000000000E+009;1.707267612218857E-001;-2.723027486354113E-003;5.694069899618626E-003;-2.160797012038529E-004;
2.409666666666667E+009;1.701228320598602E-001;-4.311318974941969E-003;5.743561312556267E-003;-4.341295280028135E-004;
2.409833333333334E+009;1.694494038820267E-001;-5.684644449502230E-003;5.589800421148539E-003;-5.475580110214651E-004;
2.410000000000000E+009;1.689875125885010E-001;-7.624928373843432E-003;5.483001004904509E-003;-9.571671835146844E-004;
2.410166666666667E+009;1.685163229703903E-001;-9.356060065329075E-003;5.405867006629705E-003;-1.055280561558902E-003;
2.410333333333334E+009;1.680798232555389E-001;-1.121682766824961E-002;5.322339944541454E-003;-1.310679363086820E-003;
2.410500000000000E+009;1.676533222198486E-001;-1.313536986708641E-002;5.128724966198206E-003;-1.340279239229858E-003;
2.410666666666667E+009;1.671961694955826E-001;-1.508046034723520E-002;4.932120908051729E-003;-1.537601114250720E-003;
2.410833333333334E+009;1.672285050153732E-001;-1.701909303665161E-002;4.787274636328220E-003;-1.591376611031592E-003;
2.411000000000000E+009;1.670139878988266E-001;-1.893851906061173E-002;4.820512607693672E-003;-1.784806489013135E-003;
2.411166666666667E+009;1.669109016656876E-001;-2.095906622707844E-002;4.535763524472714E-003;-1.923286356031895E-003;
2.411333333333334E+009;1.667820215225220E-001;-2.270481735467911E-002;4.481566138565540E-003;-2.146944869309664E-003;
2.411500000000000E+009;1.669749766588211E-001;-2.488612942397595E-002;4.330473951995373E-003;-2.028760034590960E-003;
2.411666666666667E+009;1.672408282756805E-001;-2.662516757845879E-002;4.132227506488562E-003;-2.269845455884934E-003;
2.411833333333334E+009;1.676780432462692E-001;-2.870322018861771E-002;4.027395509183407E-003;-2.526961499825120E-003;
2.412000000000000E+009;1.679036170244217E-001;-3.067205473780632E-002;3.970938734710217E-003;-2.517088782042265E-003;
2.412166666666667E+009;1.680964827537537E-001;-3.240397572517395E-002;3.815674455836415E-003;-2.608454786241055E-003;
2.412333333333334E+009;1.687367409467697E-001;-3.425755724310875E-002;3.782683750614524E-003;-2.814071252942085E-003;
2.412500000000000E+009;1.692086160182953E-001;-3.600467741489410E-002;3.566585015505552E-003;-2.721512224525213E-003;
2.412666666666667E+009;1.699852645397186E-001;-3.802819550037384E-002;3.276193514466286E-003;-2.849166281521320E-003;
2.412833333333334E+009;1.702416986227036E-001;-3.952565416693687E-002;3.234494477510452E-003;-3.048886777833104E-003;
2.413000000000000E+009;1.709658056497574E-001;-4.121459648013115E-002;3.191168420016766E-003;-3.087350865826011E-003;
2.413166666666667E+009;1.716187149286270E-001;-4.278012365102768E-002;3.063281765207648E-003;-3.126362571492791E-003;
2.413333333333334E+009;1.721301823854446E-001;-4.424679651856422E-002;2.913850592449307E-003;-3.221914172172546E-003;
2.413500000000000E+009;1.728782057762146E-001;-4.573491215705872E-002;2.805351046845317E-003;-3.338921116665006E-003;
2.413666666666667E+009;1.735768169164658E-001;-4.709875583648682E-002;2.587150782346726E-003;-3.194653429090977E-003;
2.413833333333334E+009;1.741972118616104E-001;-4.843283817172051E-002;2.552871126681566E-003;-3.309725318104029E-003;
2.414000000000000E+009;1.746321171522141E-001;-4.967891052365303E-002;2.238275948911905E-003;-3.520028665661812E-003;
2.414166666666667E+009;1.755177974700928E-001;-5.057915300130844E-002;2.106976462528110E-003;-3.497195197269321E-003;
2.414333333333334E+009;1.759573221206665E-001;-5.166582763195038E-002;1.855970709584653E-003;-3.477237187325954E-003;
2.414500000000000E+009;1.767421513795853E-001;-5.249607563018799E-002;1.788686146028340E-003;-3.471027594059706E-003;
2.414666666666667E+009;1.772265136241913E-001;-5.325795710086823E-002;1.814349438063800E-003;-3.458530409261584E-003;
2.414833333333334E+009;1.776219457387924E-001;-5.418467894196510E-002;1.519880723208189E-003;-3.538102144375444E-003;
2.415000000000000E+009;1.780100315809250E-001;-5.477268248796463E-002;1.518822507932782E-003;-3.533031092956662E-003;
2.415166666666667E+009;1.783342212438583E-001;-5.537569895386696E-002;1.292546279728413E-003;-3.564092563465238E-003;
2.415333333333334E+009;1.787452399730682E-001;-5.589338019490242E-002;1.159376231953502E-003;-3.510977374389768E-003;
2.415500000000000E+009;1.789547652006149E-001;-5.638949945569038E-002;9.156476589851081E-004;-3.558020340278745E-003;
2.415666666666667E+009;1.790274381637573E-001;-5.662932619452477E-002;9.472851525060833E-004;-3.483620937913656E-003;
2.415833333333334E+009;1.790579110383987E-001;-5.702713876962662E-002;6.695083575323224E-004;-3.524150699377060E-003;
2.416000000000000E+009;1.788678765296936E-001;-5.740075558423996E-002;8.114602533169091E-004;-3.406433388590813E-003;
2.416166666666667E+009;1.789467632770538E-001;-5.768214166164398E-002;6.031575030647218E-004;-3.342846641317010E-003;
2.416333333333334E+009;1.786361783742905E-001;-5.793767049908638E-002;3.365793090779334E-004;-3.355542896315455E-003;
2.416500000000000E+009;1.783266365528107E-001;-5.807200446724892E-002;3.340798721183091E-004;-3.247423563152552E-003;
2.416666666666667E+009;1.778577268123627E-001;-5.823441967368126E-002;2.121855213772506E-004;-3.250279696658254E-003;
2.416833333333334E+009;1.775017231702805E-001;-5.860341712832451E-002;1.059907299350016E-004;-3.220561193302274E-003;
2.417000000000000E+009;1.766656190156937E-001;-5.886102467775345E-002;1.233696639246773E-005;-3.072577295824885E-003;
2.417166666666667E+009;1.760706007480621E-001;-5.891229584813118E-002;-1.376228919980349E-005;-3.182529471814632E-003;
2.417333333333334E+009;1.751745939254761E-001;-5.918958038091660E-002;-7.277511758729816E-005;-3.038440365344286E-003;
2.417500000000000E+009;1.743579953908920E-001;-5.959649011492729E-002;-2.231364051112905E-004;-2.942663617432118E-003;
2.417666666666667E+009;1.734967082738876E-001;-5.983834341168404E-002;-2.293503785040230E-004;-2.932601142674685E-003;
2.417833333333334E+009;1.725096851587296E-001;-6.017636880278587E-002;-3.747544251382351E-004;-2.786973258480430E-003;
2.418000000000000E+009;1.712828129529953E-001;-6.076254695653915E-002;-5.661569884978235E-004;-2.712023444473743E-003;
2.418166666666667E+009;1.701610088348389E-001;-6.102139130234718E-002;-5.585658946074545E-004;-2.799726091325283E-003;
2.418333333333334E+009;1.692100614309311E-001;-6.162365898489952E-002;-5.955951637588441E-004;-2.602581633254886E-003;
2.418500000000000E+009;1.679168790578842E-001;-6.219817698001862E-002;-6.084388587623835E-004;-2.681605052202940E-003;
2.418666666666667E+009;1.666887104511261E-001;-6.290474534034729E-002;-7.170658209361136E-004;-2.581783104687929E-003;
2.418833333333334E+009;1.652726978063583E-001;-6.364975869655609E-002;-9.783628629520536E-004;-2.574149286374450E-003;
2.419000000000000E+009;1.639325171709061E-001;-6.442926824092865E-002;-8.696008590050042E-004;-2.472011139616370E-003;
2.419166666666667E+009;1.628386676311493E-001;-6.534244120121002E-002;-9.668671409599483E-004;-2.395089482888579E-003;
2.419333333333334E+009;1.613077223300934E-001;-6.621759384870529E-002;-1.011119689792395E-003;-2.337858080863953E-003;
2.419500000000000E+009;1.601640880107880E-001;-6.734008342027664E-002;-1.191209070384502E-003;-2.259439323097467E-003;
2.419666666666667E+009;1.589966416358948E-001;-6.847390532493591E-002;-1.029498176649213E-003;-2.112439600750804E-003;
2.419833333333334E+009;1.578667610883713E-001;-6.946782022714615E-002;-1.201234408654273E-003;-2.093094168230891E-003;
2.420000000000000E+009;1.567623317241669E-001;-7.085961103439331E-002;-1.175833051092923E-003;-1.970204990357161E-003;
2.420166666666667E+009;1.556605696678162E-001;-7.218457758426666E-002;-1.237763557583094E-003;-1.856138696894050E-003;
2.420333333333334E+009;1.547250002622604E-001;-7.361060380935669E-002;-1.267656334675849E-003;-1.749682123772800E-003;
2.420500000000000E+009;1.537216007709503E-001;-7.487685978412628E-002;-1.277968403883278E-003;-1.640172209590673E-003;
2.420666666666667E+009;1.528207659721375E-001;-7.626040279865265E-002;-1.166954403743148E-003;-1.633628737181425E-003;
2.420833333333334E+009;1.521306484937668E-001;-7.791218161582947E-002;-1.294920104555786E-003;-1.623956602998078E-003;
2.421000000000000E+009;1.513350307941437E-001;-7.942189276218414E-002;-1.304348348639906E-003;-1.353618339635432E-003;
2.421166666666667E+009;1.507169902324677E-001;-8.100728690624237E-002;-1.357626402750611E-003;-1.305128098465502E-003;
2.421333333333334E+009;1.502857953310013E-001;-8.283348381519318E-002;-1.255191164091229E-003;-1.316603040322661E-003;
2.421500000000000E+009;1.497949957847595E-001;-8.439717441797257E-002;-1.338685629889369E-003;-1.357882400043309E-003;
2.421666666666667E+009;1.495008170604706E-001;-8.614016324281693E-002;-1.427156734280288E-003;-1.086827716790140E-003;
2.421833333333334E+009;1.493000984191895E-001;-8.782686293125153E-002;-1.226736116223037E-003;-9.895144030451775E-004;
2.422000000000000E+009;1.491174548864365E-001;-8.946540951728821E-002;-1.230158726684749E-003;-9.965158533304930E-004;
2.422166666666667E+009;1.490117311477661E-001;-9.126622229814529E-002;-1.160418498329818E-003;-8.463841513730586E-004;
2.422333333333334E+009;1.489702314138413E-001;-9.288542717695236E-002;-1.157635357230902E-003;-8.807072881609201E-004;
2.422500000000000E+009;1.491982787847519E-001;-9.445206075906754E-002;-1.122310408391058E-003;-8.301117341034114E-004;
2.422666666666667E+009;1.492923647165299E-001;-9.621712565422058E-002;-1.053013838827610E-003;-8.058542734943330E-004;
2.422833333333334E+009;1.495647877454758E-001;-9.786227345466614E-002;-1.086506410501897E-003;-7.570188026875258E-004;
2.423000000000000E+009;1.497818082571030E-001;-9.919265657663345E-002;-1.040705945342779E-003;-6.023308378644288E-004;
2.423166666666667E+009;1.503516435623169E-001;-1.007888913154602E-001;-9.420944261364639E-004;-6.409771158359945E-004;
2.423333333333334E+009;1.507852077484131E-001;-1.022596210241318E-001;-9.372569620609283E-004;-6.047698552720249E-004;
2.423500000000000E+009;1.512845903635025E-001;-1.035916581749916E-001;-9.859756100922823E-004;-6.316846120171249E-004;
2.423666666666667E+009;1.515939384698868E-001;-1.051211208105087E-001;-8.643749752081931E-004;-7.426840020343661E-004;
2.423833333333334E+009;1.522932350635529E-001;-1.063527986407280E-001;-7.341674645431340E-004;-4.994548507966101E-004;
2.424000000000000E+009;1.525724679231644E-001;-1.074031814932823E-001;-9.814851218834519E-004;-4.157105577178299E-004;
2.424166666666667E+009;1.532419174909592E-001;-1.085667535662651E-001;-7.578564691357315E-004;-5.008786101825535E-004;
2.424333333333334E+009;1.539025008678436E-001;-1.096564307808876E-001;-7.247306639328599E-004;-4.668833280447871E-004;
2.424500000000000E+009;1.541919261217117E-001;-1.105433776974678E-001;-8.255623979493976E-004;-4.960536025464535E-004;
2.424666666666667E+009;1.549924015998840E-001;-1.113527119159699E-001;-8.910620235837996E-004;-5.700484616681933E-004;
2.424833333333334E+009;1.553938388824463E-001;-1.120850890874863E-001;-7.447017705999315E-004;-5.234724958427250E-004;
2.425000000000000E+009;1.558438241481781E-001;-1.129386648535729E-001;-7.407531375065446E-004;-5.883845151402056E-004;
2.425166666666667E+009;1.560556739568710E-001;-1.136454865336418E-001;-7.209976902231574E-004;-3.198699851054698E-004;
2.425333333333334E+009;1.565919220447540E-001;-1.141388341784477E-001;-8.438223158009350E-004;-5.247085355222225E-004;
2.425500000000000E+009;1.568306386470795E-001;-1.146446466445923E-001;-6.654296885244548E-004;-3.094345738645643E-004;
2.425666666666667E+009;1.569227278232575E-001;-1.150534972548485E-001;-6.847749464213848E-004;-3.786267188843340E-004;
2.425833333333334E+009;1.570803076028824E-001;-1.154840588569641E-001;-5.022637778893113E-004;-4.118157667107880E-004;
2.426000000000000E+009;1.571266502141953E-001;-1.159570068120956E-001;-5.450543831102550E-004;-5.356788169592619E-004;
2.426166666666667E+009;1.573090702295303E-001;-1.161573901772499E-001;-8.012006292119622E-004;-3.994042635895312E-004;
2.426333333333334E+009;1.570244133472443E-001;-1.163338199257851E-001;-6.413783412426710E-004;-3.503060142975301E-004;
2.426500000000000E+009;1.568600088357925E-001;-1.164451837539673E-001;-4.449224506970495E-004;-4.715083923656493E-004;
2.426666666666667E+009;1.566935777664185E-001;-1.164569556713104E-001;-4.829433455597609E-004;-4.472513101063669E-004;
2.426833333333334E+009;1.562092006206513E-001;-1.166058331727982E-001;-5.445563001558185E-004;-4.530236474238336E-004;
2.427000000000000E+009;1.557159721851349E-001;-1.169029474258423E-001;-5.869246087968350E-004;-4.105081607121974E-004;
2.427166666666667E+009;1.552013307809830E-001;-1.167473196983337E-001;-5.032985936850309E-004;-5.376236513257027E-004;
2.427333333333334E+009;1.545393317937851E-001;-1.169039681553841E-001;-3.996368905063719E-004;-5.103173316456378E-004;
2.427500000000000E+009;1.537833958864212E-001;-1.170635819435120E-001;-3.666403354145587E-004;-5.130104837007821E-004;
2.427666666666667E+009;1.528742462396622E-001;-1.171633601188660E-001;-3.427501069381833E-004;-5.863805999979377E-004;
