# Version 1.00
#
freq[Hz];re:Trc1_S11;im:Trc1_S11;re:Trc2_S21;im:Trc2_S21;
2.400000000000000E+009;1.568357497453690E-001;6.062484905123711E-002;-2.284850459545851E-003;5.037008784711361E-003;
2.400166666666667E+009;1.569085717201233E-001;5.894721671938896E-002;-2.216233639046550E-003;5.183293484151363E-003;
2.400333333333334E+009;1.569642573595047E-001;5.688518285751343E-002;-2.076697535812855E-003;5.124351941049099E-003;
2.400500000000000E+009;1.570500731468201E-001;5.494194477796555E-002;-1.917783869430423E-003;5.235811229795218E-003;
2.400666666666667E+009;1.573099344968796E-001;5.297730863094330E-002;-1.789212576113641E-003;5.210022442042828E-003;
2.400833333333334E+009;1.575731635093689E-001;5.109816417098045E-002;-1.627325778827071E-003;5.189545452594757E-003;
2.401000000000000E+009;1.579158753156662E-001;4.883932694792748E-002;-1.415974809788168E-003;5.264107137918472E-003;
2.401166666666667E+009;1.582373082637787E-001;4.673008993268013E-002;-1.274186884984374E-003;5.331817548722029E-003;
2.401333333333334E+009;1.584736406803131E-001;4.479150846600533E-002;-1.051292289048433E-003;5.314633715897799E-003;
2.401500000000000E+009;1.590184271335602E-001;4.275403916835785E-002;-9.865950560197234E-004;5.387762095779181E-003;
2.401666666666667E+009;1.595864892005920E-001;4.102333635091782E-002;-9.822064312174916E-004;5.507102236151695E-003;
2.401833333333334E+009;1.602787524461746E-001;3.883472830057144E-002;-6.331503973342478E-004;5.481486208736897E-003;
2.402000000000000E+009;1.604448556900024E-001;3.688359260559082E-002;-5.815617623738945E-004;5.348514765501022E-003;
2.402166666666667E+009;1.612098813056946E-001;3.497317433357239E-002;-2.953890361823142E-004;5.404495168477297E-003;
2.402333333333334E+009;1.620067656040192E-001;3.317997977137566E-002;-9.336892981082201E-005;5.387607961893082E-003;
2.402500000000000E+009;1.629721522331238E-001;3.164726123213768E-002;4.376041033538058E-005;5.437975749373436E-003;
2.402666666666667E+009;1.636740416288376E-001;2.989706955850124E-002;1.732821692712605E-004;5.656234920024872E-003;
2.402833333333334E+009;1.646298766136169E-001;2.845742926001549E-002;6.669015274383128E-004;5.394842941313982E-003;
2.403000000000000E+009;1.653085052967072E-001;2.705349586904049E-002;4.708033229690045E-004;5.498628597706556E-003;
2.403166666666667E+009;1.662606000900269E-001;2.555703185498714E-002;6.587656680494547E-004;5.469538737088442E-003;
2.403333333333334E+009;1.673877388238907E-001;2.431421726942062E-002;9.768665768206120E-004;5.448915995657444E-003;
2.403500000000000E+009;1.681016832590103E-001;2.310587838292122E-002;1.310603460296989E-003;5.448833107948303E-003;
2.403666666666667E+009;1.690651774406433E-001;2.165959030389786E-002;1.437828061170876E-003;5.449101794511080E-003;
2.403833333333334E+009;1.701921969652176E-001;2.057205699384213E-002;1.512824324890971E-003;5.412681493908167E-003;
2.404000000000000E+009;1.710159778594971E-001;1.971326023340225E-002;1.824377803131938E-003;5.149478092789650E-003;
2.404166666666667E+009;1.720404773950577E-001;1.865085028111935E-002;1.936198910698295E-003;5.066514480859041E-003;
2.404333333333334E+009;1.728760004043579E-001;1.772233471274376E-002;2.179321832954884E-003;5.013655871152878E-003;
2.404500000000000E+009;1.737167984247208E-001;1.702249795198441E-002;2.311052754521370E-003;4.995960742235184E-003;
2.404666666666667E+009;1.744791269302368E-001;1.627122238278389E-002;2.606315305456519E-003;4.929097834974527E-003;
2.404833333333334E+009;1.753367036581039E-001;1.564886607229710E-002;2.667223801836371E-003;4.799934104084969E-003;
2.405000000000000E+009;1.760513037443161E-001;1.503936015069485E-002;2.779329661279917E-003;4.778796806931496E-003;
2.405166666666667E+009;1.768357753753662E-001;1.452476251870394E-002;3.097400302067399E-003;4.488212522119284E-003;
2.405333333333334E+009;1.775552630424500E-001;1.399267464876175E-002;3.233035095036030E-003;4.374660551548004E-003;
2.405500000000000E+009;1.779827922582626E-001;1.354955602437258E-002;3.374432213604450E-003;4.161646589636803E-003;
2.405666666666667E+009;1.784487366676331E-001;1.330688036978245E-002;3.520792583003640E-003;4.005566705018282E-003;
2.405833333333334E+009;1.788842380046845E-001;1.295850798487663E-002;3.681299742311239E-003;4.186993930488825E-003;
2.406000000000000E+009;1.792784035205841E-001;1.248847041279078E-002;3.803647588938475E-003;3.965331241488457E-003;
2.406166666666667E+009;1.794565916061401E-001;1.242646481841803E-002;4.001979716122150E-003;3.653066931292415E-003;
2.406333333333334E+009;1.798019409179688E-001;1.209627091884613E-002;3.969245124608278E-003;3.556138370186091E-003;
2.406500000000000E+009;1.798397153615952E-001;1.161611825227737E-002;4.185160156339407E-003;3.320731688290834E-003;
2.406666666666667E+009;1.796238571405411E-001;1.141478214412928E-002;4.376838915050030E-003;3.187470603734255E-003;
2.406833333333334E+009;1.798142641782761E-001;1.100712455809116E-002;4.368763417005539E-003;3.019277006387711E-003;
2.407000000000000E+009;1.796675771474838E-001;1.054369378834963E-002;4.530861973762512E-003;2.834740327671170E-003;
2.407166666666667E+009;1.795415878295898E-001;1.028985809534788E-002;4.520087037235498E-003;2.526839962229133E-003;
2.407333333333334E+009;1.792048215866089E-001;9.680112823843956E-003;4.608037881553173E-003;2.384598832577467E-003;
2.407500000000000E+009;1.790342479944229E-001;9.296161122620106E-003;4.493707790970802E-003;2.069072797894478E-003;
2.407666666666667E+009;1.786058396100998E-001;8.740261197090149E-003;4.680038895457983E-003;2.033313270658255E-003;
2.407833333333334E+009;1.779280751943588E-001;8.122267201542854E-003;4.591678269207478E-003;1.745467656292021E-003;
2.408000000000000E+009;1.775308698415756E-001;7.288346998393536E-003;4.929461050778627E-003;1.529663219116628E-003;
2.408166666666667E+009;1.771262288093567E-001;6.731734611093998E-003;4.872253630310297E-003;1.316443085670471E-003;
2.408333333333334E+009;1.766886711120606E-001;5.803837906569243E-003;4.790809005498886E-003;1.248544431291521E-003;
2.408500000000000E+009;1.758113503456116E-001;4.877220373600721E-003;4.773178603500128E-003;9.004526073113084E-004;
2.408666666666667E+009;1.752952933311462E-001;3.681488800793886E-003;4.795941524207592E-003;7.834180723875761E-004;
2.408833333333334E+009;1.744943857192993E-001;2.762380987405777E-003;4.594732541590929E-003;6.456245901063085E-004;
2.409000000000000E+009;1.738554388284683E-001;1.491132075898349E-003;4.671778064221144E-003;3.473607066553086E-004;
2.409166666666667E+009;1.731832772493362E-001;1.525337138446048E-004;4.563478752970696E-003;2.418167860014364E-004;
2.409333333333334E+009;1.726710200309753E-001;-1.220497069880366E-003;4.546992946416140E-003;-5.927900474489434E-006;
2.409500000000000E+009;1.719051897525787E-001;-2.661094535142183E-003;4.430077504366636E-003;-2.165777987102047E-004;
2.409666666666667E+009;1.713034808635712E-001;-4.248842131346464E-003;4.364534281194210E-003;-2.180957671953365E-004;
2.409833333333334E+009;1.705974638462067E-001;-5.628278944641352E-003;4.256656393408775E-003;-4.111406742595136E-004;
2.410000000000000E+009;1.701801717281342E-001;-7.244150619953871E-003;4.183695651590824E-003;-5.435976781882346E-004;
2.410166666666667E+009;1.697811931371689E-001;-9.049513377249241E-003;4.078140482306480E-003;-6.151397246867418E-004;
2.410333333333334E+009;1.691167652606964E-001;-1.082380022853613E-002;4.133934620767832E-003;-8.809638675302267E-004;
2.410500000000000E+009;1.688512861728668E-001;-1.272590458393097E-002;4.036954138427973E-003;-9.362726705148816E-004;
2.410666666666667E+009;1.685200780630112E-001;-1.456231251358986E-002;3.984469920396805E-003;-1.064453390426934E-003;
2.410833333333334E+009;1.683222353458405E-001;-1.631544157862663E-002;3.803907195106149E-003;-1.296234084293246E-003;
2.411000000000000E+009;1.678801923990250E-001;-1.814438402652741E-002;3.611610736697912E-003;-1.241091871634126E-003;
2.411166666666667E+009;1.677910983562470E-001;-2.025029622018337E-002;3.583244280889630E-003;-1.407976262271404E-003;
2.411333333333334E+009;1.676930487155914E-001;-2.208937890827656E-002;3.443159628659487E-003;-1.352482591755688E-003;
2.411500000000000E+009;1.677298396825790E-001;-2.407279610633850E-002;3.364565083757043E-003;-1.550039625726640E-003;
2.411666666666667E+009;1.676737070083618E-001;-2.606348507106304E-002;3.291069529950619E-003;-1.696420018561184E-003;
2.411833333333334E+009;1.680197864770889E-001;-2.799562551081181E-002;3.085017204284668E-003;-1.774785225279629E-003;
2.412000000000000E+009;1.682313829660416E-001;-2.990676835179329E-002;2.952198265120387E-003;-1.714980811811984E-003;
2.412166666666667E+009;1.682943254709244E-001;-3.182746097445488E-002;3.005438949912787E-003;-1.742123276926577E-003;
2.412333333333334E+009;1.688941419124603E-001;-3.364685177803040E-002;2.750247251242399E-003;-1.918569207191467E-003;
2.412500000000000E+009;1.690724641084671E-001;-3.540222346782684E-002;2.736501162871718E-003;-1.920688315294683E-003;
2.412666666666667E+009;1.696130633354187E-001;-3.733122721314430E-002;2.726470120251179E-003;-2.115514827892184E-003;
2.412833333333334E+009;1.702060699462891E-001;-3.899555280804634E-002;2.535135718062520E-003;-2.068954752758145E-003;
2.413000000000000E+009;1.706287860870361E-001;-4.072317108511925E-002;2.486456185579300E-003;-2.087937900796533E-003;
2.413166666666667E+009;1.711716800928116E-001;-4.236524924635887E-002;2.264423761516810E-003;-2.164022298529744E-003;
2.413333333333334E+009;1.717563420534134E-001;-4.397566244006157E-002;2.185485791414976E-003;-2.317707287147641E-003;
2.413500000000000E+009;1.723953336477280E-001;-4.553294181823731E-002;2.092185663059354E-003;-2.280953573063016E-003;
2.413666666666667E+009;1.729637682437897E-001;-4.692282900214195E-002;2.090906025841832E-003;-2.181294606998563E-003;
2.413833333333334E+009;1.734546422958374E-001;-4.816511645913124E-002;1.832402544096112E-003;-2.281357999891043E-003;
2.414000000000000E+009;1.740532070398331E-001;-4.945501685142517E-002;1.857738709077239E-003;-2.012747339904308E-003;
2.414166666666667E+009;1.748866140842438E-001;-5.057800188660622E-002;1.741632004268467E-003;-2.083743223920465E-003;
2.414333333333334E+009;1.752821505069733E-001;-5.171159654855728E-002;1.570481224916875E-003;-2.174480352550745E-003;
2.414500000000000E+009;1.759800910949707E-001;-5.269481614232063E-002;1.424344605766237E-003;-2.241103211417794E-003;
2.414666666666667E+009;1.765255182981491E-001;-5.351671949028969E-002;1.376659376546741E-003;-2.203150652348995E-003;
2.414833333333334E+009;1.768732368946075E-001;-5.455012992024422E-002;1.351188286207616E-003;-2.260847948491573E-003;
2.415000000000000E+009;1.773899942636490E-001;-5.497053265571594E-002;1.300796284340322E-003;-2.318436745554209E-003;
2.415166666666667E+009;1.777022480964661E-001;-5.581242591142654E-002;1.079967129044235E-003;-2.340279985219240E-003;
2.415333333333334E+009;1.779139935970306E-001;-5.649739876389504E-002;1.002583187073469E-003;-2.186544239521027E-003;
2.415500000000000E+009;1.782724559307098E-001;-5.682267993688583E-002;9.855264797806740E-004;-2.175866160541773E-003;
2.415666666666667E+009;1.782971471548080E-001;-5.746045708656311E-002;8.468561572954059E-004;-2.273863879963756E-003;
2.415833333333334E+009;1.785315722227097E-001;-5.765610560774803E-002;8.508918108418584E-004;-2.302075503394008E-003;
2.416000000000000E+009;1.784234791994095E-001;-5.818175524473190E-002;7.260774727910757E-004;-2.160793868824840E-003;
2.416166666666667E+009;1.785712838172913E-001;-5.846546962857246E-002;5.742445937357843E-004;-2.217968227341771E-003;
2.416333333333334E+009;1.782886832952499E-001;-5.872295796871185E-002;5.656927824020386E-004;-2.256956882774830E-003;
2.416500000000000E+009;1.781390011310577E-001;-5.887522920966148E-002;4.367313231341541E-004;-2.102511236444116E-003;
2.416666666666667E+009;1.775779277086258E-001;-5.926664173603058E-002;2.461461699567735E-004;-2.183620817959309E-003;
2.416833333333334E+009;1.773604154586792E-001;-5.967614799737930E-002;2.029253228101879E-004;-2.139709424227476E-003;
2.417000000000000E+009;1.766750812530518E-001;-5.968897789716721E-002;3.462302265688777E-004;-2.132637659087777E-003;
2.417166666666667E+009;1.761869490146637E-001;-5.985551327466965E-002;1.283008023165166E-004;-1.979032298550010E-003;
2.417333333333334E+009;1.753952056169510E-001;-6.014485284686089E-002;9.332329500466585E-005;-1.977668376639485E-003;
2.417500000000000E+009;1.745681762695313E-001;-6.059171631932259E-002;-1.865777994680684E-005;-1.955674262717366E-003;
2.417666666666667E+009;1.738367676734924E-001;-6.070815771818161E-002;2.561203928053146E-006;-1.877574133686721E-003;
2.417833333333334E+009;1.728787422180176E-001;-6.113788858056068E-002;-1.220574922626838E-004;-1.809014240279794E-003;
2.418000000000000E+009;1.717321276664734E-001;-6.151245161890984E-002;-1.642765419092029E-004;-1.649021287448704E-003;
2.418166666666667E+009;1.706936657428742E-001;-6.179991364479065E-002;-9.400308044860140E-005;-1.738200662657619E-003;
2.418333333333334E+009;1.698824167251587E-001;-6.236207485198975E-002;-1.408437383361161E-004;-1.640045316889882E-003;
2.418500000000000E+009;1.685117781162262E-001;-6.285745650529862E-002;-2.397289354121313E-004;-1.522122649475932E-003;
2.418666666666667E+009;1.674943268299103E-001;-6.343968212604523E-002;-3.539923345670104E-004;-1.466215937398374E-003;
2.418833333333334E+009;1.661193966865540E-001;-6.423413008451462E-002;-2.967411128338426E-004;-1.541179139167070E-003;
2.419000000000000E+009;1.648647040128708E-001;-6.487564742565155E-002;-3.248116991017014E-004;-1.386732910759747E-003;
2.419166666666667E+009;1.636030375957489E-001;-6.567943096160889E-002;-4.110291483812034E-004;-1.363848336040974E-003;
2.419333333333334E+009;1.623006016016007E-001;-6.631227582693100E-002;-6.045133341103792E-004;-1.296470756642520E-003;
2.419500000000000E+009;1.612601131200790E-001;-6.761211156845093E-002;-3.786789020523429E-004;-1.441047992557287E-003;
2.419666666666667E+009;1.600798070430756E-001;-6.853837519884110E-002;-4.382355837151408E-004;-1.204400672577322E-003;
2.419833333333334E+009;1.588136106729507E-001;-6.954301148653030E-002;-5.248017259873450E-004;-1.027383608743548E-003;
2.420000000000000E+009;1.577396839857101E-001;-7.069572061300278E-002;-4.744625184684992E-004;-1.001270255073905E-003;
2.420166666666667E+009;1.567153632640839E-001;-7.193040102720261E-002;-3.829869674518704E-004;-9.149682009592652E-004;
2.420333333333334E+009;1.556378155946732E-001;-7.341768592596054E-002;-5.204156623221934E-004;-8.136729011312127E-004;
2.420500000000000E+009;1.547728031873703E-001;-7.456941902637482E-002;-4.514814063441008E-004;-8.429948939010501E-004;
2.420666666666667E+009;1.538205593824387E-001;-7.605981826782227E-002;-4.760484443977475E-004;-7.257697870954871E-004;
2.420833333333334E+009;1.529154926538467E-001;-7.749078422784805E-002;-3.813136136159301E-004;-7.636555237695575E-004;
2.421000000000000E+009;1.520692110061646E-001;-7.905805855989456E-002;-2.687343803700060E-004;-5.521245184354484E-004;
2.421166666666667E+009;1.515807062387466E-001;-8.070502430200577E-002;-2.548645134083927E-004;-6.126841763034463E-004;
2.421333333333334E+009;1.511432826519013E-001;-8.220691978931427E-002;-3.162579960189760E-004;-6.736572831869125E-004;
2.421500000000000E+009;1.503746360540390E-001;-8.383434265851975E-002;-3.096877189818770E-004;-3.561634512152523E-004;
2.421666666666667E+009;1.502290070056915E-001;-8.552357554435730E-002;-2.215430722571909E-004;-5.086131277494133E-004;
2.421833333333334E+009;1.497568041086197E-001;-8.723717182874680E-002;-1.285453327000141E-004;-5.137988482601941E-004;
2.422000000000000E+009;1.495183557271957E-001;-8.890225738286972E-002;-7.695845852140337E-005;-4.595970967784524E-004;
2.422166666666667E+009;1.492551118135452E-001;-9.080300480127335E-002;-1.334308180958033E-004;-3.554404247552156E-004;
2.422333333333334E+009;1.492106914520264E-001;-9.227927774190903E-002;-1.260229619219899E-004;-4.403973871376365E-004;
2.422500000000000E+009;1.491510868072510E-001;-9.390871971845627E-002;5.787502232124098E-005;-3.675566113088280E-004;
2.422666666666667E+009;1.491607427597046E-001;-9.575036913156509E-002;2.059820872091223E-005;-3.134230501018465E-004;
2.422833333333334E+009;1.494348496198654E-001;-9.725496172904968E-002;2.200117014581338E-004;-3.091926919296384E-004;
2.423000000000000E+009;1.496579200029373E-001;-9.876338392496109E-002;1.989251759368926E-004;-4.460269410628825E-004;
2.423166666666667E+009;1.501056551933289E-001;-1.004396080970764E-001;4.699626588262618E-004;-4.218849353492260E-004;
2.423333333333334E+009;1.502433419227600E-001;-1.018297225236893E-001;3.027165075764060E-004;-2.608646173030138E-004;
2.423500000000000E+009;1.508788168430328E-001;-1.034022644162178E-001;4.726815095636994E-004;-3.953505365643650E-004;
2.423666666666667E+009;1.510594338178635E-001;-1.047343313694000E-001;3.686103736981750E-004;-3.924697521142662E-004;
2.423833333333334E+009;1.517120748758316E-001;-1.061825826764107E-001;3.850015928037465E-004;-3.997141611762345E-004;
2.424000000000000E+009;1.521765887737274E-001;-1.071427613496780E-001;3.878132847603411E-004;-4.871140990871936E-004;
2.424166666666667E+009;1.525887697935104E-001;-1.083890125155449E-001;4.107561835553497E-004;-4.055880417581648E-004;
2.424333333333334E+009;1.530718803405762E-001;-1.095050722360611E-001;4.902207292616367E-004;-4.803703923244029E-004;
2.424500000000000E+009;1.537414342164993E-001;-1.106310561299324E-001;6.126106600277126E-004;-4.761683812830597E-004;
2.424666666666667E+009;1.542275995016098E-001;-1.111628711223602E-001;5.920756375417113E-004;-5.508470349013805E-004;
2.424833333333334E+009;1.545599251985550E-001;-1.123044863343239E-001;5.410175072029233E-004;-5.522071733139455E-004;
2.425000000000000E+009;1.549774855375290E-001;-1.130963936448097E-001;5.365758552215993E-004;-6.405994063243270E-004;
2.425166666666667E+009;1.552656292915344E-001;-1.137562766671181E-001;6.487891077995300E-004;-7.128352299332619E-004;
2.425333333333334E+009;1.557276844978333E-001;-1.144052520394325E-001;6.124384817667306E-004;-6.570687401108444E-004;
2.425500000000000E+009;1.560733765363693E-001;-1.150456517934799E-001;6.270880694501102E-004;-7.739046704955399E-004;
2.425666666666667E+009;1.562197506427765E-001;-1.154757589101791E-001;6.571647827513516E-004;-6.835119565948844E-004;
2.425833333333334E+009;1.564245671033859E-001;-1.159595921635628E-001;6.783581920899451E-004;-8.057418745011091E-004;
2.426000000000000E+009;1.565142720937729E-001;-1.163128837943077E-001;5.895597860217094E-004;-1.013845554552972E-003;
2.426166666666667E+009;1.567717194557190E-001;-1.167270466685295E-001;5.864718114025891E-004;-9.991469560191035E-004;
2.426333333333334E+009;1.566058546304703E-001;-1.169446334242821E-001;5.994080565869808E-004;-8.739427430555224E-004;
2.426500000000000E+009;1.566594839096069E-001;-1.170860379934311E-001;6.030624499544501E-004;-9.654285968281329E-004;
2.426666666666667E+009;1.564463376998901E-001;-1.171346157789230E-001;5.151177174411714E-004;-1.057744608260691E-003;
2.426833333333334E+009;1.560232490301132E-001;-1.173586249351502E-001;6.465502083301544E-004;-1.267105340957642E-003;
2.427000000000000E+009;1.556306779384613E-001;-1.175579205155373E-001;6.637278711423278E-004;-1.059463713318110E-003;
2.427166666666667E+009;1.552067697048187E-001;-1.176049485802651E-001;5.994426901452243E-004;-1.255977433174849E-003;
2.427333333333334E+009;1.545577347278595E-001;-1.177909746766090E-001;7.749177166260779E-004;-1.338346977718175E-003;
2.427500000000000E+009;1.539286673069000E-001;-1.178849637508392E-001;6.209976854734123E-004;-1.196586177684367E-003;
2.427666666666667E+009;1.531463712453842E-001;-1.180939003825188E-001;6.458836724050343E-004;-1.348116085864604E-003;
