# Version 1.00
#
freq[Hz];re:Trc1_S11;im:Trc1_S11;re:Trc2_S21;im:Trc2_S21;
2.400000000000000E+009;1.569545418024063E-001;6.066926941275597E-002;-2.272654557600617E-003;4.898000042885542E-003;
2.400166666666667E+009;1.569805741310120E-001;5.897441133856773E-002;-2.199357841163874E-003;5.212159361690283E-003;
2.400333333333334E+009;1.569930315017700E-001;5.704968050122261E-002;-2.103152219206095E-003;5.162706132978201E-003;
2.400500000000000E+009;1.571903973817825E-001;5.494105070829392E-002;-1.905475743114948E-003;5.177695769816637E-003;
2.400666666666667E+009;1.573405265808106E-001;5.299327522516251E-002;-1.744395354762673E-003;5.115155596286058E-003;
2.400833333333334E+009;1.575463116168976E-001;5.109455436468124E-002;-1.507641864009202E-003;5.153541918843985E-003;
2.401000000000000E+009;1.577581316232681E-001;4.881320148706436E-002;-1.440064865164459E-003;5.254793912172318E-003;
2.401166666666667E+009;1.583115905523300E-001;4.678693041205406E-002;-1.324995653703809E-003;5.167047027498484E-003;
2.401333333333334E+009;1.585935503244400E-001;4.477475583553314E-002;-1.120453700423241E-003;5.302579142153263E-003;
2.401500000000000E+009;1.590259671211243E-001;4.265266284346581E-002;-8.558526751585305E-004;5.451987963169813E-003;
2.401666666666667E+009;1.594419628381729E-001;4.074074327945709E-002;-7.866390515118837E-004;5.213165655732155E-003;
2.401833333333334E+009;1.601628214120865E-001;3.877441212534905E-002;-5.906156147830188E-004;5.391206592321396E-003;
2.402000000000000E+009;1.605814099311829E-001;3.689739108085632E-002;-4.219514376018196E-004;5.581002682447434E-003;
2.402166666666667E+009;1.612073183059692E-001;3.491169959306717E-002;-2.243505005026236E-004;5.562295671552420E-003;
2.402333333333334E+009;1.619647890329361E-001;3.338331356644630E-002;-1.740233419695869E-004;5.505332723259926E-003;
2.402500000000000E+009;1.629701256752014E-001;3.158741816878319E-002;1.423505746060982E-004;5.498061887919903E-003;
2.402666666666667E+009;1.636486500501633E-001;3.000782616436482E-002;3.720645690918900E-005;5.431312602013350E-003;
2.402833333333334E+009;1.644951254129410E-001;2.853560075163841E-002;4.579511005431414E-004;5.555658601224423E-003;
2.403000000000000E+009;1.652464121580124E-001;2.693157643079758E-002;8.047171868383884E-004;5.484345369040966E-003;
2.403166666666667E+009;1.663262248039246E-001;2.548531815409660E-002;8.291653357446194E-004;5.417319480329752E-003;
2.403333333333334E+009;1.673046052455902E-001;2.425343915820122E-002;9.811932686716318E-004;5.414886865764856E-003;
2.403500000000000E+009;1.683832257986069E-001;2.284008823335171E-002;1.156907877884805E-003;5.453863181173801E-003;
2.403666666666667E+009;1.691158115863800E-001;2.183937653899193E-002;1.312422566115856E-003;5.258821416646242E-003;
2.403833333333334E+009;1.702051460742950E-001;2.060410194098949E-002;1.496870652772486E-003;5.324831232428551E-003;
2.404000000000000E+009;1.711894273757935E-001;1.956526003777981E-002;1.640143222175539E-003;5.201618187129498E-003;
2.404166666666667E+009;1.720279902219772E-001;1.857845112681389E-002;2.063483232632279E-003;5.234433803707361E-003;
2.404333333333334E+009;1.728553473949432E-001;1.789083890616894E-002;2.132507506757975E-003;4.948657471686602E-003;
2.404500000000000E+009;1.736330986022949E-001;1.676496118307114E-002;2.393346512690187E-003;5.017962772399187E-003;
2.404666666666667E+009;1.745105832815170E-001;1.620534621179104E-002;2.629091963171959E-003;4.769929684698582E-003;
2.404833333333334E+009;1.752604693174362E-001;1.564865000545979E-002;2.732455031946302E-003;4.786927253007889E-003;
2.405000000000000E+009;1.760987341403961E-001;1.502150204032660E-002;2.788299694657326E-003;4.633301403373480E-003;
2.405166666666667E+009;1.769206970930100E-001;1.447890419512987E-002;3.093153936788440E-003;4.440985154360533E-003;
2.405333333333334E+009;1.774492114782333E-001;1.390200573951006E-002;3.234076546505094E-003;4.391617141664028E-003;
2.405500000000000E+009;1.781233251094818E-001;1.355715095996857E-002;3.338232170790434E-003;4.237094428390265E-003;
2.405666666666667E+009;1.784964054822922E-001;1.328471023589373E-002;3.547904314473271E-003;4.213244188576937E-003;
2.405833333333334E+009;1.787658482789993E-001;1.294242497533560E-002;3.707397030666471E-003;3.945315722376108E-003;
2.406000000000000E+009;1.793845146894455E-001;1.241584122180939E-002;3.855084767565131E-003;3.830525791272521E-003;
2.406166666666667E+009;1.793820858001709E-001;1.242260355502367E-002;3.887441009283066E-003;3.692186903208494E-003;
2.406333333333334E+009;1.797374635934830E-001;1.204479020088911E-002;4.068845883011818E-003;3.361931070685387E-003;
2.406500000000000E+009;1.799487471580505E-001;1.162258908152580E-002;4.086251836270094E-003;3.344748169183731E-003;
2.406666666666667E+009;1.797276437282562E-001;1.134672388434410E-002;4.268242046236992E-003;3.076501423493028E-003;
2.406833333333334E+009;1.798392385244370E-001;1.100028026849031E-002;4.259424749761820E-003;2.924476983025670E-003;
2.407000000000000E+009;1.797468513250351E-001;1.058990228921175E-002;4.521570634096861E-003;2.749715000391007E-003;
2.407166666666667E+009;1.797486990690231E-001;1.040292531251907E-002;4.634612239897251E-003;2.534175524488092E-003;
2.407333333333334E+009;1.792741119861603E-001;9.656663052737713E-003;4.598346073180437E-003;2.345982706174254E-003;
2.407500000000000E+009;1.789216101169586E-001;9.254818782210350E-003;4.593749530613422E-003;2.191460691392422E-003;
2.407666666666667E+009;1.786291897296906E-001;8.725501596927643E-003;4.633717238903046E-003;1.908772741444409E-003;
2.407833333333334E+009;1.780511736869812E-001;7.995222695171833E-003;4.682032391428947E-003;1.903804019093514E-003;
2.408000000000000E+009;1.776740103960037E-001;7.232009898871183E-003;4.642580635845661E-003;1.507536275312305E-003;
2.408166666666667E+009;1.769540458917618E-001;6.702309474349022E-003;4.748915787786245E-003;1.370232086628676E-003;
2.408333333333334E+009;1.765445321798325E-001;5.676863249391317E-003;4.752303939312697E-003;1.041830517351627E-003;
2.408500000000000E+009;1.760429888963699E-001;4.720952827483416E-003;4.734498448669910E-003;8.893461781553924E-004;
2.408666666666667E+009;1.752170771360397E-001;3.765266388654709E-003;4.673548042774200E-003;6.481391028501093E-004;
2.408833333333334E+009;1.745408475399017E-001;2.646770328283310E-003;4.701833706349134E-003;5.208661314100027E-004;
2.409000000000000E+009;1.738366931676865E-001;1.331549370661378E-003;4.675888456404209E-003;2.395432820776478E-004;
2.409166666666667E+009;1.732722073793411E-001;2.115652896463871E-004;4.618930630385876E-003;2.215162530774251E-004;
2.409333333333334E+009;1.725551038980484E-001;-1.140508684329689E-003;4.551873076707125E-003;-2.984374805237167E-005;
2.409500000000000E+009;1.719594895839691E-001;-2.681601326912642E-003;4.362171981483698E-003;-2.266446681460366E-004;
2.409666666666667E+009;1.712425947189331E-001;-4.214049782603979E-003;4.435101989656687E-003;-2.813743776641786E-004;
2.409833333333334E+009;1.706352978944778E-001;-5.729791708290577E-003;4.190671257674694E-003;-4.247545148245990E-004;
2.410000000000000E+009;1.702345311641693E-001;-7.160302717238665E-003;4.381970502436161E-003;-5.807979614473879E-004;
2.410166666666667E+009;1.696068793535233E-001;-9.052264504134655E-003;4.161898978054524E-003;-7.942646625451744E-004;
2.410333333333334E+009;1.693219095468521E-001;-1.090515777468681E-002;4.093019291758537E-003;-7.365180063061416E-004;
2.410500000000000E+009;1.688004434108734E-001;-1.254736632108688E-002;3.938625101000071E-003;-9.446353069506586E-004;
2.410666666666667E+009;1.684914976358414E-001;-1.461613364517689E-002;3.772925352677703E-003;-1.003541867248714E-003;
2.410833333333334E+009;1.681578010320664E-001;-1.622089743614197E-002;3.775431541725993E-003;-1.142827095463872E-003;
2.411000000000000E+009;1.678753495216370E-001;-1.833332143723965E-002;3.639835165813565E-003;-1.331818057224155E-003;
2.411166666666667E+009;1.676934212446213E-001;-2.010911889374256E-002;3.549630753695965E-003;-1.343306736089289E-003;
2.411333333333334E+009;1.676398664712906E-001;-2.198334224522114E-002;3.470843192189932E-003;-1.387346186675131E-003;
2.411500000000000E+009;1.677217185497284E-001;-2.416665479540825E-002;3.366671269759536E-003;-1.617784029804170E-003;
2.411666666666667E+009;1.677546054124832E-001;-2.603000961244106E-002;3.383612027391791E-003;-1.648217323236167E-003;
2.411833333333334E+009;1.680426299571991E-001;-2.782469615340233E-002;3.136924700811505E-003;-1.940016169101000E-003;
2.412000000000000E+009;1.681623458862305E-001;-2.991608157753944E-002;3.022544551640749E-003;-1.783614628948271E-003;
2.412166666666667E+009;1.682028770446777E-001;-3.165427595376968E-002;2.800195943564177E-003;-1.874376088380814E-003;
2.412333333333334E+009;1.689083576202393E-001;-3.351007774472237E-002;2.601634245365858E-003;-1.890282612293959E-003;
2.412500000000000E+009;1.693271100521088E-001;-3.543820977210999E-002;2.712888643145561E-003;-1.835120259784162E-003;
2.412666666666667E+009;1.696458458900452E-001;-3.737797960639000E-002;2.536483807489276E-003;-1.906980527564883E-003;
2.412833333333334E+009;1.700931936502457E-001;-3.904519602656364E-002;2.418606774881482E-003;-2.122453413903713E-003;
2.413000000000000E+009;1.707566380500794E-001;-4.055330902338028E-002;2.311992226168513E-003;-2.113464754074812E-003;
2.413166666666667E+009;1.713088601827622E-001;-4.224907979369164E-002;2.160466741770506E-003;-2.083200262859464E-003;
2.413333333333334E+009;1.717420816421509E-001;-4.387590661644936E-002;2.279733074828982E-003;-2.269219839945436E-003;
2.413500000000000E+009;1.724525392055512E-001;-4.546974226832390E-002;2.106553409248591E-003;-2.184145385399461E-003;
2.413666666666667E+009;1.731524467468262E-001;-4.695130512118340E-002;1.894679968245328E-003;-2.194862579926848E-003;
2.413833333333334E+009;1.735969334840775E-001;-4.815288633108139E-002;1.923382747918367E-003;-2.268609125167131E-003;
2.414000000000000E+009;1.741182804107666E-001;-4.953800886869431E-002;1.812305650673807E-003;-2.204182790592313E-003;
2.414166666666667E+009;1.749259531497955E-001;-5.064534395933151E-002;1.689666300080717E-003;-2.351673319935799E-003;
2.414333333333334E+009;1.753899157047272E-001;-5.161793529987335E-002;1.509993104264140E-003;-2.259360393509269E-003;
2.414500000000000E+009;1.760419011116028E-001;-5.262308940291405E-002;1.456701196730137E-003;-2.229251200333238E-003;
2.414666666666667E+009;1.764974892139435E-001;-5.358209088444710E-002;1.559563563205302E-003;-2.256194828078151E-003;
2.414833333333334E+009;1.768582463264465E-001;-5.448473989963532E-002;1.293775509111583E-003;-2.320946427062154E-003;
2.415000000000000E+009;1.772897392511368E-001;-5.510020256042481E-002;1.238255877979100E-003;-2.191926119849086E-003;
2.415166666666667E+009;1.776594072580338E-001;-5.583108589053154E-002;1.166632049717009E-003;-2.291176468133926E-003;
2.415333333333334E+009;1.780412495136261E-001;-5.645325034856796E-002;1.085283700376749E-003;-2.278480678796768E-003;
2.415500000000000E+009;1.782529354095459E-001;-5.690097808837891E-002;1.055068802088499E-003;-2.315923804417253E-003;
2.415666666666667E+009;1.783761233091354E-001;-5.727102234959602E-002;9.460664587095380E-004;-2.358864992856979E-003;
2.415833333333334E+009;1.785884797573090E-001;-5.777407437562943E-002;7.424581563100219E-004;-2.397754462435842E-003;
2.416000000000000E+009;1.784750372171402E-001;-5.811342597007752E-002;5.931246560066938E-004;-2.300918800756335E-003;
2.416166666666667E+009;1.784655600786209E-001;-5.849916860461235E-002;6.378844846040011E-004;-2.176047768443823E-003;
2.416333333333334E+009;1.782281100749970E-001;-5.866613984107971E-002;4.657315439544618E-004;-2.249046461656690E-003;
2.416500000000000E+009;1.781430542469025E-001;-5.910396203398705E-002;4.948318237438798E-004;-2.087539061903954E-003;
2.416666666666667E+009;1.777364760637283E-001;-5.914408713579178E-002;3.740340180229396E-004;-2.207976067438722E-003;
2.416833333333334E+009;1.773505955934525E-001;-5.951083451509476E-002;3.440670843701810E-004;-2.023571170866489E-003;
2.417000000000000E+009;1.766413152217865E-001;-5.973468720912933E-002;2.102233993355185E-004;-2.068467903882265E-003;
2.417166666666667E+009;1.760558336973190E-001;-5.979329347610474E-002;-2.638647174535436E-006;-1.976816216483712E-003;
2.417333333333334E+009;1.754164993762970E-001;-6.014013290405273E-002;9.694686013972387E-005;-2.001080429181457E-003;
2.417500000000000E+009;1.744608581066132E-001;-6.050154194235802E-002;9.982207848224789E-005;-2.013357589021325E-003;
2.417666666666667E+009;1.738338172435761E-001;-6.069595739245415E-002;-4.086658736923710E-005;-1.709649688564241E-003;
2.417833333333334E+009;1.728647500276566E-001;-6.103536114096642E-002;-8.898663509171456E-005;-1.742699998430908E-003;
2.418000000000000E+009;1.717818975448608E-001;-6.151601672172546E-002;-1.237624528585002E-004;-1.703017507679761E-003;
2.418166666666667E+009;1.707543879747391E-001;-6.181846931576729E-002;-1.876663300208747E-004;-1.659874222241342E-003;
2.418333333333334E+009;1.698875278234482E-001;-6.234458088874817E-002;-1.649125042604283E-004;-1.608065096661449E-003;
2.418500000000000E+009;1.686251312494278E-001;-6.285194307565689E-002;-3.374656662344933E-004;-1.728961477056146E-003;
2.418666666666667E+009;1.674652099609375E-001;-6.341264396905899E-002;-1.751400122884661E-004;-1.556173432618380E-003;
2.418833333333334E+009;1.662394255399704E-001;-6.419185549020767E-002;-2.486032317392528E-004;-1.418358762748539E-003;
2.419000000000000E+009;1.649252474308014E-001;-6.479634344577789E-002;-3.058577131014317E-004;-1.407014904543757E-003;
2.419166666666667E+009;1.636224389076233E-001;-6.565674394369125E-002;-2.669531386345625E-004;-1.441404689103365E-003;
2.419333333333334E+009;1.623583137989044E-001;-6.633204966783524E-002;-4.569864831864834E-004;-1.190335955470800E-003;
2.419500000000000E+009;1.611098945140839E-001;-6.732109934091568E-002;-3.614328452385962E-004;-1.345778582617641E-003;
2.419666666666667E+009;1.601094603538513E-001;-6.862798333168030E-002;-4.944243701174855E-004;-1.148893032222986E-003;
2.419833333333334E+009;1.587707549333572E-001;-6.959577649831772E-002;-6.754955393262208E-004;-1.134285819716752E-003;
2.420000000000000E+009;1.577369719743729E-001;-7.073662430047989E-002;-4.506006953306496E-004;-9.681696537882090E-004;
2.420166666666667E+009;1.565079241991043E-001;-7.194157689809799E-002;-5.362581578083336E-004;-9.614535374566913E-004;
2.420333333333334E+009;1.556452959775925E-001;-7.323393970727921E-002;-5.734918522648513E-004;-8.968004840426147E-004;
2.420500000000000E+009;1.547986567020416E-001;-7.456409186124802E-002;-4.786273639183492E-004;-9.188326657749713E-004;
2.420666666666667E+009;1.537131071090698E-001;-7.589247822761536E-002;-4.462520300876349E-004;-7.299015996977687E-004;
2.420833333333334E+009;1.528573632240295E-001;-7.740708440542221E-002;-3.700727538671345E-004;-7.105407421477139E-004;
2.421000000000000E+009;1.521939337253571E-001;-7.914431393146515E-002;-3.452450619079173E-004;-6.777342059649527E-004;
2.421166666666667E+009;1.516166031360626E-001;-8.062857389450073E-002;-2.926817396655679E-004;-6.510526873171330E-004;
2.421333333333334E+009;1.512303352355957E-001;-8.239059895277023E-002;-2.521185670047998E-004;-4.413592687342316E-004;
2.421500000000000E+009;1.505718380212784E-001;-8.382404595613480E-002;-1.716342958388850E-004;-4.497413756325841E-004;
2.421666666666667E+009;1.502204686403275E-001;-8.560944348573685E-002;-2.511180355213583E-004;-4.456914321053773E-004;
2.421833333333334E+009;1.497216373682022E-001;-8.725818991661072E-002;-2.515277592465282E-004;-5.225964123383164E-004;
2.422000000000000E+009;1.493392586708069E-001;-8.895647525787354E-002;-1.122047833632678E-004;-4.213649663142860E-004;
2.422166666666667E+009;1.494168788194656E-001;-9.090013056993485E-002;-6.565071817021817E-005;-3.791438066400588E-004;
2.422333333333334E+009;1.493717730045319E-001;-9.238625317811966E-002;8.666893336339854E-006;-3.969204844906926E-004;
2.422500000000000E+009;1.492486149072647E-001;-9.388129413127899E-002;1.528357825009152E-004;-3.726826107595116E-004;
2.422666666666667E+009;1.491824090480804E-001;-9.554791450500488E-002;1.752269308781251E-004;-3.332414780743420E-004;
2.422833333333334E+009;1.494436711072922E-001;-9.729433804750443E-002;2.513028448447585E-004;-3.551204281393439E-004;
2.423000000000000E+009;1.496208757162094E-001;-9.880243241786957E-002;2.398495125817135E-004;-3.781644336413592E-004;
2.423166666666667E+009;1.500253230333328E-001;-1.003950089216232E-001;3.178862680215389E-004;-3.405890020076186E-004;
2.423333333333334E+009;1.504564732313156E-001;-1.017014607787132E-001;2.247517113573849E-004;-5.686550284735858E-004;
2.423500000000000E+009;1.508177965879440E-001;-1.033219918608666E-001;3.658951609395444E-004;-3.458196006249636E-004;
2.423666666666667E+009;1.510438621044159E-001;-1.048464402556419E-001;2.917824022006244E-004;-3.904640034306794E-004;
2.423833333333334E+009;1.517085582017899E-001;-1.060141474008560E-001;4.353929834906012E-004;-5.883137346245349E-004;
2.424000000000000E+009;1.520789265632629E-001;-1.070793718099594E-001;5.447467556223273E-004;-3.576359595172107E-004;
2.424166666666667E+009;1.525392830371857E-001;-1.084270253777504E-001;4.158880910836160E-004;-4.486122925300151E-004;
2.424333333333334E+009;1.531450450420380E-001;-1.094845756888390E-001;4.543020040728152E-004;-5.034594214521349E-004;
2.424500000000000E+009;1.535851955413818E-001;-1.105334982275963E-001;5.653660628013313E-004;-5.715396837331355E-004;
2.424666666666667E+009;1.541476547718048E-001;-1.113958060741425E-001;4.920396604575217E-004;-4.916239995509386E-004;
2.424833333333334E+009;1.545321941375732E-001;-1.122905462980270E-001;6.000522407703102E-004;-5.499678081832826E-004;
2.425000000000000E+009;1.549787819385529E-001;-1.130527332425118E-001;5.307359388098121E-004;-7.757549174129963E-004;
2.425166666666667E+009;1.553311944007874E-001;-1.137495711445808E-001;6.567332893610001E-004;-6.767057930119336E-004;
2.425333333333334E+009;1.557160764932632E-001;-1.144128963351250E-001;7.700240239501000E-004;-6.929990486241877E-004;
2.425500000000000E+009;1.561501622200012E-001;-1.150314360857010E-001;5.121217691339552E-004;-6.067070644348860E-004;
2.425666666666667E+009;1.562981754541397E-001;-1.154934540390968E-001;5.298346513882279E-004;-8.488064049743116E-004;
2.425833333333334E+009;1.564985513687134E-001;-1.158489808440208E-001;5.722476053051651E-004;-8.653345284983516E-004;
2.426000000000000E+009;1.565906256437302E-001;-1.164069548249245E-001;6.218483322300017E-004;-9.962401818484068E-004;
2.426166666666667E+009;1.567814499139786E-001;-1.167515069246292E-001;5.368991987779737E-004;-9.215402533300221E-004;
2.426333333333334E+009;1.565477401018143E-001;-1.169357970356941E-001;6.161505007185042E-004;-7.946980767883360E-004;
2.426500000000000E+009;1.565710753202438E-001;-1.170581281185150E-001;5.847017164342105E-004;-1.008127466775477E-003;
2.426666666666667E+009;1.564693152904511E-001;-1.172222122550011E-001;7.083869422785938E-004;-1.150787109509111E-003;
2.426833333333334E+009;1.560686528682709E-001;-1.174976676702499E-001;6.164771039038897E-004;-9.845383465290070E-004;
2.427000000000000E+009;1.556670814752579E-001;-1.176733523607254E-001;5.194740951992571E-004;-1.131430151872337E-003;
2.427166666666667E+009;1.551215052604675E-001;-1.176947578787804E-001;6.862294976599515E-004;-1.162884873338044E-003;
2.427333333333334E+009;1.545559316873550E-001;-1.177393868565559E-001;6.695040501654148E-004;-1.343307550996542E-003;
2.427500000000000E+009;1.540260761976242E-001;-1.178669184446335E-001;6.007450865581632E-004;-1.213070470839739E-003;
2.427666666666667E+009;1.532353907823563E-001;-1.180346086621285E-001;6.140583427622914E-004;-1.430592616088688E-003;
