# Version 1.00
#
freq[Hz];re:Trc1_S11;im:Trc1_S11;re:Trc2_S21;im:Trc2_S21;
2.400000000000000E+009;1.550447791814804E-001;1.064946278929710E-001;-4.442596808075905E-003;-6.833931896835566E-003;
2.400166666666667E+009;1.547187119722366E-001;1.041749268770218E-001;-4.582057241350412E-003;-6.465779151767492E-003;
2.400333333333334E+009;1.547863483428955E-001;1.018183380365372E-001;-4.430229309946299E-003;-6.378700956702232E-003;
2.400500000000000E+009;1.545813679695129E-001;9.907802939414978E-002;-4.753711167722940E-003;-6.070881616324186E-003;
2.400666666666667E+009;1.548320800065994E-001;9.662968665361404E-002;-4.586267285048962E-003;-5.629680119454861E-003;
2.400833333333334E+009;1.547245085239410E-001;9.368122369050980E-002;-4.515633452683687E-003;-5.440257955342531E-003;
2.401000000000000E+009;1.548245996236801E-001;9.078174829483032E-002;-4.636243917047977E-003;-5.372299347072840E-003;
2.401166666666667E+009;1.548743098974228E-001;8.813873678445816E-002;-4.580330569297075E-003;-5.119381006807089E-003;
2.401333333333334E+009;1.553987711668015E-001;8.526734262704849E-002;-4.559330642223358E-003;-5.014913622289896E-003;
2.401500000000000E+009;1.557873189449310E-001;8.232554793357849E-002;-4.539231769740582E-003;-4.911876283586025E-003;
2.401666666666667E+009;1.560163795948029E-001;7.943098247051239E-002;-4.366993438452482E-003;-5.111652892082930E-003;
2.401833333333334E+009;1.566650122404099E-001;7.683598995208740E-002;-4.642171319574118E-003;-4.904648289084435E-003;
2.402000000000000E+009;1.576436460018158E-001;7.394632697105408E-002;-4.533191211521626E-003;-4.888627678155899E-003;
2.402166666666667E+009;1.581662744283676E-001;7.155890762805939E-002;-4.701444879174233E-003;-4.768170416355133E-003;
2.402333333333334E+009;1.593756824731827E-001;6.862469762563705E-002;-4.869309253990650E-003;-4.752022214233875E-003;
2.402500000000000E+009;1.604207307100296E-001;6.621269136667252E-002;-4.899426363408566E-003;-4.928615875542164E-003;
2.402666666666667E+009;1.616139411926270E-001;6.382343918085098E-002;-5.161746405065060E-003;-4.806889686733484E-003;
2.402833333333334E+009;1.629866659641266E-001;6.127136945724487E-002;-5.333682987838984E-003;-4.792201332747936E-003;
2.403000000000000E+009;1.643907129764557E-001;5.890374630689621E-002;-5.391563288867474E-003;-4.633259028196335E-003;
2.403166666666667E+009;1.660348474979401E-001;5.689048022031784E-002;-5.807904060930014E-003;-4.646883346140385E-003;
2.403333333333334E+009;1.673055142164230E-001;5.443748459219933E-002;-5.989711731672287E-003;-4.444533959031105E-003;
2.403500000000000E+009;1.690779477357864E-001;5.264836177229881E-002;-6.285110954195261E-003;-4.125832114368677E-003;
2.403666666666667E+009;1.709039360284805E-001;5.072504281997681E-002;-6.410603877156973E-003;-3.886711550876498E-003;
2.403833333333334E+009;1.725663095712662E-001;4.879245534539223E-002;-6.537312176078558E-003;-3.634792752563953E-003;
2.404000000000000E+009;1.740856021642685E-001;4.707515984773636E-002;-6.655261851847172E-003;-3.469879738986492E-003;
2.404166666666667E+009;1.759218424558640E-001;4.559498652815819E-002;-6.867191288620234E-003;-3.134544007480145E-003;
2.404333333333334E+009;1.776109039783478E-001;4.396864771842957E-002;-6.946370471268892E-003;-2.791691338643432E-003;
2.404500000000000E+009;1.791261434555054E-001;4.261750355362892E-002;-6.808219477534294E-003;-2.582493703812361E-003;
2.404666666666667E+009;1.809449493885040E-001;4.147025197744370E-002;-6.727743428200483E-003;-2.420447301119566E-003;
2.404833333333334E+009;1.826516836881638E-001;4.046440497040749E-002;-6.798098795115948E-003;-2.161035779863596E-003;
2.405000000000000E+009;1.838148534297943E-001;3.983994200825691E-002;-6.932778283953667E-003;-1.964167458936572E-003;
2.405166666666667E+009;1.854387521743774E-001;3.908716514706612E-002;-6.925208959728479E-003;-1.990404911339283E-003;
2.405333333333334E+009;1.868440359830856E-001;3.865432366728783E-002;-7.062957156449556E-003;-1.723756315186620E-003;
2.405500000000000E+009;1.882953047752380E-001;3.821416199207306E-002;-7.068856153637171E-003;-1.593427965417504E-003;
2.405666666666667E+009;1.894786059856415E-001;3.779092803597450E-002;-7.085557095706463E-003;-1.222542952746153E-003;
2.405833333333334E+009;1.908509582281113E-001;3.768043965101242E-002;-7.289525121450424E-003;-1.040641916915774E-003;
2.406000000000000E+009;1.917642205953598E-001;3.745235875248909E-002;-7.119871675968170E-003;-7.508612470701337E-004;
2.406166666666667E+009;1.927399337291718E-001;3.738115727901459E-002;-7.139700930565596E-003;-6.639625062234700E-004;
2.406333333333334E+009;1.937478482723236E-001;3.734286502003670E-002;-7.227934896945953E-003;-4.433169960975647E-004;
2.406500000000000E+009;1.945067644119263E-001;3.759818151593208E-002;-7.139628753066063E-003;-3.151699493173510E-004;
2.406666666666667E+009;1.949968338012695E-001;3.741673380136490E-002;-7.276506628841162E-003;1.143036570283584E-004;
2.406833333333334E+009;1.953849941492081E-001;3.761083632707596E-002;-7.102949079126120E-003;3.240961523260921E-004;
2.407000000000000E+009;1.958981454372406E-001;3.790068626403809E-002;-7.045922800898552E-003;5.858381628058851E-004;
2.407166666666667E+009;1.962068527936935E-001;3.766604512929916E-002;-7.258655037730932E-003;7.046503014862537E-004;
2.407333333333334E+009;1.962332278490067E-001;3.795510530471802E-002;-6.897118873894215E-003;9.291527676396072E-004;
2.407500000000000E+009;1.960803866386414E-001;3.799590468406677E-002;-6.858869455754757E-003;1.038815476931632E-003;
2.407666666666667E+009;1.961761713027954E-001;3.801630809903145E-002;-6.803065538406372E-003;1.454022363759577E-003;
2.407833333333334E+009;1.956087499856949E-001;3.793334215879440E-002;-6.664763204753399E-003;1.571888569742441E-003;
2.408000000000000E+009;1.954367011785507E-001;3.779318183660507E-002;-6.541908718645573E-003;1.679418724961579E-003;
2.408166666666667E+009;1.949235498905182E-001;3.752404823899269E-002;-6.492352578788996E-003;1.803763909265399E-003;
2.408333333333334E+009;1.944811940193176E-001;3.708006814122200E-002;-6.424290593713522E-003;2.015799516811967E-003;
2.408500000000000E+009;1.936894059181213E-001;3.668425604701042E-002;-6.188968196511269E-003;2.181338844820857E-003;
2.408666666666667E+009;1.931237727403641E-001;3.624732792377472E-002;-6.247154437005520E-003;2.170035149902105E-003;
2.408833333333334E+009;1.923128366470337E-001;3.549651429057121E-002;-6.085950415581465E-003;2.241658279672265E-003;
2.409000000000000E+009;1.914551854133606E-001;3.463730961084366E-002;-5.890607833862305E-003;2.396709052845836E-003;
2.409166666666667E+009;1.904817819595337E-001;3.369946032762528E-002;-5.831371061503887E-003;2.564518479630351E-003;
2.409333333333334E+009;1.894463151693344E-001;3.276332095265389E-002;-5.768667440861464E-003;2.514375839382410E-003;
2.409500000000000E+009;1.884084939956665E-001;3.142453730106354E-002;-5.799945443868637E-003;2.698043594136834E-003;
2.409666666666667E+009;1.873583644628525E-001;3.010515868663788E-002;-5.703787785023451E-003;2.650005044415593E-003;
2.409833333333334E+009;1.861918866634369E-001;2.861626818776131E-002;-5.559182260185480E-003;2.858914900571108E-003;
2.410000000000000E+009;1.852844953536987E-001;2.692657709121704E-002;-5.622533150017262E-003;2.882231725379825E-003;
2.410166666666667E+009;1.841983199119568E-001;2.518697455525398E-002;-5.501871462911367E-003;2.975502284243703E-003;
2.410333333333334E+009;1.833434253931046E-001;2.336584217846394E-002;-5.391307175159454E-003;3.107916563749313E-003;
2.410500000000000E+009;1.823963075876236E-001;2.129972539842129E-002;-5.419913213700056E-003;3.287900472059846E-003;
2.410666666666667E+009;1.813731193542481E-001;1.919677294790745E-002;-5.440087523311377E-003;3.417589236050844E-003;
2.410833333333334E+009;1.806957572698593E-001;1.702616736292839E-002;-5.476310383528471E-003;3.575511276721954E-003;
2.411000000000000E+009;1.800728440284729E-001;1.482948381453753E-002;-5.242315120995045E-003;3.616533242166042E-003;
2.411166666666667E+009;1.792684048414230E-001;1.252028532326222E-002;-5.272073205560446E-003;3.685265081003308E-003;
2.411333333333334E+009;1.789966970682144E-001;9.986339136958122E-003;-5.052766762673855E-003;3.937950357794762E-003;
2.411500000000000E+009;1.784820556640625E-001;7.693076040595770E-003;-5.014214664697647E-003;4.102072678506374E-003;
2.411666666666667E+009;1.782669275999069E-001;5.379776936024427E-003;-4.891680553555489E-003;4.029866773635149E-003;
2.411833333333334E+009;1.778652518987656E-001;2.809340367093682E-003;-4.982058890163899E-003;4.244413226842880E-003;
2.412000000000000E+009;1.781207770109177E-001;1.350877428194508E-004;-4.771365784108639E-003;4.412919282913208E-003;
2.412166666666667E+009;1.782280504703522E-001;-1.942175673320890E-003;-4.601162858307362E-003;4.533526021987200E-003;
2.412333333333334E+009;1.782819032669067E-001;-4.602538887411356E-003;-4.688403569161892E-003;4.615964833647013E-003;
2.412500000000000E+009;1.790156066417694E-001;-7.082368712872267E-003;-4.449300002306700E-003;4.725502803921700E-003;
2.412666666666667E+009;1.793494075536728E-001;-9.399420581758022E-003;-4.338684026151896E-003;4.749873187392950E-003;
2.412833333333334E+009;1.803285479545593E-001;-1.193492766469717E-002;-4.237209912389517E-003;4.931761417537928E-003;
2.413000000000000E+009;1.808778494596481E-001;-1.431789621710777E-002;-4.240835551172495E-003;4.898499231785536E-003;
2.413166666666667E+009;1.814733296632767E-001;-1.661774143576622E-002;-4.228486679494381E-003;5.079688504338265E-003;
2.413333333333334E+009;1.826734542846680E-001;-1.887626014649868E-002;-4.118828568607569E-003;5.225095432251692E-003;
2.413500000000000E+009;1.835640072822571E-001;-2.109154127538204E-002;-4.084329120814800E-003;5.455684848129749E-003;
2.413666666666667E+009;1.847348064184189E-001;-2.329428307712078E-002;-3.994889557361603E-003;5.587205756455660E-003;
2.413833333333334E+009;1.857390552759171E-001;-2.537830173969269E-002;-3.784189466387034E-003;5.916206631809473E-003;
2.414000000000000E+009;1.870426088571549E-001;-2.738709934055805E-002;-3.705586073920131E-003;6.239594891667366E-003;
2.414166666666667E+009;1.881982833147049E-001;-2.924103662371635E-002;-3.483802545815706E-003;6.505856290459633E-003;
2.414333333333334E+009;1.894786357879639E-001;-3.107167594134808E-002;-3.333874978125095E-003;6.558963097631931E-003;
2.414500000000000E+009;1.905648857355118E-001;-3.257524594664574E-002;-3.033967455849052E-003;6.844139192253351E-003;
2.414666666666667E+009;1.917939931154251E-001;-3.405446931719780E-002;-2.833172446116805E-003;7.015684153884649E-003;
2.414833333333334E+009;1.930854022502899E-001;-3.535820171236992E-002;-2.549294847995043E-003;7.150451652705669E-003;
2.415000000000000E+009;1.940994560718536E-001;-3.669982030987740E-002;-2.194182947278023E-003;7.094692438840866E-003;
2.415166666666667E+009;1.953735798597336E-001;-3.782661631703377E-002;-2.037323312833905E-003;7.219274528324604E-003;
2.415333333333334E+009;1.965383440256119E-001;-3.865120559930801E-002;-1.667217700742185E-003;7.364903576672077E-003;
2.415500000000000E+009;1.977035254240036E-001;-3.941944241523743E-002;-1.419225009158254E-003;7.538191042840481E-003;
2.415666666666667E+009;1.988580673933029E-001;-4.024084657430649E-002;-1.085132593289018E-003;7.533768191933632E-003;
2.415833333333334E+009;1.996224969625473E-001;-4.082413390278816E-002;-7.880338816903532E-004;7.564580999314785E-003;
2.416000000000000E+009;2.004075646400452E-001;-4.132632538676262E-002;-4.506660916376859E-004;7.559074554592371E-003;
2.416166666666667E+009;2.012005597352982E-001;-4.204244911670685E-002;-1.411823905073106E-004;7.639918010681868E-003;
2.416333333333334E+009;2.017842978239059E-001;-4.229119420051575E-002;1.014623703667894E-004;7.714499719440937E-003;
2.416500000000000E+009;2.023991942405701E-001;-4.246853664517403E-002;4.078772035427392E-004;7.615828420966864E-003;
2.416666666666667E+009;2.026685923337936E-001;-4.274319112300873E-002;6.980968173593283E-004;7.426879368722439E-003;
2.416833333333334E+009;2.026777863502502E-001;-4.272858798503876E-002;1.002201344817877E-003;7.518496364355087E-003;
2.417000000000000E+009;2.028374671936035E-001;-4.285984858870506E-002;1.393612241372466E-003;7.228191010653973E-003;
2.417166666666667E+009;2.027122527360916E-001;-4.280317574739456E-002;1.637816894799471E-003;7.214319426566362E-003;
2.417333333333334E+009;2.024004310369492E-001;-4.260884597897530E-002;2.104904269799590E-003;7.205741945654154E-003;
2.417500000000000E+009;2.021509408950806E-001;-4.266347363591194E-002;2.264105714857578E-003;6.936425343155861E-003;
2.417666666666667E+009;2.016622871160507E-001;-4.235161840915680E-002;2.459101611748338E-003;6.929066963493824E-003;
2.417833333333334E+009;2.011401355266571E-001;-4.226005077362061E-002;2.699479926377535E-003;6.640614941716194E-003;
2.418000000000000E+009;2.006511688232422E-001;-4.188699647784233E-002;2.896756399422884E-003;6.502495147287846E-003;
2.418166666666667E+009;1.996751278638840E-001;-4.196824133396149E-002;3.130374709144235E-003;6.333863362669945E-003;
2.418333333333334E+009;1.987425386905670E-001;-4.171639680862427E-002;3.328767837956548E-003;6.205206736922264E-003;
2.418500000000000E+009;1.976666152477264E-001;-4.170452430844307E-002;3.509908216074109E-003;5.907948128879070E-003;
2.418666666666667E+009;1.967511028051376E-001;-4.164144769310951E-002;3.726813709363341E-003;5.776240956038237E-003;
2.418833333333334E+009;1.953787356615067E-001;-4.178215935826302E-002;3.809663467109203E-003;5.577811971306801E-003;
2.419000000000000E+009;1.942369490861893E-001;-4.191783815622330E-002;3.954551182687283E-003;5.298408214002848E-003;
2.419166666666667E+009;1.927780061960220E-001;-4.229665920138359E-002;4.112697672098875E-003;5.026891827583313E-003;
2.419333333333334E+009;1.913968026638031E-001;-4.275367408990860E-002;4.147254396229982E-003;4.801927134394646E-003;
2.419500000000000E+009;1.899729818105698E-001;-4.317235946655273E-002;4.240558482706547E-003;4.568373318761587E-003;
2.419666666666667E+009;1.882672607898712E-001;-4.393875226378441E-002;4.311758559197187E-003;4.351271782070398E-003;
2.419833333333334E+009;1.866135001182556E-001;-4.462829977273941E-002;4.140913486480713E-003;4.155614878982306E-003;
2.420000000000000E+009;1.851838976144791E-001;-4.542715474963188E-002;4.131179302930832E-003;3.869786392897368E-003;
2.420166666666667E+009;1.835397630929947E-001;-4.650115966796875E-002;4.080940503627062E-003;3.706153947860003E-003;
2.420333333333334E+009;1.818348020315170E-001;-4.752714559435844E-002;4.056672099977732E-003;3.399834036827087E-003;
2.420500000000000E+009;1.800617724657059E-001;-4.881642386317253E-002;3.841715864837170E-003;3.441367996856570E-003;
2.420666666666667E+009;1.787176579236984E-001;-5.007115378975868E-002;3.870167536661029E-003;3.234853036701679E-003;
2.420833333333334E+009;1.769938617944717E-001;-5.158601701259613E-002;3.885450074449182E-003;3.193606156855822E-003;
2.421000000000000E+009;1.754725277423859E-001;-5.318316444754601E-002;3.619796829298139E-003;3.167137969285250E-003;
2.421166666666667E+009;1.741147190332413E-001;-5.478649213910103E-002;3.602924523875117E-003;3.337696427479386E-003;
2.421333333333334E+009;1.724772453308106E-001;-5.636863410472870E-002;3.620626870542765E-003;3.144701709970832E-003;
2.421500000000000E+009;1.711502820253372E-001;-5.824887380003929E-002;3.718027845025063E-003;3.270907793194056E-003;
2.421666666666667E+009;1.699347198009491E-001;-6.023648381233215E-002;3.537792712450028E-003;3.363210009410977E-003;
2.421833333333334E+009;1.688795834779739E-001;-6.193176656961441E-002;3.641168586909771E-003;3.262707963585854E-003;
2.422000000000000E+009;1.677235960960388E-001;-6.400857865810394E-002;3.715222468599677E-003;3.296381328254938E-003;
2.422166666666667E+009;1.668520122766495E-001;-6.614632904529572E-002;3.873555688187480E-003;3.216178156435490E-003;
2.422333333333334E+009;1.657206714153290E-001;-6.825875490903854E-002;4.068591166287661E-003;3.311169333755970E-003;
2.422500000000000E+009;1.651068627834320E-001;-7.013411074876785E-002;4.243309143930674E-003;3.230963135138154E-003;
2.422666666666667E+009;1.643178015947342E-001;-7.211406528949738E-002;4.213730804622173E-003;3.127707866951823E-003;
2.422833333333334E+009;1.638530790805817E-001;-7.417261600494385E-002;4.511807113885880E-003;3.151709912344813E-003;
2.423000000000000E+009;1.634633541107178E-001;-7.630880177021027E-002;4.490970168262720E-003;2.936200471594930E-003;
2.423166666666667E+009;1.630652993917465E-001;-7.831438630819321E-002;4.697961732745171E-003;2.918397076427937E-003;
2.423333333333334E+009;1.627848744392395E-001;-8.036993443965912E-002;4.528106190264225E-003;2.864582929760218E-003;
2.423500000000000E+009;1.627659201622009E-001;-8.211617916822434E-002;4.974828101694584E-003;2.645317465066910E-003;
2.423666666666667E+009;1.626438349485397E-001;-8.407811075448990E-002;4.919348750263453E-003;2.513610757887363E-003;
2.423833333333334E+009;1.625959575176239E-001;-8.589157462120056E-002;4.985984414815903E-003;2.479166490957141E-003;
2.424000000000000E+009;1.628670990467072E-001;-8.747570961713791E-002;4.891081247478724E-003;2.217015018686652E-003;
2.424166666666667E+009;1.628523170948029E-001;-8.916836231946945E-002;5.141532979905605E-003;2.282073255628347E-003;
2.424333333333334E+009;1.631021648645401E-001;-9.080357849597931E-002;5.237002391368151E-003;2.067167079076171E-003;
2.424500000000000E+009;1.635901629924774E-001;-9.241314977407455E-002;5.219491198658943E-003;2.097460441291332E-003;
2.424666666666667E+009;1.638324856758118E-001;-9.369798749685288E-002;5.347820930182934E-003;1.853643334470689E-003;
2.424833333333334E+009;1.643165200948715E-001;-9.507549554109573E-002;5.388880614191294E-003;1.793962786905468E-003;
2.425000000000000E+009;1.645888835191727E-001;-9.622731804847717E-002;5.568177439272404E-003;1.768689951859415E-003;
2.425166666666667E+009;1.650287210941315E-001;-9.718158096075058E-002;5.740395281463862E-003;1.434600912034512E-003;
2.425333333333334E+009;1.653002053499222E-001;-9.823941439390183E-002;5.841312929987907E-003;1.218310790136457E-003;
2.425500000000000E+009;1.658243834972382E-001;-9.924707561731339E-002;6.051310338079929E-003;1.165906316600740E-003;
2.425666666666667E+009;1.662605553865433E-001;-9.983631968498230E-002;6.151953246444464E-003;8.372960728593171E-004;
2.425833333333334E+009;1.664835512638092E-001;-1.006773784756661E-001;6.228319369256496E-003;6.600308697670698E-004;
2.426000000000000E+009;1.670004874467850E-001;-1.010795235633850E-001;6.174000911414623E-003;5.717352614738047E-004;
2.426166666666667E+009;1.674122959375382E-001;-1.015312895178795E-001;6.315849255770445E-003;7.052845467114821E-005;
2.426333333333334E+009;1.674328297376633E-001;-1.020446121692658E-001;6.367588881403208E-003;-8.051469922065735E-005;
2.426500000000000E+009;1.678949892520905E-001;-1.022630780935288E-001;6.297893356531858E-003;-1.620264811208472E-004;
2.426666666666667E+009;1.681953966617584E-001;-1.024993807077408E-001;6.317874416708946E-003;-5.451678298413754E-004;
2.426833333333334E+009;1.684603244066238E-001;-1.027355343103409E-001;6.336782593280077E-003;-6.857329863123596E-004;
2.427000000000000E+009;1.683435440063477E-001;-1.029253154993057E-001;6.286724470555782E-003;-9.031394729390740E-004;
2.427166666666667E+009;1.684160828590393E-001;-1.031597182154656E-001;6.202491465955973E-003;-1.241919118911028E-003;
2.427333333333334E+009;1.684166938066483E-001;-1.031932681798935E-001;6.025069393217564E-003;-1.458520535379648E-003;
2.427500000000000E+009;1.680689305067062E-001;-1.033955886960030E-001;6.085683591663837E-003;-1.708373776637018E-003;
2.427666666666667E+009;1.678626686334610E-001;-1.033169105648994E-001;5.918848793953657E-003;-1.909309998154640E-003;
2.427833333333334E+009;1.675469726324081E-001;-1.035110652446747E-001;5.838620942085981E-003;-2.120897173881531E-003;
