# Version 1.00
#
freq[Hz];re:Trc1_S11;im:Trc1_S11;re:Trc2_S21;im:Trc2_S21;
2.400000000000000E+009;1.550784111022949E-001;1.068399623036385E-001;-4.373776726424694E-003;-6.764857564121485E-003;
2.400166666666667E+009;1.546321660280228E-001;1.044983640313149E-001;-4.441393073648214E-003;-6.579227279871702E-003;
2.400333333333334E+009;1.549743711948395E-001;1.021639555692673E-001;-4.525099415332079E-003;-6.261070724576712E-003;
2.400500000000000E+009;1.547200381755829E-001;9.940584003925324E-002;-4.547417629510164E-003;-5.909807048738003E-003;
2.400666666666667E+009;1.548867225646973E-001;9.691463410854340E-002;-4.643794614821672E-003;-5.756565369665623E-003;
2.400833333333334E+009;1.549440920352936E-001;9.409823268651962E-002;-4.684557206928730E-003;-5.490679759532213E-003;
2.401000000000000E+009;1.550426632165909E-001;9.131314605474472E-002;-4.527925513684750E-003;-5.279847886413336E-003;
2.401166666666667E+009;1.552919745445252E-001;8.835946768522263E-002;-4.683477804064751E-003;-5.110418424010277E-003;
2.401333333333334E+009;1.553921550512314E-001;8.562944829463959E-002;-4.562197718769312E-003;-5.155757069587708E-003;
2.401500000000000E+009;1.559783518314362E-001;8.266264200210571E-002;-4.386418499052525E-003;-5.010578315705061E-003;
2.401666666666667E+009;1.563871055841446E-001;7.981586456298828E-002;-4.410617984831333E-003;-5.039869807660580E-003;
2.401833333333334E+009;1.568626016378403E-001;7.704309374094009E-002;-4.508118145167828E-003;-4.912710282951593E-003;
2.402000000000000E+009;1.579020321369171E-001;7.430259138345718E-002;-4.590268246829510E-003;-4.977704491466284E-003;
2.402166666666667E+009;1.584960967302322E-001;7.159730046987534E-002;-4.569383338093758E-003;-4.971003625541925E-003;
2.402333333333334E+009;1.595849245786667E-001;6.894919276237488E-002;-4.869483876973391E-003;-4.876429680734873E-003;
2.402500000000000E+009;1.607497632503510E-001;6.636457890272141E-002;-4.813958425074816E-003;-5.044886842370033E-003;
2.402666666666667E+009;1.620134115219116E-001;6.409656256437302E-002;-4.950822331011295E-003;-5.053892731666565E-003;
2.402833333333334E+009;1.633042544126511E-001;6.154789403080940E-002;-5.298817995935679E-003;-4.809458274394274E-003;
2.403000000000000E+009;1.646582782268524E-001;5.917604267597199E-002;-5.554948933422566E-003;-4.643974825739861E-003;
2.403166666666667E+009;1.663754433393478E-001;5.706974491477013E-002;-5.672300700098276E-003;-4.681852646172047E-003;
2.403333333333334E+009;1.678427457809448E-001;5.480960011482239E-002;-6.021348293870688E-003;-4.441893659532070E-003;
2.403500000000000E+009;1.693186014890671E-001;5.272101238369942E-002;-6.175165064632893E-003;-4.330482333898544E-003;
2.403666666666667E+009;1.713079661130905E-001;5.069070309400559E-002;-6.244735326617956E-003;-3.938513342291117E-003;
2.403833333333334E+009;1.729549318552017E-001;4.889873787760735E-002;-6.438663695007563E-003;-3.775590797886252E-003;
2.404000000000000E+009;1.743568778038025E-001;4.719498753547669E-002;-6.631652824580669E-003;-3.541406244039536E-003;
2.404166666666667E+009;1.762332171201706E-001;4.556959122419357E-002;-6.679163780063391E-003;-3.228798042982817E-003;
2.404333333333334E+009;1.777826547622681E-001;4.425736889243126E-002;-6.703931838274002E-003;-3.165182191878557E-003;
2.404500000000000E+009;1.794643402099609E-001;4.279307648539543E-002;-6.771165877580643E-003;-2.909708302468061E-003;
2.404666666666667E+009;1.812271177768707E-001;4.171560704708099E-002;-6.807785481214523E-003;-2.547138370573521E-003;
2.404833333333334E+009;1.827752292156220E-001;4.067691415548325E-002;-6.715733092278242E-003;-2.302017761394382E-003;
2.405000000000000E+009;1.840685307979584E-001;4.002822935581207E-002;-6.912409327924252E-003;-2.109406748786569E-003;
2.405166666666667E+009;1.856245398521423E-001;3.928647935390472E-002;-6.924130488187075E-003;-2.105567604303360E-003;
2.405333333333334E+009;1.873036623001099E-001;3.878270462155342E-002;-7.035247515887022E-003;-1.886993413791060E-003;
2.405500000000000E+009;1.885005980730057E-001;3.830256313085556E-002;-6.987786851823330E-003;-1.703837537206709E-003;
2.405666666666667E+009;1.897710412740707E-001;3.785346820950508E-002;-7.047878112643957E-003;-1.491995528340340E-003;
2.405833333333334E+009;1.910966038703919E-001;3.765911981463432E-002;-7.164615206420422E-003;-1.316362409852445E-003;
2.406000000000000E+009;1.920634508132935E-001;3.758883103728294E-002;-7.209497969597578E-003;-9.617116302251816E-004;
2.406166666666667E+009;1.931107789278030E-001;3.740459680557251E-002;-7.003814447671175E-003;-9.813276119530201E-004;
2.406333333333334E+009;1.939630210399628E-001;3.748575598001480E-002;-7.203235290944576E-003;-5.526818567886949E-004;
2.406500000000000E+009;1.946002244949341E-001;3.743867948651314E-002;-7.264233659952879E-003;-3.225243999622762E-004;
2.406666666666667E+009;1.953753829002380E-001;3.749234601855278E-002;-7.164028938859701E-003;-5.571812653215602E-005;
2.406833333333334E+009;1.958030015230179E-001;3.758876025676727E-002;-7.128798868507147E-003;1.538273209007457E-004;
2.407000000000000E+009;1.962358504533768E-001;3.778354823589325E-002;-7.222466636449099E-003;2.735219313763082E-004;
2.407166666666667E+009;1.964780390262604E-001;3.755016624927521E-002;-7.118552923202515E-003;7.999422377906740E-004;
2.407333333333334E+009;1.962797492742539E-001;3.787513822317123E-002;-6.943688262254000E-003;8.949627517722547E-004;
2.407500000000000E+009;1.964610964059830E-001;3.811031579971314E-002;-6.978741381317377E-003;1.119070104323328E-003;
2.407666666666667E+009;1.963990181684494E-001;3.792527690529823E-002;-6.909923627972603E-003;1.309150946326554E-003;
2.407833333333334E+009;1.958002001047134E-001;3.777790069580078E-002;-6.810895632952452E-003;1.596431131474674E-003;
2.408000000000000E+009;1.958093792200089E-001;3.775651752948761E-002;-6.687696557492018E-003;1.566840452142060E-003;
2.408166666666667E+009;1.951643675565720E-001;3.740379959344864E-002;-6.625190842896700E-003;1.784967491403222E-003;
2.408333333333334E+009;1.948947310447693E-001;3.681671991944313E-002;-6.493577267974615E-003;1.889733015559614E-003;
2.408500000000000E+009;1.940947473049164E-001;3.651603311300278E-002;-6.390405818820000E-003;1.997949322685599E-003;
2.408666666666667E+009;1.933051645755768E-001;3.601672500371933E-002;-6.216092966496944E-003;2.147016115486622E-003;
2.408833333333334E+009;1.926113963127136E-001;3.526262938976288E-002;-6.179925054311752E-003;2.313566161319614E-003;
2.409000000000000E+009;1.916636228561401E-001;3.437458351254463E-002;-5.980039946734905E-003;2.447220962494612E-003;
2.409166666666667E+009;1.907115727663040E-001;3.345577046275139E-002;-6.031735334545374E-003;2.452142769470811E-003;
2.409333333333334E+009;1.897199749946594E-001;3.245823085308075E-002;-5.927374120801687E-003;2.475949935615063E-003;
2.409500000000000E+009;1.886879056692123E-001;3.122877143323422E-002;-5.800446961075068E-003;2.581821521744132E-003;
2.409666666666667E+009;1.876557767391205E-001;2.984592132270336E-002;-5.822748877108097E-003;2.672324422746897E-003;
2.409833333333334E+009;1.864172220230103E-001;2.827749960124493E-002;-5.806697066873312E-003;2.750355051830411E-003;
2.410000000000000E+009;1.855328679084778E-001;2.671066857874394E-002;-5.720564164221287E-003;2.932515926659107E-003;
2.410166666666667E+009;1.844682097434998E-001;2.483848854899406E-002;-5.537450779229403E-003;3.063295967876911E-003;
2.410333333333334E+009;1.834145486354828E-001;2.303128689527512E-002;-5.529368761926889E-003;3.142311004921794E-003;
2.410500000000000E+009;1.825011670589447E-001;2.116033248603344E-002;-5.486800335347652E-003;3.285002429038286E-003;
2.410666666666667E+009;1.815346628427506E-001;1.888773031532764E-002;-5.382808856666088E-003;3.413432976230979E-003;
2.410833333333334E+009;1.809241771697998E-001;1.663811132311821E-002;-5.313698202371597E-003;3.571757813915610E-003;
2.411000000000000E+009;1.801522672176361E-001;1.443778723478317E-002;-5.197844002395868E-003;3.592494875192642E-003;
2.411166666666667E+009;1.795230060815811E-001;1.214122958481312E-002;-5.294216796755791E-003;3.737258724868298E-003;
2.411333333333334E+009;1.788669377565384E-001;9.844816289842129E-003;-5.287303123623133E-003;3.880705917254090E-003;
2.411500000000000E+009;1.786184757947922E-001;7.558706682175398E-003;-5.046069622039795E-003;4.072999581694603E-003;
2.411666666666667E+009;1.783834248781204E-001;5.021702498197556E-003;-5.031418986618519E-003;4.241829738020897E-003;
2.411833333333334E+009;1.781721860170364E-001;2.570091513916850E-003;-4.979921039193869E-003;4.314927384257317E-003;
2.412000000000000E+009;1.781401187181473E-001;-1.420263579348102E-004;-4.913420882076025E-003;4.385744221508503E-003;
2.412166666666667E+009;1.782782226800919E-001;-2.437563380226493E-003;-4.706607665866613E-003;4.507940262556076E-003;
2.412333333333334E+009;1.784476041793823E-001;-4.772673361003399E-003;-4.669671412557364E-003;4.663955885916948E-003;
2.412500000000000E+009;1.790653467178345E-001;-7.214707322418690E-003;-4.575576167553663E-003;4.708949476480484E-003;
2.412666666666667E+009;1.795287132263184E-001;-9.853713214397430E-003;-4.501346964389086E-003;4.728574771434069E-003;
2.412833333333334E+009;1.801840960979462E-001;-1.219106279313564E-002;-4.408128559589386E-003;4.926798865199089E-003;
2.413000000000000E+009;1.808356046676636E-001;-1.474715489894152E-002;-4.326400347054005E-003;5.071946885436773E-003;
2.413166666666667E+009;1.816994100809097E-001;-1.685085706412792E-002;-4.367899149656296E-003;5.318120121955872E-003;
2.413333333333334E+009;1.826968044042587E-001;-1.915820129215717E-002;-4.250469151884317E-003;5.406849551945925E-003;
2.413500000000000E+009;1.834723353385925E-001;-2.148869819939137E-002;-4.224766511470079E-003;5.521350074559450E-003;
2.413666666666667E+009;1.848155707120895E-001;-2.355373837053776E-002;-4.014743026345968E-003;5.820184480398893E-003;
2.413833333333334E+009;1.859754621982575E-001;-2.557899057865143E-002;-3.907470963895321E-003;5.941242445260286E-003;
2.414000000000000E+009;1.869872510433197E-001;-2.749705500900745E-002;-3.871782682836056E-003;6.260891910642386E-003;
2.414166666666667E+009;1.882119476795197E-001;-2.938158623874188E-002;-3.543246770277619E-003;6.422250065952539E-003;
2.414333333333334E+009;1.894344389438629E-001;-3.124183788895607E-002;-3.407541196793318E-003;6.539667956531048E-003;
2.414500000000000E+009;1.905905306339264E-001;-3.278541192412376E-002;-3.062770934775472E-003;6.798057816922665E-003;
2.414666666666667E+009;1.919221282005310E-001;-3.443270176649094E-002;-2.854340942576528E-003;7.003322709351778E-003;
2.414833333333334E+009;1.930250972509384E-001;-3.572607785463333E-002;-2.447121776640415E-003;7.228462956845760E-003;
2.415000000000000E+009;1.940468549728394E-001;-3.694990277290344E-002;-2.218578010797501E-003;7.352619431912899E-003;
2.415166666666667E+009;1.954521834850311E-001;-3.803548589348793E-002;-1.920105190947652E-003;7.533127442002296E-003;
2.415333333333334E+009;1.964515894651413E-001;-3.911723941564560E-002;-1.713365665636957E-003;7.374593522399664E-003;
2.415500000000000E+009;1.975929439067841E-001;-3.973504528403282E-002;-1.524095539934933E-003;7.559470832347870E-003;
2.415666666666667E+009;1.985286921262741E-001;-4.051326960325241E-002;-1.146885333582759E-003;7.393423467874527E-003;
2.415833333333334E+009;1.993630826473236E-001;-4.107227176427841E-002;-8.233241387642920E-004;7.601641584187746E-003;
2.416000000000000E+009;2.002622932195664E-001;-4.165985435247421E-002;-3.410931967664510E-004;7.743741385638714E-003;
2.416166666666667E+009;2.009431868791580E-001;-4.212390258908272E-002;-1.675225212238729E-004;7.728218566626310E-003;
2.416333333333334E+009;2.015801221132278E-001;-4.243618622422218E-002;2.007248840527609E-004;7.762477733194828E-003;
2.416500000000000E+009;2.020705193281174E-001;-4.275101423263550E-002;4.916226025670767E-004;7.621475029736757E-003;
2.416666666666667E+009;2.024719119071960E-001;-4.303247109055519E-002;6.438896525651217E-004;7.648793514817953E-003;
2.416833333333334E+009;2.026104480028153E-001;-4.296531900763512E-002;1.101129106245935E-003;7.665754295885563E-003;
2.417000000000000E+009;2.027526795864105E-001;-4.307207465171814E-002;1.404094626195729E-003;7.469112519174814E-003;
2.417166666666667E+009;2.024516314268112E-001;-4.296202957630158E-002;1.700102118775249E-003;7.333080749958754E-003;
2.417333333333334E+009;2.021168023347855E-001;-4.276813939213753E-002;2.103868871927261E-003;7.264014799147844E-003;
2.417500000000000E+009;2.019565850496292E-001;-4.280413314700127E-002;2.339012455195189E-003;7.096378132700920E-003;
2.417666666666667E+009;2.013913393020630E-001;-4.258970171213150E-002;2.532276557758451E-003;6.835772190243006E-003;
2.417833333333334E+009;2.009820342063904E-001;-4.234829172492027E-002;2.652171999216080E-003;6.716102827340365E-003;
2.418000000000000E+009;2.002959698438644E-001;-4.207128658890724E-002;3.062588861212134E-003;6.462982390075922E-003;
2.418166666666667E+009;1.994887143373489E-001;-4.200717434287071E-002;3.248439636081457E-003;6.324541755020618E-003;
2.418333333333334E+009;1.984477341175079E-001;-4.178639128804207E-002;3.347331192344427E-003;6.137858144938946E-003;
2.418500000000000E+009;1.974444985389710E-001;-4.185282438993454E-002;3.501498606055975E-003;5.906999111175537E-003;
2.418666666666667E+009;1.964875608682632E-001;-4.175938293337822E-002;3.750705625861883E-003;5.734852515161037E-003;
2.418833333333334E+009;1.951853036880493E-001;-4.190034046769142E-002;3.898072754964232E-003;5.536760669201613E-003;
2.419000000000000E+009;1.938549131155014E-001;-4.203293472528458E-002;3.966370131820440E-003;5.398984532803297E-003;
2.419166666666667E+009;1.925212442874908E-001;-4.236424341797829E-002;4.082928877323866E-003;5.053437314927578E-003;
2.419333333333334E+009;1.910615861415863E-001;-4.286541044712067E-002;4.162552766501904E-003;4.745867103338242E-003;
2.419500000000000E+009;1.896598637104034E-001;-4.317645356059074E-002;4.234307445585728E-003;4.596868064254522E-003;
2.419666666666667E+009;1.880566924810410E-001;-4.393972083926201E-002;4.205329343676567E-003;4.309013485908508E-003;
2.419833333333334E+009;1.864088177680969E-001;-4.463880881667137E-002;4.243546165525913E-003;4.107544198632240E-003;
2.420000000000000E+009;1.848863363265991E-001;-4.540436342358589E-002;4.224747885018587E-003;3.925601951777935E-003;
2.420166666666667E+009;1.832743734121323E-001;-4.636288434267044E-002;4.076510667800903E-003;3.622025018557906E-003;
2.420333333333334E+009;1.815484315156937E-001;-4.769578203558922E-002;4.150044173002243E-003;3.570818342268467E-003;
2.420500000000000E+009;1.798779815435410E-001;-4.886839538812637E-002;4.115314688533545E-003;3.458478720858693E-003;
2.420666666666667E+009;1.783549040555954E-001;-5.001087114214897E-002;3.938575275242329E-003;3.267182735726237E-003;
2.420833333333334E+009;1.768903732299805E-001;-5.150290206074715E-002;3.872226458042860E-003;3.348200581967831E-003;
2.421000000000000E+009;1.754614859819412E-001;-5.314185842871666E-002;3.773577045649290E-003;3.174814395606518E-003;
2.421166666666667E+009;1.739303171634674E-001;-5.492202565073967E-002;3.771798452362418E-003;3.185236826539040E-003;
2.421333333333334E+009;1.721914857625961E-001;-5.630926787853241E-002;3.677114145830274E-003;3.237977391108871E-003;
2.421500000000000E+009;1.709086000919342E-001;-5.827242508530617E-002;3.754515200853348E-003;3.311246167868376E-003;
2.421666666666667E+009;1.697993278503418E-001;-6.018360704183579E-002;3.656638786196709E-003;3.276482690125704E-003;
2.421833333333334E+009;1.686929762363434E-001;-6.194593384861946E-002;3.760769264772534E-003;3.331092419102788E-003;
2.422000000000000E+009;1.675581037998200E-001;-6.383494287729263E-002;3.956428263336420E-003;3.378616180270910E-003;
2.422166666666667E+009;1.667808294296265E-001;-6.601297855377197E-002;3.980232402682304E-003;3.343220800161362E-003;
2.422333333333334E+009;1.656485646963120E-001;-6.816671788692474E-002;3.995281644165516E-003;3.363828640431166E-003;
2.422500000000000E+009;1.649111658334732E-001;-7.001291960477829E-002;4.097685683518648E-003;3.238601377233863E-003;
2.422666666666667E+009;1.641204059123993E-001;-7.206184417009354E-002;4.254763480275869E-003;3.146350849419832E-003;
2.422833333333334E+009;1.636618524789810E-001;-7.414596527814865E-002;4.580597858875990E-003;3.299436764791608E-003;
2.423000000000000E+009;1.631019264459610E-001;-7.623007148504257E-002;4.560678265988827E-003;2.956093754619360E-003;
2.423166666666667E+009;1.628320962190628E-001;-7.818630337715149E-002;4.787710029631853E-003;2.932202536612749E-003;
2.423333333333334E+009;1.626911461353302E-001;-8.033029735088348E-002;4.894394893199205E-003;2.837803913280368E-003;
2.423500000000000E+009;1.625910550355911E-001;-8.195434510707855E-002;4.798212088644505E-003;2.672268077731133E-003;
2.423666666666667E+009;1.625735759735107E-001;-8.387261629104614E-002;5.118170753121376E-003;2.697747433558106E-003;
2.423833333333334E+009;1.625125408172607E-001;-8.572843670845032E-002;5.061067175120115E-003;2.560241147875786E-003;
2.424000000000000E+009;1.626818329095841E-001;-8.742976933717728E-002;4.978738725185394E-003;2.225034171715379E-003;
2.424166666666667E+009;1.627372056245804E-001;-8.912336826324463E-002;5.137077532708645E-003;2.139112679287791E-003;
2.424333333333334E+009;1.629925966262817E-001;-9.070256352424622E-002;5.368832033127546E-003;2.285588532686234E-003;
2.424500000000000E+009;1.634212732315064E-001;-9.224160760641098E-002;5.371748935431242E-003;1.996246166527271E-003;
2.424666666666667E+009;1.636040508747101E-001;-9.372952580451965E-002;5.537393037229776E-003;1.846705214120448E-003;
2.424833333333334E+009;1.641688942909241E-001;-9.489627927541733E-002;5.527665838599205E-003;1.707180286757648E-003;
2.425000000000000E+009;1.645315289497376E-001;-9.607534855604172E-002;5.468190182000399E-003;1.801441190764308E-003;
2.425166666666667E+009;1.648685187101364E-001;-9.714592248201370E-002;5.691234022378922E-003;1.502618193626404E-003;
2.425333333333334E+009;1.651723980903626E-001;-9.801637381315231E-002;5.807706154882908E-003;1.243522972799838E-003;
2.425500000000000E+009;1.656612157821655E-001;-9.909562766551971E-002;5.945485550910235E-003;1.085041905753315E-003;
2.425666666666667E+009;1.660901010036469E-001;-9.966444969177246E-002;6.146118976175785E-003;9.284344268962741E-004;
2.425833333333334E+009;1.665143966674805E-001;-1.004428938031197E-001;6.282235030084848E-003;7.598395459353924E-004;
2.426000000000000E+009;1.668645143508911E-001;-1.008870601654053E-001;6.297717802226543E-003;4.919661441817880E-004;
2.426166666666667E+009;1.672905236482620E-001;-1.014128029346466E-001;6.324305199086666E-003;2.678805612958968E-004;
2.426333333333334E+009;1.674327850341797E-001;-1.017683222889900E-001;6.201317999511957E-003;-3.668219505925663E-005;
2.426500000000000E+009;1.678460836410523E-001;-1.021263599395752E-001;6.286045536398888E-003;-3.419114800635725E-004;
2.426666666666667E+009;1.680835932493210E-001;-1.023695319890976E-001;6.340247578918934E-003;-5.676379078067839E-004;
2.426833333333334E+009;1.683690398931503E-001;-1.027347445487976E-001;6.278580520302057E-003;-6.379318656399846E-004;
2.427000000000000E+009;1.683901101350784E-001;-1.027719601988792E-001;6.333683151751757E-003;-1.041636802256107E-003;
2.427166666666667E+009;1.684070676565170E-001;-1.028111949563026E-001;6.292079109698534E-003;-1.339635578915477E-003;
2.427333333333334E+009;1.682033389806747E-001;-1.031748428940773E-001;6.185291800647974E-003;-1.549782115034759E-003;
2.427500000000000E+009;1.679942458868027E-001;-1.032863929867744E-001;5.919133778661490E-003;-1.664344104938209E-003;
2.427666666666667E+009;1.677147299051285E-001;-1.034106463193893E-001;5.870290566235781E-003;-1.812709146179259E-003;
2.427833333333334E+009;1.673539131879807E-001;-1.034680157899857E-001;5.913649685680866E-003;-2.068951027467847E-003;
