# Version 1.00
#
freq[Hz];re:Trc1_S11;im:Trc1_S11;re:Trc2_S21;im:Trc2_S21;
2.400000000000000E+009;1.551823019981384E-001;1.065698713064194E-001;-4.347079899162054E-003;-6.833267398178577E-003;
2.400166666666667E+009;1.548820585012436E-001;1.040121242403984E-001;-4.559387452900410E-003;-6.638963241130114E-003;
2.400333333333334E+009;1.550082564353943E-001;1.018388792872429E-001;-4.659173544496298E-003;-6.144954357296228E-003;
2.400500000000000E+009;1.546376049518585E-001;9.908914566040039E-002;-4.790761042386293E-003;-6.010603159666061E-003;
2.400666666666667E+009;1.549530774354935E-001;9.665098786354065E-002;-4.818970337510109E-003;-5.789367947727442E-003;
2.400833333333334E+009;1.547856926918030E-001;9.387782216072083E-002;-4.679542500525713E-003;-5.504430271685123E-003;
2.401000000000000E+009;1.549864709377289E-001;9.086449444293976E-002;-4.729020409286022E-003;-5.338470917195082E-003;
2.401166666666667E+009;1.549319177865982E-001;8.816759288311005E-002;-4.689153283834457E-003;-5.170210730284452E-003;
2.401333333333334E+009;1.555047035217285E-001;8.538575470447540E-002;-4.573018290102482E-003;-5.106804426759481E-003;
2.401500000000000E+009;1.557162553071976E-001;8.231692761182785E-002;-4.570804536342621E-003;-4.995559342205524E-003;
2.401666666666667E+009;1.562702953815460E-001;7.962892949581146E-002;-4.634828306734562E-003;-4.847444593906403E-003;
2.401833333333334E+009;1.567742824554443E-001;7.689012587070465E-002;-4.482463467866182E-003;-4.926740657538176E-003;
2.402000000000000E+009;1.576596647500992E-001;7.414742559194565E-002;-4.512049257755280E-003;-4.961179103702307E-003;
2.402166666666667E+009;1.584269702434540E-001;7.140951603651047E-002;-4.733807872980833E-003;-4.837786313146353E-003;
2.402333333333334E+009;1.593438833951950E-001;6.864281743764877E-002;-4.895878490060568E-003;-4.830869380384684E-003;
2.402500000000000E+009;1.605912446975708E-001;6.617235392332077E-002;-4.960988182574511E-003;-4.905444104224443E-003;
2.402666666666667E+009;1.615869104862213E-001;6.372297555208206E-002;-5.093648564070463E-003;-4.737885668873787E-003;
2.402833333333334E+009;1.629468798637390E-001;6.136341020464897E-002;-5.344111472368240E-003;-4.716741386801004E-003;
2.403000000000000E+009;1.644298434257507E-001;5.897852033376694E-002;-5.614254623651505E-003;-4.731200635433197E-003;
2.403166666666667E+009;1.660710424184799E-001;5.682237818837166E-002;-5.882909055799246E-003;-4.538255743682385E-003;
2.403333333333334E+009;1.675469875335693E-001;5.464378371834755E-002;-6.246116477996111E-003;-4.230468999594450E-003;
2.403500000000000E+009;1.693739891052246E-001;5.249327048659325E-002;-6.243780255317688E-003;-4.354851786047220E-003;
2.403666666666667E+009;1.710782498121262E-001;5.067002400755882E-002;-6.336614023894072E-003;-3.717299783602357E-003;
2.403833333333334E+009;1.726567745208740E-001;4.877920821309090E-002;-6.523394491523504E-003;-3.535229712724686E-003;
2.404000000000000E+009;1.742058098316193E-001;4.697509109973908E-002;-6.741414312273264E-003;-3.304021665826440E-003;
2.404166666666667E+009;1.761621087789536E-001;4.564947634935379E-002;-6.589290220290422E-003;-3.262534271925688E-003;
2.404333333333334E+009;1.777336150407791E-001;4.393784701824188E-002;-6.729087326675654E-003;-2.845806302502751E-003;
2.404500000000000E+009;1.793085336685181E-001;4.267550259828568E-002;-6.682496517896652E-003;-2.629155991598964E-003;
2.404666666666667E+009;1.809369474649429E-001;4.156431928277016E-002;-6.985896732658148E-003;-2.319736406207085E-003;
2.404833333333334E+009;1.826872974634171E-001;4.046591743826866E-002;-6.865469273179770E-003;-2.207310404628515E-003;
2.405000000000000E+009;1.839201897382736E-001;3.972718492150307E-002;-6.920654326677322E-003;-2.033071592450142E-003;
2.405166666666667E+009;1.853853613138199E-001;3.910699486732483E-002;-6.945520639419556E-003;-1.872829277999699E-003;
2.405333333333334E+009;1.868454068899155E-001;3.856996074318886E-002;-6.969927344471216E-003;-1.696389052085578E-003;
2.405500000000000E+009;1.883332133293152E-001;3.817111626267433E-002;-7.087324280291796E-003;-1.540244324132800E-003;
2.405666666666667E+009;1.895148754119873E-001;3.771352022886276E-002;-7.060131523758173E-003;-1.239365199580789E-003;
2.405833333333334E+009;1.907869875431061E-001;3.770937398076057E-002;-7.169790100306273E-003;-1.197618315927684E-003;
2.406000000000000E+009;1.918714940547943E-001;3.738483414053917E-002;-7.281651720404625E-003;-7.428349927067757E-004;
2.406166666666667E+009;1.928398311138153E-001;3.730397298932076E-002;-7.247732020914555E-003;-5.353627493605018E-004;
2.406333333333334E+009;1.937475800514221E-001;3.738549351692200E-002;-7.360673509538174E-003;-3.019195282831788E-004;
2.406500000000000E+009;1.944074630737305E-001;3.740980103611946E-002;-7.130555808544159E-003;-2.560418215580285E-004;
2.406666666666667E+009;1.949820220470429E-001;3.740234300494194E-002;-7.341232616454363E-003;8.648764196550474E-005;
2.406833333333334E+009;1.955786794424057E-001;3.743618726730347E-002;-7.205268368124962E-003;3.554782015271485E-004;
2.407000000000000E+009;1.957524418830872E-001;3.775043040513992E-002;-7.130582351237536E-003;6.276398198679090E-004;
2.407166666666667E+009;1.962644308805466E-001;3.755094856023789E-002;-7.000600453466177E-003;7.350497762672603E-004;
2.407333333333334E+009;1.961784511804581E-001;3.789186477661133E-002;-7.149977143853903E-003;1.109325909055769E-003;
2.407500000000000E+009;1.961180716753006E-001;3.796292841434479E-002;-6.975070573389530E-003;1.217354554682970E-003;
2.407666666666667E+009;1.960556954145432E-001;3.790931403636932E-002;-6.795825902372599E-003;1.461109379306436E-003;
2.407833333333334E+009;1.956762224435806E-001;3.782620653510094E-002;-6.760604679584503E-003;1.456635887734592E-003;
2.408000000000000E+009;1.955652832984924E-001;3.771891072392464E-002;-6.620542611926794E-003;1.801999402232468E-003;
2.408166666666667E+009;1.949980109930039E-001;3.744289278984070E-002;-6.536603905260563E-003;1.881457283161581E-003;
2.408333333333334E+009;1.945049762725830E-001;3.705385327339172E-002;-6.325554568320513E-003;2.103559440001845E-003;
2.408500000000000E+009;1.937513649463654E-001;3.673364967107773E-002;-6.236272864043713E-003;2.175877802073956E-003;
2.408666666666667E+009;1.930912137031555E-001;3.617279604077339E-002;-6.106949876993895E-003;2.267331816256046E-003;
2.408833333333334E+009;1.925086528062820E-001;3.532671928405762E-002;-6.000324618071318E-003;2.365549327805638E-003;
2.409000000000000E+009;1.914046108722687E-001;3.454300388693810E-002;-6.018583197146654E-003;2.567011164501309E-003;
2.409166666666667E+009;1.905309408903122E-001;3.358183056116104E-002;-5.857976153492928E-003;2.561508212238550E-003;
2.409333333333334E+009;1.895001679658890E-001;3.262123838067055E-002;-5.946984514594078E-003;2.429527230560780E-003;
2.409500000000000E+009;1.884381473064423E-001;3.151968121528626E-002;-5.719175562262535E-003;2.717792056500912E-003;
2.409666666666667E+009;1.873922049999237E-001;2.990744635462761E-002;-5.677517503499985E-003;2.724833786487579E-003;
2.409833333333334E+009;1.864104568958283E-001;2.850259467959404E-002;-5.627797916531563E-003;2.909979782998562E-003;
2.410000000000000E+009;1.852228194475174E-001;2.688210643827915E-002;-5.614846013486385E-003;2.877271501347423E-003;
2.410166666666667E+009;1.843182295560837E-001;2.506795153021812E-002;-5.544423591345549E-003;3.156395163387060E-003;
2.410333333333334E+009;1.834473609924316E-001;2.341470867395401E-002;-5.503206513822079E-003;3.340336028486490E-003;
2.410500000000000E+009;1.822922527790070E-001;2.134156413376331E-002;-5.466922186315060E-003;3.375260625034571E-003;
2.410666666666667E+009;1.815523654222488E-001;1.917880401015282E-002;-5.492269061505795E-003;3.480786224827170E-003;
2.410833333333334E+009;1.808602809906006E-001;1.697015389800072E-002;-5.380566231906414E-003;3.554025664925575E-003;
2.411000000000000E+009;1.800157725811005E-001;1.481569372117519E-002;-5.310492124408484E-003;3.671448444947600E-003;
2.411166666666667E+009;1.795046925544739E-001;1.246571727097035E-002;-5.130678415298462E-003;3.719274187460542E-003;
2.411333333333334E+009;1.789336651563644E-001;9.969883598387241E-003;-5.038276780396700E-003;4.032826516777277E-003;
2.411500000000000E+009;1.784304529428482E-001;7.594769820570946E-003;-4.994711373001337E-003;4.065499641001225E-003;
2.411666666666667E+009;1.782632321119309E-001;5.369964987039566E-003;-4.873409867286682E-003;4.239040892571211E-003;
2.411833333333334E+009;1.779611110687256E-001;2.841813722625375E-003;-4.882055800408125E-003;4.274590872228146E-003;
2.412000000000000E+009;1.781900972127914E-001;1.873865112429485E-004;-4.683280363678932E-003;4.379062913358212E-003;
2.412166666666667E+009;1.781487315893173E-001;-1.961032627150416E-003;-4.674537107348442E-003;4.383472725749016E-003;
2.412333333333334E+009;1.784202158451080E-001;-4.697049967944622E-003;-4.563710652291775E-003;4.556445870548487E-003;
2.412500000000000E+009;1.788640022277832E-001;-7.160766515880823E-003;-4.344958811998367E-003;4.772958811372519E-003;
2.412666666666667E+009;1.792899221181870E-001;-9.411252103745937E-003;-4.466071259230375E-003;4.816814791411161E-003;
2.412833333333334E+009;1.799989342689514E-001;-1.205826178193092E-002;-4.369533620774746E-003;4.966518841683865E-003;
2.413000000000000E+009;1.808665692806244E-001;-1.435935962945223E-002;-4.364424850791693E-003;5.019087810069323E-003;
2.413166666666667E+009;1.815660297870636E-001;-1.664365269243717E-002;-4.167609848082066E-003;5.254053510725498E-003;
2.413333333333334E+009;1.825425326824188E-001;-1.888624392449856E-002;-4.216043744236231E-003;5.343381781131029E-003;
2.413500000000000E+009;1.834335029125214E-001;-2.107420377433300E-002;-4.131284076720476E-003;5.717973690479994E-003;
2.413666666666667E+009;1.846872717142105E-001;-2.339213527739048E-002;-3.953512758016586E-003;5.841908045113087E-003;
2.413833333333334E+009;1.858987808227539E-001;-2.539843320846558E-002;-3.737018443644047E-003;5.988032091408968E-003;
2.414000000000000E+009;1.869280338287354E-001;-2.715785056352615E-002;-3.556727431714535E-003;6.210881751030684E-003;
2.414166666666667E+009;1.883763521909714E-001;-2.921764552593231E-002;-3.517961595207453E-003;6.312988232821226E-003;
2.414333333333334E+009;1.893388181924820E-001;-3.122950531542301E-002;-3.341322066262364E-003;6.612779106944799E-003;
2.414500000000000E+009;1.907230168581009E-001;-3.253813832998276E-002;-3.047425299882889E-003;6.797044537961483E-003;
2.414666666666667E+009;1.919074058532715E-001;-3.416626527905464E-002;-2.752209547907114E-003;7.006803527474403E-003;
2.414833333333334E+009;1.929555386304855E-001;-3.551326692104340E-002;-2.333499025553465E-003;7.135855499655008E-003;
2.415000000000000E+009;1.941331177949905E-001;-3.682433441281319E-002;-2.279288833960891E-003;7.334257476031780E-003;
2.415166666666667E+009;1.954515725374222E-001;-3.789449855685234E-002;-1.849411521106958E-003;7.386456709355116E-003;
2.415333333333334E+009;1.967175155878067E-001;-3.876651078462601E-002;-1.565005863085389E-003;7.444438524544239E-003;
2.415500000000000E+009;1.975738853216171E-001;-3.949725627899170E-002;-1.302096643485129E-003;7.420281413942576E-003;
2.415666666666667E+009;1.986916065216065E-001;-4.040355980396271E-002;-1.114107668399811E-003;7.486916612833738E-003;
2.415833333333334E+009;1.995595544576645E-001;-4.090378433465958E-002;-7.527327979914844E-004;7.701995782554150E-003;
2.416000000000000E+009;2.002942562103272E-001;-4.136710986495018E-002;-3.469235089141876E-004;7.644495461136103E-003;
2.416166666666667E+009;2.011119276285172E-001;-4.200274497270584E-002;-1.544551923871040E-004;7.548995316028595E-003;
2.416333333333334E+009;2.017660588026047E-001;-4.222143068909645E-002;2.007185103138909E-004;7.733162026852369E-003;
2.416500000000000E+009;2.021898776292801E-001;-4.246128723025322E-002;5.639932933263481E-004;7.557956501841545E-003;
2.416666666666667E+009;2.025285959243774E-001;-4.281891137361527E-002;7.851243717595935E-004;7.616461254656315E-003;
2.416833333333334E+009;2.027872651815414E-001;-4.283905774354935E-002;1.309371087700129E-003;7.546768989413977E-003;
2.417000000000000E+009;2.028024494647980E-001;-4.297568276524544E-002;1.338829752057791E-003;7.423642557114363E-003;
2.417166666666667E+009;2.026063501834869E-001;-4.283722862601280E-002;1.858917996287346E-003;7.293144706636667E-003;
2.417333333333334E+009;2.024917304515839E-001;-4.259881004691124E-002;1.977761741727591E-003;7.125427015125752E-003;
2.417500000000000E+009;2.020908594131470E-001;-4.258222505450249E-002;2.269967924803495E-003;7.107786834239960E-003;
2.417666666666667E+009;2.016423195600510E-001;-4.245886206626892E-002;2.581958426162601E-003;6.919685751199722E-003;
2.417833333333334E+009;2.010819017887116E-001;-4.232105985283852E-002;2.806232543662190E-003;6.608333438634872E-003;
2.418000000000000E+009;2.005752027034760E-001;-4.202114418148994E-002;2.860871842131019E-003;6.584906484931707E-003;
2.418166666666667E+009;1.997019350528717E-001;-4.196512326598167E-002;3.141441382467747E-003;6.368711590766907E-003;
2.418333333333334E+009;1.987411677837372E-001;-4.185425490140915E-002;3.346950747072697E-003;5.993054714053869E-003;
2.418500000000000E+009;1.976179182529450E-001;-4.180129617452622E-002;3.490136237815023E-003;5.915530957281590E-003;
2.418666666666667E+009;1.966853737831116E-001;-4.169806838035584E-002;3.644963027909398E-003;5.739847663789988E-003;
2.418833333333334E+009;1.954423636198044E-001;-4.188450053334236E-002;3.985327202826738E-003;5.550838075578213E-003;
2.419000000000000E+009;1.941840648651123E-001;-4.202500730752945E-002;3.926778212189674E-003;5.374888889491558E-003;
2.419166666666667E+009;1.928161978721619E-001;-4.234928265213966E-002;4.110969137400389E-003;4.990965593606234E-003;
2.419333333333334E+009;1.914558261632919E-001;-4.275832697749138E-002;4.222082905471325E-003;4.640219267457724E-003;
2.419500000000000E+009;1.897943913936615E-001;-4.321940988302231E-002;4.261229187250137E-003;4.544487688690424E-003;
2.419666666666667E+009;1.882484406232834E-001;-4.395544528961182E-002;4.176522139459848E-003;4.231607541441917E-003;
2.419833333333334E+009;1.866424977779388E-001;-4.464694857597351E-002;4.305467475205660E-003;4.061905201524496E-003;
2.420000000000000E+009;1.850768625736237E-001;-4.545115679502487E-002;4.234774503856897E-003;3.830848494544625E-003;
2.420166666666667E+009;1.835441440343857E-001;-4.648763686418533E-002;4.184965509921312E-003;3.642537398263812E-003;
2.420333333333334E+009;1.818541437387466E-001;-4.755030944943428E-002;4.277469590306282E-003;3.448866773396730E-003;
2.420500000000000E+009;1.801266670227051E-001;-4.893723875284195E-002;4.081815946847200E-003;3.374532097950578E-003;
2.420666666666667E+009;1.784001588821411E-001;-5.008864775300026E-002;3.879476804286242E-003;3.224205225706101E-003;
2.420833333333334E+009;1.770111471414566E-001;-5.155203863978386E-002;3.725002752617002E-003;3.223992185667157E-003;
2.421000000000000E+009;1.753243356943131E-001;-5.316553637385368E-002;3.781194332987070E-003;3.152942983433604E-003;
2.421166666666667E+009;1.741383820772171E-001;-5.487949773669243E-002;3.677512519061565E-003;3.214237513020635E-003;
2.421333333333334E+009;1.724447757005692E-001;-5.644594132900238E-002;3.658200381323695E-003;3.185087814927101E-003;
2.421500000000000E+009;1.711581498384476E-001;-5.837060883641243E-002;3.676767926663160E-003;3.175502410158515E-003;
2.421666666666667E+009;1.699617058038712E-001;-6.014253944158554E-002;3.718164050951600E-003;3.238442121073604E-003;
2.421833333333334E+009;1.690598428249359E-001;-6.213087588548660E-002;3.804543288424611E-003;3.062102012336254E-003;
2.422000000000000E+009;1.675752848386765E-001;-6.390857696533203E-002;3.725642338395119E-003;3.238918026909232E-003;
2.422166666666667E+009;1.667672097682953E-001;-6.621274352073669E-002;3.893918590620160E-003;3.262851852923632E-003;
2.422333333333334E+009;1.657312810420990E-001;-6.827662885189056E-002;3.829015186056495E-003;3.188987961038947E-003;
2.422500000000000E+009;1.649809628725052E-001;-7.028425484895706E-002;4.139831755310297E-003;3.279593307524920E-003;
2.422666666666667E+009;1.642542928457260E-001;-7.234065234661102E-002;4.385540261864662E-003;3.048720536753535E-003;
2.422833333333334E+009;1.638306528329849E-001;-7.435514777898789E-002;4.421792924404144E-003;3.090278012678027E-003;
2.423000000000000E+009;1.633061319589615E-001;-7.647736370563507E-002;4.518111702054739E-003;2.942520659416914E-003;
2.423166666666667E+009;1.630291044712067E-001;-7.837308943271637E-002;4.650782793760300E-003;2.917513018473983E-003;
2.423333333333334E+009;1.625600308179855E-001;-8.030931651592255E-002;4.628169350326061E-003;2.843221649527550E-003;
2.423500000000000E+009;1.626394838094711E-001;-8.215966075658798E-002;4.776811227202416E-003;2.421973971650004E-003;
2.423666666666667E+009;1.626990139484406E-001;-8.408110588788986E-002;4.989911336451769E-003;2.578806830570102E-003;
2.423833333333334E+009;1.628076136112213E-001;-8.567162603139877E-002;4.962668288499117E-003;2.424042671918869E-003;
2.424000000000000E+009;1.628133207559586E-001;-8.760830014944077E-002;5.145258270204067E-003;2.316794358193874E-003;
2.424166666666667E+009;1.629296988248825E-001;-8.917783945798874E-002;5.123158451169729E-003;2.131643705070019E-003;
2.424333333333334E+009;1.631228178739548E-001;-9.078063815832138E-002;5.396819207817316E-003;2.037636004388332E-003;
2.424500000000000E+009;1.634601354598999E-001;-9.240615367889404E-002;5.344605073332787E-003;1.875589601695538E-003;
2.424666666666667E+009;1.636432409286499E-001;-9.369140118360519E-002;5.494742654263973E-003;1.843932666815817E-003;
2.424833333333334E+009;1.643036901950836E-001;-9.495983272790909E-002;5.349131301045418E-003;1.710522104986012E-003;
2.425000000000000E+009;1.646523773670197E-001;-9.616214036941528E-002;5.713937338441610E-003;1.686843577772379E-003;
2.425166666666667E+009;1.649328321218491E-001;-9.714531153440476E-002;5.637610796838999E-003;1.429854077287018E-003;
2.425333333333334E+009;1.653301864862442E-001;-9.824175387620926E-002;5.801680963486433E-003;1.233502058312297E-003;
2.425500000000000E+009;1.657140851020813E-001;-9.921023994684219E-002;6.071345414966345E-003;1.298985560424626E-003;
2.425666666666667E+009;1.661027371883392E-001;-9.977654367685318E-002;6.027121096849442E-003;1.083256327547133E-003;
2.425833333333334E+009;1.664083153009415E-001;-1.005598306655884E-001;6.275095511227846E-003;7.366854115389288E-004;
2.426000000000000E+009;1.668375581502914E-001;-1.010222360491753E-001;6.176040507853031E-003;4.061990184709430E-004;
2.426166666666667E+009;1.674091517925263E-001;-1.015618592500687E-001;6.278463173657656E-003;2.267169911647216E-004;
2.426333333333334E+009;1.674597114324570E-001;-1.019371226429939E-001;6.375296507030726E-003;-9.800114639801905E-005;
2.426500000000000E+009;1.678663939237595E-001;-1.021051332354546E-001;6.357223261147738E-003;-5.605865153484047E-004;
2.426666666666667E+009;1.679941862821579E-001;-1.024376377463341E-001;6.213712040334940E-003;-6.299525266513228E-004;
2.426833333333334E+009;1.684064567089081E-001;-1.026691943407059E-001;6.337889470160008E-003;-8.946739835664630E-004;
2.427000000000000E+009;1.683747619390488E-001;-1.029539853334427E-001;6.204936653375626E-003;-9.611871792003512E-004;
2.427166666666667E+009;1.684176027774811E-001;-1.029069051146507E-001;6.124334875494242E-003;-1.293559093028307E-003;
2.427333333333334E+009;1.683503985404968E-001;-1.031912341713905E-001;6.162772420793772E-003;-1.569020329043269E-003;
2.427500000000000E+009;1.681120097637177E-001;-1.032830998301506E-001;6.077357567846775E-003;-1.845554565079510E-003;
2.427666666666667E+009;1.678333878517151E-001;-1.033839285373688E-001;5.848984699696302E-003;-2.048418391495943E-003;
2.427833333333334E+009;1.674299836158752E-001;-1.034603491425514E-001;5.735335405915976E-003;-2.257036278024316E-003;
