# Version 1.00
#
freq[Hz];re:Trc1_S11;im:Trc1_S11;re:Trc2_S21;im:Trc2_S21;
2.400000000000000E+009;1.558076143264771E-001;1.117107793688774E-001;-2.496628090739250E-003;-3.836975083686411E-004;
2.400166666666667E+009;1.552634835243225E-001;1.094402670860291E-001;-2.624687040224671E-003;-8.281951886601746E-005;
2.400333333333334E+009;1.550089418888092E-001;1.071677654981613E-001;-2.620298881083727E-003;-3.515947537380271E-005;
2.400500000000000E+009;1.547195166349411E-001;1.045074164867401E-001;-2.576167229562998E-003;8.316952153109014E-005;
2.400666666666667E+009;1.544689983129501E-001;1.020259484648705E-001;-2.874809317290783E-003;2.156885602744296E-004;
2.400833333333334E+009;1.541377007961273E-001;9.911847114562988E-002;-2.722978126257658E-003;3.543828206602484E-004;
2.401000000000000E+009;1.539493203163147E-001;9.624078124761581E-002;-2.725882455706596E-003;6.247311248444021E-004;
2.401166666666667E+009;1.538411974906921E-001;9.336415678262711E-002;-2.771420404314995E-003;6.357881356962025E-004;
2.401333333333334E+009;1.539604812860489E-001;9.055005013942719E-002;-2.606655936688185E-003;8.178064017556608E-004;
2.401500000000000E+009;1.542111039161682E-001;8.742750436067581E-002;-2.641555620357394E-003;8.379489881917834E-004;
2.401666666666667E+009;1.543403118848801E-001;8.450079709291458E-002;-2.481966977939010E-003;1.108928467147052E-003;
2.401833333333334E+009;1.547474265098572E-001;8.147276192903519E-002;-2.458814298734069E-003;1.093497383408248E-003;
2.402000000000000E+009;1.554116904735565E-001;7.854554057121277E-002;-2.368234330788255E-003;1.162895583547652E-003;
2.402166666666667E+009;1.561166793107987E-001;7.578470557928085E-002;-2.221759175881743E-003;1.296184025704861E-003;
2.402333333333334E+009;1.568448692560196E-001;7.272323220968247E-002;-2.034525619819760E-003;1.305913319811225E-003;
2.402500000000000E+009;1.579443514347076E-001;6.992940604686737E-002;-1.943275798112154E-003;1.374248298816383E-003;
2.402666666666667E+009;1.589461416006088E-001;6.725667417049408E-002;-1.779382000677288E-003;1.487327623181045E-003;
2.402833333333334E+009;1.601671576499939E-001;6.467689573764801E-002;-1.516268937848508E-003;1.407944830134511E-003;
2.403000000000000E+009;1.615605205297470E-001;6.212539598345757E-002;-1.433085883036256E-003;1.373695093207061E-003;
2.403166666666667E+009;1.634603142738342E-001;5.972020328044891E-002;-1.406243420206010E-003;1.318212598562241E-003;
2.403333333333334E+009;1.647112071514130E-001;5.699155479669571E-002;-1.268088934011757E-003;1.094684936106205E-003;
2.403500000000000E+009;1.663846373558044E-001;5.471733957529068E-002;-1.351066050119698E-003;9.867443004623056E-004;
2.403666666666667E+009;1.682971715927124E-001;5.258674919605255E-002;-1.279151765629649E-003;7.852700655348599E-004;
2.403833333333334E+009;1.699716448783875E-001;5.052592977881432E-002;-1.215108321048319E-003;6.927686044946313E-004;
2.404000000000000E+009;1.716109514236450E-001;4.841563105583191E-002;-1.168872579000890E-003;5.997713305987418E-004;
2.404166666666667E+009;1.736249625682831E-001;4.675834998488426E-002;-1.287619350478053E-003;4.045542154926807E-004;
2.404333333333334E+009;1.752866208553314E-001;4.500187560915947E-002;-1.540572964586318E-003;4.595007048919797E-004;
2.404500000000000E+009;1.772727966308594E-001;4.336528480052948E-002;-1.668413868173957E-003;2.869224408641458E-004;
2.404666666666667E+009;1.789107322692871E-001;4.205841943621635E-002;-1.808041939511895E-003;4.132253234274685E-004;
2.404833333333334E+009;1.810279488563538E-001;4.094848409295082E-002;-1.982824644073844E-003;6.191270076669753E-004;
2.405000000000000E+009;1.823564618825913E-001;4.018728435039520E-002;-1.981187378987670E-003;4.414413997437805E-004;
2.405166666666667E+009;1.841576546430588E-001;3.925464302301407E-002;-2.125878818333149E-003;7.115890039131045E-004;
2.405333333333334E+009;1.858928799629211E-001;3.867070004343987E-002;-2.224603435024619E-003;7.888851687312126E-004;
2.405500000000000E+009;1.875621676445007E-001;3.820339962840080E-002;-2.126548439264298E-003;1.002818229608238E-003;
2.405666666666667E+009;1.891481131315231E-001;3.776201605796814E-002;-2.178375842049718E-003;9.449426434002817E-004;
2.405833333333334E+009;1.906049400568008E-001;3.758461773395538E-002;-2.134503563866019E-003;1.173112075775862E-003;
2.406000000000000E+009;1.917435079813004E-001;3.732704371213913E-002;-2.240713220089674E-003;1.263233949430287E-003;
2.406166666666667E+009;1.930909305810928E-001;3.720828145742416E-002;-2.103294245898724E-003;1.349651021882892E-003;
2.406333333333334E+009;1.943030953407288E-001;3.743604570627213E-002;-1.995621249079704E-003;1.363017829135060E-003;
2.406500000000000E+009;1.952800154685974E-001;3.754704818129540E-002;-2.049822127446532E-003;1.307801692746580E-003;
2.406666666666667E+009;1.961348205804825E-001;3.779676929116249E-002;-2.133133355528116E-003;1.337477238848805E-003;
2.406833333333334E+009;1.970143765211105E-001;3.790979459881783E-002;-2.122066216543317E-003;1.395523548126221E-003;
2.407000000000000E+009;1.974714547395706E-001;3.832982480525971E-002;-2.047354588285089E-003;1.552000758238137E-003;
2.407166666666667E+009;1.980487853288651E-001;3.837592899799347E-002;-2.093012444674969E-003;1.428872928954661E-003;
2.407333333333334E+009;1.983709782361984E-001;3.883802890777588E-002;-2.101136837154627E-003;1.602068194188178E-003;
2.407500000000000E+009;1.984703093767166E-001;3.917095810174942E-002;-2.347142668440938E-003;1.774563570506871E-003;
2.407666666666667E+009;1.986410170793533E-001;3.941787779331207E-002;-2.274425001814961E-003;1.734465593472123E-003;
2.407833333333334E+009;1.982320100069046E-001;3.956960886716843E-002;-2.252842066809535E-003;1.861788798123598E-003;
2.408000000000000E+009;1.982999294996262E-001;3.983312845230103E-002;-2.439319854602218E-003;2.128553809598088E-003;
2.408166666666667E+009;1.977333128452301E-001;3.985016047954559E-002;-2.482352778315544E-003;2.271895064041019E-003;
2.408333333333334E+009;1.975504159927368E-001;3.964306041598320E-002;-2.545405877754092E-003;2.491890685632825E-003;
2.408500000000000E+009;1.968285143375397E-001;3.950942307710648E-002;-2.389530884101987E-003;2.633543219417334E-003;
2.408666666666667E+009;1.962363123893738E-001;3.946620598435402E-002;-2.412817673757672E-003;2.728952094912529E-003;
2.408833333333334E+009;1.954463571310043E-001;3.910901397466660E-002;-2.302922075614333E-003;3.074705367907882E-003;
2.409000000000000E+009;1.944459825754166E-001;3.849598392844200E-002;-2.117286901921034E-003;3.222751663997769E-003;
2.409166666666667E+009;1.935753673315048E-001;3.784983232617378E-002;-2.081350656226277E-003;3.488748567178845E-003;
2.409333333333334E+009;1.924583762884140E-001;3.710243850946426E-002;-1.736448379233480E-003;3.724322887137532E-003;
2.409500000000000E+009;1.912006437778473E-001;3.604474663734436E-002;-1.653689425438643E-003;3.831912996247411E-003;
2.409666666666667E+009;1.902113854885101E-001;3.492056578397751E-002;-1.401075161993504E-003;3.934703767299652E-003;
2.409833333333334E+009;1.887969076633453E-001;3.373413905501366E-002;-1.230586785823107E-003;4.094547592103481E-003;
2.410000000000000E+009;1.877620071172714E-001;3.227430582046509E-002;-1.223898492753506E-003;4.155228380113840E-003;
2.410166666666667E+009;1.864532679319382E-001;3.063240088522434E-002;-7.767447968944907E-004;4.164461512118578E-003;
2.410333333333334E+009;1.852718442678452E-001;2.897400967776775E-002;-6.489028455689549E-004;4.291018471121788E-003;
2.410500000000000E+009;1.840312480926514E-001;2.725467272102833E-002;-3.555273578967899E-004;4.494158551096916E-003;
2.410666666666667E+009;1.828926056623459E-001;2.501752600073814E-002;-2.705448714550585E-004;4.318704362958670E-003;
2.410833333333334E+009;1.821359246969223E-001;2.294358797371388E-002;8.376352343475446E-005;4.324617795646191E-003;
2.411000000000000E+009;1.809412688016892E-001;2.064511366188526E-002;3.264336846768856E-004;4.294772166758776E-003;
2.411166666666667E+009;1.801184862852097E-001;1.867878995835781E-002;4.353228432592005E-004;4.334393888711929E-003;
2.411333333333334E+009;1.794165372848511E-001;1.602191664278507E-002;7.146264542825520E-004;4.354716744273901E-003;
2.411500000000000E+009;1.787130683660507E-001;1.356992591172457E-002;7.809770759195089E-004;4.141203127801418E-003;
2.411666666666667E+009;1.784061193466187E-001;1.129439193755388E-002;9.717874345369637E-004;4.204310476779938E-003;
2.411833333333334E+009;1.775768548250198E-001;8.699174039065838E-003;9.612347930669785E-004;4.180372692644596E-003;
2.412000000000000E+009;1.777556091547012E-001;6.013468839228153E-003;1.401108456775546E-003;4.144746344536543E-003;
2.412166666666667E+009;1.776132285594940E-001;3.386607160791755E-003;1.512946211732924E-003;4.009035881608725E-003;
2.412333333333334E+009;1.777571439743042E-001;8.526578312739730E-004;1.714673475362361E-003;4.016371443867683E-003;
2.412500000000000E+009;1.779359281063080E-001;-1.760168001055718E-003;2.028389135375619E-003;3.986307419836521E-003;
2.412666666666667E+009;1.783314496278763E-001;-4.611323587596417E-003;2.010955708101392E-003;3.943920135498047E-003;
2.412833333333334E+009;1.786974072456360E-001;-7.373688742518425E-003;2.276150044053793E-003;3.695750143378973E-003;
2.413000000000000E+009;1.795068532228470E-001;-9.703167714178562E-003;2.536992542445660E-003;3.536174539476633E-003;
2.413166666666667E+009;1.802792102098465E-001;-1.237776223570108E-002;2.716597868129611E-003;3.361345035955310E-003;
2.413333333333334E+009;1.812921464443207E-001;-1.476375572383404E-002;2.834851853549480E-003;3.284727921709418E-003;
2.413500000000000E+009;1.820337325334549E-001;-1.738677360117436E-002;3.138929838314652E-003;2.982783596962690E-003;
2.413666666666667E+009;1.833552569150925E-001;-1.975030638277531E-002;3.085191594436765E-003;2.596867969259620E-003;
2.413833333333334E+009;1.843520402908325E-001;-2.216353267431259E-002;3.312294138595462E-003;2.378421137109399E-003;
2.414000000000000E+009;1.856240034103394E-001;-2.435536682605743E-002;3.385125659406185E-003;2.060047350823879E-003;
2.414166666666667E+009;1.869065463542938E-001;-2.633321657776833E-002;3.376726061105728E-003;1.836400944739580E-003;
2.414333333333334E+009;1.882423311471939E-001;-2.855113148689270E-002;3.386776195839047E-003;1.618580427020788E-003;
2.414500000000000E+009;1.895653456449509E-001;-3.028872050344944E-002;3.110769437626004E-003;1.362478011287749E-003;
2.414666666666667E+009;1.908088177442551E-001;-3.207150846719742E-002;3.260646946728230E-003;1.206193934194744E-003;
2.414833333333334E+009;1.921824961900711E-001;-3.337578475475311E-002;3.131308127194643E-003;9.866575710475445E-004;
2.415000000000000E+009;1.935148239135742E-001;-3.506768122315407E-002;2.793848281726241E-003;8.152712834998965E-004;
2.415166666666667E+009;1.951002478599548E-001;-3.619416803121567E-002;2.942712279036641E-003;8.959644474089146E-004;
2.415333333333334E+009;1.964514404535294E-001;-3.751904144883156E-002;2.880552085116506E-003;6.266564596444368E-004;
2.415500000000000E+009;1.977061629295349E-001;-3.833298385143280E-002;2.723217010498047E-003;5.884508718736470E-004;
2.415666666666667E+009;1.990511417388916E-001;-3.929547965526581E-002;2.593015320599079E-003;4.245524469297379E-004;
2.415833333333334E+009;2.002139389514923E-001;-4.001551121473312E-002;2.439520787447691E-003;3.199338680133224E-004;
2.416000000000000E+009;2.012688219547272E-001;-4.079904779791832E-002;2.531314967200160E-003;2.172989188693464E-004;
2.416166666666667E+009;2.021715044975281E-001;-4.130982235074043E-002;2.259716391563416E-003;1.710103606455959E-005;
2.416333333333334E+009;2.031252235174179E-001;-4.175404086709023E-002;2.123834565281868E-003;-4.422285257987824E-007;
2.416500000000000E+009;2.040506005287170E-001;-4.197888076305389E-002;2.184108598157764E-003;-1.042667645378970E-004;
2.416666666666667E+009;2.045365422964096E-001;-4.231984913349152E-002;1.890472136437893E-003;-8.590824290877208E-005;
2.416833333333334E+009;2.049889266490936E-001;-4.236857593059540E-002;1.555572263896465E-003;-8.890757453627884E-005;
2.417000000000000E+009;2.054034918546677E-001;-4.236970096826553E-002;1.658731023781002E-003;-5.177096682018600E-005;
2.417166666666667E+009;2.053908258676529E-001;-4.214939475059509E-002;1.447941758669913E-003;-2.652071816555690E-005;
2.417333333333334E+009;2.054023146629334E-001;-4.193500056862831E-002;1.468105474486947E-003;2.546103787608445E-004;
2.417500000000000E+009;2.052505016326904E-001;-4.183335602283478E-002;1.210398972034454E-003;2.290942938998342E-004;
2.417666666666667E+009;2.049831748008728E-001;-4.134549945592880E-002;1.113680773414671E-003;3.710884484462440E-004;
2.417833333333334E+009;2.047603726387024E-001;-4.116518050432205E-002;1.069786958396435E-003;7.969735306687653E-004;
2.418000000000000E+009;2.043495327234268E-001;-4.071616753935814E-002;1.166752888821065E-003;7.201801054179668E-004;
2.418166666666667E+009;2.037061750888825E-001;-4.045587405562401E-002;1.202051993459463E-003;8.463756530545652E-004;
2.418333333333334E+009;2.029082328081131E-001;-4.007641226053238E-002;1.106944982893765E-003;1.132442848756909E-003;
2.418500000000000E+009;2.019886225461960E-001;-3.993088752031326E-002;1.366046140901744E-003;1.188768190331757E-003;
2.418666666666667E+009;2.011090815067291E-001;-3.944764286279678E-002;1.563307247124612E-003;1.262924866750836E-003;
2.418833333333334E+009;2.000001072883606E-001;-3.961263224482536E-002;1.406840397976339E-003;1.396609935909510E-003;
2.419000000000000E+009;1.987654566764832E-001;-3.932708129286766E-002;1.647042809054256E-003;1.407788135111332E-003;
2.419166666666667E+009;1.974648982286453E-001;-3.966319933533669E-002;1.803392427973449E-003;1.501750200986862E-003;
2.419333333333334E+009;1.960194408893585E-001;-3.987832367420197E-002;1.985407667234540E-003;1.478902762755752E-003;
2.419500000000000E+009;1.945134252309799E-001;-3.993996232748032E-002;2.171444008126855E-003;1.470431336201727E-003;
2.419666666666667E+009;1.928218007087708E-001;-4.071658849716187E-002;2.378664910793304E-003;1.546790124848485E-003;
2.419833333333334E+009;1.910096853971481E-001;-4.110895469784737E-002;2.586419926956296E-003;1.453480799682438E-003;
2.420000000000000E+009;1.894526928663254E-001;-4.183148592710495E-002;2.653608797118068E-003;1.448658178560436E-003;
2.420166666666667E+009;1.877724528312683E-001;-4.249637201428413E-002;2.828604076057673E-003;1.330703496932983E-003;
2.420333333333334E+009;1.858390271663666E-001;-4.371269047260284E-002;3.088460303843021E-003;1.331310952082276E-003;
2.420500000000000E+009;1.839956194162369E-001;-4.475032165646553E-002;3.152957186102867E-003;1.215446041896939E-003;
2.420666666666667E+009;1.822047829627991E-001;-4.583001136779785E-002;3.230828559026122E-003;1.035959692671895E-003;
2.420833333333334E+009;1.804409325122833E-001;-4.716373980045319E-002;3.443442983552814E-003;9.001657017506659E-004;
2.421000000000000E+009;1.786913871765137E-001;-4.874842241406441E-002;3.563539357855916E-003;8.308256510645151E-004;
2.421166666666667E+009;1.769409626722336E-001;-5.046369507908821E-002;3.759773913770914E-003;7.301299483515322E-004;
2.421333333333334E+009;1.751313358545303E-001;-5.182833969593048E-002;3.885269863530994E-003;5.429964512586594E-004;
2.421500000000000E+009;1.736590564250946E-001;-5.387382209300995E-002;3.762201406061649E-003;2.978498232550919E-004;
2.421666666666667E+009;1.720917820930481E-001;-5.560769140720367E-002;3.976217936724424E-003;1.995010679820553E-004;
2.421833333333334E+009;1.707292497158051E-001;-5.761381238698959E-002;3.987715113908052E-003;1.665071758907288E-004;
2.422000000000000E+009;1.695099174976349E-001;-5.968721956014633E-002;4.094960633665323E-003;-9.697514906292781E-005;
2.422166666666667E+009;1.684058457612991E-001;-6.182712316513062E-002;4.124517552554607E-003;-2.462453849148005E-004;
2.422333333333334E+009;1.671147048473358E-001;-6.385692209005356E-002;4.131093621253967E-003;-5.197932478040457E-004;
2.422500000000000E+009;1.659498810768127E-001;-6.588534265756607E-002;4.228642676025629E-003;-5.882341065444052E-004;
2.422666666666667E+009;1.653112769126892E-001;-6.812764704227448E-002;4.238784313201904E-003;-7.244567968882620E-004;
2.422833333333334E+009;1.647826880216599E-001;-7.041241973638535E-002;4.092138260602951E-003;-8.916999795474112E-004;
2.423000000000000E+009;1.641242653131485E-001;-7.266518473625183E-002;4.263907670974731E-003;-9.256616467610002E-004;
2.423166666666667E+009;1.635662168264389E-001;-7.477313280105591E-002;4.369289148598909E-003;-1.085981260985136E-003;
2.423333333333334E+009;1.632964164018631E-001;-7.714860141277313E-002;4.253263585269451E-003;-1.445000874809921E-003;
2.423500000000000E+009;1.631481945514679E-001;-7.910472899675369E-002;4.296531900763512E-003;-1.593187102116644E-003;
2.423666666666667E+009;1.630520224571228E-001;-8.131062239408493E-002;4.390431102365255E-003;-1.848140731453896E-003;
2.423833333333334E+009;1.630741357803345E-001;-8.334288746118546E-002;4.257617052644491E-003;-1.907053985632956E-003;
2.424000000000000E+009;1.632249653339386E-001;-8.537412434816361E-002;4.330065101385117E-003;-2.189378254115582E-003;
2.424166666666667E+009;1.633707284927368E-001;-8.723826706409454E-002;4.255530890077353E-003;-2.504213480278850E-003;
2.424333333333334E+009;1.636168658733368E-001;-8.904293924570084E-002;4.184015560895205E-003;-2.738053910434246E-003;
2.424500000000000E+009;1.641063392162323E-001;-9.102472662925720E-002;3.835671115666628E-003;-3.048120532184839E-003;
2.424666666666667E+009;1.644239723682404E-001;-9.256916493177414E-002;3.867898834869266E-003;-3.479135222733021E-003;
2.424833333333334E+009;1.650726795196533E-001;-9.408082067966461E-002;3.820640966296196E-003;-3.729547141119838E-003;
2.425000000000000E+009;1.656793653964996E-001;-9.560833871364594E-002;3.474324941635132E-003;-3.955014050006867E-003;
2.425166666666667E+009;1.660742461681366E-001;-9.689484536647797E-002;3.126558847725391E-003;-4.194603301584721E-003;
2.425333333333334E+009;1.666508167982101E-001;-9.800795465707779E-002;2.853766549378634E-003;-4.312715027481318E-003;
2.425500000000000E+009;1.672842353582382E-001;-9.926146268844605E-002;2.906979992985725E-003;-4.467075224965811E-003;
2.425666666666667E+009;1.679427325725555E-001;-1.000595316290855E-001;2.425512764602900E-003;-4.559702239930630E-003;
2.425833333333334E+009;1.684812009334564E-001;-1.010766848921776E-001;2.064195228740573E-003;-4.724103957414627E-003;
2.426000000000000E+009;1.690579056739807E-001;-1.015744358301163E-001;1.780106569640338E-003;-4.759639501571655E-003;
2.426166666666667E+009;1.697233319282532E-001;-1.022418290376663E-001;1.400172361172736E-003;-4.599309992045164E-003;
2.426333333333334E+009;1.701294630765915E-001;-1.028650850057602E-001;1.233312883414328E-003;-4.642791114747524E-003;
2.426500000000000E+009;1.707602292299271E-001;-1.031454056501389E-001;1.000152435153723E-003;-4.569400567561388E-003;
2.426666666666667E+009;1.711603552103043E-001;-1.035340726375580E-001;8.738025790080428E-004;-4.436228889971972E-003;
2.426833333333334E+009;1.717336028814316E-001;-1.039409786462784E-001;5.666279466822743E-004;-4.440812859684229E-003;
2.427000000000000E+009;1.719716638326645E-001;-1.041662693023682E-001;4.082689702045173E-004;-4.468451719731093E-003;
2.427166666666667E+009;1.723016053438187E-001;-1.041021347045898E-001;2.852861944120377E-004;-4.449399188160896E-003;
2.427333333333334E+009;1.723870635032654E-001;-1.043286025524139E-001;4.784280099556781E-005;-4.214573185890913E-003;
2.427500000000000E+009;1.724562793970108E-001;-1.044500768184662E-001;9.355900692753494E-005;-4.204014781862497E-003;
2.427666666666667E+009;1.723328381776810E-001;-1.044724434614182E-001;-7.387546793324873E-005;-4.164609126746655E-003;
2.427833333333334E+009;1.722343415021896E-001;-1.044546067714691E-001;-2.477499947417527E-004;-4.045571200549603E-003;
