# Version 1.00
#
freq[Hz];re:Trc1_S11;im:Trc1_S11;re:Trc2_S21;im:Trc2_S21;
2.400000000000000E+009;1.557602882385254E-001;1.115121394395828E-001;-2.692856360226870E-003;-3.930797392968088E-004;
2.400166666666667E+009;1.551713645458221E-001;1.093823909759522E-001;-2.777956426143646E-003;-1.607576996320859E-004;
2.400333333333334E+009;1.550016552209854E-001;1.070843189954758E-001;-2.863839734345675E-003;-5.429570228443481E-005;
2.400500000000000E+009;1.544574350118637E-001;1.043142229318619E-001;-2.795765642076731E-003;1.452449505450204E-004;
2.400666666666667E+009;1.543692201375961E-001;1.020408496260643E-001;-2.813479630276561E-003;1.533605973236263E-004;
2.400833333333334E+009;1.540514975786209E-001;9.910405427217484E-002;-2.784781623631716E-003;1.278357667615637E-004;
2.401000000000000E+009;1.540136933326721E-001;9.605087339878082E-002;-2.760507166385651E-003;5.974628147669137E-004;
2.401166666666667E+009;1.538220643997192E-001;9.335446357727051E-002;-2.712821122258902E-003;4.141302197240293E-004;
2.401333333333334E+009;1.540378630161285E-001;9.051614254713059E-002;-2.600926905870438E-003;9.012969676405191E-004;
2.401500000000000E+009;1.543721556663513E-001;8.742475509643555E-002;-2.624599495902658E-003;8.679063757881522E-004;
2.401666666666667E+009;1.544885188341141E-001;8.440051227807999E-002;-2.588310977444053E-003;1.141666318289936E-003;
2.401833333333334E+009;1.548383831977844E-001;8.158923685550690E-002;-2.496837172657251E-003;1.003407873213291E-003;
2.402000000000000E+009;1.555719226598740E-001;7.862404733896256E-002;-2.279879525303841E-003;1.043338677845895E-003;
2.402166666666667E+009;1.561439931392670E-001;7.561577856540680E-002;-2.153738867491484E-003;1.191389514133334E-003;
2.402333333333334E+009;1.568400114774704E-001;7.279052585363388E-002;-2.049034228548408E-003;1.287307473830879E-003;
2.402500000000000E+009;1.580228954553604E-001;6.996087729930878E-002;-1.745908753946424E-003;1.382901682518423E-003;
2.402666666666667E+009;1.591086387634277E-001;6.736022233963013E-002;-1.740087871439755E-003;1.279506715945900E-003;
2.402833333333334E+009;1.602441966533661E-001;6.460805237293243E-002;-1.581312972120941E-003;1.207205699756742E-003;
2.403000000000000E+009;1.615988463163376E-001;6.202410534024239E-002;-1.419315929524601E-003;1.224904670380056E-003;
2.403166666666667E+009;1.634233593940735E-001;5.956435203552246E-002;-1.423415262252092E-003;1.236882526427507E-003;
2.403333333333334E+009;1.648126989603043E-001;5.687389522790909E-002;-1.186906127259135E-003;1.165594789199531E-003;
2.403500000000000E+009;1.665446609258652E-001;5.464874953031540E-002;-1.365990377962589E-003;7.955638575367630E-004;
2.403666666666667E+009;1.684149801731110E-001;5.251988023519516E-002;-1.090520410798490E-003;6.751479813829064E-004;
2.403833333333334E+009;1.700602918863297E-001;5.059539526700974E-002;-1.216114265844226E-003;5.419701919890940E-004;
2.404000000000000E+009;1.717505007982254E-001;4.837793856859207E-002;-1.253728289157152E-003;5.005635321140289E-004;
2.404166666666667E+009;1.736820638179779E-001;4.668742045760155E-002;-1.466343645006418E-003;4.463389341253787E-004;
2.404333333333334E+009;1.755819320678711E-001;4.487514123320580E-002;-1.427239389158785E-003;2.611707022879273E-004;
2.404500000000000E+009;1.771418303251267E-001;4.343831166625023E-002;-1.653412007726729E-003;3.781677805818617E-004;
2.404666666666667E+009;1.790369898080826E-001;4.203542321920395E-002;-1.910645980387926E-003;2.704022917896509E-004;
2.404833333333334E+009;1.809583604335785E-001;4.089841619133949E-002;-1.887532533146441E-003;6.126121152192354E-004;
2.405000000000000E+009;1.825756728649139E-001;4.010159894824028E-002;-2.072142204269767E-003;4.577758372761309E-004;
2.405166666666667E+009;1.841692626476288E-001;3.921592608094215E-002;-2.196406712755561E-003;5.513234063982964E-004;
2.405333333333334E+009;1.859715133905411E-001;3.876920416951180E-002;-2.137958537787199E-003;9.118675370700657E-004;
2.405500000000000E+009;1.875285357236862E-001;3.820158541202545E-002;-2.286035800352693E-003;9.457860724069178E-004;
2.405666666666667E+009;1.889362633228302E-001;3.780610114336014E-002;-2.274802187457681E-003;9.413243969902396E-004;
2.405833333333334E+009;1.904564648866653E-001;3.759901598095894E-002;-2.240352798253298E-003;1.106870360672474E-003;
2.406000000000000E+009;1.919036954641342E-001;3.737463802099228E-002;-2.239953726530075E-003;1.312751322984695E-003;
2.406166666666667E+009;1.930641829967499E-001;3.729711845517159E-002;-2.044656313955784E-003;1.272033550776541E-003;
2.406333333333334E+009;1.942576318979263E-001;3.733448684215546E-002;-2.136080758646131E-003;1.449951087124646E-003;
2.406500000000000E+009;1.953958868980408E-001;3.766942396759987E-002;-2.005475573241711E-003;1.343716518022120E-003;
2.406666666666667E+009;1.961725503206253E-001;3.773546218872070E-002;-2.115254988893867E-003;1.425323891453445E-003;
2.406833333333334E+009;1.970682740211487E-001;3.792875632643700E-002;-2.107335720211268E-003;1.609366037882865E-003;
2.407000000000000E+009;1.974342018365860E-001;3.838977217674255E-002;-1.889232778921723E-003;1.542330719530582E-003;
2.407166666666667E+009;1.981573551893234E-001;3.841000795364380E-002;-2.116117859259248E-003;1.658693770878017E-003;
2.407333333333334E+009;1.982600837945938E-001;3.882619366049767E-002;-2.173969522118568E-003;1.562673598527908E-003;
2.407500000000000E+009;1.984471082687378E-001;3.916052356362343E-002;-2.302555367350578E-003;1.699590706266463E-003;
2.407666666666667E+009;1.985816806554794E-001;3.946513310074806E-002;-2.270477125421166E-003;1.733552198857069E-003;
2.407833333333334E+009;1.982327848672867E-001;3.958238288760185E-002;-2.502597635611892E-003;1.911558909341693E-003;
2.408000000000000E+009;1.982628256082535E-001;3.980184718966484E-002;-2.381488215178251E-003;2.107637003064156E-003;
2.408166666666667E+009;1.977348476648331E-001;3.986992314457893E-002;-2.508731558918953E-003;2.290404867380858E-003;
2.408333333333334E+009;1.974544078111649E-001;3.964069858193398E-002;-2.375822048634291E-003;2.405023202300072E-003;
2.408500000000000E+009;1.966861784458160E-001;3.971094265580177E-002;-2.487458754330874E-003;2.655778080224991E-003;
2.408666666666667E+009;1.961423009634018E-001;3.938599675893784E-002;-2.492132596671581E-003;2.801680471748114E-003;
2.408833333333334E+009;1.955153495073319E-001;3.902423754334450E-002;-2.311398508027196E-003;3.145310794934630E-003;
2.409000000000000E+009;1.944695115089417E-001;3.849140927195549E-002;-2.184853889048100E-003;3.294408554211259E-003;
2.409166666666667E+009;1.933701038360596E-001;3.768878802657127E-002;-2.099667442962527E-003;3.469911171123385E-003;
2.409333333333334E+009;1.923481225967407E-001;3.707766160368919E-002;-1.859832555055618E-003;3.552685724571347E-003;
2.409500000000000E+009;1.912423223257065E-001;3.602002561092377E-002;-1.759299077093601E-003;3.849632339552045E-003;
2.409666666666667E+009;1.900377422571182E-001;3.484609350562096E-002;-1.637110486626625E-003;3.877796465530992E-003;
2.409833333333334E+009;1.887691020965576E-001;3.375558182597160E-002;-1.233348855748773E-003;4.128532949835062E-003;
2.410000000000000E+009;1.876083314418793E-001;3.221062198281288E-002;-1.172461197711527E-003;4.212841857224703E-003;
2.410166666666667E+009;1.863567531108856E-001;3.050259500741959E-002;-9.222008520737290E-004;4.273996222764254E-003;
2.410333333333334E+009;1.852302551269531E-001;2.899860404431820E-002;-7.856776355765760E-004;4.206398501992226E-003;
2.410500000000000E+009;1.838752478361130E-001;2.716000378131867E-002;-6.669642752967775E-004;4.343644250184298E-003;
2.410666666666667E+009;1.829226016998291E-001;2.497263625264168E-002;-2.832690661307424E-004;4.248645156621933E-003;
2.410833333333334E+009;1.820573210716248E-001;2.280629798769951E-002;-1.837830350268632E-004;4.342133644968271E-003;
2.411000000000000E+009;1.808370500802994E-001;2.067671716213226E-002;2.069727488560602E-004;4.375932738184929E-003;
2.411166666666667E+009;1.800372898578644E-001;1.861779950559139E-002;3.039783041458577E-004;4.375377204269171E-003;
2.411333333333334E+009;1.791196614503861E-001;1.608943752944470E-002;4.966500564478338E-004;4.323194269090891E-003;
2.411500000000000E+009;1.785635203123093E-001;1.357324048876762E-002;7.496252073906362E-004;4.302201326936483E-003;
2.411666666666667E+009;1.783011108636856E-001;1.121122762560844E-002;8.413518080487847E-004;4.241763148456812E-003;
2.411833333333334E+009;1.777506470680237E-001;8.634604513645172E-003;1.068982528522611E-003;4.163890611380339E-003;
2.412000000000000E+009;1.776573359966278E-001;5.970781203359366E-003;1.390921650454402E-003;4.065284505486488E-003;
2.412166666666667E+009;1.774813234806061E-001;3.519907128065825E-003;1.458845217712224E-003;4.230399616062641E-003;
2.412333333333334E+009;1.774995326995850E-001;6.931842654012144E-004;1.667880918830633E-003;4.047132097184658E-003;
2.412500000000000E+009;1.779632568359375E-001;-1.779212499968708E-003;1.914780004881322E-003;3.977220971137285E-003;
2.412666666666667E+009;1.783279180526733E-001;-4.542813636362553E-003;2.038456266745925E-003;3.771900199353695E-003;
2.412833333333334E+009;1.788530200719833E-001;-7.125145755708218E-003;2.240992384031415E-003;3.688528435304761E-003;
2.413000000000000E+009;1.795463860034943E-001;-9.665272198617458E-003;2.602627268061042E-003;3.577673574909568E-003;
2.413166666666667E+009;1.801373809576035E-001;-1.228253357112408E-002;2.621551277115941E-003;3.379705827683210E-003;
2.413333333333334E+009;1.811095625162125E-001;-1.490212418138981E-002;2.936727833002806E-003;3.292071400210261E-003;
2.413500000000000E+009;1.820262223482132E-001;-1.736242510378361E-002;3.124873619526625E-003;3.080797847360373E-003;
2.413666666666667E+009;1.831892877817154E-001;-1.992434449493885E-002;3.182807471603155E-003;2.705399878323078E-003;
2.413833333333334E+009;1.844413429498673E-001;-2.221343107521534E-002;3.412677207961679E-003;2.445545280352235E-003;
2.414000000000000E+009;1.855932027101517E-001;-2.433252520859242E-002;3.511434420943260E-003;2.060823375359178E-003;
2.414166666666667E+009;1.868977546691895E-001;-2.634433284401894E-002;3.392596263438463E-003;1.957931555807591E-003;
2.414333333333334E+009;1.881598532199860E-001;-2.863652072846890E-002;3.407904412597418E-003;1.476719160564244E-003;
2.414500000000000E+009;1.895185410976410E-001;-3.033493831753731E-002;3.203854663297534E-003;1.231514499522746E-003;
2.414666666666667E+009;1.908836960792542E-001;-3.201651945710182E-002;3.213368821889162E-003;1.118024694733322E-003;
2.414833333333334E+009;1.922090202569962E-001;-3.364621847867966E-002;2.996226772665978E-003;8.330784039571881E-004;
2.415000000000000E+009;1.935334354639053E-001;-3.505083918571472E-002;3.142886329442263E-003;8.170562214218080E-004;
2.415166666666667E+009;1.949544101953507E-001;-3.642362356185913E-002;2.885810565203428E-003;8.520658011548221E-004;
2.415333333333334E+009;1.965004056692123E-001;-3.752541542053223E-002;2.916428493335843E-003;7.395969587378204E-004;
2.415500000000000E+009;1.977981775999069E-001;-3.836026415228844E-002;2.589087700471282E-003;4.485280078370124E-004;
2.415666666666667E+009;1.989761590957642E-001;-3.946489468216896E-002;2.563519170507789E-003;3.634160384535790E-004;
2.415833333333334E+009;2.001703530550003E-001;-4.001298174262047E-002;2.699161181226373E-003;2.607854548841715E-004;
2.416000000000000E+009;2.011544108390808E-001;-4.070874303579330E-002;2.596030477434397E-003;2.499803667888045E-004;
2.416166666666667E+009;2.021460980176926E-001;-4.138782620429993E-002;2.349264919757843E-003;7.179776730481535E-005;
2.416333333333334E+009;2.032548785209656E-001;-4.174876585602760E-002;2.314523560926318E-003;1.494419120717794E-004;
2.416500000000000E+009;2.038634419441223E-001;-4.186953604221344E-002;1.989094074815512E-003;3.065136479563080E-005;
2.416666666666667E+009;2.044840455055237E-001;-4.218404740095139E-002;1.792515395209193E-003;-9.087283615372144E-006;
2.416833333333334E+009;2.049534320831299E-001;-4.217591881752014E-002;1.711092540062964E-003;-8.253688429249451E-005;
2.417000000000000E+009;2.053531408309937E-001;-4.231706634163857E-002;1.679933164268732E-003;3.089693927904591E-005;
2.417166666666667E+009;2.052967548370361E-001;-4.218667000532150E-002;1.456082100048661E-003;1.342358882538974E-004;
2.417333333333334E+009;2.054119259119034E-001;-4.197780042886734E-002;1.244439161382616E-003;2.445216523483396E-004;
2.417500000000000E+009;2.052920162677765E-001;-4.173418506979942E-002;1.147134462371469E-003;3.176910686306655E-004;
2.417666666666667E+009;2.049792259931564E-001;-4.152740165591240E-002;1.356990309432149E-003;4.812087572645396E-004;
2.417833333333334E+009;2.047124207019806E-001;-4.105925187468529E-002;1.147801638580859E-003;5.911192856729031E-004;
2.418000000000000E+009;2.042648345232010E-001;-4.067154601216316E-002;1.126780989579856E-003;7.782703614793718E-004;
2.418166666666667E+009;2.036383152008057E-001;-4.034563899040222E-002;1.111821737140417E-003;8.950072224251926E-004;
2.418333333333334E+009;2.027976214885712E-001;-4.002043977379799E-002;1.372545724734664E-003;1.064300886355341E-003;
2.418500000000000E+009;2.020011991262436E-001;-3.991753980517387E-002;1.445681438781321E-003;1.293537323363125E-003;
2.418666666666667E+009;2.010895609855652E-001;-3.956975787878037E-002;1.435323967598379E-003;1.436188118532300E-003;
2.418833333333334E+009;1.998597383499146E-001;-3.940509632229805E-002;1.623514341190457E-003;1.550730434246361E-003;
2.419000000000000E+009;1.987176835536957E-001;-3.945241123437882E-002;1.839561387896538E-003;1.389242126606405E-003;
2.419166666666667E+009;1.972754150629044E-001;-3.957310318946838E-002;1.858743955381215E-003;1.636376837268472E-003;
2.419333333333334E+009;1.958624273538590E-001;-3.984139114618301E-002;2.095261355862021E-003;1.686714007519186E-003;
2.419500000000000E+009;1.944798827171326E-001;-4.002175480127335E-002;2.180313225835562E-003;1.533128670416772E-003;
2.419666666666667E+009;1.927088052034378E-001;-4.077436774969101E-002;2.321606501936913E-003;1.633054576814175E-003;
2.419833333333334E+009;1.910347193479538E-001;-4.103748127818108E-002;2.442949917167425E-003;1.513701048679650E-003;
2.420000000000000E+009;1.893689930438995E-001;-4.185093939304352E-002;2.676631091162562E-003;1.502908533439040E-003;
2.420166666666667E+009;1.876831650733948E-001;-4.253432527184486E-002;2.885325578972697E-003;1.500812941230834E-003;
2.420333333333334E+009;1.858117133378983E-001;-4.357038438320160E-002;3.021490294486284E-003;1.334400032646954E-003;
2.420500000000000E+009;1.840869784355164E-001;-4.479254409670830E-002;3.210510592907667E-003;1.190718263387680E-003;
2.420666666666667E+009;1.822603493928909E-001;-4.583402723073959E-002;3.447427880018950E-003;1.286370679736137E-003;
2.420833333333334E+009;1.803685873746872E-001;-4.720508307218552E-002;3.457517363131046E-003;9.175399318337441E-004;
2.421000000000000E+009;1.786368042230606E-001;-4.872133582830429E-002;3.628281177952886E-003;8.354120654985309E-004;
2.421166666666667E+009;1.771097779273987E-001;-5.026949197053909E-002;3.690231358632445E-003;7.137752254493535E-004;
2.421333333333334E+009;1.751099824905396E-001;-5.181291699409485E-002;3.751541022211313E-003;5.475567886605859E-004;
2.421500000000000E+009;1.735369861125946E-001;-5.381515622138977E-002;3.738307394087315E-003;3.570527478586882E-004;
2.421666666666667E+009;1.720176339149475E-001;-5.561478808522224E-002;3.941436298191547E-003;2.435666101519018E-004;
2.421833333333334E+009;1.708170473575592E-001;-5.767709016799927E-002;3.954821731895208E-003;-1.022131800709758E-005;
2.422000000000000E+009;1.692681312561035E-001;-5.954994633793831E-002;4.040908534079790E-003;-5.305407466948964E-005;
2.422166666666667E+009;1.682899445295334E-001;-6.164974719285965E-002;4.067980684340000E-003;-3.150717529933900E-004;
2.422333333333334E+009;1.670622527599335E-001;-6.375562399625778E-002;4.062481690198183E-003;-3.562050987966359E-004;
2.422500000000000E+009;1.660133600234985E-001;-6.592470407485962E-002;4.130427725613117E-003;-6.940187886357307E-004;
2.422666666666667E+009;1.653200536966324E-001;-6.816201657056809E-002;3.998546395450831E-003;-6.232009618543088E-004;
2.422833333333334E+009;1.646845191717148E-001;-7.037124037742615E-002;4.153169691562653E-003;-9.874704992398620E-004;
2.423000000000000E+009;1.639987081289291E-001;-7.252693921327591E-002;4.072056151926518E-003;-9.888240601867437E-004;
2.423166666666667E+009;1.634503901004791E-001;-7.475519925355911E-002;4.222358111292124E-003;-1.241026446223259E-003;
2.423333333333334E+009;1.632760912179947E-001;-7.697734236717224E-002;4.208276979625225E-003;-1.351856742985547E-003;
2.423500000000000E+009;1.631773114204407E-001;-7.899086177349091E-002;4.163038451224566E-003;-1.589501975104213E-003;
2.423666666666667E+009;1.632200330495834E-001;-8.126720786094666E-002;4.306627903133631E-003;-1.723174005746841E-003;
2.423833333333334E+009;1.630492657423019E-001;-8.327745646238327E-002;4.246913362294436E-003;-1.984678907319903E-003;
2.424000000000000E+009;1.632542610168457E-001;-8.530061691999435E-002;4.382143728435040E-003;-2.357276855036616E-003;
2.424166666666667E+009;1.633712053298950E-001;-8.716967701911926E-002;4.274735692888498E-003;-2.615731209516525E-003;
2.424333333333334E+009;1.637597978115082E-001;-8.891081809997559E-002;4.204615019261837E-003;-2.824565395712853E-003;
2.424500000000000E+009;1.640713214874268E-001;-9.086039662361145E-002;4.123303107917309E-003;-3.121748100966215E-003;
2.424666666666667E+009;1.644248366355896E-001;-9.242309629917145E-002;3.746771020814776E-003;-3.254434792324901E-003;
2.424833333333334E+009;1.651029139757156E-001;-9.390465915203095E-002;3.643310861662030E-003;-3.640903625637293E-003;
2.425000000000000E+009;1.656569987535477E-001;-9.537511318922043E-002;3.519779536873102E-003;-3.871473483741283E-003;
2.425166666666667E+009;1.661276817321777E-001;-9.673906117677689E-002;3.307638224214315E-003;-4.222812596708536E-003;
2.425333333333334E+009;1.666700243949890E-001;-9.788096696138382E-002;2.949435729533434E-003;-4.396759904921055E-003;
2.425500000000000E+009;1.671377718448639E-001;-9.901042282581329E-002;2.783942269161344E-003;-4.436019342392683E-003;
2.425666666666667E+009;1.678556948900223E-001;-9.980940818786621E-002;2.441731747239828E-003;-4.672219976782799E-003;
2.425833333333334E+009;1.684161722660065E-001;-1.009730696678162E-001;2.178369555622339E-003;-4.649886395782232E-003;
2.426000000000000E+009;1.691265553236008E-001;-1.015352234244347E-001;1.766566187143326E-003;-4.759524948894978E-003;
2.426166666666667E+009;1.697688698768616E-001;-1.020802855491638E-001;1.547569991089404E-003;-4.763317294418812E-003;
2.426333333333334E+009;1.701434552669525E-001;-1.028035506606102E-001;1.376443426124752E-003;-4.829457029700279E-003;
2.426500000000000E+009;1.706989556550980E-001;-1.030825227499008E-001;1.070840167813003E-003;-4.798576235771179E-003;
2.426666666666667E+009;1.712765991687775E-001;-1.033573821187019E-001;8.237130823545158E-004;-4.545373376458883E-003;
2.426833333333334E+009;1.717618852853775E-001;-1.037515550851822E-001;6.611937424167991E-004;-4.603861365467310E-003;
2.427000000000000E+009;1.720620840787888E-001;-1.040186136960983E-001;4.736495902761817E-004;-4.440834280103445E-003;
2.427166666666667E+009;1.722683906555176E-001;-1.040913015604019E-001;3.250179870519787E-004;-4.380131140351296E-003;
2.427333333333334E+009;1.724170744419098E-001;-1.042584851384163E-001;8.768220141064376E-005;-4.339622333645821E-003;
2.427500000000000E+009;1.724165230989456E-001;-1.044427752494812E-001;1.999134110519663E-004;-4.211830906569958E-003;
2.427666666666667E+009;1.722846031188965E-001;-1.043789312243462E-001;-1.442293141735718E-004;-4.170400556176901E-003;
2.427833333333334E+009;1.722896099090576E-001;-1.042913421988487E-001;-1.919248315971345E-004;-4.126335028558970E-003;
