# Version 1.00
#
freq[Hz];re:Trc1_S11;im:Trc1_S11;re:Trc2_S21;im:Trc2_S21;
2.400000000000000E+009;1.563299894332886E-001;1.058896109461784E-001;3.867887891829014E-003;-2.689830726012588E-003;
2.400166666666667E+009;1.563765257596970E-001;1.036516204476357E-001;3.706824267283082E-003;-2.765537006780505E-003;
2.400333333333334E+009;1.565523147583008E-001;1.013989448547363E-001;3.819161094725132E-003;-2.768650650978088E-003;
2.400500000000000E+009;1.567221283912659E-001;9.885342419147492E-002;3.744285320863128E-003;-2.787424484267831E-003;
2.400666666666667E+009;1.570756882429123E-001;9.652253240346909E-002;3.801086451858282E-003;-2.812244696542621E-003;
2.400833333333334E+009;1.569580882787705E-001;9.374027699232101E-002;3.843054175376892E-003;-2.788078272715211E-003;
2.401000000000000E+009;1.574906408786774E-001;9.110615402460098E-002;3.818898694589734E-003;-2.891777548938990E-003;
2.401166666666667E+009;1.577625572681427E-001;8.847668021917343E-002;3.910587169229984E-003;-3.010681131854653E-003;
2.401333333333334E+009;1.583170741796494E-001;8.588108420372009E-002;3.802803810685873E-003;-3.176932223141193E-003;
2.401500000000000E+009;1.587805002927780E-001;8.330459892749786E-002;4.092080984264612E-003;-3.266210667788982E-003;
2.401666666666667E+009;1.591610610485077E-001;8.051070570945740E-002;3.889717860147357E-003;-3.451381577178836E-003;
2.401833333333334E+009;1.598425209522247E-001;7.791141420602799E-002;3.775343066081405E-003;-3.666522214189172E-003;
2.402000000000000E+009;1.605806648731232E-001;7.539073377847672E-002;3.946688957512379E-003;-3.917876165360212E-003;
2.402166666666667E+009;1.615181267261505E-001;7.287900894880295E-002;3.879916621372104E-003;-4.134196322411299E-003;
2.402333333333334E+009;1.624120920896530E-001;7.022991776466370E-002;3.784773871302605E-003;-4.228020086884499E-003;
2.402500000000000E+009;1.633849292993546E-001;6.791478395462036E-002;3.599908901378512E-003;-4.477736540138722E-003;
2.402666666666667E+009;1.646439135074616E-001;6.590038537979126E-002;3.413989441469312E-003;-4.664358682930470E-003;
2.402833333333334E+009;1.657864153385162E-001;6.350754946470261E-002;3.091872902587056E-003;-4.794252105057240E-003;
2.403000000000000E+009;1.671461164951325E-001;6.135609373450279E-002;2.991733141243458E-003;-5.168330855667591E-003;
2.403166666666667E+009;1.686539947986603E-001;5.932597815990448E-002;2.590659307315946E-003;-4.989223089069128E-003;
2.403333333333334E+009;1.700389087200165E-001;5.718490108847618E-002;2.534502185881138E-003;-5.225249100476503E-003;
2.403500000000000E+009;1.716736108064652E-001;5.548602715134621E-002;2.139267278835177E-003;-4.889164585620165E-003;
2.403666666666667E+009;1.732562184333801E-001;5.343638733029366E-002;2.018186496570706E-003;-5.077125038951635E-003;
2.403833333333334E+009;1.746570169925690E-001;5.175320804119110E-002;2.033198252320290E-003;-4.953928757458925E-003;
2.404000000000000E+009;1.760010123252869E-001;5.011069774627686E-002;1.899614697322249E-003;-5.002859048545361E-003;
2.404166666666667E+009;1.776111721992493E-001;4.867530614137650E-002;1.634862623177469E-003;-4.961361642926931E-003;
2.404333333333334E+009;1.789280623197556E-001;4.712845012545586E-002;1.722733024507761E-003;-4.891355056315661E-003;
2.404500000000000E+009;1.803811043500900E-001;4.586433246731758E-002;1.614400185644627E-003;-5.020481068640947E-003;
2.404666666666667E+009;1.818459331989288E-001;4.494524747133255E-002;1.566913328133524E-003;-4.927775356918573E-003;
2.404833333333334E+009;1.834577471017838E-001;4.374345764517784E-002;1.528767403215170E-003;-5.225633736699820E-003;
2.405000000000000E+009;1.846497207880020E-001;4.298147186636925E-002;1.528808497823775E-003;-5.205801222473383E-003;
2.405166666666667E+009;1.858636587858200E-001;4.232767969369888E-002;1.420719549059868E-003;-5.466896574944258E-003;
2.405333333333334E+009;1.871149390935898E-001;4.173422977328301E-002;1.087157172150910E-003;-5.440676584839821E-003;
2.405500000000000E+009;1.883867681026459E-001;4.113434255123138E-002;8.738767937757075E-004;-5.626921541988850E-003;
2.405666666666667E+009;1.895790249109268E-001;4.064701125025749E-002;8.558077388443053E-004;-5.648594815284014E-003;
2.405833333333334E+009;1.905394047498703E-001;4.026989638805389E-002;5.590672953985632E-004;-5.690316203981638E-003;
2.406000000000000E+009;1.913852691650391E-001;3.999892622232437E-002;4.566121788229793E-004;-5.831993184983730E-003;
2.406166666666667E+009;1.921868473291397E-001;3.970295935869217E-002;1.155081408796832E-004;-5.959921050816774E-003;
2.406333333333334E+009;1.930198222398758E-001;3.965499252080917E-002;-2.009186719078571E-004;-5.672827828675509E-003;
2.406500000000000E+009;1.936593353748322E-001;3.949760645627976E-002;-1.330488739768043E-004;-5.631526466459036E-003;
2.406666666666667E+009;1.942460238933563E-001;3.937556594610214E-002;-6.475482950918376E-004;-5.739365704357624E-003;
2.406833333333334E+009;1.947087496519089E-001;3.921006992459297E-002;-6.624980014748871E-004;-5.527533590793610E-003;
2.407000000000000E+009;1.949304491281509E-001;3.920077160000801E-002;-8.413174073211849E-004;-5.504302680492401E-003;
2.407166666666667E+009;1.951994448900223E-001;3.890578448772430E-002;-7.507318514399231E-004;-5.505764856934547E-003;
2.407333333333334E+009;1.952589750289917E-001;3.887163847684860E-002;-8.934843353927136E-004;-5.518696270883083E-003;
2.407500000000000E+009;1.951648890972138E-001;3.875268995761871E-002;-1.079192967154086E-003;-5.376085173338652E-003;
2.407666666666667E+009;1.952507048845291E-001;3.844238072633743E-002;-1.293116714805365E-003;-5.396062973886728E-003;
2.407833333333334E+009;1.948672533035278E-001;3.808889165520668E-002;-1.338380854576826E-003;-5.453322082757950E-003;
2.408000000000000E+009;1.947747021913528E-001;3.789943084120750E-002;-1.448875642381609E-003;-5.423183552920818E-003;
2.408166666666667E+009;1.944407820701599E-001;3.733541816473007E-002;-1.542063313536346E-003;-5.436019506305456E-003;
2.408333333333334E+009;1.938829571008682E-001;3.666475415229797E-002;-1.647523022256792E-003;-5.295868497341871E-003;
2.408500000000000E+009;1.932141184806824E-001;3.621423617005348E-002;-1.680189277976751E-003;-5.562057718634605E-003;
2.408666666666667E+009;1.928024590015411E-001;3.558811172842979E-002;-2.006231574341655E-003;-5.360614042729139E-003;
2.408833333333334E+009;1.924484372138977E-001;3.468050435185432E-002;-2.039805753156543E-003;-5.378906615078449E-003;
2.409000000000000E+009;1.915478408336639E-001;3.375146910548210E-002;-2.110956469550729E-003;-5.437597632408142E-003;
2.409166666666667E+009;1.908616870641708E-001;3.266247734427452E-002;-2.272590063512325E-003;-5.506390240043402E-003;
2.409333333333334E+009;1.901730000972748E-001;3.155070915818214E-002;-2.315816236659885E-003;-5.500255152583122E-003;
2.409500000000000E+009;1.890123039484024E-001;3.015611879527569E-002;-2.671797992661595E-003;-5.482915323227644E-003;
2.409666666666667E+009;1.883996725082398E-001;2.876045182347298E-002;-2.709331689402461E-003;-5.549543537199497E-003;
2.409833333333334E+009;1.873797625303268E-001;2.732416242361069E-002;-2.861052285879850E-003;-5.478032398968935E-003;
2.410000000000000E+009;1.866778135299683E-001;2.575260959565640E-002;-3.007516963407397E-003;-5.417090374976397E-003;
2.410166666666667E+009;1.857550889253616E-001;2.388725616037846E-002;-3.170086536556482E-003;-5.593904294073582E-003;
2.410333333333334E+009;1.850496679544449E-001;2.206000313162804E-002;-3.481191815808415E-003;-5.485808942466974E-003;
2.410500000000000E+009;1.842788159847260E-001;2.032795920968056E-002;-3.742938395589590E-003;-5.397189874202013E-003;
2.410666666666667E+009;1.836210191249847E-001;1.811107993125916E-002;-3.927438985556364E-003;-5.284785293042660E-003;
2.410833333333334E+009;1.831510663032532E-001;1.602927222847939E-002;-4.055671393871307E-003;-5.270868539810181E-003;
2.411000000000000E+009;1.824251264333725E-001;1.384074240922928E-002;-4.216019064188004E-003;-5.307085346430540E-003;
2.411166666666667E+009;1.819211095571518E-001;1.206801179796457E-002;-4.576330538839102E-003;-5.237096454948187E-003;
2.411333333333334E+009;1.816579550504684E-001;9.524822235107422E-003;-4.734700080007315E-003;-5.013594869524241E-003;
2.411500000000000E+009;1.812620460987091E-001;7.310505025088787E-003;-5.010508466511965E-003;-4.865956027060747E-003;
2.411666666666667E+009;1.812253743410111E-001;5.237013567239046E-003;-5.134705454111099E-003;-4.823181778192520E-003;
2.411833333333334E+009;1.808359920978546E-001;3.049164311960340E-003;-5.270539317280054E-003;-4.584873095154762E-003;
2.412000000000000E+009;1.811569780111313E-001;4.423858481459320E-004;-5.588829517364502E-003;-4.504656419157982E-003;
2.412166666666667E+009;1.812932044267654E-001;-1.545530161820352E-003;-5.693117156624794E-003;-4.324893001466990E-003;
2.412333333333334E+009;1.814624816179276E-001;-4.054869990795851E-003;-6.028245203197002E-003;-4.172601271420717E-003;
2.412500000000000E+009;1.818235218524933E-001;-5.977523978799582E-003;-6.312842946499586E-003;-4.092661198228598E-003;
2.412666666666667E+009;1.824524104595184E-001;-8.519589900970459E-003;-6.380588747560978E-003;-3.794114571064711E-003;
2.412833333333334E+009;1.831686794757843E-001;-1.054169889539480E-002;-6.726189982146025E-003;-3.638355992734432E-003;
2.413000000000000E+009;1.838326752185822E-001;-1.269357465207577E-002;-6.965323816984892E-003;-3.458200953900814E-003;
2.413166666666667E+009;1.844129413366318E-001;-1.466819830238819E-002;-7.154053077101708E-003;-3.009328152984381E-003;
2.413333333333334E+009;1.856423616409302E-001;-1.688554696738720E-002;-7.348134182393551E-003;-2.705507446080446E-003;
2.413500000000000E+009;1.863145530223846E-001;-1.898599602282047E-002;-7.539930287748575E-003;-2.316065831109881E-003;
2.413666666666667E+009;1.874040812253952E-001;-2.096611261367798E-002;-7.673323620110750E-003;-2.126861130818725E-003;
2.413833333333334E+009;1.882160007953644E-001;-2.288792654871941E-002;-7.801393046975136E-003;-1.590470666997135E-003;
2.414000000000000E+009;1.894565373659134E-001;-2.471229620277882E-002;-7.826075889170170E-003;-1.155970618128777E-003;
2.414166666666667E+009;1.907105594873428E-001;-2.637015469372273E-002;-7.788720540702343E-003;-7.558620418421924E-004;
2.414333333333334E+009;1.913327276706696E-001;-2.819789387285709E-002;-7.792137563228607E-003;-3.578802570700645E-004;
2.414500000000000E+009;1.927900910377502E-001;-2.966572158038616E-002;-7.650807965546846E-003;-2.578525163698942E-005;
2.414666666666667E+009;1.936203837394714E-001;-3.091870248317719E-002;-7.551122922450304E-003;2.886480360757560E-004;
2.414833333333334E+009;1.947903484106064E-001;-3.235080093145371E-002;-7.570816669613123E-003;7.016458548605442E-004;
2.415000000000000E+009;1.956720054149628E-001;-3.370671719312668E-002;-7.424077484756708E-003;9.046752820722759E-004;
2.415166666666667E+009;1.967228353023529E-001;-3.472048789262772E-002;-7.331578526645899E-003;1.161390333436430E-003;
2.415333333333334E+009;1.978480666875839E-001;-3.555717319250107E-002;-7.074717897921801E-003;1.427650684490800E-003;
2.415500000000000E+009;1.987333148717880E-001;-3.646259382367134E-002;-7.118567358702421E-003;1.670963596552610E-003;
2.415666666666667E+009;1.997192800045013E-001;-3.740651160478592E-002;-6.949906237423420E-003;1.882773824036121E-003;
2.415833333333334E+009;2.004224509000778E-001;-3.796925023198128E-002;-6.740964017808437E-003;2.231299877166748E-003;
2.416000000000000E+009;2.010586559772492E-001;-3.864020854234695E-002;-6.628575269132853E-003;2.430664841085672E-003;
2.416166666666667E+009;2.016985118389130E-001;-3.927259147167206E-002;-6.480057258158922E-003;2.739478601142764E-003;
2.416333333333334E+009;2.021799832582474E-001;-3.967195749282837E-002;-6.272076163440943E-003;3.055171109735966E-003;
2.416500000000000E+009;2.024488598108292E-001;-4.014435037970543E-002;-6.080006249248982E-003;3.286713501438499E-003;
2.416666666666667E+009;2.027452588081360E-001;-4.059899225831032E-002;-5.822643171995878E-003;3.431056626141071E-003;
2.416833333333334E+009;2.026454955339432E-001;-4.078444465994835E-002;-5.575393326580524E-003;3.496306715533137E-003;
2.417000000000000E+009;2.027602493762970E-001;-4.106607660651207E-002;-5.314331036061049E-003;3.641362069174647E-003;
2.417166666666667E+009;2.024570554494858E-001;-4.119437560439110E-002;-5.231708288192749E-003;3.558722790330648E-003;
2.417333333333334E+009;2.021452635526657E-001;-4.116819798946381E-002;-4.754250869154930E-003;3.583971876651049E-003;
2.417500000000000E+009;2.018342763185501E-001;-4.140586405992508E-002;-4.802754148840904E-003;3.786027431488037E-003;
2.417666666666667E+009;2.011685818433762E-001;-4.145658761262894E-002;-4.353236872702837E-003;3.732985584065318E-003;
2.417833333333334E+009;2.007856965065002E-001;-4.141733422875404E-002;-4.249389283359051E-003;3.788321744650602E-003;
2.418000000000000E+009;2.001602649688721E-001;-4.115104675292969E-002;-4.142638761550188E-003;3.704067319631577E-003;
2.418166666666667E+009;1.992988288402557E-001;-4.150117188692093E-002;-3.981923684477806E-003;3.711127908900380E-003;
2.418333333333334E+009;1.983564794063568E-001;-4.152803495526314E-002;-3.839584765955806E-003;3.750907024368644E-003;
2.418500000000000E+009;1.975350826978684E-001;-4.170066863298416E-002;-3.812382929027081E-003;3.666489850729704E-003;
2.418666666666667E+009;1.966375857591629E-001;-4.179007932543755E-002;-3.818219993263483E-003;3.790513379499316E-003;
2.418833333333334E+009;1.954543739557266E-001;-4.211365059018135E-002;-3.704906674101949E-003;3.593355882912874E-003;
2.419000000000000E+009;1.941155940294266E-001;-4.249455407261848E-002;-3.594630630686879E-003;3.764076856896281E-003;
2.419166666666667E+009;1.930831521749497E-001;-4.304509609937668E-002;-3.513159696012735E-003;3.674922045320272E-003;
2.419333333333334E+009;1.917782425880432E-001;-4.355650022625923E-002;-3.564634593203664E-003;3.707700641825795E-003;
2.419500000000000E+009;1.903364062309265E-001;-4.420894011855125E-002;-3.397853579372168E-003;3.725941060110927E-003;
2.419666666666667E+009;1.889352053403854E-001;-4.503312706947327E-002;-3.448212984949350E-003;3.736649872735143E-003;
2.419833333333334E+009;1.873419433832169E-001;-4.575041681528091E-002;-3.533703973516822E-003;3.576815128326416E-003;
2.420000000000000E+009;1.859378516674042E-001;-4.673612490296364E-002;-3.493234049528837E-003;3.636554582044482E-003;
2.420166666666667E+009;1.845341175794601E-001;-4.769650846719742E-002;-3.463386092334986E-003;3.710760036483407E-003;
2.420333333333334E+009;1.830378323793411E-001;-4.888975620269775E-002;-3.525656182318926E-003;3.800223115831614E-003;
2.420500000000000E+009;1.815154105424881E-001;-5.034045502543449E-002;-3.629587590694428E-003;3.907757345587015E-003;
2.420666666666667E+009;1.799898892641068E-001;-5.128173902630806E-002;-3.665224649012089E-003;3.960585221648216E-003;
2.420833333333334E+009;1.785999089479446E-001;-5.288869142532349E-002;-3.641601651906967E-003;4.153841640800238E-003;
2.421000000000000E+009;1.771648675203323E-001;-5.451867356896401E-002;-3.812558250501752E-003;4.286690615117550E-003;
2.421166666666667E+009;1.760087460279465E-001;-5.612219870090485E-002;-3.714685095474124E-003;4.352153744548559E-003;
2.421333333333334E+009;1.746013611555100E-001;-5.756722018122673E-002;-3.556519513949752E-003;4.585016984492540E-003;
2.421500000000000E+009;1.733570396900177E-001;-5.956494063138962E-002;-3.600726835429668E-003;4.911446943879128E-003;
2.421666666666667E+009;1.721969693899155E-001;-6.112213432788849E-002;-3.549599787220359E-003;5.197681486606598E-003;
2.421833333333334E+009;1.711699366569519E-001;-6.296613812446594E-002;-3.465829417109489E-003;5.435921251773834E-003;
2.422000000000000E+009;1.701151430606842E-001;-6.461022049188614E-002;-3.285347484052181E-003;5.575277842581272E-003;
2.422166666666667E+009;1.694445610046387E-001;-6.673540920019150E-002;-3.152466379106045E-003;5.760717205703259E-003;
2.422333333333334E+009;1.684078276157379E-001;-6.856408715248108E-002;-2.928577130660415E-003;5.979342851787806E-003;
2.422500000000000E+009;1.677303463220596E-001;-7.048211991786957E-002;-2.745499834418297E-003;6.159433629363775E-003;
2.422666666666667E+009;1.671041697263718E-001;-7.230897992849350E-002;-2.594315446913242E-003;6.256424821913242E-003;
2.422833333333334E+009;1.666883528232575E-001;-7.417275011539459E-002;-2.322799991816282E-003;6.467297673225403E-003;
2.423000000000000E+009;1.660526245832443E-001;-7.610511779785156E-002;-2.168057952076197E-003;6.557397544384003E-003;
2.423166666666667E+009;1.658607423305512E-001;-7.782973349094391E-002;-1.909272046759725E-003;6.578692700713873E-003;
2.423333333333334E+009;1.654522120952606E-001;-7.989322394132614E-002;-1.617767731659114E-003;6.929192226380110E-003;
2.423500000000000E+009;1.655242145061493E-001;-8.136145770549774E-002;-1.535712508484721E-003;6.817242596298456E-003;
2.423666666666667E+009;1.655384600162506E-001;-8.330602198839188E-002;-1.160884858109057E-003;7.009113207459450E-003;
2.423833333333334E+009;1.652198582887650E-001;-8.493174612522125E-002;-1.035823719576001E-003;7.134456187486649E-003;
2.424000000000000E+009;1.654651463031769E-001;-8.668047934770584E-002;-7.901842473074794E-004;7.259727921336889E-003;
2.424166666666667E+009;1.653814017772675E-001;-8.804153650999069E-002;-4.050196439493448E-004;7.363507524132729E-003;
2.424333333333334E+009;1.656289398670197E-001;-8.961411565542221E-002;-1.899945491459221E-004;7.417228538542986E-003;
2.424500000000000E+009;1.658186912536621E-001;-9.112207591533661E-002;3.900976735167205E-004;7.503742352128029E-003;
2.424666666666667E+009;1.659383624792099E-001;-9.255339205265045E-002;5.048291641287506E-004;7.576254196465015E-003;
2.424833333333334E+009;1.664660573005676E-001;-9.378613531589508E-002;8.137372788041830E-004;7.678895257413387E-003;
2.425000000000000E+009;1.667498499155045E-001;-9.497117996215820E-002;1.177376136183739E-003;7.512167096138001E-003;
2.425166666666667E+009;1.669523566961289E-001;-9.607562422752380E-002;1.574705820530653E-003;7.544704247266054E-003;
2.425333333333334E+009;1.671126037836075E-001;-9.701567143201828E-002;1.972337951883674E-003;7.450564298778772E-003;
2.425500000000000E+009;1.674522012472153E-001;-9.798379242420197E-002;2.334593096747994E-003;7.293351925909519E-003;
2.425666666666667E+009;1.677155047655106E-001;-9.867234528064728E-002;2.808769932016730E-003;7.236101664602757E-003;
2.425833333333334E+009;1.679143011569977E-001;-9.955811500549316E-002;3.002328565344214E-003;7.013626862317324E-003;
2.426000000000000E+009;1.681799888610840E-001;-1.000724360346794E-001;3.331696614623070E-003;6.733058951795101E-003;
2.426166666666667E+009;1.683139801025391E-001;-1.006384044885635E-001;3.620431059971452E-003;6.588958203792572E-003;
2.426333333333334E+009;1.684821546077728E-001;-1.012883260846138E-001;4.007298965007067E-003;6.236546672880650E-003;
2.426500000000000E+009;1.687376797199249E-001;-1.016166284680367E-001;4.159477539360523E-003;6.065204739570618E-003;
2.426666666666667E+009;1.688447594642639E-001;-1.019706875085831E-001;4.399609286338091E-003;5.657725967466831E-003;
2.426833333333334E+009;1.689985841512680E-001;-1.024382710456848E-001;4.493113141506910E-003;5.568603519350290E-003;
2.427000000000000E+009;1.689691990613937E-001;-1.027383357286453E-001;4.643216263502836E-003;5.321595817804337E-003;
2.427166666666667E+009;1.689492464065552E-001;-1.029332131147385E-001;4.667274653911591E-003;5.083336029201746E-003;
2.427333333333334E+009;1.687865704298019E-001;-1.032656654715538E-001;4.875773563981056E-003;4.818144720047712E-003;
2.427500000000000E+009;1.685496121644974E-001;-1.034562513232231E-001;4.900059197098017E-003;4.436518065631390E-003;
2.427666666666667E+009;1.682147979736328E-001;-1.036465689539909E-001;5.033934488892555E-003;4.342079628258944E-003;
