# Version 1.00
#
freq[Hz];re:Trc1_S11;im:Trc1_S11;re:Trc2_S21;im:Trc2_S21;
2.400000000000000E+009;1.562138348817825E-001;1.058664247393608E-001;3.722308436408639E-003;-2.647753106430173E-003;
2.400166666666667E+009;1.561710685491562E-001;1.036579087376595E-001;3.820890793576837E-003;-2.746437676250935E-003;
2.400333333333334E+009;1.564101576805115E-001;1.013973504304886E-001;3.764137160032988E-003;-2.690079389140010E-003;
2.400500000000000E+009;1.565880179405212E-001;9.858282655477524E-002;3.830236848443747E-003;-2.707425737753511E-003;
2.400666666666667E+009;1.568304747343063E-001;9.641019999980927E-002;3.818294499069452E-003;-2.917548641562462E-003;
2.400833333333334E+009;1.572342962026596E-001;9.363529831171036E-002;3.847551299259067E-003;-2.948720473796129E-003;
2.401000000000000E+009;1.574638783931732E-001;9.113813936710358E-002;3.879884257912636E-003;-3.116792067885399E-003;
2.401166666666667E+009;1.576011776924133E-001;8.859280496835709E-002;3.859872231259942E-003;-3.091870108619332E-003;
2.401333333333334E+009;1.582785248756409E-001;8.561009913682938E-002;3.868587547913194E-003;-3.105360316112638E-003;
2.401500000000000E+009;1.587177217006683E-001;8.329097181558609E-002;3.964750096201897E-003;-3.466386580839753E-003;
2.401666666666667E+009;1.591823995113373E-001;8.043511211872101E-002;3.924507182091475E-003;-3.422595793381333E-003;
2.401833333333334E+009;1.598447412252426E-001;7.795664668083191E-002;3.891380736604333E-003;-3.757089143618941E-003;
2.402000000000000E+009;1.606570035219193E-001;7.531300187110901E-002;3.852991154417396E-003;-3.874606685712934E-003;
2.402166666666667E+009;1.614134609699249E-001;7.290112227201462E-002;3.714890452101827E-003;-4.030543379485607E-003;
2.402333333333334E+009;1.623521745204926E-001;7.030850648880005E-002;3.684475319460034E-003;-4.116184543818235E-003;
2.402500000000000E+009;1.633821427822113E-001;6.816454231739044E-002;3.463578643277288E-003;-4.461875651031733E-003;
2.402666666666667E+009;1.645764559507370E-001;6.578303873538971E-002;3.257064614444971E-003;-4.683076404035091E-003;
2.402833333333334E+009;1.657928824424744E-001;6.364549696445465E-002;3.227448789402843E-003;-4.760777577757835E-003;
2.403000000000000E+009;1.670913696289063E-001;6.139777600765228E-002;2.987565938383341E-003;-4.877873230725527E-003;
2.403166666666667E+009;1.687471568584442E-001;5.928904190659523E-002;2.526519820094109E-003;-5.073094740509987E-003;
2.403333333333334E+009;1.701227575540543E-001;5.719858407974243E-002;2.358157420530915E-003;-5.170723423361778E-003;
2.403500000000000E+009;1.715958416461945E-001;5.537657067179680E-002;2.242782386019826E-003;-4.893842618912458E-003;
2.403666666666667E+009;1.731699556112289E-001;5.341902747750282E-002;2.102249534800649E-003;-4.929223097860813E-003;
2.403833333333334E+009;1.746137142181397E-001;5.186172574758530E-002;2.002385910600424E-003;-4.917052108794451E-003;
2.404000000000000E+009;1.761492490768433E-001;5.008947104215622E-002;1.784062595106661E-003;-4.864858463406563E-003;
2.404166666666667E+009;1.775564253330231E-001;4.868042096495628E-002;1.723596244119108E-003;-4.863999318331480E-003;
2.404333333333334E+009;1.789951622486115E-001;4.718597978353500E-002;1.861250144429505E-003;-4.877808503806591E-003;
2.404500000000000E+009;1.803820878267288E-001;4.590532556176186E-002;1.670506084337831E-003;-4.833589773625135E-003;
2.404666666666667E+009;1.819155663251877E-001;4.500685632228851E-002;1.637580455280840E-003;-4.995128139853478E-003;
2.404833333333334E+009;1.834745556116104E-001;4.372059553861618E-002;1.505935681052506E-003;-5.235204007476568E-003;
2.405000000000000E+009;1.845608055591583E-001;4.313734546303749E-002;1.271479064598680E-003;-5.239976570010185E-003;
2.405166666666667E+009;1.857892870903015E-001;4.239028319716454E-002;1.232009613886476E-003;-5.449207499623299E-003;
2.405333333333334E+009;1.870429366827011E-001;4.191834852099419E-002;1.252202433533967E-003;-5.474825855344534E-003;
2.405500000000000E+009;1.883139014244080E-001;4.137599095702171E-002;9.046182385645807E-004;-5.639670416712761E-003;
2.405666666666667E+009;1.893255114555359E-001;4.073679447174072E-002;7.181924884207547E-004;-5.620864685624838E-003;
2.405833333333334E+009;1.904425472021103E-001;4.042805358767510E-002;6.519127637147903E-004;-5.718656349927187E-003;
2.406000000000000E+009;1.913586109876633E-001;4.008431360125542E-002;3.288850421085954E-004;-5.909387953579426E-003;
2.406166666666667E+009;1.921735256910324E-001;3.980547562241554E-002;-1.669670928095002E-005;-5.834850948303938E-003;
2.406333333333334E+009;1.929957568645477E-001;3.971514478325844E-002;-7.471627668564906E-006;-5.882967729121447E-003;
2.406500000000000E+009;1.936718076467514E-001;3.964368626475334E-002;-3.890023217536509E-004;-5.861113313585520E-003;
2.406666666666667E+009;1.941891610622406E-001;3.935763239860535E-002;-6.392397335730493E-004;-5.748041905462742E-003;
2.406833333333334E+009;1.946249455213547E-001;3.925583884119988E-002;-6.652468000538647E-004;-5.567115265876055E-003;
2.407000000000000E+009;1.948462873697281E-001;3.931036964058876E-002;-8.231056854128838E-004;-5.527715664356947E-003;
2.407166666666667E+009;1.953562647104263E-001;3.903177380561829E-002;-1.000173506326973E-003;-5.428244359791279E-003;
2.407333333333334E+009;1.951681524515152E-001;3.891322016716003E-002;-1.129312440752983E-003;-5.467540584504604E-003;
2.407500000000000E+009;1.952434033155441E-001;3.890094533562660E-002;-1.070622703991830E-003;-5.470372736454010E-003;
2.407666666666667E+009;1.952363848686218E-001;3.846732899546623E-002;-1.222352962940931E-003;-5.378728266805410E-003;
2.407833333333334E+009;1.948131918907166E-001;3.823167830705643E-002;-1.304222620092332E-003;-5.332179833203554E-003;
2.408000000000000E+009;1.947823911905289E-001;3.801001980900765E-002;-1.521948375739157E-003;-5.366299301385880E-003;
2.408166666666667E+009;1.943563222885132E-001;3.748334199190140E-002;-1.535465009510517E-003;-5.201879423111677E-003;
2.408333333333334E+009;1.939050853252411E-001;3.685992583632469E-002;-1.746398629620671E-003;-5.294747184962034E-003;
2.408500000000000E+009;1.933407783508301E-001;3.639611974358559E-002;-1.803640974685550E-003;-5.282138939946890E-003;
2.408666666666667E+009;1.930051445960999E-001;3.578883782029152E-002;-1.786098349839449E-003;-5.358109250664711E-003;
2.408833333333334E+009;1.923392862081528E-001;3.492071479558945E-002;-1.990681514143944E-003;-5.285310093313456E-003;
2.409000000000000E+009;1.914431750774384E-001;3.385041281580925E-002;-2.053276170045137E-003;-5.316050257533789E-003;
2.409166666666667E+009;1.906857192516327E-001;3.270539268851280E-002;-2.215698827058077E-003;-5.316746886819601E-003;
2.409333333333334E+009;1.900774389505386E-001;3.170681372284889E-002;-2.325856592506170E-003;-5.277048330754042E-003;
2.409500000000000E+009;1.891588419675827E-001;3.029851429164410E-002;-2.481124596670270E-003;-5.483652465045452E-003;
2.409666666666667E+009;1.882119774818420E-001;2.885895036160946E-002;-2.618051134049892E-003;-5.347049795091152E-003;
2.409833333333334E+009;1.874227672815323E-001;2.743141539394856E-002;-2.709529828280211E-003;-5.500452592968941E-003;
2.410000000000000E+009;1.866235584020615E-001;2.564241737127304E-002;-2.990175271406770E-003;-5.467481911182404E-003;
2.410166666666667E+009;1.857725977897644E-001;2.399682253599167E-002;-3.272332949563861E-003;-5.456425249576569E-003;
2.410333333333334E+009;1.851501911878586E-001;2.238341979682446E-002;-3.434543730691075E-003;-5.468204617500305E-003;
2.410500000000000E+009;1.842167526483536E-001;2.037057839334011E-002;-3.550875466316938E-003;-5.397088360041380E-003;
2.410666666666667E+009;1.835704296827316E-001;1.811758615076542E-002;-3.730260999873281E-003;-5.414237733930349E-003;
2.410833333333334E+009;1.830555945634842E-001;1.608572527766228E-002;-3.969653509557247E-003;-5.252734292298555E-003;
2.411000000000000E+009;1.824107319116592E-001;1.400994509458542E-002;-4.274170845746994E-003;-5.192955955862999E-003;
2.411166666666667E+009;1.818688064813614E-001;1.180894300341606E-002;-4.475506953895092E-003;-5.237835925072432E-003;
2.411333333333334E+009;1.814982593059540E-001;9.626593440771103E-003;-4.577081184834242E-003;-5.075083114206791E-003;
2.411500000000000E+009;1.811686158180237E-001;7.499902974814177E-003;-4.867705050855875E-003;-5.064187105745077E-003;
2.411666666666667E+009;1.810622364282608E-001;5.267564672976732E-003;-4.963255021721125E-003;-4.713864997029305E-003;
2.411833333333334E+009;1.809314340353012E-001;2.854649210348725E-003;-5.324887577444315E-003;-4.683867562562227E-003;
2.412000000000000E+009;1.812057644128799E-001;5.830557784065604E-004;-5.604541860520840E-003;-4.608049988746643E-003;
2.412166666666667E+009;1.813584417104721E-001;-1.452153665013611E-003;-5.727810785174370E-003;-4.439654294401407E-003;
2.412333333333334E+009;1.813180148601532E-001;-3.836143761873245E-003;-5.957270506769419E-003;-4.194444976747036E-003;
2.412500000000000E+009;1.819022893905640E-001;-6.159509997814894E-003;-6.165141239762306E-003;-4.082066472619772E-003;
2.412666666666667E+009;1.825478225946426E-001;-8.345563896000385E-003;-6.532403640449047E-003;-3.633564570918679E-003;
2.412833333333334E+009;1.832875311374664E-001;-1.045335642993450E-002;-6.774732843041420E-003;-3.564682556316257E-003;
2.413000000000000E+009;1.839124411344528E-001;-1.270226389169693E-002;-6.996946875005961E-003;-3.409732831642032E-003;
2.413166666666667E+009;1.845982223749161E-001;-1.454024482518435E-002;-7.105043623596430E-003;-3.046529367566109E-003;
2.413333333333334E+009;1.856368035078049E-001;-1.683822460472584E-002;-7.409678306430578E-003;-2.669202629476786E-003;
2.413500000000000E+009;1.864380538463593E-001;-1.891752332448959E-002;-7.565992418676615E-003;-2.148234518244863E-003;
2.413666666666667E+009;1.875248700380325E-001;-2.110156603157520E-002;-7.610416505485773E-003;-1.890857587568462E-003;
2.413833333333334E+009;1.883560866117477E-001;-2.276172675192356E-002;-7.585853338241577E-003;-1.567527186125517E-003;
2.414000000000000E+009;1.894956231117249E-001;-2.460200712084770E-002;-7.765556219965220E-003;-1.227924018166959E-003;
2.414166666666667E+009;1.906585991382599E-001;-2.633008547127247E-002;-7.884342223405838E-003;-7.074718014337122E-004;
2.414333333333334E+009;1.917011290788651E-001;-2.819551341235638E-002;-7.751767057925463E-003;-5.043009878136218E-004;
2.414500000000000E+009;1.929260343313217E-001;-2.961878105998039E-002;-7.859072647988796E-003;-4.902230284642428E-005;
2.414666666666667E+009;1.938240677118301E-001;-3.092947043478489E-002;-7.590212859213352E-003;3.133691789116710E-004;
2.414833333333334E+009;1.948423683643341E-001;-3.225616738200188E-002;-7.537685334682465E-003;6.434711394831538E-004;
2.415000000000000E+009;1.958080381155014E-001;-3.355059400200844E-002;-7.549692410975695E-003;8.020935347303748E-004;
2.415166666666667E+009;1.969654560089111E-001;-3.474736958742142E-002;-7.273811846971512E-003;1.160360523499548E-003;
2.415333333333334E+009;1.979424953460693E-001;-3.559771180152893E-002;-7.146228570491076E-003;1.492857234552503E-003;
2.415500000000000E+009;1.989956051111221E-001;-3.642928600311279E-002;-7.017761003226042E-003;1.702262088656426E-003;
2.415666666666667E+009;1.997007429599762E-001;-3.722986206412315E-002;-6.994903553277254E-003;1.848416170105338E-003;
2.415833333333334E+009;2.005071640014648E-001;-3.795748576521874E-002;-6.793782114982605E-003;2.350404160097241E-003;
2.416000000000000E+009;2.010697424411774E-001;-3.861851990222931E-002;-6.704355590045452E-003;2.482489217072725E-003;
2.416166666666667E+009;2.017037272453308E-001;-3.927144408226013E-002;-6.455464288592339E-003;2.675935626029968E-003;
2.416333333333334E+009;2.022798508405685E-001;-3.970010206103325E-002;-6.179742515087128E-003;3.033277578651905E-003;
2.416500000000000E+009;2.026297152042389E-001;-4.015894606709480E-002;-6.009940057992935E-003;3.110782010480762E-003;
2.416666666666667E+009;2.027820050716400E-001;-4.057618975639343E-002;-5.729814060032368E-003;3.390720114111900E-003;
2.416833333333334E+009;2.027592808008194E-001;-4.080786183476448E-002;-5.552145652472973E-003;3.408318618312478E-003;
2.417000000000000E+009;2.027645856142044E-001;-4.120676591992378E-002;-5.228036548942328E-003;3.634037915617228E-003;
2.417166666666667E+009;2.024793624877930E-001;-4.107438400387764E-002;-4.951912444084883E-003;3.714664839208126E-003;
2.417333333333334E+009;2.021916210651398E-001;-4.126415774226189E-002;-4.879235289990902E-003;3.763613058254123E-003;
2.417500000000000E+009;2.018975913524628E-001;-4.144394770264626E-002;-4.655404016375542E-003;3.718290710821748E-003;
2.417666666666667E+009;2.013607919216156E-001;-4.143961519002914E-002;-4.338672850281000E-003;3.744069021195173E-003;
2.417833333333334E+009;2.007260471582413E-001;-4.144556447863579E-002;-4.217691253870726E-003;3.772121155634522E-003;
2.418000000000000E+009;2.001688480377197E-001;-4.130977392196655E-002;-4.006418865174055E-003;3.724813694134355E-003;
2.418166666666667E+009;1.993759423494339E-001;-4.150914773344994E-002;-3.851290326565504E-003;3.642130875959992E-003;
2.418333333333334E+009;1.983828991651535E-001;-4.151394963264465E-002;-3.912277519702911E-003;3.736049402505159E-003;
2.418500000000000E+009;1.974973827600479E-001;-4.159723222255707E-002;-3.746262518689036E-003;3.621176118031144E-003;
2.418666666666667E+009;1.965540647506714E-001;-4.178666695952416E-002;-3.647111589089036E-003;3.691008780151606E-003;
2.418833333333334E+009;1.954605877399445E-001;-4.213832318782806E-002;-3.619056195020676E-003;3.682994749397039E-003;
2.419000000000000E+009;1.942786425352097E-001;-4.240921139717102E-002;-3.619966330006719E-003;3.622301621362567E-003;
2.419166666666667E+009;1.929983049631119E-001;-4.295469820499420E-002;-3.568952437490225E-003;3.728738985955715E-003;
2.419333333333334E+009;1.917438209056854E-001;-4.363111406564713E-002;-3.342490177601576E-003;3.459682688117027E-003;
2.419500000000000E+009;1.903351098299027E-001;-4.420723766088486E-002;-3.566820407286286E-003;3.557262709364295E-003;
2.419666666666667E+009;1.889469474554062E-001;-4.509612172842026E-002;-3.411777317523956E-003;3.602150594815612E-003;
2.419833333333334E+009;1.873563677072525E-001;-4.580850899219513E-002;-3.503781277686358E-003;3.767584217712283E-003;
2.420000000000000E+009;1.861040443181992E-001;-4.667097330093384E-002;-3.425321774557233E-003;3.767369082197547E-003;
2.420166666666667E+009;1.845249235630035E-001;-4.768501967191696E-002;-3.539434634149075E-003;3.735003760084510E-003;
2.420333333333334E+009;1.830658167600632E-001;-4.911213740706444E-002;-3.615915309637785E-003;3.797066863626242E-003;
2.420500000000000E+009;1.815571635961533E-001;-5.025965347886086E-002;-3.560577752068639E-003;3.795553697273135E-003;
2.420666666666667E+009;1.801472157239914E-001;-5.139699578285217E-002;-3.624567994847894E-003;4.002479370683432E-003;
2.420833333333334E+009;1.786353588104248E-001;-5.298894271254540E-002;-3.652757965028286E-003;4.008522257208824E-003;
2.421000000000000E+009;1.773445010185242E-001;-5.453887581825256E-002;-3.685098839923739E-003;4.269322846084833E-003;
2.421166666666667E+009;1.760097146034241E-001;-5.622931942343712E-002;-3.576289862394333E-003;4.533669911324978E-003;
2.421333333333334E+009;1.746149212121964E-001;-5.755821242928505E-002;-3.699382767081261E-003;4.742930643260479E-003;
2.421500000000000E+009;1.733231395483017E-001;-5.938338115811348E-002;-3.527735127136111E-003;4.919052589684725E-003;
2.421666666666667E+009;1.722098439931870E-001;-6.127420812845230E-002;-3.553016809746623E-003;5.186611320823431E-003;
2.421833333333334E+009;1.711716800928116E-001;-6.288634240627289E-002;-3.574320347979665E-003;5.313476081937552E-003;
2.422000000000000E+009;1.701744645833969E-001;-6.479214876890183E-002;-3.303207922726870E-003;5.555639974772930E-003;
2.422166666666667E+009;1.691649705171585E-001;-6.665473431348801E-002;-3.039417788386345E-003;5.588082130998373E-003;
2.422333333333334E+009;1.683160215616226E-001;-6.846696138381958E-002;-3.169638803228736E-003;5.979309324175119E-003;
2.422500000000000E+009;1.677435189485550E-001;-7.029011100530624E-002;-2.793229650706053E-003;6.033927202224731E-003;
2.422666666666667E+009;1.671017408370972E-001;-7.223715633153915E-002;-2.653174800798297E-003;6.243653129786253E-003;
2.422833333333334E+009;1.665927320718765E-001;-7.423528283834457E-002;-2.364222658798099E-003;6.527659483253956E-003;
2.423000000000000E+009;1.661802530288696E-001;-7.621503621339798E-002;-2.066813409328461E-003;6.519754882901907E-003;
2.423166666666667E+009;1.658205687999725E-001;-7.783903926610947E-002;-1.897174166515470E-003;6.787999067455530E-003;
2.423333333333334E+009;1.655426919460297E-001;-7.983639091253281E-002;-1.608355902135372E-003;6.740639451891184E-003;
2.423500000000000E+009;1.654667407274246E-001;-8.147034049034119E-002;-1.379854278638959E-003;6.864551920443773E-003;
2.423666666666667E+009;1.654016375541687E-001;-8.335759490728378E-002;-1.299742609262466E-003;7.004478015005589E-003;
2.423833333333334E+009;1.653106808662415E-001;-8.491633087396622E-002;-9.335795184597373E-004;7.008498068898916E-003;
2.424000000000000E+009;1.653135716915131E-001;-8.674414455890656E-002;-7.872740970924497E-004;7.196671795099974E-003;
2.424166666666667E+009;1.653075367212296E-001;-8.817433565855026E-002;-4.056982288602740E-004;7.389484904706478E-003;
2.424333333333334E+009;1.655775606632233E-001;-8.959004282951355E-002;-1.841372140916064E-004;7.361232303082943E-003;
2.424500000000000E+009;1.656553447246552E-001;-9.131713956594467E-002;1.600023388164118E-004;7.450472097843885E-003;
2.424666666666667E+009;1.659279614686966E-001;-9.253481775522232E-002;4.559647059068084E-004;7.461743894964457E-003;
2.424833333333334E+009;1.663426905870438E-001;-9.377341717481613E-002;9.457511478103697E-004;7.489745970815420E-003;
2.425000000000000E+009;1.666852682828903E-001;-9.503371268510819E-002;1.346388482488692E-003;7.641714997589588E-003;
2.425166666666667E+009;1.668290197849274E-001;-9.613168239593506E-002;1.705675502307713E-003;7.435522973537445E-003;
2.425333333333334E+009;1.670382320880890E-001;-9.713213890790939E-002;1.890778657980263E-003;7.469240110367537E-003;
2.425500000000000E+009;1.674105674028397E-001;-9.807756543159485E-002;2.330771880224347E-003;7.172605022788048E-003;
2.425666666666667E+009;1.677257567644119E-001;-9.867666661739349E-002;2.596097765490413E-003;7.367685902863741E-003;
2.425833333333334E+009;1.678062826395035E-001;-9.960175305604935E-002;2.953003626316786E-003;7.136441767215729E-003;
2.426000000000000E+009;1.681254208087921E-001;-1.000869050621986E-001;3.255390329286456E-003;6.934232078492641E-003;
2.426166666666667E+009;1.684605628252029E-001;-1.007369682192802E-001;3.661325899884105E-003;6.609826348721981E-003;
2.426333333333334E+009;1.685091704130173E-001;-1.013962402939796E-001;3.998988308012486E-003;6.367651745676994E-003;
2.426500000000000E+009;1.685965955257416E-001;-1.015470102429390E-001;4.040033556520939E-003;6.132096983492374E-003;
2.426666666666667E+009;1.689105033874512E-001;-1.020588278770447E-001;4.335826262831688E-003;5.915347021073103E-003;
2.426833333333334E+009;1.690457463264465E-001;-1.023299321532250E-001;4.442551173269749E-003;5.606075283139944E-003;
2.427000000000000E+009;1.689381450414658E-001;-1.026364266872406E-001;4.637067671865225E-003;5.422390066087246E-003;
2.427166666666667E+009;1.689419150352478E-001;-1.028726175427437E-001;4.736557137221098E-003;5.065252538770437E-003;
2.427333333333334E+009;1.687212735414505E-001;-1.032111495733261E-001;4.866706207394600E-003;4.943006671965122E-003;
2.427500000000000E+009;1.685237586498261E-001;-1.035846024751663E-001;4.994494374841452E-003;4.642195533961058E-003;
2.427666666666667E+009;1.681664437055588E-001;-1.036259606480598E-001;5.065508652478457E-003;4.365816246718168E-003;
