# Version 1.00
#
freq[Hz];re:Trc1_S11;im:Trc1_S11;re:Trc2_S21;im:Trc2_S21;
2.400000000000000E+009;1.560606211423874E-001;1.058059483766556E-001;3.737654071301222E-003;-2.688684035092592E-003;
2.400166666666667E+009;1.560903638601303E-001;1.036888957023621E-001;3.733341349288821E-003;-2.716489369049668E-003;
2.400333333333334E+009;1.562113016843796E-001;1.013267263770104E-001;3.797205630689859E-003;-2.773337066173554E-003;
2.400500000000000E+009;1.564983278512955E-001;9.874542802572250E-002;3.689415054395795E-003;-2.934835851192474E-003;
2.400666666666667E+009;1.568000465631485E-001;9.633501619100571E-002;3.731230972334743E-003;-2.698430558666587E-003;
2.400833333333334E+009;1.569464206695557E-001;9.366745501756668E-002;3.641668707132340E-003;-2.922176150605083E-003;
2.401000000000000E+009;1.573725193738937E-001;9.092743694782257E-002;3.598522162064910E-003;-2.993409754708409E-003;
2.401166666666667E+009;1.574362069368362E-001;8.847871422767639E-002;3.778078826144338E-003;-3.026532474905253E-003;
2.401333333333334E+009;1.580787897109985E-001;8.565285801887512E-002;3.805777058005333E-003;-3.143637441098690E-003;
2.401500000000000E+009;1.582974046468735E-001;8.293425291776657E-002;3.859014948830009E-003;-3.319567767903209E-003;
2.401666666666667E+009;1.589518189430237E-001;8.046804368495941E-002;3.823515027761459E-003;-3.451251192018390E-003;
2.401833333333334E+009;1.594693809747696E-001;7.795245945453644E-002;3.855179296806455E-003;-3.666413715109229E-003;
2.402000000000000E+009;1.604753136634827E-001;7.537671178579330E-002;3.748477436602116E-003;-3.802185645326972E-003;
2.402166666666667E+009;1.610749810934067E-001;7.274995744228363E-002;3.656828543171287E-003;-4.063715226948261E-003;
2.402333333333334E+009;1.621858030557632E-001;7.037274539470673E-002;3.479282371699810E-003;-4.305883776396513E-003;
2.402500000000000E+009;1.632779985666275E-001;6.803490966558456E-002;3.255615476518869E-003;-4.564041271805763E-003;
2.402666666666667E+009;1.643437445163727E-001;6.586832553148270E-002;3.167167073115706E-003;-4.696697928011417E-003;
2.402833333333334E+009;1.655151844024658E-001;6.365593522787094E-002;3.062871750444174E-003;-4.872163757681847E-003;
2.403000000000000E+009;1.669672578573227E-001;6.128749251365662E-002;2.688437001779676E-003;-4.855191335082054E-003;
2.403166666666667E+009;1.684411764144898E-001;5.928003415465355E-002;2.578126965090632E-003;-5.003130063414574E-003;
2.403333333333334E+009;1.696749627590179E-001;5.731668323278427E-002;2.266315277665854E-003;-5.049027502536774E-003;
2.403500000000000E+009;1.712881475687027E-001;5.535411834716797E-002;2.126361709088087E-003;-4.908574745059013E-003;
2.403666666666667E+009;1.728386580944061E-001;5.353187024593353E-002;2.094834344461560E-003;-4.923144821077585E-003;
2.403833333333334E+009;1.742940694093704E-001;5.186801776289940E-002;1.578380120918155E-003;-4.746043123304844E-003;
2.404000000000000E+009;1.757555007934570E-001;5.013659968972206E-002;1.682717236690223E-003;-4.883004352450371E-003;
2.404166666666667E+009;1.772863864898682E-001;4.882414638996124E-002;1.590186846442521E-003;-4.892447963356972E-003;
2.404333333333334E+009;1.788811981678009E-001;4.724878817796707E-002;1.564255682751536E-003;-4.861608613282442E-003;
2.404500000000000E+009;1.801940351724625E-001;4.593076184391975E-002;1.375899068079889E-003;-4.667014814913273E-003;
2.404666666666667E+009;1.817959994077683E-001;4.482049122452736E-002;1.549327163957059E-003;-4.890034906566143E-003;
2.404833333333334E+009;1.832476407289505E-001;4.369610175490379E-002;1.332937972620130E-003;-5.028510466217995E-003;
2.405000000000000E+009;1.844558417797089E-001;4.314105585217476E-002;1.199736609123647E-003;-5.132052116096020E-003;
2.405166666666667E+009;1.857648789882660E-001;4.232532531023026E-002;1.283683930523694E-003;-5.180334672331810E-003;
2.405333333333334E+009;1.869736164808273E-001;4.173845425248146E-002;1.169374794699252E-003;-5.343595054000616E-003;
2.405500000000000E+009;1.882221996784210E-001;4.118072241544724E-002;8.687002118676901E-004;-5.400958471000195E-003;
2.405666666666667E+009;1.892934143543243E-001;4.072182998061180E-002;7.342518074437976E-004;-5.588488187640905E-003;
2.405833333333334E+009;1.903746575117111E-001;4.034666717052460E-002;5.569284548982978E-004;-5.613885354250670E-003;
2.406000000000000E+009;1.912099570035934E-001;4.012146219611168E-002;1.891370484372601E-004;-5.826896056532860E-003;
2.406166666666667E+009;1.920635402202606E-001;3.977445140480995E-002;-3.531167021719739E-005;-5.693656858056784E-003;
2.406333333333334E+009;1.929309070110321E-001;3.980978950858116E-002;-3.831729409284890E-004;-5.461118649691343E-003;
2.406500000000000E+009;1.936192661523819E-001;3.953775018453598E-002;-3.697423962876201E-004;-5.537167657166719E-003;
2.406666666666667E+009;1.941195428371429E-001;3.945415467023850E-002;-7.062719669193029E-004;-5.476743914186955E-003;
2.406833333333334E+009;1.944317668676376E-001;3.921118751168251E-002;-6.824795273132622E-004;-5.453858524560928E-003;
2.407000000000000E+009;1.948044896125794E-001;3.934140875935555E-002;-9.000898571684957E-004;-5.278364289551973E-003;
2.407166666666667E+009;1.951518505811691E-001;3.910703584551811E-002;-9.702231036499143E-004;-5.479162093251944E-003;
2.407333333333334E+009;1.950561851263046E-001;3.898702189326286E-002;-1.104745664633811E-003;-5.300815682858229E-003;
2.407500000000000E+009;1.950765252113342E-001;3.890272229909897E-002;-1.168934046290815E-003;-5.154163576662540E-003;
2.407666666666667E+009;1.950438916683197E-001;3.862545639276505E-002;-1.053734216839075E-003;-5.210849456489086E-003;
2.407833333333334E+009;1.946754306554794E-001;3.835814073681831E-002;-1.261237077414990E-003;-5.217259284108877E-003;
2.408000000000000E+009;1.946978867053986E-001;3.801111876964569E-002;-1.510081114247441E-003;-5.052065011113882E-003;
2.408166666666667E+009;1.941067725419998E-001;3.760797157883644E-002;-1.426738919690251E-003;-5.127643700689077E-003;
2.408333333333334E+009;1.938669979572296E-001;3.696173056960106E-002;-1.748711569234729E-003;-5.295121110975742E-003;
2.408500000000000E+009;1.933073550462723E-001;3.647317364811897E-002;-1.830956549383700E-003;-5.093000363558531E-003;
2.408666666666667E+009;1.927511990070343E-001;3.581612184643745E-002;-1.755203702487052E-003;-5.306398030370474E-003;
2.408833333333334E+009;1.922529786825180E-001;3.499844297766686E-002;-1.940837944857776E-003;-5.381672177463770E-003;
2.409000000000000E+009;1.913689225912094E-001;3.384591639041901E-002;-2.064071362838149E-003;-5.169261712580919E-003;
2.409166666666667E+009;1.907096803188324E-001;3.286850452423096E-002;-1.970943994820118E-003;-5.285439081490040E-003;
2.409333333333334E+009;1.900460422039032E-001;3.182749450206757E-002;-2.236828440800309E-003;-5.215370561927557E-003;
2.409500000000000E+009;1.889757066965103E-001;3.033765032887459E-002;-2.367714419960976E-003;-5.408111028373241E-003;
2.409666666666667E+009;1.882580965757370E-001;2.906605973839760E-002;-2.536012791097164E-003;-5.294738337397575E-003;
2.409833333333334E+009;1.872758269309998E-001;2.761597745120525E-002;-2.772397361695766E-003;-5.345154553651810E-003;
2.410000000000000E+009;1.865475773811340E-001;2.589127235114574E-002;-2.986725186929107E-003;-5.293559748679400E-003;
2.410166666666667E+009;1.857995390892029E-001;2.403043583035469E-002;-3.135085804387927E-003;-5.312802735716105E-003;
2.410333333333334E+009;1.849758625030518E-001;2.239357307553291E-002;-3.351025516167283E-003;-5.268122535198927E-003;
2.410500000000000E+009;1.842079013586044E-001;2.041271142661572E-002;-3.515724558383226E-003;-5.198580678552389E-003;
2.410666666666667E+009;1.835740655660629E-001;1.815436594188213E-002;-3.699650289490819E-003;-5.275642499327660E-003;
2.410833333333334E+009;1.831383556127548E-001;1.633241586387157E-002;-3.932270687073469E-003;-5.155160091817379E-003;
2.411000000000000E+009;1.825004518032074E-001;1.422393415123224E-002;-4.233761224895716E-003;-4.992873873561621E-003;
2.411166666666667E+009;1.820475608110428E-001;1.199066732078791E-002;-4.277019295841456E-003;-5.020926706492901E-003;
2.411333333333334E+009;1.815600246191025E-001;9.818966500461102E-003;-4.726083949208260E-003;-4.814547486603260E-003;
2.411500000000000E+009;1.812467873096466E-001;7.588927168399096E-003;-4.836705513298512E-003;-4.773475229740143E-003;
2.411666666666667E+009;1.812296956777573E-001;5.403217393904924E-003;-5.116381682455540E-003;-4.690484609454870E-003;
2.411833333333334E+009;1.809244751930237E-001;3.156612860038877E-003;-5.196319427341223E-003;-4.494223278015852E-003;
2.412000000000000E+009;1.811195164918900E-001;7.178506930358708E-004;-5.393689963966608E-003;-4.450751002877951E-003;
2.412166666666667E+009;1.813012957572937E-001;-1.345336087979376E-003;-5.657539702951908E-003;-4.309141542762518E-003;
2.412333333333334E+009;1.814306825399399E-001;-3.800453385338187E-003;-6.004211027175188E-003;-4.131956025958061E-003;
2.412500000000000E+009;1.820171028375626E-001;-5.905882921069861E-003;-5.999574437737465E-003;-3.879652824252844E-003;
2.412666666666667E+009;1.824104785919190E-001;-8.192427456378937E-003;-6.293476559221745E-003;-3.735123900696635E-003;
2.412833333333334E+009;1.831661462783814E-001;-1.051852386444807E-002;-6.513233296573162E-003;-3.565340302884579E-003;
2.413000000000000E+009;1.838975250720978E-001;-1.260017789900303E-002;-6.711465772241354E-003;-3.335528774186969E-003;
2.413166666666667E+009;1.845872551202774E-001;-1.455395016819239E-002;-6.981233600527048E-003;-3.014720510691404E-003;
2.413333333333334E+009;1.855094432830811E-001;-1.664473302662373E-002;-7.304733153432608E-003;-2.615246921777725E-003;
2.413500000000000E+009;1.862444430589676E-001;-1.867572031915188E-002;-7.444187067449093E-003;-2.448048209771514E-003;
2.413666666666667E+009;1.872932761907578E-001;-2.078475058078766E-002;-7.666546385735273E-003;-1.831099623814225E-003;
2.413833333333334E+009;1.884220242500305E-001;-2.275870740413666E-002;-7.552583236247301E-003;-1.593818771652877E-003;
2.414000000000000E+009;1.894079148769379E-001;-2.461638301610947E-002;-7.588158827275038E-003;-1.015769783407450E-003;
2.414166666666667E+009;1.906454563140869E-001;-2.608697116374970E-002;-7.779290899634361E-003;-7.045860984362662E-004;
2.414333333333334E+009;1.916863918304443E-001;-2.800315991044045E-002;-7.772959303110838E-003;-3.829027409665287E-004;
2.414500000000000E+009;1.927533447742462E-001;-2.938984706997871E-002;-7.398220710456371E-003;-2.725647391343955E-005;
2.414666666666667E+009;1.938600987195969E-001;-3.082664310932159E-002;-7.546455133706331E-003;3.348143945913762E-004;
2.414833333333334E+009;1.949905455112457E-001;-3.211812302470207E-002;-7.319563534110785E-003;6.682983948849142E-004;
2.415000000000000E+009;1.958627253770828E-001;-3.340009227395058E-002;-7.152972742915154E-003;9.112315601669252E-004;
2.415166666666667E+009;1.970580667257309E-001;-3.447682037949562E-002;-7.054991554468870E-003;1.202831394039094E-003;
2.415333333333334E+009;1.979581564664841E-001;-3.552465513348579E-002;-7.123682647943497E-003;1.456922735087574E-003;
2.415500000000000E+009;1.989869922399521E-001;-3.619791194796562E-002;-6.992810871452093E-003;1.602925127372146E-003;
2.415666666666667E+009;1.998475790023804E-001;-3.711997345089912E-002;-6.764445453882217E-003;2.062014071270824E-003;
2.415833333333334E+009;2.004816383123398E-001;-3.787928074598312E-002;-6.470677442848682E-003;2.274649683386087E-003;
2.416000000000000E+009;2.012140303850174E-001;-3.851930424571037E-002;-6.407410372048616E-003;2.613606397062540E-003;
2.416166666666667E+009;2.017772793769836E-001;-3.914271295070648E-002;-6.211520172655582E-003;2.863003173843026E-003;
2.416333333333334E+009;2.022508978843689E-001;-3.960783407092094E-002;-6.161022465676069E-003;2.891444368287921E-003;
2.416500000000000E+009;2.027321010828018E-001;-4.000731557607651E-002;-5.863239988684654E-003;3.113646060228348E-003;
2.416666666666667E+009;2.028194367885590E-001;-4.038453102111816E-002;-5.490047391504049E-003;3.332514083012939E-003;
2.416833333333334E+009;2.029193341732025E-001;-4.066043719649315E-002;-5.501157138496637E-003;3.394006518647075E-003;
2.417000000000000E+009;2.029362767934799E-001;-4.096867144107819E-002;-5.046762526035309E-003;3.679267596453428E-003;
2.417166666666667E+009;2.025723457336426E-001;-4.103687405586243E-002;-4.869498778134584E-003;3.716117236763239E-003;
2.417333333333334E+009;2.021866887807846E-001;-4.117558896541596E-002;-4.747402388602495E-003;3.645371412858367E-003;
2.417500000000000E+009;2.020092904567719E-001;-4.123581945896149E-002;-4.591610748320818E-003;3.725262358784676E-003;
2.417666666666667E+009;2.014016807079315E-001;-4.133395105600357E-002;-4.228614270687103E-003;3.818429773673415E-003;
2.417833333333334E+009;2.009742110967636E-001;-4.130912199616432E-002;-4.034089855849743E-003;3.730504307895899E-003;
2.418000000000000E+009;2.003428637981415E-001;-4.136149957776070E-002;-3.990889526903629E-003;3.646085504442453E-003;
2.418166666666667E+009;1.994952410459518E-001;-4.143926128745079E-002;-3.763581393286586E-003;3.769723465666175E-003;
2.418333333333334E+009;1.986992657184601E-001;-4.146344587206841E-002;-3.684787545353174E-003;3.601335687562823E-003;
2.418500000000000E+009;1.977774202823639E-001;-4.179754108190537E-002;-3.597238799557090E-003;3.631051164120436E-003;
2.418666666666667E+009;1.968037933111191E-001;-4.187320545315743E-002;-3.566735889762640E-003;3.667702898383141E-003;
2.418833333333334E+009;1.955370754003525E-001;-4.213417321443558E-002;-3.483332926407456E-003;3.511516610160470E-003;
2.419000000000000E+009;1.943495720624924E-001;-4.249993339180946E-002;-3.481927560642362E-003;3.596116555854678E-003;
2.419166666666667E+009;1.932099908590317E-001;-4.290704429149628E-002;-3.373445477336645E-003;3.544524079188705E-003;
2.419333333333334E+009;1.918444037437439E-001;-4.368033260107040E-002;-3.276768140494824E-003;3.454458899796009E-003;
2.419500000000000E+009;1.905866265296936E-001;-4.411448910832405E-002;-3.290110267698765E-003;3.468337934464216E-003;
2.419666666666667E+009;1.891322880983353E-001;-4.502496495842934E-002;-3.278946271166205E-003;3.537004813551903E-003;
2.419833333333334E+009;1.877599209547043E-001;-4.571157693862915E-002;-3.220088314265013E-003;3.512769471853972E-003;
2.420000000000000E+009;1.863320618867874E-001;-4.665472358465195E-002;-3.392102196812630E-003;3.526219399645925E-003;
2.420166666666667E+009;1.846625357866287E-001;-4.782584309577942E-002;-3.367983503267169E-003;3.553247777745128E-003;
2.420333333333334E+009;1.832365989685059E-001;-4.896746575832367E-002;-3.472812240943313E-003;3.580850781872869E-003;
2.420500000000000E+009;1.817412376403809E-001;-5.024129152297974E-002;-3.520222147926688E-003;3.781373379752040E-003;
2.420666666666667E+009;1.802329421043396E-001;-5.145085602998734E-002;-3.518725046887994E-003;3.745129797607660E-003;
2.420833333333334E+009;1.787417083978653E-001;-5.297803133726120E-002;-3.518968587741256E-003;3.942174836993218E-003;
2.421000000000000E+009;1.775784492492676E-001;-5.442201718688011E-002;-3.529702080413699E-003;4.031565971672535E-003;
2.421166666666667E+009;1.762021481990814E-001;-5.605166405439377E-002;-3.586873179301620E-003;4.309399984776974E-003;
2.421333333333334E+009;1.748383343219757E-001;-5.764333903789520E-002;-3.595428774133325E-003;4.456648137420416E-003;
2.421500000000000E+009;1.736121028661728E-001;-5.947992578148842E-002;-3.495215438306332E-003;4.594847559928894E-003;
2.421666666666667E+009;1.723860055208206E-001;-6.112092360854149E-002;-3.413467900827527E-003;4.852292593568564E-003;
2.421833333333334E+009;1.714001744985580E-001;-6.292160600423813E-002;-3.334548091515899E-003;4.986908286809921E-003;
2.422000000000000E+009;1.701472401618958E-001;-6.487966328859329E-002;-3.257638076320291E-003;5.435129627585411E-003;
2.422166666666667E+009;1.694696098566055E-001;-6.679474562406540E-002;-3.219021717086434E-003;5.548813380300999E-003;
2.422333333333334E+009;1.685954481363297E-001;-6.874500215053558E-002;-3.008192405104637E-003;5.723956506699324E-003;
2.422500000000000E+009;1.679168492555618E-001;-7.046639174222946E-002;-2.761223353445530E-003;5.742876324802637E-003;
2.422666666666667E+009;1.673875600099564E-001;-7.238209247589111E-002;-2.470921725034714E-003;6.001755595207214E-003;
2.422833333333334E+009;1.668880432844162E-001;-7.431137561798096E-002;-2.319663995876908E-003;6.234824657440186E-003;
2.423000000000000E+009;1.663029789924622E-001;-7.611805945634842E-002;-2.185942139476538E-003;6.236306857317686E-003;
2.423166666666667E+009;1.659680604934692E-001;-7.797999680042267E-002;-1.995913684368134E-003;6.430368404835463E-003;
2.423333333333334E+009;1.656074672937393E-001;-8.001562207937241E-002;-1.709909294731915E-003;6.644273176789284E-003;
2.423500000000000E+009;1.655407994985580E-001;-8.169922232627869E-002;-1.452555414289236E-003;6.647022441029549E-003;
2.423666666666667E+009;1.654877364635468E-001;-8.339500427246094E-002;-1.190275535918772E-003;6.686357781291008E-003;
2.423833333333334E+009;1.653783768415451E-001;-8.515385538339615E-002;-9.247408015653491E-004;6.875006482005119E-003;
2.424000000000000E+009;1.655793190002441E-001;-8.664684742689133E-002;-7.701218128204346E-004;6.989207584410906E-003;
2.424166666666667E+009;1.654556542634964E-001;-8.831954002380371E-002;-5.571049987338483E-004;7.258475758135319E-003;
2.424333333333334E+009;1.656788289546967E-001;-8.974584937095642E-002;-1.220762496814132E-004;7.183198351413012E-003;
2.424500000000000E+009;1.658808141946793E-001;-9.151396900415421E-002;6.420195131795481E-005;7.185756694525480E-003;
2.424666666666667E+009;1.660317033529282E-001;-9.259629994630814E-002;4.169521562289447E-004;7.445897907018662E-003;
2.424833333333334E+009;1.665347218513489E-001;-9.398250281810761E-002;7.560288067907095E-004;7.352175656706095E-003;
2.425000000000000E+009;1.667371243238449E-001;-9.512297064065933E-002;1.045280834659934E-003;7.317958865314722E-003;
2.425166666666667E+009;1.669215112924576E-001;-9.619696438312531E-002;1.515998621471226E-003;7.340743206441402E-003;
2.425333333333334E+009;1.670581549406052E-001;-9.720382094383240E-002;1.852657180279493E-003;7.233520969748497E-003;
2.425500000000000E+009;1.674865335226059E-001;-9.822435677051544E-002;2.201138762757182E-003;7.135851774364710E-003;
2.425666666666667E+009;1.677238494157791E-001;-9.889622777700424E-002;2.516865497455001E-003;6.984103471040726E-003;
2.425833333333334E+009;1.678183823823929E-001;-9.970996528863907E-002;2.876976970583201E-003;6.858002860099077E-003;
2.426000000000000E+009;1.682330220937729E-001;-1.001582518219948E-001;3.206933150067926E-003;6.679864600300789E-003;
2.426166666666667E+009;1.684417724609375E-001;-1.008602753281593E-001;3.395505482330918E-003;6.464653182774782E-003;
2.426333333333334E+009;1.684325188398361E-001;-1.014065444469452E-001;3.706928808242083E-003;6.317670457065105E-003;
2.426500000000000E+009;1.688269823789597E-001;-1.017037034034729E-001;3.934535197913647E-003;5.843436811119318E-003;
2.426666666666667E+009;1.689062416553497E-001;-1.020984351634979E-001;4.081468097865582E-003;5.748556926846504E-003;
2.426833333333334E+009;1.690146327018738E-001;-1.024459674954414E-001;4.315717611461878E-003;5.430538672953844E-003;
2.427000000000000E+009;1.689241975545883E-001;-1.029193475842476E-001;4.408635664731264E-003;5.179860163480043E-003;
2.427166666666667E+009;1.688413321971893E-001;-1.029505580663681E-001;4.575258120894432E-003;5.023925099521875E-003;
2.427333333333334E+009;1.688082218170166E-001;-1.033554151654244E-001;4.618891980499029E-003;4.673164337873459E-003;
2.427500000000000E+009;1.685590595006943E-001;-1.036551669239998E-001;4.666630178689957E-003;4.520606249570847E-003;
2.427666666666667E+009;1.681730598211289E-001;-1.038241684436798E-001;4.766703117638826E-003;4.240696784108877E-003;
