# Version 1.00
#
freq[Hz];re:Trc1_S11;im:Trc1_S11;re:Trc2_S21;im:Trc2_S21;
2.400000000000000E+009;1.562143266201019E-001;1.060072854161263E-001;3.730691736564040E-003;-2.743864664807916E-003;
2.400166666666667E+009;1.561997085809708E-001;1.036167219281197E-001;3.741603344678879E-003;-2.602537861093879E-003;
2.400333333333334E+009;1.563940942287445E-001;1.012650355696678E-001;3.502473933622241E-003;-2.680152887478471E-003;
2.400500000000000E+009;1.566423773765564E-001;9.879309684038162E-002;3.598068142309785E-003;-2.850511344149709E-003;
2.400666666666667E+009;1.570084840059280E-001;9.652125835418701E-002;3.794914344325662E-003;-2.969867084175348E-003;
2.400833333333334E+009;1.570739001035690E-001;9.375375509262085E-002;3.826837986707687E-003;-2.958728931844235E-003;
2.401000000000000E+009;1.573729664087296E-001;9.099835157394409E-002;3.652253886684775E-003;-2.957785269245505E-003;
2.401166666666667E+009;1.577314734458923E-001;8.858259022235870E-002;3.719903528690338E-003;-3.219363046810031E-003;
2.401333333333334E+009;1.580987870693207E-001;8.591819554567337E-002;3.697762498632073E-003;-3.293926361948252E-003;
2.401500000000000E+009;1.587663441896439E-001;8.313281834125519E-002;3.819007892161608E-003;-3.332889871671796E-003;
2.401666666666667E+009;1.591589450836182E-001;8.041977882385254E-002;3.809710266068578E-003;-3.651516744866967E-003;
2.401833333333334E+009;1.598811894655228E-001;7.798205316066742E-002;3.715853905305266E-003;-3.759055631235242E-003;
2.402000000000000E+009;1.607051044702530E-001;7.536066323518753E-002;3.699694527313113E-003;-3.921694122254849E-003;
2.402166666666667E+009;1.615793853998184E-001;7.299543917179108E-002;3.603577148169279E-003;-4.065759945660830E-003;
2.402333333333334E+009;1.623166203498840E-001;7.035522162914276E-002;3.519098972901702E-003;-4.332984331995249E-003;
2.402500000000000E+009;1.635832190513611E-001;6.796589493751526E-002;3.331229090690613E-003;-4.472936969250441E-003;
2.402666666666667E+009;1.646114885807037E-001;6.576844304800034E-002;3.191148862242699E-003;-4.522026050835848E-003;
2.402833333333334E+009;1.659189015626907E-001;6.353180855512619E-002;2.970670582726598E-003;-4.728989675641060E-003;
2.403000000000000E+009;1.670396476984024E-001;6.133892014622688E-002;2.801839495077729E-003;-4.852127283811569E-003;
2.403166666666667E+009;1.687711775302887E-001;5.938129499554634E-002;2.437185728922486E-003;-4.887984134256840E-003;
2.403333333333334E+009;1.703238636255264E-001;5.748201906681061E-002;2.264345763251185E-003;-4.667576868087053E-003;
2.403500000000000E+009;1.719270795583725E-001;5.566528439521790E-002;2.097855554893613E-003;-4.653073847293854E-003;
2.403666666666667E+009;1.733241528272629E-001;5.277230963110924E-002;2.001010114327073E-003;-5.347846541553736E-003;
2.403833333333334E+009;1.753589063882828E-001;5.191595479846001E-002;1.739958883263171E-003;-4.656569100916386E-003;
2.404000000000000E+009;1.762554645538330E-001;4.903295263648033E-002;1.905101002193987E-003;-5.050901789218187E-003;
2.404166666666667E+009;1.778409481048584E-001;4.900223016738892E-002;1.356172026135027E-003;-4.308211617171764E-003;
2.404333333333334E+009;1.789222210645676E-001;4.674317687749863E-002;1.598888193257153E-003;-5.068921949714422E-003;
2.404500000000000E+009;1.806206703186035E-001;4.608467593789101E-002;1.625073608011007E-003;-4.814117681235075E-003;
2.404666666666667E+009;1.819923371076584E-001;4.474700242280960E-002;1.241217018105090E-003;-4.950436297804117E-003;
2.404833333333334E+009;1.833545863628388E-001;4.377909749746323E-002;1.257092459127307E-003;-4.984686616808176E-003;
2.405000000000000E+009;1.845641285181046E-001;4.295750707387924E-002;1.177777186967433E-003;-5.093785934150219E-003;
2.405166666666667E+009;1.858338415622711E-001;4.229108616709709E-002;1.180449151434004E-003;-5.057235714048147E-003;
2.405333333333334E+009;1.869855374097824E-001;4.182388633489609E-002;9.815166704356670E-004;-5.385832861065865E-003;
2.405500000000000E+009;1.883578747510910E-001;4.126200079917908E-002;9.208481060341001E-004;-5.407195538282394E-003;
2.405666666666667E+009;1.894125044345856E-001;4.073118045926094E-002;7.045911042951047E-004;-5.538628436625004E-003;
2.405833333333334E+009;1.904691904783249E-001;4.042114689946175E-002;3.188875853084028E-004;-5.652078427374363E-003;
2.406000000000000E+009;1.913159191608429E-001;4.018877074122429E-002;2.838660147972405E-004;-5.718803033232689E-003;
2.406166666666667E+009;1.922614872455597E-001;3.979352861642838E-002;2.134269743692130E-004;-5.614004563540220E-003;
2.406333333333334E+009;1.931730508804321E-001;3.984926268458366E-002;-1.156631042249501E-004;-5.640472751110792E-003;
2.406500000000000E+009;1.936706155538559E-001;3.945844247937203E-002;-5.516980891115964E-004;-5.543366074562073E-003;
2.406666666666667E+009;1.940865516662598E-001;3.943912312388420E-002;-5.472724442370236E-004;-5.401077214628458E-003;
2.406833333333334E+009;1.947170644998550E-001;3.922653570771217E-002;-7.837075972929597E-004;-5.462342407554388E-003;
2.407000000000000E+009;1.949097663164139E-001;3.936627879738808E-002;-1.007184851914644E-003;-5.458957049995661E-003;
2.407166666666667E+009;1.952266842126846E-001;3.895607963204384E-002;-8.934605866670609E-004;-5.309539381414652E-003;
2.407333333333334E+009;1.951256245374680E-001;3.885971009731293E-002;-1.160018146038055E-003;-5.346021614968777E-003;
2.407500000000000E+009;1.951078027486801E-001;3.875011578202248E-002;-1.220927340909839E-003;-5.268634762614965E-003;
2.407666666666667E+009;1.951592415571213E-001;3.855326026678085E-002;-1.342699280939996E-003;-5.171821918338537E-003;
2.407833333333334E+009;1.948087364435196E-001;3.825328126549721E-002;-1.339631620794535E-003;-5.138420499861240E-003;
2.408000000000000E+009;1.949015706777573E-001;3.795396164059639E-002;-1.553859678097069E-003;-5.266689229756594E-003;
2.408166666666667E+009;1.943352371454239E-001;3.737397864460945E-002;-1.407744712196291E-003;-5.215652752667666E-003;
2.408333333333334E+009;1.940086185932159E-001;3.681011125445366E-002;-1.511761453002691E-003;-5.131609737873077E-003;
2.408500000000000E+009;1.933408677577972E-001;3.624083474278450E-002;-1.689269905909896E-003;-5.149318370968103E-003;
2.408666666666667E+009;1.928882449865341E-001;3.563234210014343E-002;-1.775285229086876E-003;-5.143098533153534E-003;
2.408833333333334E+009;1.922762244939804E-001;3.486643359065056E-002;-1.826665713451803E-003;-5.199970677495003E-003;
2.409000000000000E+009;1.915780305862427E-001;3.376893699169159E-002;-2.097637625411153E-003;-5.234763957560062E-003;
2.409166666666667E+009;1.908004879951477E-001;3.273749351501465E-002;-2.119380282238126E-003;-5.186144262552261E-003;
2.409333333333334E+009;1.901651620864868E-001;3.167606517672539E-002;-2.146196085959673E-003;-5.188168957829475E-003;
2.409500000000000E+009;1.891407668590546E-001;3.040988743305206E-002;-2.370893256738782E-003;-5.239760503172875E-003;
2.409666666666667E+009;1.884502172470093E-001;2.880054712295532E-002;-2.440557815134525E-003;-5.254664458334446E-003;
2.409833333333334E+009;1.875573396682739E-001;2.728583663702011E-002;-2.740256022661924E-003;-5.386295262724161E-003;
2.410000000000000E+009;1.866080015897751E-001;2.566067501902580E-002;-2.853727666661143E-003;-5.390754435211420E-003;
2.410166666666667E+009;1.857808381319046E-001;2.387902699410915E-002;-2.987760119140148E-003;-5.340988747775555E-003;
2.410333333333334E+009;1.850192397832871E-001;2.225015312433243E-002;-3.318648319691420E-003;-5.395461805164814E-003;
2.410500000000000E+009;1.842294186353684E-001;2.034517005085945E-002;-3.530534682795405E-003;-5.251216236501932E-003;
2.410666666666667E+009;1.835110038518906E-001;1.829128898680210E-002;-3.755940590053797E-003;-5.163314752280712E-003;
2.410833333333334E+009;1.830163449048996E-001;1.610124669969082E-002;-3.955442924052477E-003;-5.253866314888001E-003;
2.411000000000000E+009;1.823842674493790E-001;1.397315505892038E-002;-4.158413503319025E-003;-5.287275183945894E-003;
2.411166666666667E+009;1.819082349538803E-001;1.194406859576702E-002;-4.426009953022003E-003;-5.036963149905205E-003;
2.411333333333334E+009;1.814879924058914E-001;9.617221541702747E-003;-4.591163247823715E-003;-4.990381188690662E-003;
2.411500000000000E+009;1.810554713010788E-001;7.279396988451481E-003;-4.733751993626356E-003;-4.743533208966255E-003;
2.411666666666667E+009;1.810912787914276E-001;5.311984103173018E-003;-4.964208696037531E-003;-4.740835167467594E-003;
2.411833333333334E+009;1.809826642274857E-001;2.836653497070074E-003;-5.167087540030479E-003;-4.589846357703209E-003;
2.412000000000000E+009;1.810902357101440E-001;4.614411736838520E-004;-5.332717671990395E-003;-4.358629230409861E-003;
2.412166666666667E+009;1.812438219785690E-001;-1.519751967862248E-003;-5.642018746584654E-003;-4.473268985748291E-003;
2.412333333333334E+009;1.813436597585678E-001;-3.848637687042356E-003;-5.833210423588753E-003;-4.249874968081713E-003;
2.412500000000000E+009;1.818902343511581E-001;-6.036523263901472E-003;-6.210039835423231E-003;-4.075257573276758E-003;
2.412666666666667E+009;1.824482530355454E-001;-8.259146474301815E-003;-6.408624816685915E-003;-3.694699378684163E-003;
2.412833333333334E+009;1.832395792007446E-001;-1.076313387602568E-002;-6.610331591218710E-003;-3.585889469832182E-003;
2.413000000000000E+009;1.839484572410584E-001;-1.278772950172424E-002;-6.801467388868332E-003;-3.161580301821232E-003;
2.413166666666667E+009;1.846193969249725E-001;-1.476097293198109E-002;-6.976778618991375E-003;-3.071581944823265E-003;
2.413333333333334E+009;1.856508105993271E-001;-1.688921637833118E-002;-7.163820788264275E-003;-2.618798753246665E-003;
2.413500000000000E+009;1.862941235303879E-001;-1.900902576744556E-002;-7.424195762723684E-003;-2.255226019769907E-003;
2.413666666666667E+009;1.875103116035461E-001;-2.104773558676243E-002;-7.517850492149591E-003;-1.914401887916029E-003;
2.413833333333334E+009;1.884396672248840E-001;-2.289494313299656E-002;-7.665229961276054E-003;-1.545724226161838E-003;
2.414000000000000E+009;1.893687099218369E-001;-2.471508830785751E-002;-7.607555016875267E-003;-1.075487933121622E-003;
2.414166666666667E+009;1.906658709049225E-001;-2.640982717275620E-002;-7.598544005304575E-003;-8.112284704111517E-004;
2.414333333333334E+009;1.916386932134628E-001;-2.820573188364506E-002;-7.769415620714426E-003;-3.291108005214483E-004;
2.414500000000000E+009;1.927309930324554E-001;-2.966353297233582E-002;-7.578074466437101E-003;6.397443212335929E-005;
2.414666666666667E+009;1.938951760530472E-001;-3.103804960846901E-002;-7.585818413645029E-003;3.070045204367489E-004;
2.414833333333334E+009;1.947571933269501E-001;-3.227860108017921E-002;-7.373538799583912E-003;8.217531722038984E-004;
2.415000000000000E+009;1.957928836345673E-001;-3.364945575594902E-002;-7.346776779741049E-003;8.508638129569590E-004;
2.415166666666667E+009;1.968092918395996E-001;-3.469081968069077E-002;-7.119061425328255E-003;1.171612180769444E-003;
2.415333333333334E+009;1.978826522827148E-001;-3.569443896412849E-002;-7.067402359098196E-003;1.459112740121782E-003;
2.415500000000000E+009;1.987803280353546E-001;-3.643991053104401E-002;-7.004277314990759E-003;1.727423514239490E-003;
2.415666666666667E+009;1.996694356203079E-001;-3.732350468635559E-002;-6.681461818516254E-003;1.930800848640502E-003;
2.415833333333334E+009;2.004163116216660E-001;-3.788493946194649E-002;-6.504672113806009E-003;2.290850738063455E-003;
2.416000000000000E+009;2.010853737592697E-001;-3.874145820736885E-002;-6.425672676414251E-003;2.504294505342841E-003;
2.416166666666667E+009;2.016846239566803E-001;-3.924712166190147E-002;-6.310839671641588E-003;2.778925700113177E-003;
2.416333333333334E+009;2.021712064743042E-001;-3.962427005171776E-002;-6.062284111976624E-003;2.971734851598740E-003;
2.416500000000000E+009;2.025709599256516E-001;-4.001188650727272E-002;-5.856230389326811E-003;3.204059554263949E-003;
2.416666666666667E+009;2.027848511934280E-001;-4.054069891571999E-002;-5.516260396689177E-003;3.361586481332779E-003;
2.416833333333334E+009;2.027682662010193E-001;-4.081650823354721E-002;-5.357762798666954E-003;3.519106889143586E-003;
2.417000000000000E+009;2.029192894697189E-001;-4.106998071074486E-002;-5.074981134384871E-003;3.663809504359961E-003;
2.417166666666667E+009;2.023907005786896E-001;-4.109321907162666E-002;-4.769757855683565E-003;3.655627137050033E-003;
2.417333333333334E+009;2.021471560001373E-001;-4.119669273495674E-002;-4.558332264423370E-003;3.770266892388463E-003;
2.417500000000000E+009;2.017747163772583E-001;-4.138119146227837E-002;-4.390805494040251E-003;3.776809899136424E-003;
2.417666666666667E+009;2.012829482555389E-001;-4.135173559188843E-002;-4.224942531436682E-003;3.725765505805612E-003;
2.417833333333334E+009;2.008257955312729E-001;-4.146423190832138E-002;-4.050458315759897E-003;3.516578581184149E-003;
2.418000000000000E+009;2.001336514949799E-001;-4.131215810775757E-002;-4.006678238511086E-003;3.599824616685510E-003;
2.418166666666667E+009;1.992498189210892E-001;-4.137653484940529E-002;-3.788391128182411E-003;3.666249802336097E-003;
2.418333333333334E+009;1.984776854515076E-001;-4.146632179617882E-002;-3.675792133435607E-003;3.637769026681781E-003;
2.418500000000000E+009;1.975274533033371E-001;-4.170659929513931E-002;-3.702654736116529E-003;3.712509758770466E-003;
2.418666666666667E+009;1.966399103403091E-001;-4.181469976902008E-002;-3.482045140117407E-003;3.679647808894515E-003;
2.418833333333334E+009;1.954048424959183E-001;-4.207038134336472E-002;-3.536828560754657E-003;3.615504596382380E-003;
2.419000000000000E+009;1.941709667444229E-001;-4.245128855109215E-002;-3.491602838039398E-003;3.556264797225595E-003;
2.419166666666667E+009;1.929689943790436E-001;-4.285888001322746E-002;-3.376730484887958E-003;3.559523960575461E-003;
2.419333333333334E+009;1.917676627635956E-001;-4.356728494167328E-002;-3.448168979957700E-003;3.633168991655111E-003;
2.419500000000000E+009;1.903002858161926E-001;-4.400690644979477E-002;-3.318570321425796E-003;3.616589820012450E-003;
2.419666666666667E+009;1.888430714607239E-001;-4.504040256142616E-002;-3.199856961145997E-003;3.633365500718355E-003;
2.419833333333334E+009;1.875169724225998E-001;-4.580157995223999E-002;-3.353176172822714E-003;3.631617873907089E-003;
2.420000000000000E+009;1.861239969730377E-001;-4.671408981084824E-002;-3.456121077761054E-003;3.600679337978363E-003;
2.420166666666667E+009;1.846168786287308E-001;-4.773889854550362E-002;-3.350046463310719E-003;3.717674873769283E-003;
2.420333333333334E+009;1.831387281417847E-001;-4.893922433257103E-002;-3.451101714745164E-003;3.598324954509735E-003;
2.420500000000000E+009;1.816277056932449E-001;-5.021412670612335E-002;-3.409439232200384E-003;3.788542468100786E-003;
2.420666666666667E+009;1.802631318569183E-001;-5.133967101573944E-002;-3.510851180180907E-003;3.884881036356092E-003;
2.420833333333334E+009;1.787392646074295E-001;-5.288566276431084E-002;-3.360192757099867E-003;3.989016637206078E-003;
2.421000000000000E+009;1.773636490106583E-001;-5.449217185378075E-002;-3.508695634081960E-003;4.143942147493362E-003;
2.421166666666667E+009;1.761056631803513E-001;-5.613152682781220E-002;-3.656712826341391E-003;4.305817652493715E-003;
2.421333333333334E+009;1.745185852050781E-001;-5.755846202373505E-002;-3.550240071490407E-003;4.487860947847366E-003;
2.421500000000000E+009;1.733406931161881E-001;-5.943168699741364E-002;-3.510575043037534E-003;4.671462345868349E-003;
2.421666666666667E+009;1.723619848489761E-001;-6.108120083808899E-002;-3.350255778059363E-003;4.955934360623360E-003;
2.421833333333334E+009;1.712461858987808E-001;-6.287628412246704E-002;-3.155089216306806E-003;5.145563278347254E-003;
2.422000000000000E+009;1.701251566410065E-001;-6.469640135765076E-002;-3.088095225393772E-003;5.260601174086332E-003;
2.422166666666667E+009;1.694246679544449E-001;-6.657443940639496E-002;-3.059492213651538E-003;5.566295236349106E-003;
2.422333333333334E+009;1.684662252664566E-001;-6.839735060930252E-002;-2.803984796628356E-003;5.733685567975044E-003;
2.422500000000000E+009;1.677334606647492E-001;-7.028464227914810E-002;-2.814296865835786E-003;5.804502405226231E-003;
2.422666666666667E+009;1.669704318046570E-001;-7.224761694669724E-002;-2.512498293071985E-003;6.070189177989960E-003;
2.422833333333334E+009;1.666422933340073E-001;-7.410915195941925E-002;-2.429085550829768E-003;6.115308962762356E-003;
2.423000000000000E+009;1.661847531795502E-001;-7.616852968931198E-002;-2.089985180646181E-003;6.293414626270533E-003;
2.423166666666667E+009;1.658203154802322E-001;-7.806608825922012E-002;-1.850112574175000E-003;6.427410524338484E-003;
2.423333333333334E+009;1.654655784368515E-001;-7.972346991300583E-002;-1.582985278218985E-003;6.628500763326883E-003;
2.423500000000000E+009;1.656619757413864E-001;-8.141236007213593E-002;-1.493991585448384E-003;6.568135228008032E-003;
2.423666666666667E+009;1.654438674449921E-001;-8.331640064716339E-002;-1.274631475098431E-003;6.675110198557377E-003;
2.423833333333334E+009;1.652679890394211E-001;-8.495678007602692E-002;-9.379195980727673E-004;6.869419012218714E-003;
2.424000000000000E+009;1.654348969459534E-001;-8.660018444061279E-002;-7.541495724581182E-004;7.030545733869076E-003;
2.424166666666667E+009;1.654966026544571E-001;-8.809895068407059E-002;-5.204402259550989E-004;7.044811733067036E-003;
2.424333333333334E+009;1.655483692884445E-001;-8.954642713069916E-002;-2.047796151600778E-004;7.197033148258925E-003;
2.424500000000000E+009;1.658860146999359E-001;-9.135825932025909E-002;1.657913526287302E-004;7.231295574456453E-003;
2.424666666666667E+009;1.659659296274185E-001;-9.259099513292313E-002;4.060257342644036E-004;7.404706440865994E-003;
2.424833333333334E+009;1.663991510868073E-001;-9.386243671178818E-002;8.050663745962083E-004;7.376024499535561E-003;
2.425000000000000E+009;1.666720509529114E-001;-9.501951932907105E-002;1.107375370338559E-003;7.370532955974340E-003;
2.425166666666667E+009;1.668477952480316E-001;-9.602418541908264E-002;1.549136708490551E-003;7.289216388016939E-003;
2.425333333333334E+009;1.670629829168320E-001;-9.704072028398514E-002;1.825747196562588E-003;7.172917015850544E-003;
2.425500000000000E+009;1.674297153949738E-001;-9.812571108341217E-002;2.311252523213625E-003;7.154496852308512E-003;
2.425666666666667E+009;1.677257567644119E-001;-9.869248420000076E-002;2.557219238951802E-003;7.035681977868080E-003;
2.425833333333334E+009;1.678838431835175E-001;-9.963987767696381E-002;2.707024570554495E-003;6.898364983499050E-003;
2.426000000000000E+009;1.681824922561646E-001;-1.001923233270645E-001;3.129717428237200E-003;6.640256848186255E-003;
2.426166666666667E+009;1.685034632682800E-001;-1.006025522947311E-001;3.477612277492881E-003;6.456201430410147E-003;
2.426333333333334E+009;1.683693975210190E-001;-1.012304425239563E-001;3.760710591450334E-003;6.132634822279215E-003;
2.426500000000000E+009;1.687619686126709E-001;-1.016291454434395E-001;3.820989048108459E-003;5.946320481598377E-003;
2.426666666666667E+009;1.688047796487808E-001;-1.019377484917641E-001;4.165782127529383E-003;5.729825701564550E-003;
2.426833333333334E+009;1.690849810838699E-001;-1.023858264088631E-001;4.474886227399111E-003;5.518327467143536E-003;
2.427000000000000E+009;1.688942462205887E-001;-1.027132123708725E-001;4.448182880878449E-003;5.152560304850340E-003;
2.427166666666667E+009;1.690076738595963E-001;-1.029074117541313E-001;4.638149868696928E-003;4.970150068402290E-003;
2.427333333333334E+009;1.686980575323105E-001;-1.032506078481674E-001;4.817563109099865E-003;4.663879517465830E-003;
2.427500000000000E+009;1.685112118721008E-001;-1.035169586539269E-001;4.831984639167786E-003;4.508180078119040E-003;
2.427666666666667E+009;1.682094782590866E-001;-1.038030833005905E-001;4.774274770170450E-003;4.158704541623592E-003;
