# Version 1.00
#
freq[Hz];re:Trc1_S11;im:Trc1_S11;re:Trc2_S21;im:Trc2_S21;
2.400000000000000E+009;1.576944738626480E-001;1.126348599791527E-001;-8.861652575433254E-003;2.492704370524734E-004;
2.400166666666667E+009;1.570960134267807E-001;1.105335578322411E-001;-8.906470611691475E-003;7.227964815683663E-004;
2.400333333333334E+009;1.569021046161652E-001;1.083198115229607E-001;-8.598476648330689E-003;9.603537619113922E-004;
2.400500000000000E+009;1.565505564212799E-001;1.054792255163193E-001;-8.637709543108940E-003;1.339739188551903E-003;
2.400666666666667E+009;1.561999917030335E-001;1.032907590270042E-001;-8.489341475069523E-003;1.702920999377966E-003;
2.400833333333334E+009;1.559842526912689E-001;1.003935113549233E-001;-8.426240645349026E-003;1.802917686291039E-003;
2.401000000000000E+009;1.558299362659454E-001;9.764052182435989E-002;-8.297150023281574E-003;2.027401234954596E-003;
2.401166666666667E+009;1.554669141769409E-001;9.465804696083069E-002;-7.999173365533352E-003;2.300040796399117E-003;
2.401333333333334E+009;1.554633080959320E-001;9.188713133335114E-002;-7.918636314570904E-003;2.491330029442906E-003;
2.401500000000000E+009;1.554585993289948E-001;8.891641348600388E-002;-7.792282849550247E-003;2.798948436975479E-003;
2.401666666666667E+009;1.556717455387116E-001;8.581281453371048E-002;-7.554860785603523E-003;3.139718901365995E-003;
2.401833333333334E+009;1.558683067560196E-001;8.295335620641708E-002;-7.529575377702713E-003;3.177186241373420E-003;
2.402000000000000E+009;1.564321964979172E-001;7.981158047914505E-002;-7.262310944497585E-003;3.333615139126778E-003;
2.402166666666667E+009;1.569722294807434E-001;7.707398384809494E-002;-7.170443888753653E-003;3.851156681776047E-003;
2.402333333333334E+009;1.576140671968460E-001;7.380305975675583E-002;-7.032614201307297E-003;3.924984019249678E-003;
2.402500000000000E+009;1.585619002580643E-001;7.103219628334045E-002;-6.965055596083403E-003;4.294452723115683E-003;
2.402666666666667E+009;1.595943719148636E-001;6.829781085252762E-002;-6.716398056596518E-003;4.426003433763981E-003;
2.402833333333334E+009;1.606561392545700E-001;6.544198840856552E-002;-6.357116624712944E-003;4.564690403640270E-003;
2.403000000000000E+009;1.618817895650864E-001;6.271518766880035E-002;-6.205431185662746E-003;4.694073460996151E-003;
2.403166666666667E+009;1.634713709354401E-001;6.029051914811134E-002;-5.917297210544348E-003;4.855790641158819E-003;
2.403333333333334E+009;1.648854613304138E-001;5.750146508216858E-002;-5.836534779518843E-003;4.880773369222879E-003;
2.403500000000000E+009;1.664185076951981E-001;5.507351085543633E-002;-5.572319496423006E-003;5.191278643906117E-003;
2.403666666666667E+009;1.682490408420563E-001;5.285256356000900E-002;-5.233606323599815E-003;5.437908694148064E-003;
2.403833333333334E+009;1.700349301099777E-001;5.057715997099876E-002;-5.180305335670710E-003;5.567407701164484E-003;
2.404000000000000E+009;1.715163439512253E-001;4.846183210611343E-002;-4.825516603887081E-003;5.599196534603834E-003;
2.404166666666667E+009;1.734104454517365E-001;4.656286165118218E-002;-4.690855741500855E-003;5.807950161397457E-003;
2.404333333333334E+009;1.752496212720871E-001;4.473999515175819E-002;-4.140339791774750E-003;5.910567473620176E-003;
2.404500000000000E+009;1.770143955945969E-001;4.277002066373825E-002;-4.246057011187077E-003;5.879268050193787E-003;
2.404666666666667E+009;1.788706779479981E-001;4.149988293647766E-002;-3.818260971456766E-003;5.997291766107082E-003;
2.404833333333334E+009;1.807929128408432E-001;3.998790308833122E-002;-3.520099213346839E-003;6.183255463838577E-003;
2.405000000000000E+009;1.822389960289002E-001;3.905295580625534E-002;-3.463306929916143E-003;6.126209162175655E-003;
2.405166666666667E+009;1.839131116867065E-001;3.800869360566139E-002;-3.036990528926253E-003;6.118868477642536E-003;
2.405333333333334E+009;1.856276243925095E-001;3.744872659444809E-002;-2.692319452762604E-003;6.155089940875769E-003;
2.405500000000000E+009;1.873847246170044E-001;3.685287013649941E-002;-2.564872149378061E-003;6.126031745225191E-003;
2.405666666666667E+009;1.888195276260376E-001;3.613504394888878E-002;-2.344043459743261E-003;6.084406282752752E-003;
2.405833333333334E+009;1.905385404825211E-001;3.604529425501823E-002;-1.985018141567707E-003;6.029915530234575E-003;
2.406000000000000E+009;1.917597949504852E-001;3.574544936418533E-002;-1.898078247904778E-003;5.936001893132925E-003;
2.406166666666667E+009;1.931530833244324E-001;3.546492755413055E-002;-1.783397980034351E-003;5.819261074066162E-003;
2.406333333333334E+009;1.943626701831818E-001;3.559336438775063E-002;-1.554314396344125E-003;5.803879816085100E-003;
2.406500000000000E+009;1.955029815435410E-001;3.562769293785095E-002;-1.364950789138675E-003;5.783208180218935E-003;
2.406666666666667E+009;1.964135766029358E-001;3.566394373774529E-002;-1.239202916622162E-003;5.599075928330421E-003;
2.406833333333334E+009;1.973028928041458E-001;3.586103767156601E-002;-1.052514766342938E-003;5.560516845434904E-003;
2.407000000000000E+009;1.980000883340836E-001;3.637199848890305E-002;-9.948823135346174E-004;5.375882145017386E-003;
2.407166666666667E+009;1.987003982067108E-001;3.627390041947365E-002;-8.945282897911966E-004;5.507917609065771E-003;
2.407333333333334E+009;1.989451944828033E-001;3.679491579532623E-002;-9.774407371878624E-004;5.540897138416767E-003;
2.407500000000000E+009;1.992450207471848E-001;3.711408749222755E-002;-6.977282464504242E-004;5.459277890622616E-003;
2.407666666666667E+009;1.995409578084946E-001;3.732973709702492E-002;-6.818445399403572E-004;5.226908717304468E-003;
2.407833333333334E+009;1.992980688810349E-001;3.760325536131859E-002;-6.500723538920283E-004;5.241739563643932E-003;
2.408000000000000E+009;1.994437873363495E-001;3.782575577497482E-002;-6.735034985467792E-004;5.100086797028780E-003;
2.408166666666667E+009;1.990886926651001E-001;3.783218935132027E-002;-3.870798100251705E-004;5.105406511574984E-003;
2.408333333333334E+009;1.988785415887833E-001;3.779496625065804E-002;-4.574743798002601E-004;5.131120793521404E-003;
2.408500000000000E+009;1.981540769338608E-001;3.779225423932076E-002;-3.818890836555511E-004;5.043619778007269E-003;
2.408666666666667E+009;1.977024674415588E-001;3.769462928175926E-002;-5.236103315837681E-004;5.143226590007544E-003;
2.408833333333334E+009;1.970585137605667E-001;3.736211732029915E-002;-3.966412623412907E-004;5.053270142525435E-003;
2.409000000000000E+009;1.961599290370941E-001;3.688606247305870E-002;-4.477676993701607E-004;5.081947427242994E-003;
2.409166666666667E+009;1.953027099370956E-001;3.625121712684631E-002;-4.041653883177787E-004;5.224048625677824E-003;
2.409333333333334E+009;1.943010389804840E-001;3.573953732848167E-002;-4.958799108862877E-004;5.361152347177267E-003;
2.409500000000000E+009;1.930912882089615E-001;3.481147438287735E-002;-2.133801608579233E-004;5.329090636223555E-003;
2.409666666666667E+009;1.918727010488510E-001;3.385876864194870E-002;-2.695091243367642E-004;5.439427681267262E-003;
2.409833333333334E+009;1.908195316791534E-001;3.272017464041710E-002;-3.444710746407509E-004;5.647663492709398E-003;
2.410000000000000E+009;1.896887719631195E-001;3.126690536737442E-002;-5.303808939061128E-005;5.671568214893341E-003;
2.410166666666667E+009;1.884247958660126E-001;2.982404269278050E-002;4.603730121743865E-005;5.836956668645144E-003;
2.410333333333334E+009;1.872331351041794E-001;2.831733971834183E-002;2.030099713010714E-004;5.928031168878079E-003;
2.410500000000000E+009;1.860122978687286E-001;2.649922296404839E-002;3.385021118447185E-004;6.071784999221563E-003;
2.410666666666667E+009;1.847036182880402E-001;2.449299581348896E-002;5.835155025124550E-004;6.079952232539654E-003;
2.410833333333334E+009;1.838878095149994E-001;2.244234643876553E-002;7.665433804504573E-004;6.021004170179367E-003;
2.411000000000000E+009;1.827552467584610E-001;2.034675888717175E-002;9.546796791255474E-004;6.181212142109871E-003;
2.411166666666667E+009;1.818549931049347E-001;1.824292168021202E-002;1.221886952407658E-003;6.157749798148871E-003;
2.411333333333334E+009;1.809178441762924E-001;1.590052060782909E-002;1.479089609347284E-003;6.093685049563646E-003;
2.411500000000000E+009;1.802018880844116E-001;1.349874213337898E-002;1.587833743542433E-003;6.024747155606747E-003;
2.411666666666667E+009;1.796313822269440E-001;1.106524094939232E-002;1.894727931357920E-003;6.120452191680670E-003;
2.411833333333334E+009;1.789804846048355E-001;8.667922578752041E-003;2.038070699200034E-003;6.087766960263252E-003;
2.412000000000000E+009;1.786914765834808E-001;5.779944360256195E-003;2.187409438192844E-003;5.908439401537180E-003;
2.412166666666667E+009;1.786407679319382E-001;3.455026540905237E-003;2.546992152929306E-003;5.769100505858660E-003;
2.412333333333334E+009;1.783383488655090E-001;7.324751350097358E-004;2.738262061029673E-003;5.852638278156519E-003;
2.412500000000000E+009;1.784696131944656E-001;-1.862250850535929E-003;2.834160812199116E-003;5.730338394641876E-003;
2.412666666666667E+009;1.788718402385712E-001;-4.612385295331478E-003;3.163716057315469E-003;5.654257722198963E-003;
2.412833333333334E+009;1.791200488805771E-001;-7.223157212138176E-003;3.330034436658025E-003;5.503688938915730E-003;
2.413000000000000E+009;1.797591596841812E-001;-9.863316081464291E-003;3.425288945436478E-003;5.337501410394907E-003;
2.413166666666667E+009;1.803050488233566E-001;-1.231867168098688E-002;3.596087917685509E-003;5.260379053652287E-003;
2.413333333333334E+009;1.812963783740997E-001;-1.490658335387707E-002;3.750743111595511E-003;5.059548653662205E-003;
2.413500000000000E+009;1.819366514682770E-001;-1.744836568832398E-002;3.852405818179250E-003;4.958748351782560E-003;
2.413666666666667E+009;1.831862628459930E-001;-1.988265663385391E-002;4.154257476329804E-003;4.775253590196371E-003;
2.413833333333334E+009;1.841474175453186E-001;-2.233904786407948E-002;4.202054813504219E-003;4.641144536435604E-003;
2.414000000000000E+009;1.850896924734116E-001;-2.461694739758968E-002;4.365233704447746E-003;4.583272617310286E-003;
2.414166666666667E+009;1.864269375801086E-001;-2.670297585427761E-002;4.442894365638495E-003;4.386732820421457E-003;
2.414333333333334E+009;1.875850558280945E-001;-2.914845943450928E-002;4.518014844506979E-003;4.191546700894833E-003;
2.414500000000000E+009;1.890287995338440E-001;-3.092337027192116E-002;4.659264348447323E-003;4.086040891706944E-003;
2.414666666666667E+009;1.901791989803314E-001;-3.267245739698410E-002;4.648086614906788E-003;3.921163268387318E-003;
2.414833333333334E+009;1.915855258703232E-001;-3.438661992549896E-002;4.851405508816242E-003;3.697018139064312E-003;
2.415000000000000E+009;1.928312927484512E-001;-3.598475083708763E-002;4.927114583551884E-003;3.652883227914572E-003;
2.415166666666667E+009;1.942796111106873E-001;-3.734800964593887E-002;5.009541753679514E-003;3.434462472796440E-003;
2.415333333333334E+009;1.957400441169739E-001;-3.853810206055641E-002;5.197059828788042E-003;3.126390744000673E-003;
2.415500000000000E+009;1.969713270664215E-001;-3.953966125845909E-002;5.258014891296625E-003;3.046449040994048E-003;
2.415666666666667E+009;1.983447521924973E-001;-4.060025140643120E-002;5.359050352126360E-003;2.831439487636089E-003;
2.415833333333334E+009;1.993939131498337E-001;-4.146842285990715E-002;5.428735632449389E-003;2.650806680321693E-003;
2.416000000000000E+009;2.005421072244644E-001;-4.227453470230103E-002;5.351103376597166E-003;2.431672532111406E-003;
2.416166666666667E+009;2.015903145074844E-001;-4.303080588579178E-002;5.464889574795961E-003;2.381492871791124E-003;
2.416333333333334E+009;2.024892866611481E-001;-4.334232211112976E-002;5.465800408273935E-003;2.098061144351959E-003;
2.416500000000000E+009;2.032197415828705E-001;-4.366591945290566E-002;5.595406517386437E-003;2.003286499530077E-003;
2.416666666666667E+009;2.038568109273911E-001;-4.414157196879387E-002;5.545200780034065E-003;1.827975967898965E-003;
2.416833333333334E+009;2.043571919202805E-001;-4.410220682621002E-002;5.526965949684382E-003;1.666382420808077E-003;
2.417000000000000E+009;2.048290967941284E-001;-4.431150108575821E-002;5.673180799931288E-003;1.528017688542604E-003;
2.417166666666667E+009;2.048702538013458E-001;-4.407370090484619E-002;5.682892166078091E-003;1.328840036876500E-003;
2.417333333333334E+009;2.049480974674225E-001;-4.385391250252724E-002;5.697939544916153E-003;1.335706096142530E-003;
2.417500000000000E+009;2.049142420291901E-001;-4.369938373565674E-002;5.735235754400492E-003;1.120839733630419E-003;
2.417666666666667E+009;2.046759724617004E-001;-4.348298162221909E-002;5.734984762966633E-003;1.011104090139270E-003;
2.417833333333334E+009;2.046347707509995E-001;-4.305011406540871E-002;5.711001344025135E-003;7.885632803663611E-004;
2.418000000000000E+009;2.042036950588226E-001;-4.267901554703713E-002;5.904405843466520E-003;5.900613614358008E-004;
2.418166666666667E+009;2.036423981189728E-001;-4.232650995254517E-002;5.757737904787064E-003;3.593295405153185E-004;
2.418333333333334E+009;2.029094398021698E-001;-4.188163205981255E-002;5.935314111411572E-003;3.143741341773421E-004;
2.418500000000000E+009;2.020858228206635E-001;-4.163778945803642E-002;5.825484637171030E-003;2.258509084640537E-005;
2.418666666666667E+009;2.013381123542786E-001;-4.119607433676720E-002;5.790665745735169E-003;-1.885878446046263E-004;
2.418833333333334E+009;2.001193910837174E-001;-4.112214967608452E-002;5.862129386514425E-003;-3.580382035579532E-004;
2.419000000000000E+009;1.988969147205353E-001;-4.098786413669586E-002;5.754735786467791E-003;-5.310981650836766E-004;
2.419166666666667E+009;1.977085769176483E-001;-4.101110622286797E-002;5.650903098285198E-003;-6.596278399229050E-004;
2.419333333333334E+009;1.963742971420288E-001;-4.115019366145134E-002;5.520557053387165E-003;-9.390420163981617E-004;
2.419500000000000E+009;1.948466300964356E-001;-4.124183207750320E-002;5.493395030498505E-003;-9.177239844575524E-004;
2.419666666666667E+009;1.932328939437866E-001;-4.171514138579369E-002;5.459824111312628E-003;-1.138695748522878E-003;
2.419833333333334E+009;1.915629208087921E-001;-4.213855043053627E-002;5.312585271894932E-003;-1.347157987765968E-003;
2.420000000000000E+009;1.899765282869339E-001;-4.273436963558197E-002;5.080706439912319E-003;-1.215745578520000E-003;
2.420166666666667E+009;1.880512535572052E-001;-4.342213273048401E-002;5.263529252260923E-003;-1.251468434929848E-003;
2.420333333333334E+009;1.863939315080643E-001;-4.427888616919518E-002;5.158801563084126E-003;-1.296765170991421E-003;
2.420500000000000E+009;1.843393743038178E-001;-4.537039250135422E-002;4.979702178388834E-003;-1.463733962737024E-003;
2.420666666666667E+009;1.826466321945190E-001;-4.616435617208481E-002;4.882312845438719E-003;-1.717283623293042E-003;
2.420833333333334E+009;1.807416230440140E-001;-4.761624336242676E-002;4.904439672827721E-003;-1.473177806474268E-003;
2.421000000000000E+009;1.789496392011643E-001;-4.891888052225113E-002;4.990960936993361E-003;-1.743223867379129E-003;
2.421166666666667E+009;1.772000938653946E-001;-5.052579194307327E-002;4.958880599588156E-003;-1.746755209751427E-003;
2.421333333333334E+009;1.754057109355927E-001;-5.218505486845970E-002;4.786664620041847E-003;-1.869991654530168E-003;
2.421500000000000E+009;1.736265122890472E-001;-5.391122028231621E-002;4.836517851799727E-003;-2.153238514438272E-003;
2.421666666666667E+009;1.719547212123871E-001;-5.562819167971611E-002;4.875556100159884E-003;-2.050725277513266E-003;
2.421833333333334E+009;1.705725193023682E-001;-5.753545835614204E-002;4.914467222988606E-003;-2.309953561052680E-003;
2.422000000000000E+009;1.690896004438400E-001;-5.950168520212174E-002;4.644927568733692E-003;-2.378538483753800E-003;
2.422166666666667E+009;1.679846197366715E-001;-6.163075193762779E-002;4.646199289709330E-003;-2.384444233030081E-003;
2.422333333333334E+009;1.666690409183502E-001;-6.369558721780777E-002;4.735628142952919E-003;-2.698980970308185E-003;
2.422500000000000E+009;1.654411554336548E-001;-6.574829667806625E-002;4.517553374171257E-003;-2.740159165114164E-003;
2.422666666666667E+009;1.645988076925278E-001;-6.788656860589981E-002;4.408408887684345E-003;-2.774785971269012E-003;
2.422833333333334E+009;1.639347970485687E-001;-7.024123519659042E-002;4.389140289276838E-003;-2.843023976311088E-003;
2.423000000000000E+009;1.631041765213013E-001;-7.259418815374374E-002;4.513446241617203E-003;-3.075151005759835E-003;
2.423166666666667E+009;1.625434756278992E-001;-7.472568750381470E-002;4.354564473032951E-003;-3.136314218863845E-003;
2.423333333333334E+009;1.621252298355103E-001;-7.682726532220841E-002;4.166790749877691E-003;-2.952705835923553E-003;
2.423500000000000E+009;1.619638949632645E-001;-7.888494431972504E-002;4.044518340379000E-003;-3.323486074805260E-003;
2.423666666666667E+009;1.617293804883957E-001;-8.108445256948471E-002;4.073929507285357E-003;-3.364765085279942E-003;
2.423833333333334E+009;1.614501923322678E-001;-8.315189182758331E-002;4.053414799273014E-003;-3.407565411180258E-003;
2.424000000000000E+009;1.614940762519836E-001;-8.538826555013657E-002;3.856488503515720E-003;-3.485667286440730E-003;
2.424166666666667E+009;1.615820676088333E-001;-8.705504238605499E-002;3.787741297855973E-003;-3.822664497420192E-003;
2.424333333333334E+009;1.618260294198990E-001;-8.893576264381409E-002;3.655069274827838E-003;-3.739940235391259E-003;
2.424500000000000E+009;1.622118502855301E-001;-9.096746891736984E-002;3.715062746778131E-003;-3.796611446887255E-003;
2.424666666666667E+009;1.623854935169220E-001;-9.254154562950134E-002;3.659307723864913E-003;-4.107648972421885E-003;
2.424833333333334E+009;1.631464064121246E-001;-9.423325955867767E-002;3.528647357597947E-003;-3.945981152355671E-003;
2.425000000000000E+009;1.636620312929153E-001;-9.574764221906662E-002;3.562680678442121E-003;-4.251389764249325E-003;
2.425166666666667E+009;1.640879362821579E-001;-9.716416895389557E-002;3.310905303806067E-003;-4.474394489079714E-003;
2.425333333333334E+009;1.646002829074860E-001;-9.821045398712158E-002;3.335192101076245E-003;-4.546598996967077E-003;
2.425500000000000E+009;1.652199774980545E-001;-9.952811151742935E-002;3.235412528738380E-003;-4.659308120608330E-003;
2.425666666666667E+009;1.659392714500427E-001;-1.004409715533257E-001;2.904967404901981E-003;-4.745575599372387E-003;
2.425833333333334E+009;1.664232462644577E-001;-1.015167981386185E-001;2.913322066888213E-003;-4.863263573497534E-003;
2.426000000000000E+009;1.671245098114014E-001;-1.020851731300354E-001;2.615652512758970E-003;-4.847839474678040E-003;
2.426166666666667E+009;1.678645759820938E-001;-1.028665527701378E-001;2.563025103881955E-003;-5.056810099631548E-003;
2.426333333333334E+009;1.683339625597000E-001;-1.035073101520538E-001;2.475386485457420E-003;-5.060541909188032E-003;
2.426500000000000E+009;1.690116673707962E-001;-1.038513630628586E-001;2.333369338884950E-003;-5.181693006306887E-003;
2.426666666666667E+009;1.695688813924789E-001;-1.042605340480804E-001;2.118975855410099E-003;-5.134589038789272E-003;
2.426833333333334E+009;1.702388674020767E-001;-1.046816259622574E-001;2.068992471322417E-003;-5.555344279855490E-003;
2.427000000000000E+009;1.705405861139298E-001;-1.049094423651695E-001;1.835639588534832E-003;-5.328079685568810E-003;
2.427166666666667E+009;1.710302978754044E-001;-1.050001233816147E-001;1.688894466497004E-003;-5.330667831003666E-003;
2.427333333333334E+009;1.712269634008408E-001;-1.052470281720161E-001;1.415516715496779E-003;-5.510181188583374E-003;
2.427500000000000E+009;1.713120043277741E-001;-1.052799075841904E-001;1.456370810046792E-003;-5.383344832807779E-003;
2.427666666666667E+009;1.713498085737228E-001;-1.052278876304627E-001;1.080724410712719E-003;-5.707474891096354E-003;
2.427833333333334E+009;1.713412106037140E-001;-1.052648872137070E-001;1.021954929456115E-003;-5.649115890264511E-003;
