# Version 1.00
#
freq[Hz];re:Trc1_S11;im:Trc1_S11;re:Trc2_S21;im:Trc2_S21;
2.400000000000000E+009;1.577351242303848E-001;1.126904264092445E-001;-8.728551678359509E-003;2.391095476923510E-004;
2.400166666666667E+009;1.570452600717545E-001;1.104124709963799E-001;-8.744332939386368E-003;7.209995528683066E-004;
2.400333333333334E+009;1.567599326372147E-001;1.083285436034203E-001;-8.639988489449024E-003;1.039546681568027E-003;
2.400500000000000E+009;1.563173532485962E-001;1.058019399642944E-001;-8.582101203501225E-003;1.077732304111123E-003;
2.400666666666667E+009;1.562011092901230E-001;1.034124642610550E-001;-8.468697778880596E-003;1.562303514219821E-003;
2.400833333333334E+009;1.557246297597885E-001;1.006171479821205E-001;-8.393035270273686E-003;1.868690829724073E-003;
2.401000000000000E+009;1.556602716445923E-001;9.752377867698669E-002;-8.124283514916897E-003;2.056405879557133E-003;
2.401166666666667E+009;1.552258729934692E-001;9.488110244274139E-002;-7.917627692222595E-003;2.269507385790348E-003;
2.401333333333334E+009;1.553728729486466E-001;9.199289977550507E-002;-7.869931869208813E-003;2.641191240400076E-003;
2.401500000000000E+009;1.553467363119125E-001;8.889993280172348E-002;-7.867003791034222E-003;2.807811833918095E-003;
2.401666666666667E+009;1.553433686494827E-001;8.569496124982834E-002;-7.559328805655241E-003;3.121931338682771E-003;
2.401833333333334E+009;1.556207686662674E-001;8.306055516004562E-002;-7.467568852007389E-003;3.339419839903712E-003;
2.402000000000000E+009;1.562218070030212E-001;7.988980412483215E-002;-7.246584165841341E-003;3.499043639749289E-003;
2.402166666666667E+009;1.567337363958359E-001;7.720976322889328E-002;-7.055213674902916E-003;3.745781257748604E-003;
2.402333333333334E+009;1.575971841812134E-001;7.397759705781937E-002;-6.841793190687895E-003;3.909450490027666E-003;
2.402500000000000E+009;1.583366096019745E-001;7.125844061374664E-002;-6.779455114156008E-003;4.148744512349367E-003;
2.402666666666667E+009;1.592107713222504E-001;6.854174286127091E-002;-6.430651061236858E-003;4.483181051909924E-003;
2.402833333333334E+009;1.605468690395355E-001;6.577468663454056E-002;-6.321923341602087E-003;4.666507244110107E-003;
2.403000000000000E+009;1.618084460496903E-001;6.297115981578827E-002;-6.150395143777132E-003;4.804357420653105E-003;
2.403166666666667E+009;1.631794720888138E-001;6.058172136545181E-002;-5.905014462769032E-003;4.931501112878323E-003;
2.403333333333334E+009;1.648081541061401E-001;5.770612508058548E-002;-5.691487342119217E-003;5.088750272989273E-003;
2.403500000000000E+009;1.664995402097702E-001;5.536432191729546E-002;-5.463412962853909E-003;5.244728643447161E-003;
2.403666666666667E+009;1.682523190975189E-001;5.303640663623810E-002;-5.349616054445505E-003;5.334023851901293E-003;
2.403833333333334E+009;1.697287410497665E-001;5.084937065839768E-002;-5.034613423049450E-003;5.496005993336439E-003;
2.404000000000000E+009;1.714522838592529E-001;4.868280887603760E-002;-4.843900445848703E-003;5.662463605403900E-003;
2.404166666666667E+009;1.732292771339417E-001;4.676054045557976E-002;-4.393278621137142E-003;5.821419414132834E-003;
2.404333333333334E+009;1.749031692743301E-001;4.496552050113678E-002;-4.318943712860346E-003;5.801055114716291E-003;
2.404500000000000E+009;1.766964495182037E-001;4.304761812090874E-002;-4.037839360535145E-003;5.966559983789921E-003;
2.404666666666667E+009;1.784655153751373E-001;4.177365079522133E-002;-3.910321276634932E-003;6.073528435081244E-003;
2.404833333333334E+009;1.804031580686569E-001;4.039899259805679E-002;-3.293534042313695E-003;6.099392194300890E-003;
2.405000000000000E+009;1.821023374795914E-001;3.946870565414429E-002;-3.209930378943682E-003;6.144152954220772E-003;
2.405166666666667E+009;1.837307512760162E-001;3.835695609450340E-002;-2.953522605821490E-003;6.005663890391588E-003;
2.405333333333334E+009;1.855855286121368E-001;3.769280761480331E-002;-2.801645779982209E-003;6.122085731476545E-003;
2.405500000000000E+009;1.871710419654846E-001;3.705573081970215E-002;-2.612708369269967E-003;6.119971163570881E-003;
2.405666666666667E+009;1.886745542287827E-001;3.659936040639877E-002;-2.182189375162125E-003;6.049319170415402E-003;
2.405833333333334E+009;1.902987957000732E-001;3.614304587244988E-002;-1.862826175056398E-003;5.943285766988993E-003;
2.406000000000000E+009;1.916565150022507E-001;3.595543652772903E-002;-1.711967051960528E-003;6.025037728250027E-003;
2.406166666666667E+009;1.931658238172531E-001;3.579372167587280E-002;-1.717857783660293E-003;5.787695758044720E-003;
2.406333333333334E+009;1.942020356655121E-001;3.583026304841042E-002;-1.608162536285818E-003;5.859009455889463E-003;
2.406500000000000E+009;1.954554915428162E-001;3.597035631537437E-002;-1.429473282769322E-003;5.599733907729387E-003;
2.406666666666667E+009;1.964415013790131E-001;3.607118502259255E-002;-1.265396480448544E-003;5.683120805770159E-003;
2.406833333333334E+009;1.972787082195282E-001;3.601783514022827E-002;-1.031088409945369E-003;5.530259106308222E-003;
2.407000000000000E+009;1.978474557399750E-001;3.650444000959396E-002;-9.946881327778101E-004;5.432031583040953E-003;
2.407166666666667E+009;1.987379193305969E-001;3.648300841450691E-002;-8.772562141530216E-004;5.503049120306969E-003;
2.407333333333334E+009;1.987843811511993E-001;3.692803904414177E-002;-7.612644694745541E-004;5.352011881768704E-003;
2.407500000000000E+009;1.991932243108749E-001;3.732891380786896E-002;-8.920624968595803E-004;5.282961763441563E-003;
2.407666666666667E+009;1.993950009346008E-001;3.750836849212647E-002;-6.819100817665458E-004;5.306421313434839E-003;
2.407833333333334E+009;1.993632167577744E-001;3.765973076224327E-002;-7.503613014705479E-004;5.234831478446722E-003;
2.408000000000000E+009;1.994734853506088E-001;3.787633404135704E-002;-5.453285994008184E-004;5.165484268218279E-003;
2.408166666666667E+009;1.990725547075272E-001;3.795716539025307E-002;-5.489993491210043E-004;4.955070558935404E-003;
2.408333333333334E+009;1.987873762845993E-001;3.794815018773079E-002;-5.875257193110883E-004;5.079763941466808E-003;
2.408500000000000E+009;1.982410550117493E-001;3.798694536089897E-002;-6.678366335108876E-004;5.016765091568232E-003;
2.408666666666667E+009;1.977205425500870E-001;3.788353875279427E-002;-3.547790111042559E-004;5.073230713605881E-003;
2.408833333333334E+009;1.972124576568604E-001;3.753434866666794E-002;-4.323176690377295E-004;5.084202624857426E-003;
2.409000000000000E+009;1.962347030639648E-001;3.696033731102943E-002;-4.651367780752480E-004;5.078373011201620E-003;
2.409166666666667E+009;1.954799443483353E-001;3.644077852368355E-002;-5.349706625565887E-004;5.075646098703146E-003;
2.409333333333334E+009;1.944254487752914E-001;3.586766496300697E-002;-4.345297056715936E-004;5.263737868517637E-003;
2.409500000000000E+009;1.931908428668976E-001;3.491732478141785E-002;-4.461753414943814E-004;5.397983826696873E-003;
2.409666666666667E+009;1.921411901712418E-001;3.397822380065918E-002;-3.357281966600567E-004;5.516637582331896E-003;
2.409833333333334E+009;1.910086125135422E-001;3.294512629508972E-002;-2.482796553522348E-004;5.507623311132193E-003;
2.410000000000000E+009;1.898618191480637E-001;3.161780536174774E-002;-2.403326216153801E-004;5.700431764125824E-003;
2.410166666666667E+009;1.884568929672241E-001;3.003409504890442E-002;-4.465769961825572E-005;5.720309447497129E-003;
2.410333333333334E+009;1.873810738325119E-001;2.850093878805637E-002;2.126346953446046E-004;5.789188202470541E-003;
2.410500000000000E+009;1.860483586788178E-001;2.673890255391598E-002;2.498439280316234E-004;6.018983200192452E-003;
2.410666666666667E+009;1.849542409181595E-001;2.466602250933647E-002;6.827054312452674E-004;6.062848027795553E-003;
2.410833333333334E+009;1.841122210025787E-001;2.268348820507526E-002;8.125174208544195E-004;6.034211721271277E-003;
2.411000000000000E+009;1.828893721103668E-001;2.051328495144844E-002;9.854898089542985E-004;6.091489456593990E-003;
2.411166666666667E+009;1.819681525230408E-001;1.856644451618195E-002;1.245267805643380E-003;6.062272470444441E-003;
2.411333333333334E+009;1.810858994722366E-001;1.597944833338261E-002;1.358384499326348E-003;5.991572514176369E-003;
2.411500000000000E+009;1.802325993776321E-001;1.359493751078844E-002;1.688638352788985E-003;6.004780996590853E-003;
2.411666666666667E+009;1.797423213720322E-001;1.140018738806248E-002;1.868750434368849E-003;6.091045681387186E-003;
2.411833333333334E+009;1.792242377996445E-001;8.850716054439545E-003;2.045585541054606E-003;6.027113646268845E-003;
2.412000000000000E+009;1.789630502462387E-001;6.091282702982426E-003;2.368059474974871E-003;5.914068780839443E-003;
2.412166666666667E+009;1.788021624088287E-001;3.651038743555546E-003;2.432141220197082E-003;5.851825699210167E-003;
2.412333333333334E+009;1.787274330854416E-001;9.336263756267726E-004;2.619705162942410E-003;5.737572908401489E-003;
2.412500000000000E+009;1.787833273410797E-001;-1.642171177081764E-003;2.786119701340795E-003;5.519174039363861E-003;
2.412666666666667E+009;1.790108680725098E-001;-4.439632408320904E-003;3.034074790775776E-003;5.583333782851696E-003;
2.412833333333334E+009;1.794386357069016E-001;-6.956588942557573E-003;3.174105193465948E-003;5.543656181544066E-003;
2.413000000000000E+009;1.800260394811630E-001;-9.613995440304279E-003;3.517499659210444E-003;5.349291488528252E-003;
2.413166666666667E+009;1.805455237627029E-001;-1.214258093386889E-002;3.536825766786933E-003;5.117199849337339E-003;
2.413333333333334E+009;1.815319210290909E-001;-1.488352660089731E-002;3.736571641638875E-003;4.975279327481985E-003;
2.413500000000000E+009;1.822100281715393E-001;-1.752280816435814E-002;3.749542636796832E-003;4.676998592913151E-003;
2.413666666666667E+009;1.832708865404129E-001;-1.996794901788235E-002;3.933874890208244E-003;4.885117057710886E-003;
2.413833333333334E+009;1.843135803937912E-001;-2.224933356046677E-002;4.208088852465153E-003;4.606489557772875E-003;
2.414000000000000E+009;1.854258030653000E-001;-2.449890784919262E-002;4.292799159884453E-003;4.482585005462170E-003;
2.414166666666667E+009;1.867571473121643E-001;-2.683962509036064E-002;4.302428103983402E-003;4.348271992057562E-003;
2.414333333333334E+009;1.877471059560776E-001;-2.899078465998173E-002;4.412190057337284E-003;4.346169531345367E-003;
2.414500000000000E+009;1.891497373580933E-001;-3.077338449656963E-002;4.634215962141752E-003;4.008015152066946E-003;
2.414666666666667E+009;1.902965605258942E-001;-3.272818028926849E-002;4.693100694566965E-003;3.803578671067953E-003;
2.414833333333334E+009;1.916991770267487E-001;-3.422230482101440E-002;4.894047975540161E-003;3.716863691806793E-003;
2.415000000000000E+009;1.929986178874970E-001;-3.591323271393776E-002;4.851638339459896E-003;3.538354998454452E-003;
2.415166666666667E+009;1.944283396005631E-001;-3.723530843853951E-002;5.110331811010838E-003;3.415292361751199E-003;
2.415333333333334E+009;1.958221197128296E-001;-3.845766559243202E-002;5.213584750890732E-003;3.165489062666893E-003;
2.415500000000000E+009;1.972780823707581E-001;-3.953186795115471E-002;5.170146934688091E-003;2.992254216223955E-003;
2.415666666666667E+009;1.984233707189560E-001;-4.048639163374901E-002;5.356267560273409E-003;2.853497862815857E-003;
2.415833333333334E+009;1.995484828948975E-001;-4.138361662626267E-002;5.437705200165510E-003;2.653242787346244E-003;
2.416000000000000E+009;2.007007151842117E-001;-4.229170829057694E-002;5.376088432967663E-003;2.468449762091041E-003;
2.416166666666667E+009;2.016655951738358E-001;-4.286674782633781E-002;5.343674682080746E-003;2.246449235826731E-003;
2.416333333333334E+009;2.027094662189484E-001;-4.333175718784332E-002;5.417580716311932E-003;2.130493056029081E-003;
2.416500000000000E+009;2.034861594438553E-001;-4.352430999279022E-002;5.530660971999168E-003;1.896914327517152E-003;
2.416666666666667E+009;2.040256708860397E-001;-4.402146115899086E-002;5.502416286617518E-003;1.806885469704866E-003;
2.416833333333334E+009;2.045660167932510E-001;-4.416163638234139E-002;5.611043889075518E-003;1.791054382920265E-003;
2.417000000000000E+009;2.050570845603943E-001;-4.428341239690781E-002;5.657006055116653E-003;1.593255321495235E-003;
2.417166666666667E+009;2.049871534109116E-001;-4.402646049857140E-002;5.673717241734266E-003;1.574312918819487E-003;
2.417333333333334E+009;2.050369232892990E-001;-4.385980963706970E-002;5.759730469435453E-003;1.234948984347284E-003;
2.417500000000000E+009;2.050876915454865E-001;-4.371182993054390E-002;5.729484371840954E-003;1.208866131491959E-003;
2.417666666666667E+009;2.048899680376053E-001;-4.341366887092590E-002;5.711315665394068E-003;8.728604298084974E-004;
2.417833333333334E+009;2.047248184680939E-001;-4.307929798960686E-002;5.863468628376722E-003;8.417093195021153E-004;
2.418000000000000E+009;2.043167054653168E-001;-4.260245338082314E-002;6.009276956319809E-003;6.778324022889137E-004;
2.418166666666667E+009;2.037732005119324E-001;-4.227625206112862E-002;5.840740632265806E-003;5.276639712974429E-004;
2.418333333333334E+009;2.030213326215744E-001;-4.195959120988846E-002;5.815016571432352E-003;3.493199474178255E-004;
2.418500000000000E+009;2.023024857044220E-001;-4.165029153227806E-002;5.874677095562220E-003;6.268710421863943E-006;
2.418666666666667E+009;2.013599872589111E-001;-4.136585444211960E-002;5.792954936623573E-003;-1.263081503566355E-004;
2.418833333333334E+009;2.003543972969055E-001;-4.122371971607208E-002;5.797232501208782E-003;-1.799446908989921E-004;
2.419000000000000E+009;1.990634053945541E-001;-4.104147106409073E-002;5.583467893302441E-003;-5.295903538353741E-004;
2.419166666666667E+009;1.977583914995194E-001;-4.107348620891571E-002;5.645855795592070E-003;-6.520465249195695E-004;
2.419333333333334E+009;1.964889317750931E-001;-4.119370132684708E-002;5.437611136585474E-003;-8.059976971708238E-004;
2.419500000000000E+009;1.949948966503143E-001;-4.141581058502197E-002;5.448380485177040E-003;-1.019613002426922E-003;
2.419666666666667E+009;1.931874752044678E-001;-4.179583489894867E-002;5.366428755223751E-003;-9.782265406101942E-004;
2.419833333333334E+009;1.915641129016876E-001;-4.221022129058838E-002;5.274118855595589E-003;-1.088782795704901E-003;
2.420000000000000E+009;1.900700181722641E-001;-4.282217845320702E-002;5.092141684144735E-003;-1.422277302481234E-003;
2.420166666666667E+009;1.881717294454575E-001;-4.344435781240463E-002;5.154879763722420E-003;-1.443344168365002E-003;
2.420333333333334E+009;1.863500773906708E-001;-4.435819014906883E-002;5.005750805139542E-003;-1.406940515153110E-003;
2.420500000000000E+009;1.844197958707809E-001;-4.543445259332657E-002;5.030051339417696E-003;-1.468417933210731E-003;
2.420666666666667E+009;1.826281547546387E-001;-4.626873880624771E-002;4.934533964842558E-003;-1.544928178191185E-003;
2.420833333333334E+009;1.806489080190659E-001;-4.770179465413094E-002;4.875422921031714E-003;-1.627146266400814E-003;
2.421000000000000E+009;1.791719198226929E-001;-4.913003370165825E-002;4.966459702700377E-003;-1.791545655578375E-003;
2.421166666666667E+009;1.772126257419586E-001;-5.058681219816208E-002;4.884236026555300E-003;-1.803918858058751E-003;
2.421333333333334E+009;1.753508299589157E-001;-5.228163674473763E-002;4.871533252298832E-003;-1.896251109428704E-003;
2.421500000000000E+009;1.736551225185394E-001;-5.398629605770111E-002;4.938594065606594E-003;-1.955182757228613E-003;
2.421666666666667E+009;1.721540987491608E-001;-5.579610168933868E-002;4.824941977858543E-003;-2.002884633839130E-003;
2.421833333333334E+009;1.707954704761505E-001;-5.757421627640724E-002;4.809870384633541E-003;-2.249922836199403E-003;
2.422000000000000E+009;1.692590862512589E-001;-5.959621071815491E-002;4.651963245123625E-003;-2.314588986337185E-003;
2.422166666666667E+009;1.680882722139359E-001;-6.169566139578819E-002;4.720703698694706E-003;-2.558426233008504E-003;
2.422333333333334E+009;1.667013764381409E-001;-6.364407390356064E-002;4.579848144203425E-003;-2.483700634911656E-003;
2.422500000000000E+009;1.655802577733994E-001;-6.587768346071243E-002;4.682856146246195E-003;-2.630320377647877E-003;
2.422666666666667E+009;1.646943092346191E-001;-6.806544214487076E-002;4.451890476047993E-003;-2.773597836494446E-003;
2.422833333333334E+009;1.639968454837799E-001;-7.025397568941116E-002;4.469037521630526E-003;-2.913572592660785E-003;
2.423000000000000E+009;1.631736755371094E-001;-7.244082540273666E-002;4.273320082575083E-003;-2.926975954324007E-003;
2.423166666666667E+009;1.625877767801285E-001;-7.476473599672318E-002;4.270703066140413E-003;-2.900966210290790E-003;
2.423333333333334E+009;1.622634977102280E-001;-7.701482623815537E-002;4.086920060217381E-003;-3.094364423304796E-003;
2.423500000000000E+009;1.617909669876099E-001;-7.891885936260223E-002;4.201283678412437E-003;-3.186409361660481E-003;
2.423666666666667E+009;1.617625802755356E-001;-8.125159144401550E-002;4.129460547119379E-003;-3.391572972759605E-003;
2.423833333333334E+009;1.616648435592651E-001;-8.317338675260544E-002;3.979727160185576E-003;-3.286828286945820E-003;
2.424000000000000E+009;1.616841554641724E-001;-8.523756265640259E-002;4.041831474751234E-003;-3.454266348853707E-003;
2.424166666666667E+009;1.616032123565674E-001;-8.732178062200546E-002;3.870321670547128E-003;-3.553658025339246E-003;
2.424333333333334E+009;1.619826108217239E-001;-8.911412954330444E-002;3.792324569076300E-003;-3.661977825686336E-003;
2.424500000000000E+009;1.623463630676270E-001;-9.103082865476608E-002;3.845914965495467E-003;-3.756288206204772E-003;
2.424666666666667E+009;1.626260876655579E-001;-9.281433373689652E-002;3.708906937390566E-003;-3.790136193856597E-003;
2.424833333333334E+009;1.631581187248230E-001;-9.430681914091110E-002;3.725668415427208E-003;-4.053140990436077E-003;
2.425000000000000E+009;1.636915206909180E-001;-9.583035856485367E-002;3.463205648586154E-003;-4.282476380467415E-003;
2.425166666666667E+009;1.642287671566010E-001;-9.721174836158752E-002;3.395752981305122E-003;-4.311147145926952E-003;
2.425333333333334E+009;1.646466106176376E-001;-9.841198474168778E-002;3.267579013481736E-003;-4.489036742597818E-003;
2.425500000000000E+009;1.654214113950729E-001;-9.960981458425522E-002;3.180552506819367E-003;-4.445551428943873E-003;
2.425666666666667E+009;1.659577637910843E-001;-1.005365028977394E-001;3.183155553415418E-003;-4.765706136822701E-003;
2.425833333333334E+009;1.666383296251297E-001;-1.015119925141335E-001;2.967277541756630E-003;-4.893335513770580E-003;
2.426000000000000E+009;1.673006266355515E-001;-1.022473350167275E-001;2.733988920226693E-003;-4.862779285758734E-003;
2.426166666666667E+009;1.679000258445740E-001;-1.028811782598496E-001;2.654302166774869E-003;-5.000487901270390E-003;
2.426333333333334E+009;1.684031337499619E-001;-1.036217287182808E-001;2.484337426722050E-003;-5.116848275065422E-003;
2.426500000000000E+009;1.691160649061203E-001;-1.038635820150375E-001;2.343626227229834E-003;-5.196340382099152E-003;
2.426666666666667E+009;1.696713715791702E-001;-1.043697521090508E-001;2.176465000957251E-003;-5.268082488328219E-003;
2.426833333333334E+009;1.702709943056107E-001;-1.046938598155975E-001;1.883650314994156E-003;-5.270355846732855E-003;
2.427000000000000E+009;1.705142557621002E-001;-1.048433706164360E-001;1.841972349211574E-003;-5.327207967638969E-003;
2.427166666666667E+009;1.710876226425171E-001;-1.050674170255661E-001;1.630865968763828E-003;-5.447191651910543E-003;
2.427333333333334E+009;1.713132262229919E-001;-1.051820069551468E-001;1.590377767570317E-003;-5.510438233613968E-003;
2.427500000000000E+009;1.714484542608261E-001;-1.053222641348839E-001;1.235981821082532E-003;-5.603845231235027E-003;
2.427666666666667E+009;1.713776737451553E-001;-1.052326560020447E-001;1.050979481078684E-003;-5.519798491150141E-003;
2.427833333333334E+009;1.714086830615997E-001;-1.053412333130837E-001;9.954555425792933E-004;-5.649031139910221E-003;
