# Version 1.00
#
freq[Hz];re:Trc1_S11;im:Trc1_S11;re:Trc2_S21;im:Trc2_S21;
2.400000000000000E+009;1.582104116678238E-001;1.123555228114128E-001;-8.869867771863937E-003;3.988507378380746E-004;
2.400166666666667E+009;1.575282067060471E-001;1.101900339126587E-001;-8.727582171559334E-003;8.418271900154650E-004;
2.400333333333334E+009;1.573705524206162E-001;1.080057099461556E-001;-8.823056705296040E-003;1.034914283081889E-003;
2.400500000000000E+009;1.569678634405136E-001;1.053487509489059E-001;-8.421261794865131E-003;1.459201448597014E-003;
2.400666666666667E+009;1.565623283386231E-001;1.030206233263016E-001;-8.508030325174332E-003;1.478709746152163E-003;
2.400833333333334E+009;1.562737673521042E-001;1.001485213637352E-001;-8.327862247824669E-003;1.779353013262153E-003;
2.401000000000000E+009;1.561459153890610E-001;9.733036905527115E-002;-8.126037195324898E-003;2.212746301665902E-003;
2.401166666666667E+009;1.559595763683319E-001;9.457632154226303E-002;-8.135260082781315E-003;2.339565195143223E-003;
2.401333333333334E+009;1.560955196619034E-001;9.152051806449890E-002;-7.815677672624588E-003;2.563833491876721E-003;
2.401500000000000E+009;1.559426039457321E-001;8.852916210889816E-002;-7.609803229570389E-003;2.854459220543504E-003;
2.401666666666667E+009;1.560461074113846E-001;8.562780171632767E-002;-7.553110364824534E-003;3.053404390811920E-003;
2.401833333333334E+009;1.562325060367584E-001;8.255884051322937E-002;-7.405662909150124E-003;3.320538904517889E-003;
2.402000000000000E+009;1.568374633789063E-001;7.959032058715820E-002;-7.181538734585047E-003;3.409287193790078E-003;
2.402166666666667E+009;1.571549624204636E-001;7.677439600229263E-002;-7.178002968430519E-003;3.855593269690871E-003;
2.402333333333334E+009;1.578268259763718E-001;7.377947866916657E-002;-7.014195900410414E-003;3.990720026195049E-003;
2.402500000000000E+009;1.589531302452087E-001;7.083839923143387E-002;-6.560389883816242E-003;4.123399965465069E-003;
2.402666666666667E+009;1.597905606031418E-001;6.809180974960327E-002;-6.659187842160463E-003;4.166962578892708E-003;
2.402833333333334E+009;1.608061045408249E-001;6.519591063261032E-002;-6.434025242924690E-003;4.535035695880652E-003;
2.403000000000000E+009;1.621989607810974E-001;6.249210610985756E-002;-6.215597037225962E-003;4.754714202135801E-003;
2.403166666666667E+009;1.636884212493897E-001;5.998672544956207E-002;-5.972780287265778E-003;4.903022199869156E-003;
2.403333333333334E+009;1.650734841823578E-001;5.742350220680237E-002;-5.699313711374998E-003;4.964929074048996E-003;
2.403500000000000E+009;1.667826473712921E-001;5.498678237199783E-002;-5.447714589536190E-003;5.233276169747114E-003;
2.403666666666667E+009;1.685215830802918E-001;5.274204537272453E-002;-5.379072390496731E-003;5.248121451586485E-003;
2.403833333333334E+009;1.702018827199936E-001;5.034182965755463E-002;-4.950929433107376E-003;5.360222887247801E-003;
2.404000000000000E+009;1.716878563165665E-001;4.816710948944092E-002;-4.697544965893030E-003;5.680402275174856E-003;
2.404166666666667E+009;1.735804378986359E-001;4.627320542931557E-002;-4.602515138685703E-003;5.757118109613657E-003;
2.404333333333334E+009;1.751979440450668E-001;4.427630826830864E-002;-4.325055051594973E-003;5.709736142307520E-003;
2.404500000000000E+009;1.771451532840729E-001;4.270743206143379E-002;-3.985835239291191E-003;5.850323475897312E-003;
2.404666666666667E+009;1.790002882480621E-001;4.105118289589882E-002;-3.763100830838084E-003;6.025941576808691E-003;
2.404833333333334E+009;1.806803047657013E-001;3.980163112282753E-002;-3.553031478077173E-003;6.020179484039545E-003;
2.405000000000000E+009;1.821194440126419E-001;3.876651450991631E-002;-3.201851621270180E-003;6.034330930560827E-003;
2.405166666666667E+009;1.839772164821625E-001;3.771110624074936E-002;-2.976998453959823E-003;6.071667186915875E-003;
2.405333333333334E+009;1.856524348258972E-001;3.710367903113365E-002;-2.629547379910946E-003;5.974692292511463E-003;
2.405500000000000E+009;1.874110400676727E-001;3.657672926783562E-002;-2.499547088518739E-003;5.964475683867931E-003;
2.405666666666667E+009;1.889955103397369E-001;3.583579882979393E-002;-2.223595278337598E-003;6.062895990908146E-003;
2.405833333333334E+009;1.905239820480347E-001;3.560776636004448E-002;-2.140172990038991E-003;5.870208144187927E-003;
2.406000000000000E+009;1.918580830097199E-001;3.548625856637955E-002;-1.837268006056547E-003;5.942555144429207E-003;
2.406166666666667E+009;1.931824684143066E-001;3.522777557373047E-002;-1.606393605470657E-003;5.671099293977022E-003;
2.406333333333334E+009;1.944148242473602E-001;3.512248024344444E-002;-1.561028882861137E-003;5.744073074311018E-003;
2.406500000000000E+009;1.954205185174942E-001;3.532397747039795E-002;-1.412038109265268E-003;5.493239033967257E-003;
2.406666666666667E+009;1.963927745819092E-001;3.547194600105286E-002;-1.318429363891482E-003;5.479467101395130E-003;
2.406833333333334E+009;1.974209249019623E-001;3.565390408039093E-002;-1.095258165150881E-003;5.505951121449471E-003;
2.407000000000000E+009;1.980701237916946E-001;3.613478317856789E-002;-9.145704098045826E-004;5.374783650040627E-003;
2.407166666666667E+009;1.986239999532700E-001;3.600721433758736E-002;-1.050940016284585E-003;5.310137756168842E-003;
2.407333333333334E+009;1.990049183368683E-001;3.653381392359734E-002;-1.050572725944221E-003;5.228110589087009E-003;
2.407500000000000E+009;1.991140246391296E-001;3.679466992616653E-002;-8.687366498634219E-004;5.327817052602768E-003;
2.407666666666667E+009;1.994684338569641E-001;3.707757592201233E-002;-7.380176102742553E-004;5.125319585204125E-003;
2.407833333333334E+009;1.992535740137100E-001;3.731635212898254E-002;-6.734384223818779E-004;5.201624706387520E-003;
2.408000000000000E+009;1.994438171386719E-001;3.751695156097412E-002;-5.038192612119019E-004;5.129379685968161E-003;
2.408166666666667E+009;1.990540921688080E-001;3.767532110214233E-002;-5.330938729457557E-004;5.014596041291952E-003;
2.408333333333334E+009;1.987284421920776E-001;3.760124742984772E-002;-4.681506252381951E-004;4.991820547729731E-003;
2.408500000000000E+009;1.982613056898117E-001;3.757153823971748E-002;-5.924252327531576E-004;4.970576614141464E-003;
2.408666666666667E+009;1.977009773254395E-001;3.743568435311317E-002;-4.694845119956881E-004;4.990132991224527E-003;
2.408833333333334E+009;1.971151232719421E-001;3.716665133833885E-002;-4.831659898627549E-004;4.959445912390947E-003;
2.409000000000000E+009;1.961302757263184E-001;3.672680258750916E-002;-4.547812859527767E-004;5.001262761652470E-003;
2.409166666666667E+009;1.951462775468826E-001;3.610995784401894E-002;-4.437410680111498E-004;5.115449894219637E-003;
2.409333333333334E+009;1.942718476057053E-001;3.553243353962898E-002;-4.757093265652657E-004;5.276567302644253E-003;
2.409500000000000E+009;1.931242793798447E-001;3.458949550986290E-002;-3.793185169342905E-004;5.348706617951393E-003;
2.409666666666667E+009;1.920845955610275E-001;3.347118943929672E-002;-2.641901082824916E-004;5.419707857072353E-003;
2.409833333333334E+009;1.908567398786545E-001;3.237628936767578E-002;-2.523723815102130E-004;5.597694776952267E-003;
2.410000000000000E+009;1.896321922540665E-001;3.105960786342621E-002;-2.245512587251142E-005;5.604818928986788E-003;
2.410166666666667E+009;1.882208585739136E-001;2.962237223982811E-002;7.044227095320821E-005;5.742144305258989E-003;
2.410333333333334E+009;1.871915906667709E-001;2.802312746644020E-002;4.284106034901924E-005;5.866424180567265E-003;
2.410500000000000E+009;1.860052645206451E-001;2.651582099497318E-002;4.281447909306735E-004;6.003132089972496E-003;
2.410666666666667E+009;1.847380697727203E-001;2.429032698273659E-002;4.796545254066587E-004;6.013931706547737E-003;
2.410833333333334E+009;1.838729381561279E-001;2.226305194199085E-002;9.832064388319850E-004;6.023234687745571E-003;
2.411000000000000E+009;1.828180402517319E-001;2.013090066611767E-002;1.034384709782898E-003;6.130044348537922E-003;
2.411166666666667E+009;1.817752718925476E-001;1.823195070028305E-002;1.267141313292086E-003;6.049979478120804E-003;
2.411333333333334E+009;1.808368563652039E-001;1.572802849113941E-002;1.327528501860797E-003;6.166290957480669E-003;
2.411500000000000E+009;1.801169067621231E-001;1.310668233782053E-002;1.761610386893153E-003;5.994016304612160E-003;
2.411666666666667E+009;1.794873476028442E-001;1.092909276485443E-002;1.722323126159608E-003;5.999493878334761E-003;
2.411833333333334E+009;1.788938492536545E-001;8.434659801423550E-003;2.021314110606909E-003;5.927508231252432E-003;
2.412000000000000E+009;1.788676530122757E-001;5.688066594302654E-003;2.246006391942501E-003;5.826276261359453E-003;
2.412166666666667E+009;1.784782558679581E-001;3.255449701100588E-003;2.443655859678984E-003;5.746662151068449E-003;
2.412333333333334E+009;1.783540248870850E-001;6.141155026853085E-004;2.556620631366968E-003;5.707973614335060E-003;
2.412500000000000E+009;1.784435659646988E-001;-1.931848935782909E-003;2.742677694186568E-003;5.575255956500769E-003;
2.412666666666667E+009;1.786247789859772E-001;-4.618723876774311E-003;2.983899321407080E-003;5.504221655428410E-003;
2.412833333333334E+009;1.790871024131775E-001;-7.305104285478592E-003;3.285716520622373E-003;5.398275330662727E-003;
2.413000000000000E+009;1.794654130935669E-001;-1.003783289343119E-002;3.373509971424937E-003;5.359457805752754E-003;
2.413166666666667E+009;1.801916807889938E-001;-1.237369142472744E-002;3.633450949564576E-003;5.158532876521349E-003;
2.413333333333334E+009;1.812786161899567E-001;-1.507969386875629E-002;3.722268855199218E-003;5.125835072249174E-003;
2.413500000000000E+009;1.816610842943192E-001;-1.756967231631279E-002;3.853795584291220E-003;4.899346735328436E-003;
2.413666666666667E+009;1.829528510570526E-001;-2.021435834467411E-002;4.045688547194004E-003;4.779755603522062E-003;
2.413833333333334E+009;1.838967055082321E-001;-2.250847592949867E-002;4.067258909344673E-003;4.569691605865955E-003;
2.414000000000000E+009;1.849679797887802E-001;-2.476416155695915E-002;4.300749860703945E-003;4.399339668452740E-003;
2.414166666666667E+009;1.864216178655624E-001;-2.689782157540321E-002;4.292851313948631E-003;4.361995030194521E-003;
2.414333333333334E+009;1.873863041400909E-001;-2.918305806815624E-002;4.427779465913773E-003;4.382562823593617E-003;
2.414500000000000E+009;1.888357698917389E-001;-3.100358322262764E-002;4.652230534702539E-003;4.188293125480413E-003;
2.414666666666667E+009;1.900054067373276E-001;-3.271657973527908E-002;4.588981159031391E-003;3.904612502083182E-003;
2.414833333333334E+009;1.913943588733673E-001;-3.449916467070580E-002;4.783404991030693E-003;3.666307078674436E-003;
2.415000000000000E+009;1.926067769527435E-001;-3.609083965420723E-002;4.993169568479061E-003;3.631219733506441E-003;
2.415166666666667E+009;1.940541267395020E-001;-3.734652325510979E-002;4.991302266716957E-003;3.624603850767016E-003;
2.415333333333334E+009;1.953870356082916E-001;-3.857066109776497E-002;5.203214939683676E-003;3.144692629575729E-003;
2.415500000000000E+009;1.968383938074112E-001;-3.957524895668030E-002;5.207047797739506E-003;2.983525395393372E-003;
2.415666666666667E+009;1.980631798505783E-001;-4.064287990331650E-002;5.428319796919823E-003;2.998047508299351E-003;
2.415833333333334E+009;1.992139369249344E-001;-4.148194938898087E-002;5.334681365638971E-003;2.599094063043594E-003;
2.416000000000000E+009;2.003386467695236E-001;-4.216738417744637E-002;5.343682132661343E-003;2.498850692063570E-003;
2.416166666666667E+009;2.013164609670639E-001;-4.300278425216675E-002;5.293325055390596E-003;2.270287834107876E-003;
2.416333333333334E+009;2.023176699876785E-001;-4.344225674867630E-002;5.550040863454342E-003;2.344500040635467E-003;
2.416500000000000E+009;2.030016481876373E-001;-4.372568801045418E-002;5.410656332969666E-003;2.073109382763505E-003;
2.416666666666667E+009;2.036972492933273E-001;-4.413039609789848E-002;5.393089260905981E-003;1.802370650693774E-003;
2.416833333333334E+009;2.042035609483719E-001;-4.412985593080521E-002;5.512423813343048E-003;1.756240148097277E-003;
2.417000000000000E+009;2.046529203653336E-001;-4.429292678833008E-002;5.526520311832428E-003;1.569934771396220E-003;
2.417166666666667E+009;2.047164589166641E-001;-4.413026943802834E-002;5.640665069222450E-003;1.409246004186571E-003;
2.417333333333334E+009;2.047190666198731E-001;-4.382139071822166E-002;5.695025436580181E-003;1.280419528484345E-003;
2.417500000000000E+009;2.047766000032425E-001;-4.379363358020783E-002;5.772759206593037E-003;1.203495427034795E-003;
2.417666666666667E+009;2.044398635625839E-001;-4.339342191815376E-002;5.669682752341032E-003;1.091736252419651E-003;
2.417833333333334E+009;2.043230682611466E-001;-4.308635741472244E-002;5.765302572399378E-003;7.379442686215043E-004;
2.418000000000000E+009;2.039404511451721E-001;-4.257090389728546E-002;5.911929998546839E-003;7.080164505168796E-004;
2.418166666666667E+009;2.032850682735443E-001;-4.227250814437866E-002;5.821763537824154E-003;4.657128301914781E-004;
2.418333333333334E+009;2.026883363723755E-001;-4.185906425118446E-002;5.778440739959478E-003;3.100229077972472E-004;
2.418500000000000E+009;2.018870264291763E-001;-4.152740165591240E-002;5.869456101208925E-003;1.264607180928579E-005;
2.418666666666667E+009;2.010233402252197E-001;-4.128561168909073E-002;5.772963166236877E-003;-8.809388964436948E-005;
2.418833333333334E+009;1.999289095401764E-001;-4.100631549954414E-002;5.771181546151638E-003;-1.919412607094273E-004;
2.419000000000000E+009;1.986519396305084E-001;-4.098113253712654E-002;5.689410027116537E-003;-5.569675704464316E-004;
2.419166666666667E+009;1.974871307611466E-001;-4.089549183845520E-002;5.653972737491131E-003;-6.989882676862180E-004;
2.419333333333334E+009;1.961707323789597E-001;-4.110513627529144E-002;5.483787041157484E-003;-7.205671863630414E-004;
2.419500000000000E+009;1.946023106575012E-001;-4.120396450161934E-002;5.408095195889473E-003;-8.404441177845001E-004;
2.419666666666667E+009;1.930067539215088E-001;-4.161636531352997E-002;5.296713672578335E-003;-9.854014497250319E-004;
2.419833333333334E+009;1.913649141788483E-001;-4.220146313309670E-002;5.287708714604378E-003;-1.100223162211478E-003;
2.420000000000000E+009;1.897494047880173E-001;-4.263090342283249E-002;5.181555636227131E-003;-1.195089425891638E-003;
2.420166666666667E+009;1.880132257938385E-001;-4.328159242868424E-002;5.096460226923227E-003;-1.399660366587341E-003;
2.420333333333334E+009;1.861417442560196E-001;-4.418622702360153E-002;5.150510929524899E-003;-1.305483980104327E-003;
2.420500000000000E+009;1.842411905527115E-001;-4.527317732572556E-002;4.893469158560038E-003;-1.529957400634885E-003;
2.420666666666667E+009;1.824427247047424E-001;-4.619943350553513E-002;5.039137322455645E-003;-1.526766107417643E-003;
2.420833333333334E+009;1.805351674556732E-001;-4.755582660436630E-002;5.044995807111263E-003;-1.551596331410110E-003;
2.421000000000000E+009;1.787256449460983E-001;-4.873077943921089E-002;4.858978558331728E-003;-1.689170952886343E-003;
2.421166666666667E+009;1.771401166915894E-001;-5.046698451042175E-002;4.998343531042337E-003;-1.686084782704711E-003;
2.421333333333334E+009;1.751639395952225E-001;-5.176424607634544E-002;4.981962963938713E-003;-1.788544701412320E-003;
2.421500000000000E+009;1.734963357448578E-001;-5.356019362807274E-002;4.829380195587874E-003;-1.939433161169291E-003;
2.421666666666667E+009;1.719478219747543E-001;-5.553088337182999E-002;4.890082404017448E-003;-1.943861949257553E-003;
2.421833333333334E+009;1.704815924167633E-001;-5.740863829851151E-002;4.786155652254820E-003;-2.253978280350566E-003;
2.422000000000000E+009;1.689947992563248E-001;-5.923856794834137E-002;4.746183287352324E-003;-2.342843450605869E-003;
2.422166666666667E+009;1.678156405687332E-001;-6.146136671304703E-002;4.615681711584330E-003;-2.409025561064482E-003;
2.422333333333334E+009;1.665171682834625E-001;-6.361959874629974E-002;4.531404003500938E-003;-2.636064309626818E-003;
2.422500000000000E+009;1.655161380767822E-001;-6.568205356597900E-002;4.417617339640856E-003;-2.581844804808497E-003;
2.422666666666667E+009;1.645240783691406E-001;-6.779040396213532E-002;4.436436109244824E-003;-2.716317540034652E-003;
2.422833333333334E+009;1.637900620698929E-001;-7.003284245729446E-002;4.484761971980333E-003;-2.826778916642070E-003;
2.423000000000000E+009;1.630124896764755E-001;-7.224990427494049E-002;4.328703042119741E-003;-3.073321888223290E-003;
2.423166666666667E+009;1.624755561351776E-001;-7.456607371568680E-002;4.320573527365923E-003;-3.084126161411405E-003;
2.423333333333334E+009;1.620208919048309E-001;-7.660361379384995E-002;4.272924736142159E-003;-3.098089015111327E-003;
2.423500000000000E+009;1.617707014083862E-001;-7.877599447965622E-002;4.039255902171135E-003;-3.050117753446102E-003;
2.423666666666667E+009;1.618278920650482E-001;-8.093986660242081E-002;4.031761083751917E-003;-3.197738435119391E-003;
2.423833333333334E+009;1.615368276834488E-001;-8.299253135919571E-002;4.051020368933678E-003;-3.303788602352142E-003;
2.424000000000000E+009;1.617152392864227E-001;-8.501562476158142E-002;3.979346714913845E-003;-3.493679920211434E-003;
2.424166666666667E+009;1.615329980850220E-001;-8.687131851911545E-002;3.889373037964106E-003;-3.598284907639027E-003;
2.424333333333334E+009;1.617904603481293E-001;-8.878605067729950E-002;3.928792662918568E-003;-3.657791763544083E-003;
2.424500000000000E+009;1.622571349143982E-001;-9.091357886791229E-002;3.782628802582622E-003;-3.718752413988113E-003;
2.424666666666667E+009;1.625627726316452E-001;-9.256911277770996E-002;3.667172743007541E-003;-3.939442802220583E-003;
2.424833333333334E+009;1.632544994354248E-001;-9.407643973827362E-002;3.630206454545260E-003;-4.067601636052132E-003;
2.425000000000000E+009;1.636027693748474E-001;-9.548541158437729E-002;3.452276578173041E-003;-4.285801667720079E-003;
2.425166666666667E+009;1.640675663948059E-001;-9.681051969528198E-002;3.502461360767484E-003;-4.294423386454582E-003;
2.425333333333334E+009;1.645934432744980E-001;-9.816186130046845E-002;3.435695776715875E-003;-4.401756450533867E-003;
2.425500000000000E+009;1.653311997652054E-001;-9.937926381826401E-002;3.178918035700917E-003;-4.502973053604364E-003;
2.425666666666667E+009;1.659363955259323E-001;-1.003108918666840E-001;3.065214725211263E-003;-4.693740978837013E-003;
2.425833333333334E+009;1.666446030139923E-001;-1.013588383793831E-001;2.995291491970420E-003;-4.820100031793118E-003;
2.426000000000000E+009;1.672257930040360E-001;-1.019546836614609E-001;2.941001905128360E-003;-4.926986061036587E-003;
2.426166666666667E+009;1.679203510284424E-001;-1.026406213641167E-001;2.711706096306443E-003;-5.052384454756975E-003;
2.426333333333334E+009;1.683214008808136E-001;-1.033713743090630E-001;2.452790038660169E-003;-5.104274954646826E-003;
2.426500000000000E+009;1.692220419645309E-001;-1.037237569689751E-001;2.360288752242923E-003;-5.310297477990389E-003;
2.426666666666667E+009;1.697060465812683E-001;-1.041215062141419E-001;2.172224456444383E-003;-5.147131625562906E-003;
2.426833333333334E+009;1.703236699104309E-001;-1.045027300715447E-001;1.988717354834080E-003;-5.357140675187111E-003;
2.427000000000000E+009;1.706932336091995E-001;-1.047438904643059E-001;1.769441529177129E-003;-5.293323192745447E-003;
2.427166666666667E+009;1.710893511772156E-001;-1.048169583082199E-001;1.617896836251020E-003;-5.285157822072506E-003;
2.427333333333334E+009;1.713418662548065E-001;-1.050188243389130E-001;1.561325625516474E-003;-5.494870245456696E-003;
2.427500000000000E+009;1.714577227830887E-001;-1.051956340670586E-001;1.446306821890175E-003;-5.552669055759907E-003;
2.427666666666667E+009;1.715430468320847E-001;-1.051418036222458E-001;1.231235568411648E-003;-5.566517356783152E-003;
2.427833333333334E+009;1.714342832565308E-001;-1.051586344838142E-001;1.078461064025760E-003;-5.677061621099711E-003;
