# Version 1.00
#
freq[Hz];re:Trc1_S11;im:Trc1_S11;re:Trc2_S21;im:Trc2_S21;
2.400000000000000E+009;1.581692099571228E-001;6.262809783220291E-002;-1.848550280556083E-003;-6.079404847696424E-004;
2.400166666666667E+009;1.581898331642151E-001;6.101388111710548E-002;-1.914850552566350E-003;-3.640358045231551E-004;
2.400333333333334E+009;1.579710096120834E-001;5.894049257040024E-002;-1.941759837791324E-003;-4.649537440855056E-004;
2.400500000000000E+009;1.581342220306397E-001;5.723934620618820E-002;-1.729603274725378E-003;-4.673959338106215E-004;
2.400666666666667E+009;1.581085473299027E-001;5.502438917756081E-002;-1.877068425528705E-003;-3.087724035140127E-004;
2.400833333333334E+009;1.581489592790604E-001;5.316071957349777E-002;-1.822428544983268E-003;-2.718782052397728E-004;
2.401000000000000E+009;1.583793312311173E-001;5.133476853370667E-002;-1.633631880395114E-003;-7.198856474133208E-005;
2.401166666666667E+009;1.586092561483383E-001;4.902608692646027E-002;-1.685648807324469E-003;-1.725790934870020E-004;
2.401333333333334E+009;1.586138159036636E-001;4.697955027222633E-002;-1.892485423013568E-003;-8.219202572945505E-005;
2.401500000000000E+009;1.590482443571091E-001;4.498202353715897E-002;-1.705433474853635E-003;-1.014710578601807E-004;
2.401666666666667E+009;1.594330072402954E-001;4.295727610588074E-002;-1.575251109898090E-003;-1.822420199459884E-005;
2.401833333333334E+009;1.596363037824631E-001;4.095621407032013E-002;-1.627499237656593E-003;1.734773104544729E-004;
2.402000000000000E+009;1.599206775426865E-001;3.905544057488442E-002;-1.522793318144977E-003;3.448284114710987E-004;
2.402166666666667E+009;1.606816947460175E-001;3.694561496376991E-002;-1.644198200665414E-003;2.201135066570714E-004;
2.402333333333334E+009;1.612182408571243E-001;3.520012274384499E-002;-1.459629507735372E-003;3.668668796308339E-004;
2.402500000000000E+009;1.619408875703812E-001;3.324903175234795E-002;-1.478697173297405E-003;3.049786610063165E-004;
2.402666666666667E+009;1.625214368104935E-001;3.154383227229118E-002;-1.396385603584349E-003;3.629554121289402E-004;
2.402833333333334E+009;1.633323132991791E-001;2.984017506241798E-002;-1.167385722510517E-003;5.057981470599771E-004;
2.403000000000000E+009;1.640485674142838E-001;2.817691490054131E-002;-1.186740817502141E-003;5.090474733151496E-004;
2.403166666666667E+009;1.650869548320770E-001;2.661786042153835E-002;-1.112501020543277E-003;4.997912910766900E-004;
2.403333333333334E+009;1.660455465316773E-001;2.536482922732830E-002;-1.062829513102770E-003;4.832709091715515E-004;
2.403500000000000E+009;1.669547259807587E-001;2.385655976831913E-002;-1.138823339715600E-003;5.973624065518379E-004;
2.403666666666667E+009;1.679739654064179E-001;2.227750606834889E-002;-9.864849271252751E-004;6.495560519397259E-004;
2.403833333333334E+009;1.688036173582077E-001;2.103103511035442E-002;-1.059086411260068E-003;6.644719396717846E-004;
2.404000000000000E+009;1.697072535753250E-001;2.001030184328556E-002;-6.324310670606792E-004;7.291368092410266E-004;
2.404166666666667E+009;1.706107556819916E-001;1.868660934269428E-002;-6.968758534640074E-004;6.957913283258677E-004;
2.404333333333334E+009;1.715898811817169E-001;1.784054003655911E-002;-6.012736121192575E-004;8.234188426285982E-004;
2.404500000000000E+009;1.724717319011688E-001;1.677991263568401E-002;-7.208887254819274E-004;5.453057819977403E-004;
2.404666666666667E+009;1.733365058898926E-001;1.588227972388268E-002;-5.618866998702288E-004;5.411632591858506E-004;
2.404833333333334E+009;1.742622852325440E-001;1.510456111282110E-002;-3.208453126717359E-004;3.974568389821798E-004;
2.405000000000000E+009;1.752116531133652E-001;1.444610673934221E-002;-4.516663611866534E-004;4.574184422381222E-004;
2.405166666666667E+009;1.761148422956467E-001;1.368486788123846E-002;-3.266953863203526E-004;4.849194956477732E-004;
2.405333333333334E+009;1.767527461051941E-001;1.306933071464300E-002;-3.195895405951887E-004;3.474109980743378E-004;
2.405500000000000E+009;1.774003654718399E-001;1.272750739008188E-002;-3.978584718424827E-004;4.679777775891125E-004;
2.405666666666667E+009;1.781006157398224E-001;1.228439901024103E-002;-2.777462068479508E-004;2.881071413867176E-004;
2.405833333333334E+009;1.785785108804703E-001;1.191271375864744E-002;-2.899586979765445E-004;2.969463821500540E-004;
2.406000000000000E+009;1.791801154613495E-001;1.130049955099821E-002;-4.226789460517466E-004;2.336257748538628E-004;
2.406166666666667E+009;1.794568598270416E-001;1.120934728533030E-002;-3.705270064529032E-004;1.303253375226632E-004;
2.406333333333334E+009;1.799046695232391E-001;1.087361667305231E-002;-4.693562223110348E-004;2.311965363333002E-004;
2.406500000000000E+009;1.802718788385391E-001;1.048778370022774E-002;-3.174825105816126E-004;1.276781404158101E-004;
2.406666666666667E+009;1.803170740604401E-001;1.031667180359364E-002;-3.365313750691712E-004;-8.815200271783397E-005;
2.406833333333334E+009;1.805757731199265E-001;9.929165244102478E-003;-3.901005838997662E-004;1.133783553086687E-005;
2.407000000000000E+009;1.806502938270569E-001;9.558622725307941E-003;-4.608653252944350E-004;5.651862738886848E-005;
2.407166666666667E+009;1.807223111391068E-001;9.241573512554169E-003;-3.808906476479024E-004;1.446292153559625E-004;
2.407333333333334E+009;1.804442554712296E-001;8.801828138530254E-003;-4.940609796904028E-004;7.504793029511347E-005;
2.407500000000000E+009;1.802439242601395E-001;8.403985761106014E-003;-5.040701944380999E-004;1.050370774464682E-004;
2.407666666666667E+009;1.801582574844360E-001;7.960943505167961E-003;-4.697699332609773E-004;-5.184066321817227E-005;
2.407833333333334E+009;1.795556843280792E-001;7.169608492404223E-003;-4.351152747403830E-004;2.960431265819352E-005;
2.408000000000000E+009;1.793006956577301E-001;6.617741193622351E-003;-4.331163072492927E-004;-2.525902527850121E-005;
2.408166666666667E+009;1.789837926626205E-001;6.165599450469017E-003;-4.166774742770940E-004;1.749838265823200E-004;
2.408333333333334E+009;1.786681264638901E-001;5.478456616401672E-003;-5.525699816644192E-004;1.154946294263937E-004;
2.408500000000000E+009;1.779908388853073E-001;4.492914769798517E-003;-5.701659829355776E-004;9.013384442368988E-006;
2.408666666666667E+009;1.773372292518616E-001;3.628800623118877E-003;-5.062963464297354E-004;-1.272091935788922E-006;
2.408833333333334E+009;1.766512095928192E-001;2.553987083956599E-003;-5.934316432103515E-004;1.003568104351871E-004;
2.409000000000000E+009;1.759130954742432E-001;1.516483025625348E-003;-5.389258149079979E-004;1.157113874796778E-004;
2.409166666666667E+009;1.753914356231690E-001;4.310454532969743E-004;-5.245825159363449E-004;1.297414273722097E-004;
2.409333333333334E+009;1.747951209545136E-001;-7.906270329840481E-004;-4.353446420282126E-004;4.772424654220231E-005;
2.409500000000000E+009;1.739860326051712E-001;-2.256641862913966E-003;-3.905804187525064E-004;4.950990387442289E-006;
2.409666666666667E+009;1.733358502388001E-001;-3.541277954354882E-003;-4.285860050003976E-004;1.654525112826377E-005;
2.409833333333334E+009;1.726307123899460E-001;-4.949223715811968E-003;-4.049605049658567E-004;2.189004007959738E-004;
2.410000000000000E+009;1.720377653837204E-001;-6.528270430862904E-003;-4.613666969817132E-004;-3.720929953487939E-006;
2.410166666666667E+009;1.714831590652466E-001;-8.138469420373440E-003;-4.703388840425760E-004;-1.963294198503718E-004;
2.410333333333334E+009;1.708131879568100E-001;-9.760152548551559E-003;-5.257083685137332E-004;-1.306609010498505E-005;
2.410500000000000E+009;1.702885925769806E-001;-1.138085406273603E-002;-4.133686597924680E-004;7.944856042740867E-005;
2.410666666666667E+009;1.698747426271439E-001;-1.322514191269875E-002;-4.072839219588786E-004;-2.375880740146386E-006;
2.410833333333334E+009;1.695766448974609E-001;-1.495626382529736E-002;-2.538806002121419E-004;-2.069635047519114E-005;
2.411000000000000E+009;1.691088527441025E-001;-1.695162616670132E-002;-5.879538366571069E-004;-1.040391362039372E-004;
2.411166666666667E+009;1.684728860855103E-001;-1.891997456550598E-002;-5.938452086411417E-004;-1.306516933254898E-004;
2.411333333333334E+009;1.683186590671539E-001;-2.074535377323628E-002;-5.724347429350019E-004;7.425880539813079E-006;
2.411500000000000E+009;1.681414395570755E-001;-2.265169657766819E-002;-6.739976815879345E-004;-2.295450831297785E-004;
2.411666666666667E+009;1.682992726564407E-001;-2.458907663822174E-002;-7.203977438621223E-004;-9.385392331751064E-005;
2.411833333333334E+009;1.681226789951325E-001;-2.656205743551254E-002;-7.409536046907306E-004;-1.120602828450501E-004;
2.412000000000000E+009;1.682622730731964E-001;-2.851723879575729E-002;-6.709770532324910E-004;-1.941796072060242E-004;
2.412166666666667E+009;1.683640331029892E-001;-3.040074557065964E-002;-9.517993894405663E-004;-1.976462808670476E-004;
2.412333333333334E+009;1.685794442892075E-001;-3.221758455038071E-002;-8.960983832366765E-004;-2.941737475339323E-004;
2.412500000000000E+009;1.686220467090607E-001;-3.427706286311150E-002;-9.399754344485700E-004;-2.369356516283006E-004;
2.412666666666667E+009;1.691494435071945E-001;-3.634741529822350E-002;-9.063280303962529E-004;-1.462205982534215E-004;
2.412833333333334E+009;1.694477796554565E-001;-3.798890858888626E-002;-1.038977527059615E-003;-6.886127721372759E-006;
2.413000000000000E+009;1.698401719331741E-001;-3.963200002908707E-002;-1.050923485308886E-003;-8.105220331344754E-005;
2.413166666666667E+009;1.701564639806747E-001;-4.152481257915497E-002;-1.030334271490574E-003;1.839475771703292E-005;
2.413333333333334E+009;1.706665903329849E-001;-4.313478618860245E-002;-1.222377992235124E-003;6.700913218082860E-006;
2.413500000000000E+009;1.711981296539307E-001;-4.476029798388481E-002;-1.176384044811130E-003;6.797010428272188E-005;
2.413666666666667E+009;1.718349605798721E-001;-4.639277234673500E-002;-1.142513123340905E-003;5.869253436685540E-005;
2.413833333333334E+009;1.723272800445557E-001;-4.796965420246124E-002;-1.223372295498848E-003;1.263050799025223E-004;
2.414000000000000E+009;1.728771477937698E-001;-4.911186173558235E-002;-1.254086499102414E-003;1.789873640518636E-004;
2.414166666666667E+009;1.735069006681442E-001;-5.048649758100510E-002;-1.329746097326279E-003;2.268280950374901E-004;
2.414333333333334E+009;1.740530580282211E-001;-5.167884379625320E-002;-1.025410601869226E-003;3.067530924454331E-004;
2.414500000000000E+009;1.748594343662262E-001;-5.284705385565758E-002;-1.318702939897776E-003;4.252065264154226E-004;
2.414666666666667E+009;1.752260327339172E-001;-5.384095013141632E-002;-1.280899858102202E-003;4.591126926243305E-004;
2.414833333333334E+009;1.755999624729157E-001;-5.471179261803627E-002;-1.305714482441545E-003;4.404052451718599E-004;
2.415000000000000E+009;1.761327385902405E-001;-5.562989413738251E-002;-1.111996010877192E-003;5.321668577380478E-004;
2.415166666666667E+009;1.765345036983490E-001;-5.640175938606262E-002;-1.287107472307980E-003;5.311894929036498E-004;
2.415333333333334E+009;1.769835203886032E-001;-5.726212635636330E-002;-1.287293038330972E-003;6.515222485177219E-004;
2.415500000000000E+009;1.773423105478287E-001;-5.777324363589287E-002;-1.348370686173439E-003;6.331136100925505E-004;
2.415666666666667E+009;1.775648295879364E-001;-5.828946083784103E-002;-1.263686106540263E-003;8.683140040375292E-004;
2.415833333333334E+009;1.778424680233002E-001;-5.881384760141373E-002;-1.312324660830200E-003;8.017377112992108E-004;
2.416000000000000E+009;1.777621060609818E-001;-5.915861204266548E-002;-1.319473492912948E-003;9.395587840117514E-004;
2.416166666666667E+009;1.780527085065842E-001;-5.954218655824661E-002;-1.277625211514533E-003;9.795164223760366E-004;
2.416333333333334E+009;1.779187172651291E-001;-5.999226868152618E-002;-1.260831486433744E-003;9.710982558317483E-004;
2.416500000000000E+009;1.777423620223999E-001;-6.019768118858337E-002;-1.271513989195228E-003;9.440147550776601E-004;
2.416666666666667E+009;1.775109320878983E-001;-6.036309525370598E-002;-1.316020963713527E-003;1.152804936282337E-003;
2.416833333333334E+009;1.772919893264771E-001;-6.071914359927177E-002;-1.192575087770820E-003;1.103998511098325E-003;
2.417000000000000E+009;1.768606305122376E-001;-6.086416542530060E-002;-1.298967865295708E-003;1.345567172393203E-003;
2.417166666666667E+009;1.763640791177750E-001;-6.101929396390915E-002;-1.144660869613290E-003;1.104266848415136E-003;
2.417333333333334E+009;1.759432703256607E-001;-6.116160750389099E-002;-1.120998989790678E-003;1.338474219664931E-003;
2.417500000000000E+009;1.751833558082581E-001;-6.152969598770142E-002;-1.059617497958243E-003;1.338902278803289E-003;
2.417666666666667E+009;1.747033298015595E-001;-6.163216382265091E-002;-9.079982992261648E-004;1.519094337709248E-003;
2.417833333333334E+009;1.738647520542145E-001;-6.183389201760292E-002;-9.968872182071209E-004;1.523761078715324E-003;
2.418000000000000E+009;1.729322224855423E-001;-6.231166794896126E-002;-1.059758593328297E-003;1.535784918814898E-003;
2.418166666666667E+009;1.720624715089798E-001;-6.251091510057449E-002;-9.355662623420358E-004;1.569091458804905E-003;
2.418333333333334E+009;1.712274551391602E-001;-6.292349100112915E-002;-9.461408481001854E-004;1.671704696491361E-003;
2.418500000000000E+009;1.701225042343140E-001;-6.325219571590424E-002;-8.125262684188783E-004;1.745063113048673E-003;
2.418666666666667E+009;1.691505163908005E-001;-6.385077536106110E-002;-7.259618141688407E-004;1.771715353243053E-003;
2.418833333333334E+009;1.678165942430496E-001;-6.443607062101364E-002;-8.400306687690318E-004;1.681374153122306E-003;
2.419000000000000E+009;1.666095256805420E-001;-6.515868753194809E-002;-5.749055417254567E-004;1.829038490541279E-003;
2.419166666666667E+009;1.654738336801529E-001;-6.570647656917572E-002;-5.587242194451392E-004;1.894860761240125E-003;
2.419333333333334E+009;1.642003059387207E-001;-6.626602262258530E-002;-4.309485375415534E-004;1.872273511253297E-003;
2.419500000000000E+009;1.629688739776611E-001;-6.733777374029160E-002;-4.627143789548427E-004;1.871997956186533E-003;
2.419666666666667E+009;1.619399785995483E-001;-6.822466105222702E-002;-3.683811228256673E-004;1.964452443644404E-003;
2.419833333333334E+009;1.607058942317963E-001;-6.905430555343628E-002;-3.662398376036435E-004;1.874181558378041E-003;
2.420000000000000E+009;1.597211956977844E-001;-7.005631923675537E-002;-4.250610072631389E-004;2.034560777246952E-003;
2.420166666666667E+009;1.584033817052841E-001;-7.124652713537216E-002;-3.069698868785054E-004;2.006863476708531E-003;
2.420333333333334E+009;1.573583334684372E-001;-7.258226722478867E-002;-2.090654306812212E-004;1.903487485833466E-003;
2.420500000000000E+009;1.564850360155106E-001;-7.363180816173554E-002;-2.523362636566162E-004;1.994907390326262E-003;
2.420666666666667E+009;1.555211246013641E-001;-7.502976059913635E-002;-1.053302548825741E-004;2.083812141790986E-003;
2.420833333333334E+009;1.545068323612213E-001;-7.643802464008331E-002;-1.677770924288780E-004;2.104654442518950E-003;
2.421000000000000E+009;1.535436064004898E-001;-7.805659621953964E-002;-2.776060500764288E-005;1.992234261706471E-003;
2.421166666666667E+009;1.528121083974838E-001;-7.943584024906158E-002;-3.015858055732679E-005;2.137735951691866E-003;
2.421333333333334E+009;1.522799581289291E-001;-8.113994449377060E-002;-2.260912197016296E-006;2.050139708444476E-003;
2.421500000000000E+009;1.515433490276337E-001;-8.266527950763702E-002;1.428660179954022E-004;2.096770564094186E-003;
2.421666666666667E+009;1.508174836635590E-001;-8.438492566347122E-002;1.110891535063274E-004;2.212037099525333E-003;
2.421833333333334E+009;1.506514102220535E-001;-8.584509044885635E-002;2.257036685477942E-004;2.133408794179559E-003;
2.422000000000000E+009;1.499956399202347E-001;-8.776940405368805E-002;3.262809186708182E-004;2.014794619753957E-003;
2.422166666666667E+009;1.500753611326218E-001;-8.960273861885071E-002;2.306808455614373E-004;2.183635253459215E-003;
2.422333333333334E+009;1.496991664171219E-001;-9.103833884000778E-002;3.662621020339429E-004;2.149262698367238E-003;
2.422500000000000E+009;1.495780050754547E-001;-9.277018159627914E-002;4.037250764667988E-004;2.070751506835222E-003;
2.422666666666667E+009;1.493785530328751E-001;-9.451949596405029E-002;6.610393174923956E-004;2.047897782176733E-003;
2.422833333333334E+009;1.496913731098175E-001;-9.635594487190247E-002;6.061370950192213E-004;2.132173161953688E-003;
2.423000000000000E+009;1.495572477579117E-001;-9.800808131694794E-002;7.007980602793396E-004;2.339998027309775E-003;
2.423166666666667E+009;1.499575078487396E-001;-9.962037950754166E-002;6.795570952817798E-004;2.390558365732431E-003;
2.423333333333334E+009;1.501625627279282E-001;-1.009830236434937E-001;7.838494493626058E-004;2.477487549185753E-003;
2.423500000000000E+009;1.503985524177551E-001;-1.027890741825104E-001;1.142648165114224E-003;2.230410464107990E-003;
2.423666666666667E+009;1.505875289440155E-001;-1.043041050434113E-001;1.186854089610279E-003;2.276620361953974E-003;
2.423833333333334E+009;1.512774229049683E-001;-1.057922169566155E-001;1.103446120396256E-003;2.296993276104331E-003;
2.424000000000000E+009;1.514549851417542E-001;-1.070951744914055E-001;1.291656284593046E-003;2.125000115483999E-003;
2.424166666666667E+009;1.517409235239029E-001;-1.083558276295662E-001;1.567972940392792E-003;2.255239756777883E-003;
2.424333333333334E+009;1.523920297622681E-001;-1.095120757818222E-001;1.568119390867651E-003;2.242759568616748E-003;
2.424500000000000E+009;1.530585139989853E-001;-1.106868684291840E-001;1.904611010104418E-003;2.236062427982688E-003;
2.424666666666667E+009;1.534862518310547E-001;-1.116777583956718E-001;1.815143041312695E-003;2.134077483788133E-003;
2.424833333333334E+009;1.537872850894928E-001;-1.127047315239906E-001;1.768388669006527E-003;2.130988286808133E-003;
2.425000000000000E+009;1.542839109897614E-001;-1.136701777577400E-001;1.845086575485766E-003;2.132722642272711E-003;
2.425166666666667E+009;1.545808017253876E-001;-1.144263595342636E-001;1.961807720363140E-003;2.043918007984757E-003;
2.425333333333334E+009;1.550663858652115E-001;-1.151730418205261E-001;2.238754881545901E-003;2.004885347560048E-003;
2.425500000000000E+009;1.554916203022003E-001;-1.158579289913178E-001;2.241411479189992E-003;1.924455398693681E-003;
2.425666666666667E+009;1.556407511234283E-001;-1.163795292377472E-001;2.400499535724521E-003;1.498482073657215E-003;
2.425833333333334E+009;1.559951007366180E-001;-1.168957203626633E-001;2.526099095121026E-003;1.759613165631890E-003;
2.426000000000000E+009;1.561617702245712E-001;-1.173652336001396E-001;2.616403624415398E-003;1.478882622905076E-003;
2.426166666666667E+009;1.564766019582748E-001;-1.179069504141808E-001;2.603723434731364E-003;1.404824550263584E-003;
2.426333333333334E+009;1.564665585756302E-001;-1.181835308670998E-001;2.641142578795552E-003;1.358097884804010E-003;
2.426500000000000E+009;1.564524322748184E-001;-1.183419600129128E-001;2.702056197449565E-003;1.264853985048831E-003;
2.426666666666667E+009;1.564460545778275E-001;-1.184359416365624E-001;2.744468860328198E-003;1.261553377844393E-003;
2.426833333333334E+009;1.562208831310272E-001;-1.186833530664444E-001;2.991590183228254E-003;1.009665895253420E-003;
2.427000000000000E+009;1.559644341468811E-001;-1.188947334885597E-001;3.042113501578569E-003;8.284770301543176E-004;
2.427166666666667E+009;1.555470079183579E-001;-1.188356950879097E-001;2.988187596201897E-003;7.922779186628759E-004;
2.427333333333334E+009;1.550650745630264E-001;-1.189061328768730E-001;3.147801849991083E-003;6.657714257016778E-004;
2.427500000000000E+009;1.547225564718247E-001;-1.190681383013725E-001;3.155641024932265E-003;5.037841037847102E-004;
2.427666666666667E+009;1.538886278867722E-001;-1.192547678947449E-001;3.077558008953929E-003;5.108435289002955E-004;
