# Version 1.00
#
freq[Hz];re:Trc1_S11;im:Trc1_S11;re:Trc2_S21;im:Trc2_S21;
2.400000000000000E+009;1.581979990005493E-001;6.253182888031006E-002;-1.913883257657290E-003;-5.433210753835738E-004;
2.400166666666667E+009;1.581408381462097E-001;6.091517955064774E-002;-1.753865974023938E-003;-7.137815700843930E-004;
2.400333333333334E+009;1.581773757934570E-001;5.896004661917687E-002;-1.924228854477406E-003;-5.229874514043331E-004;
2.400500000000000E+009;1.581299602985382E-001;5.719598010182381E-002;-1.862909994088113E-003;-2.938973775599152E-004;
2.400666666666667E+009;1.580578684806824E-001;5.516399443149567E-002;-1.951940823346376E-003;-3.954500716645271E-004;
2.400833333333334E+009;1.580903828144074E-001;5.319944769144058E-002;-1.826055697165430E-003;-2.805882540997118E-004;
2.401000000000000E+009;1.583996713161469E-001;5.102563276886940E-002;-1.876933616586030E-003;-2.018181694438681E-004;
2.401166666666667E+009;1.584298759698868E-001;4.902581125497818E-002;-1.789876609109342E-003;-8.835605694912374E-005;
2.401333333333334E+009;1.585253775119782E-001;4.698722809553146E-002;-1.884025870822370E-003;-8.580945723224431E-005;
2.401500000000000E+009;1.590855419635773E-001;4.500066116452217E-002;-1.632491359487176E-003;2.712178866204340E-005;
2.401666666666667E+009;1.593623012304306E-001;4.302647337317467E-002;-1.628241385333240E-003;2.221033355453983E-004;
2.401833333333334E+009;1.597866415977478E-001;4.089592397212982E-002;-1.606272533535957E-003;1.100775334634818E-004;
2.402000000000000E+009;1.601008474826813E-001;3.897558525204659E-002;-1.721774344332516E-003;2.102374273817986E-004;
2.402166666666667E+009;1.607211232185364E-001;3.674088418483734E-002;-1.628250931389630E-003;3.870177315548062E-004;
2.402333333333334E+009;1.611711084842682E-001;3.509136289358139E-002;-1.438402105122805E-003;4.438414762262255E-004;
2.402500000000000E+009;1.621507108211517E-001;3.332461044192314E-002;-1.392673817463219E-003;5.114129162393510E-004;
2.402666666666667E+009;1.627208441495895E-001;3.144743666052818E-002;-1.428514369763434E-003;5.393355968408287E-004;
2.402833333333334E+009;1.633887737989426E-001;2.965591475367546E-002;-1.275316462852061E-003;6.519783637486398E-004;
2.403000000000000E+009;1.644000709056854E-001;2.829932980239391E-002;-1.360389986075461E-003;5.713226855732501E-004;
2.403166666666667E+009;1.651563644409180E-001;2.656196616590023E-002;-1.169818337075412E-003;7.249197806231678E-004;
2.403333333333334E+009;1.661227047443390E-001;2.509448304772377E-002;-1.175438985228539E-003;5.573750240728259E-004;
2.403500000000000E+009;1.668054312467575E-001;2.377496846020222E-002;-9.055910632014275E-004;6.149405962787569E-004;
2.403666666666667E+009;1.677599400281906E-001;2.220571599900723E-002;-7.908941479399800E-004;6.294057820923626E-004;
2.403833333333334E+009;1.687092036008835E-001;2.097219787538052E-002;-8.131450740620494E-004;6.296540959738195E-004;
2.404000000000000E+009;1.696664243936539E-001;1.984462700784206E-002;-6.976348231546581E-004;6.811893545091152E-004;
2.404166666666667E+009;1.705809831619263E-001;1.859593950212002E-002;-6.522773182950914E-004;7.245887536555529E-004;
2.404333333333334E+009;1.716430783271790E-001;1.758039556443691E-002;-4.811822436749935E-004;5.754470475949347E-004;
2.404500000000000E+009;1.723252385854721E-001;1.676227897405624E-002;-5.493749049492180E-004;6.715809577144682E-004;
2.404666666666667E+009;1.734077334403992E-001;1.595938764512539E-002;-4.954316536895931E-004;6.008744821883738E-004;
2.404833333333334E+009;1.743246018886566E-001;1.517986692488194E-002;-3.193326410837472E-004;5.762667860835791E-004;
2.405000000000000E+009;1.750668585300446E-001;1.441990118473768E-002;-2.990970970131457E-004;5.163706955499947E-004;
2.405166666666667E+009;1.759624332189560E-001;1.375178620219231E-002;-4.466819809749723E-004;3.595618181861937E-004;
2.405333333333334E+009;1.767158061265945E-001;1.304734498262405E-002;-3.901433956343681E-004;4.133166221436113E-004;
2.405500000000000E+009;1.774648278951645E-001;1.267855148762465E-002;-3.354077343828976E-004;3.586641687434167E-004;
2.405666666666667E+009;1.780613213777542E-001;1.216112077236176E-002;-2.579046704340726E-004;3.480944724287838E-004;
2.405833333333334E+009;1.783805787563324E-001;1.190869137644768E-002;-3.036501875612885E-004;2.502519055269659E-004;
2.406000000000000E+009;1.791503429412842E-001;1.144022587686777E-002;-3.587930405046791E-004;3.480917075648904E-004;
2.406166666666667E+009;1.794712245464325E-001;1.126894913613796E-002;-2.468039165250957E-004;2.719498297665268E-004;
2.406333333333334E+009;1.800615489482880E-001;1.086641103029251E-002;-3.032342065125704E-004;1.955025945790112E-004;
2.406500000000000E+009;1.801534742116928E-001;1.049830578267574E-002;-4.479454073589295E-004;4.670647831517272E-005;
2.406666666666667E+009;1.802145987749100E-001;1.022618170827627E-002;-3.209171118214726E-004;7.236845704028383E-005;
2.406833333333334E+009;1.805334985256195E-001;9.792356751859188E-003;-3.028276842087507E-004;1.620943221496418E-004;
2.407000000000000E+009;1.806950867176056E-001;9.422708302736282E-003;-4.842854104936123E-004;1.733220560709015E-004;
2.407166666666667E+009;1.806575655937195E-001;9.199561551213265E-003;-4.482465155888349E-004;1.402314810547978E-004;
2.407333333333334E+009;1.804874837398529E-001;8.702111430466175E-003;-2.290661213919520E-004;1.119706503232010E-004;
2.407500000000000E+009;1.803414970636368E-001;8.371241390705109E-003;-5.570651264861226E-004;1.222932041855529E-004;
2.407666666666667E+009;1.801819652318955E-001;7.972312159836292E-003;-4.364515771158040E-004;-1.063952222466469E-004;
2.407833333333334E+009;1.796086728572846E-001;7.156268693506718E-003;-4.771809326484799E-004;8.375260222237557E-006;
2.408000000000000E+009;1.793273389339447E-001;6.584218703210354E-003;-3.761556872632355E-004;3.454716352280229E-005;
2.408166666666667E+009;1.790155917406082E-001;6.074486766010523E-003;-5.206303903833032E-004;1.787491783034056E-004;
2.408333333333334E+009;1.786194741725922E-001;5.362334661185741E-003;-4.846330266445875E-004;8.890363824320957E-005;
2.408500000000000E+009;1.779798269271851E-001;4.373867530375719E-003;-4.725433827843517E-004;1.663409930188209E-004;
2.408666666666667E+009;1.774722039699554E-001;3.425376722589135E-003;-3.023560857400298E-004;1.974409533431754E-004;
2.408833333333334E+009;1.767163723707199E-001;2.615533303469420E-003;-3.515303542371839E-004;5.049889296060428E-005;
2.409000000000000E+009;1.760991513729096E-001;1.537148025818169E-003;-4.765358171425760E-004;2.108311600750312E-004;
2.409166666666667E+009;1.754485368728638E-001;5.020819371566176E-004;-4.526477714534849E-004;2.225480857305229E-004;
2.409333333333334E+009;1.749591529369354E-001;-9.397823014296591E-004;-4.932287847623229E-004;1.009814368444495E-004;
2.409500000000000E+009;1.740586161613464E-001;-2.391847316175699E-003;-3.296059148851782E-004;2.468069724272937E-004;
2.409666666666667E+009;1.733064055442810E-001;-3.563778707757592E-003;-4.669776244554669E-004;1.802584592951462E-004;
2.409833333333334E+009;1.726843863725662E-001;-4.920443054288626E-003;-3.874198882840574E-004;1.040787901729345E-004;
2.410000000000000E+009;1.720725148916245E-001;-6.611223332583904E-003;-3.638170019257814E-004;-3.653171370388009E-005;
2.410166666666667E+009;1.714363247156143E-001;-8.214412257075310E-003;-4.731657099910080E-004;-5.832386159454472E-005;
2.410333333333334E+009;1.707206368446350E-001;-9.846169501543045E-003;-3.248821012675762E-004;1.171158601209754E-005;
2.410500000000000E+009;1.703634411096573E-001;-1.157349534332752E-002;-3.862192970700562E-004;-2.211532410001382E-004;
2.410666666666667E+009;1.696627885103226E-001;-1.340389437973499E-002;-3.425899776630104E-004;-1.940697984537110E-004;
2.410833333333334E+009;1.694167703390122E-001;-1.505148783326149E-002;-5.582644953392446E-004;-1.113487724069273E-005;
2.411000000000000E+009;1.690722405910492E-001;-1.697042025625706E-002;-4.707258776761591E-004;-2.784933894872665E-004;
2.411166666666667E+009;1.686472147703171E-001;-1.902287825942040E-002;-4.635649092961103E-004;-8.114235242828727E-005;
2.411333333333334E+009;1.682239025831223E-001;-2.078740857541561E-002;-5.269459798000753E-004;-2.204089396400377E-004;
2.411500000000000E+009;1.681732684373856E-001;-2.280728705227375E-002;-5.978066474199295E-004;-2.392680471530184E-004;
2.411666666666667E+009;1.681332886219025E-001;-2.473865449428558E-002;-6.275175255723298E-004;-2.197260764660314E-004;
2.411833333333334E+009;1.682368963956833E-001;-2.647231519222260E-002;-5.743319052271545E-004;-2.943189465440810E-004;
2.412000000000000E+009;1.681727319955826E-001;-2.850863151252270E-002;-6.283791735768318E-004;-1.924089156091213E-004;
2.412166666666667E+009;1.680749058723450E-001;-3.042015060782433E-002;-7.127866847440600E-004;-2.894951030611992E-004;
2.412333333333334E+009;1.685687154531479E-001;-3.232413530349731E-002;-9.262682287953794E-004;-2.894892822951078E-004;
2.412500000000000E+009;1.686697155237198E-001;-3.430791571736336E-002;-8.001638343557715E-004;-2.695430011954159E-004;
2.412666666666667E+009;1.689657121896744E-001;-3.630573675036430E-002;-9.520646417513490E-004;-3.081985923927277E-004;
2.412833333333334E+009;1.693743020296097E-001;-3.821826726198196E-002;-1.031777937896550E-003;-1.854549045674503E-004;
2.413000000000000E+009;1.699369698762894E-001;-3.963368758559227E-002;-9.490905795246363E-004;-2.786503173410893E-004;
2.413166666666667E+009;1.702339500188828E-001;-4.144756868481636E-002;-1.102630398236215E-003;-1.275927352253348E-004;
2.413333333333334E+009;1.708268225193024E-001;-4.317913576960564E-002;-1.174833509139717E-003;-1.423865905962884E-004;
2.413500000000000E+009;1.711224466562271E-001;-4.472473636269569E-002;-1.191546325571835E-003;1.420987700839760E-005;
2.413666666666667E+009;1.717703640460968E-001;-4.647418111562729E-002;-1.144724315963686E-003;-2.613416108943056E-005;
2.413833333333334E+009;1.723591685295105E-001;-4.789373651146889E-002;-1.165244961157441E-003;1.247059844899923E-004;
2.414000000000000E+009;1.727197468280792E-001;-4.930943995714188E-002;-1.352709950879216E-003;9.818629041546956E-005;
2.414166666666667E+009;1.734812110662460E-001;-5.042437836527824E-002;-1.220964710228145E-003;1.836280134739354E-004;
2.414333333333334E+009;1.740248054265976E-001;-5.178318917751312E-002;-1.169076189398766E-003;2.352394512854517E-004;
2.414500000000000E+009;1.746569722890854E-001;-5.277308449149132E-002;-1.423237030394375E-003;3.435662074480206E-004;
2.414666666666667E+009;1.751759648323059E-001;-5.379182845354080E-002;-1.319594914093614E-003;3.158380277454853E-004;
2.414833333333334E+009;1.756824553012848E-001;-5.490582436323166E-002;-1.435225596651435E-003;3.959411696996540E-004;
2.415000000000000E+009;1.759800463914871E-001;-5.574119836091995E-002;-1.307456288486719E-003;4.144239937886596E-004;
2.415166666666667E+009;1.764126569032669E-001;-5.656243488192558E-002;-1.360440161079168E-003;5.058695096522570E-004;
2.415333333333334E+009;1.770635843276978E-001;-5.730614811182022E-002;-1.331647741608322E-003;5.387226119637489E-004;
2.415500000000000E+009;1.772972941398621E-001;-5.774090066552162E-002;-1.365173375234008E-003;5.782110965810716E-004;
2.415666666666667E+009;1.773640364408493E-001;-5.830188468098640E-002;-1.173182972706854E-003;7.617027149535716E-004;
2.415833333333334E+009;1.777763813734055E-001;-5.878809094429016E-002;-1.306496444158256E-003;8.609388023614883E-004;
2.416000000000000E+009;1.776906400918961E-001;-5.932566151022911E-002;-1.333386055193842E-003;7.398946909233928E-004;
2.416166666666667E+009;1.779603064060211E-001;-5.952970683574677E-002;-1.225385232828558E-003;8.176240953616798E-004;
2.416333333333334E+009;1.779099255800247E-001;-5.996755883097649E-002;-1.301863347180188E-003;8.779264171607792E-004;
2.416500000000000E+009;1.778078228235245E-001;-6.021485850214958E-002;-1.278667827136815E-003;1.010225038044155E-003;
2.416666666666667E+009;1.775702238082886E-001;-6.040259823203087E-002;-1.085636322386563E-003;9.434318053536117E-004;
2.416833333333334E+009;1.773887425661087E-001;-6.079606339335442E-002;-1.182427280582488E-003;1.148807350546122E-003;
2.417000000000000E+009;1.767761409282684E-001;-6.096137315034866E-002;-1.218462130054832E-003;1.393307000398636E-003;
2.417166666666667E+009;1.763596981763840E-001;-6.104464083909988E-002;-1.152515062130988E-003;1.190170529298484E-003;
2.417333333333334E+009;1.758882254362106E-001;-6.127636134624481E-002;-1.044092467054725E-003;1.177140744403005E-003;
2.417500000000000E+009;1.751491576433182E-001;-6.177689507603645E-002;-1.061860937625170E-003;1.186475623399019E-003;
2.417666666666667E+009;1.745205521583557E-001;-6.178798153996468E-002;-9.430482750758529E-004;1.337333582341671E-003;
2.417833333333334E+009;1.737043410539627E-001;-6.205394491553307E-002;-9.248179267160595E-004;1.372701837681234E-003;
2.418000000000000E+009;1.729323714971542E-001;-6.231249868869782E-002;-9.481314918957651E-004;1.531275454908609E-003;
2.418166666666667E+009;1.719378083944321E-001;-6.262957304716110E-002;-9.740402456372976E-004;1.501006772741675E-003;
2.418333333333334E+009;1.711971610784531E-001;-6.298124790191650E-002;-1.023935154080391E-003;1.416594139300287E-003;
2.418500000000000E+009;1.701190918684006E-001;-6.334123760461807E-002;-7.442742935381830E-004;1.685747527517378E-003;
2.418666666666667E+009;1.691256612539291E-001;-6.394360214471817E-002;-6.962299230508506E-004;1.602948177605867E-003;
2.418833333333334E+009;1.678766161203384E-001;-6.457005441188812E-002;-6.877380074001849E-004;1.638693036511540E-003;
2.419000000000000E+009;1.665341109037399E-001;-6.500876694917679E-002;-6.780689000152051E-004;1.638941350392997E-003;
2.419166666666667E+009;1.653963327407837E-001;-6.563992798328400E-002;-7.128657889552414E-004;1.706458861008287E-003;
2.419333333333334E+009;1.641035974025726E-001;-6.631239503622055E-002;-6.185666425153613E-004;1.741765765473247E-003;
2.419500000000000E+009;1.628996729850769E-001;-6.725424528121948E-002;-5.983411683700979E-004;1.872113440185785E-003;
2.419666666666667E+009;1.619530916213989E-001;-6.818329542875290E-002;-4.724514728877693E-004;1.800142810679972E-003;
2.419833333333334E+009;1.604182124137878E-001;-6.901706755161285E-002;-5.092059727758169E-004;1.698824344202876E-003;
2.420000000000000E+009;1.594576686620712E-001;-7.016146928071976E-002;-3.728823503479362E-004;1.819339348003268E-003;
2.420166666666667E+009;1.583264917135239E-001;-7.117038220167160E-002;-2.545176539570093E-004;1.873098313808441E-003;
2.420333333333334E+009;1.573738902807236E-001;-7.279479503631592E-002;-2.921061532106251E-004;1.918983645737171E-003;
2.420500000000000E+009;1.563548743724823E-001;-7.361157238483429E-002;-1.372187398374081E-004;1.997255254536867E-003;
2.420666666666667E+009;1.553429067134857E-001;-7.495523244142532E-002;-2.049453614745289E-004;2.018300117924810E-003;
2.420833333333334E+009;1.544314175844193E-001;-7.640581578016281E-002;-1.875308662420139E-004;1.965024741366506E-003;
2.421000000000000E+009;1.535447984933853E-001;-7.798279076814652E-002;-5.159050851943903E-005;1.998124411329627E-003;
2.421166666666667E+009;1.528102010488510E-001;-7.942412048578262E-002;-5.457450606627390E-005;2.055490855127573E-003;
2.421333333333334E+009;1.521584689617157E-001;-8.102560043334961E-002;-5.781827348982915E-005;1.835366245359182E-003;
2.421500000000000E+009;1.513417363166809E-001;-8.262790739536285E-002;-4.452555367606692E-005;2.054434735327959E-003;
2.421666666666667E+009;1.508540958166122E-001;-8.435011655092239E-002;2.073277137242258E-004;2.044877037405968E-003;
2.421833333333334E+009;1.507095247507095E-001;-8.611495047807694E-002;1.474782184232026E-004;2.193009248003364E-003;
2.422000000000000E+009;1.503714025020599E-001;-8.764578402042389E-002;1.614891079952940E-004;2.190806204453111E-003;
2.422166666666667E+009;1.498961001634598E-001;-8.954901248216629E-002;1.410505792591721E-004;2.221545903012157E-003;
2.422333333333334E+009;1.496289968490601E-001;-9.113696962594986E-002;2.100157435052097E-004;2.248544711619616E-003;
2.422500000000000E+009;1.494743525981903E-001;-9.286177903413773E-002;3.542257181834430E-004;2.267060801386833E-003;
2.422666666666667E+009;1.494916826486588E-001;-9.456462413072586E-002;5.893947673030198E-004;2.188479295000434E-003;
2.422833333333334E+009;1.494810283184052E-001;-9.647461771965027E-002;5.618230788968504E-004;2.212030114606023E-003;
2.423000000000000E+009;1.495286971330643E-001;-9.799737483263016E-002;6.649006390944123E-004;2.284120302647352E-003;
2.423166666666667E+009;1.499248594045639E-001;-9.966569393873215E-002;6.641469663009048E-004;2.250320045277476E-003;
2.423333333333334E+009;1.502176970243454E-001;-1.010383293032646E-001;6.600461201742292E-004;2.245349343866110E-003;
2.423500000000000E+009;1.503760069608688E-001;-1.027957051992416E-001;8.722149650566280E-004;2.360834274441004E-003;
2.423666666666667E+009;1.506289690732956E-001;-1.043394431471825E-001;1.048046862706542E-003;2.323226537555456E-003;
2.423833333333334E+009;1.511690467596054E-001;-1.058352217078209E-001;1.306365826167166E-003;2.280901651829481E-003;
2.424000000000000E+009;1.514316499233246E-001;-1.069058701395989E-001;1.283664721995592E-003;2.267971634864807E-003;
2.424166666666667E+009;1.518875807523727E-001;-1.083075627684593E-001;1.437661354430020E-003;2.326587215065956E-003;
2.424333333333334E+009;1.523570567369461E-001;-1.094677895307541E-001;1.604222808964551E-003;2.320741768926382E-003;
2.424500000000000E+009;1.529275774955750E-001;-1.107514798641205E-001;1.714580110274255E-003;2.084516687318683E-003;
2.424666666666667E+009;1.534951031208038E-001;-1.116991266608238E-001;1.774871372617781E-003;2.291137585416436E-003;
2.424833333333334E+009;1.537510305643082E-001;-1.126829534769058E-001;1.904411124996841E-003;2.155615249648690E-003;
2.425000000000000E+009;1.542178392410278E-001;-1.136665046215057E-001;1.944237970747054E-003;2.126524690538645E-003;
2.425166666666667E+009;1.545127779245377E-001;-1.144352257251740E-001;2.013033255934715E-003;2.007907722145319E-003;
2.425333333333334E+009;1.549897193908691E-001;-1.151522472500801E-001;2.239877590909600E-003;1.922812196426094E-003;
2.425500000000000E+009;1.554954499006271E-001;-1.159684956073761E-001;2.306599635630846E-003;1.811394817195833E-003;
2.425666666666667E+009;1.556581258773804E-001;-1.165008768439293E-001;2.300792839378119E-003;1.794790383428335E-003;
2.425833333333334E+009;1.558862328529358E-001;-1.169275492429733E-001;2.345530083402991E-003;1.872278633527458E-003;
2.426000000000000E+009;1.561482846736908E-001;-1.175224035978317E-001;2.635338576510549E-003;1.506864558905363E-003;
2.426166666666667E+009;1.564255356788635E-001;-1.179409772157669E-001;2.778074936941266E-003;1.566852093674243E-003;
2.426333333333334E+009;1.563522517681122E-001;-1.181807592511177E-001;2.722532488405705E-003;1.461079576984048E-003;
2.426500000000000E+009;1.563762128353119E-001;-1.183757036924362E-001;2.719006268307567E-003;1.204350846819580E-003;
2.426666666666667E+009;1.564863771200180E-001;-1.184084638953209E-001;2.805442083626986E-003;1.127459108829498E-003;
2.426833333333334E+009;1.561807841062546E-001;-1.188503280282021E-001;2.826677169650793E-003;1.006724429316819E-003;
2.427000000000000E+009;1.559145152568817E-001;-1.189431920647621E-001;2.819369779899716E-003;8.342482615262270E-004;
2.427166666666667E+009;1.555317938327789E-001;-1.189552620053291E-001;3.159011015668511E-003;8.194863330572844E-004;
2.427333333333334E+009;1.549373865127564E-001;-1.190791875123978E-001;2.949243644252420E-003;6.254576146602631E-004;
2.427500000000000E+009;1.545652747154236E-001;-1.192097216844559E-001;2.975719049572945E-003;5.497481324709952E-004;
2.427666666666667E+009;1.538073569536209E-001;-1.194218844175339E-001;3.069906961172819E-003;4.411574918776751E-004;
