# Version 1.00
#
freq[Hz];re:Trc1_S11;im:Trc1_S11;re:Trc2_S21;im:Trc2_S21;
2.400000000000000E+009;1.582272797822952E-001;6.249533593654633E-002;-1.886449404992163E-003;-4.413553979247809E-004;
2.400166666666667E+009;1.579641997814179E-001;6.101787090301514E-002;-1.961214933544397E-003;-5.530171329155564E-004;
2.400333333333334E+009;1.580257266759872E-001;5.887989327311516E-002;-1.836829003877938E-003;-6.063913460820913E-004;
2.400500000000000E+009;1.580718606710434E-001;5.709711834788322E-002;-1.784563530236483E-003;-3.809659974649549E-004;
2.400666666666667E+009;1.580257862806320E-001;5.518174543976784E-002;-1.918403315357864E-003;-4.308044735807926E-004;
2.400833333333334E+009;1.582839339971542E-001;5.318961292505264E-002;-1.856609247624874E-003;-2.431222819723189E-004;
2.401000000000000E+009;1.582044214010239E-001;5.111628398299217E-002;-1.836462062783539E-003;-6.068476068321616E-005;
2.401166666666667E+009;1.584402918815613E-001;4.899519309401512E-002;-1.719202264212072E-003;-2.441531687509269E-004;
2.401333333333334E+009;1.587000787258148E-001;4.700098559260368E-002;-1.843934762291610E-003;-7.369769150500360E-008;
2.401500000000000E+009;1.590389758348465E-001;4.499658197164536E-002;-1.775531447492540E-003;1.304437319049612E-004;
2.401666666666667E+009;1.594789028167725E-001;4.287863522768021E-002;-1.604720484465361E-003;1.570035383338109E-004;
2.401833333333334E+009;1.597346812486649E-001;4.084775596857071E-002;-1.611889339983463E-003;1.302830496570095E-004;
2.402000000000000E+009;1.601121872663498E-001;3.885131329298019E-002;-1.581819495186210E-003;2.487079764250666E-004;
2.402166666666667E+009;1.606485247612000E-001;3.688824176788330E-002;-1.582643599249423E-003;3.489665396045893E-004;
2.402333333333334E+009;1.611718982458115E-001;3.513474389910698E-002;-1.531202346086502E-003;3.973125421907753E-004;
2.402500000000000E+009;1.620392203330994E-001;3.324162960052490E-002;-1.501402468420565E-003;5.079189431853592E-004;
2.402666666666667E+009;1.626949906349182E-001;3.145455196499825E-002;-1.369544886983931E-003;5.835924530401826E-004;
2.402833333333334E+009;1.634318679571152E-001;2.979325875639916E-002;-1.390930498018861E-003;5.666689248755574E-004;
2.403000000000000E+009;1.640978753566742E-001;2.823881059885025E-002;-1.138315885327756E-003;6.786995800212026E-004;
2.403166666666667E+009;1.650688797235489E-001;2.657912112772465E-002;-1.082665170542896E-003;7.277501863427460E-004;
2.403333333333334E+009;1.659239232540131E-001;2.526882477104664E-002;-1.106473035179079E-003;4.838472232222557E-004;
2.403500000000000E+009;1.668116748332977E-001;2.374579384922981E-002;-1.003210199996829E-003;6.140489713288844E-004;
2.403666666666667E+009;1.675976961851120E-001;2.225600183010101E-002;-8.801469812169671E-004;6.456592818722129E-004;
2.403833333333334E+009;1.688317954540253E-001;2.108256332576275E-002;-8.630325901322067E-004;7.279065903276205E-004;
2.404000000000000E+009;1.696970462799072E-001;1.985291577875614E-002;-7.761743036098778E-004;6.698890356346965E-004;
2.404166666666667E+009;1.706769317388535E-001;1.878724992275238E-002;-6.937475991435349E-004;6.596250459551811E-004;
2.404333333333334E+009;1.715958863496780E-001;1.789751648902893E-002;-6.016053957864642E-004;6.709076114930213E-004;
2.404500000000000E+009;1.725778579711914E-001;1.684867218136787E-002;-5.550161004066467E-004;6.752076442353427E-004;
2.404666666666667E+009;1.734756678342819E-001;1.596726104617119E-002;-4.458100011106581E-004;5.094512598589063E-004;
2.404833333333334E+009;1.741693615913391E-001;1.519694365561009E-002;-5.497301463037729E-004;6.772209890186787E-004;
2.405000000000000E+009;1.751079112291336E-001;1.428396347910166E-002;-5.158583517186344E-004;5.299493786878884E-004;
2.405166666666667E+009;1.759060770273209E-001;1.372231543064117E-002;-3.385228337720037E-004;5.008485168218613E-004;
2.405333333333334E+009;1.767993271350861E-001;1.314632315188646E-002;-3.453562385402620E-004;4.321035230532289E-004;
2.405500000000000E+009;1.774299442768097E-001;1.288135256618261E-002;-2.815816260408610E-004;4.713945381809026E-004;
2.405666666666667E+009;1.780813187360764E-001;1.237309072166681E-002;-3.711254685185850E-004;3.679085348267108E-004;
2.405833333333334E+009;1.785058081150055E-001;1.196473650634289E-002;-2.894276985898614E-004;1.649013429414481E-004;
2.406000000000000E+009;1.790774315595627E-001;1.137405633926392E-002;-3.111582191195339E-004;2.327587280888110E-004;
2.406166666666667E+009;1.794332861900330E-001;1.125298999249935E-002;-3.737566003110260E-004;2.350793511141092E-004;
2.406333333333334E+009;1.799754798412323E-001;1.086240820586681E-002;-5.616024136543274E-004;1.345402706647292E-004;
2.406500000000000E+009;1.802011281251907E-001;1.045147329568863E-002;-2.479338145349175E-004;2.154565154341981E-004;
2.406666666666667E+009;1.803314685821533E-001;1.018994953483343E-002;-1.763365289662033E-004;9.302458784077317E-005;
2.406833333333334E+009;1.805067658424377E-001;9.792688302695751E-003;-4.044377710670233E-004;1.683388254605234E-004;
2.407000000000000E+009;1.806579977273941E-001;9.484607726335526E-003;-2.483678399585187E-004;9.167486132355407E-005;
2.407166666666667E+009;1.806726902723312E-001;9.272324852645397E-003;-3.448257630225271E-004;1.244626037077978E-004;
2.407333333333334E+009;1.802925765514374E-001;8.702646940946579E-003;-5.914363428018987E-004;1.807300868676975E-004;
2.407500000000000E+009;1.802704930305481E-001;8.464816957712174E-003;-4.578811058308929E-004;3.223431485821493E-005;
2.407666666666667E+009;1.800327003002167E-001;7.941318675875664E-003;-5.162172601558268E-004;1.410148543072864E-004;
2.407833333333334E+009;1.797437965869904E-001;7.195434533059597E-003;-3.614384913817048E-004;-2.689042230485939E-005;
2.408000000000000E+009;1.792617142200470E-001;6.660105194896460E-003;-4.749725339934230E-004;6.706098793074489E-005;
2.408166666666667E+009;1.788338422775269E-001;6.126696709543467E-003;-5.179701256565750E-004;-3.182405635016039E-005;
2.408333333333334E+009;1.785350590944290E-001;5.307692103087902E-003;-5.076528759673238E-004;2.137128176400438E-004;
2.408500000000000E+009;1.779639869928360E-001;4.483678843826056E-003;-4.255764361005276E-004;2.042186242761090E-004;
2.408666666666667E+009;1.774156391620636E-001;3.544670529663563E-003;-4.770618106704205E-004;1.474476175644668E-005;
2.408833333333334E+009;1.766453832387924E-001;2.563746878877282E-003;-5.101001588627696E-004;5.645229975925759E-005;
2.409000000000000E+009;1.760174781084061E-001;1.703554531559348E-003;-3.493851108942181E-004;1.529321452835575E-004;
2.409166666666667E+009;1.754323095083237E-001;4.313815443310887E-004;-3.785115550272167E-004;1.092771708499640E-004;
2.409333333333334E+009;1.747825443744659E-001;-8.871018071658909E-004;-5.344300880096853E-004;7.598336378578097E-005;
2.409500000000000E+009;1.739562153816223E-001;-2.250744961202145E-003;-4.991594469174743E-004;-1.289130159420893E-005;
2.409666666666667E+009;1.733381748199463E-001;-3.564663464203477E-003;-3.898162394762039E-004;7.934782843221910E-006;
2.409833333333334E+009;1.726230382919312E-001;-4.962201695889235E-003;-3.532228874973953E-004;-2.703978861973155E-005;
2.410000000000000E+009;1.720399409532547E-001;-6.507429759949446E-003;-3.949417150579393E-004;-4.970625377609395E-005;
2.410166666666667E+009;1.714458018541336E-001;-8.053775876760483E-003;-4.615941143129021E-004;6.819453119533137E-005;
2.410333333333334E+009;1.709001213312149E-001;-9.772698394954205E-003;-3.910578961949796E-004;2.085850428557023E-004;
2.410500000000000E+009;1.705814450979233E-001;-1.135687902569771E-002;-4.326966591179371E-004;-5.647790021612309E-005;
2.410666666666667E+009;1.696621626615524E-001;-1.345303747802973E-002;-3.386054886505008E-004;-2.938449324574322E-005;
2.410833333333334E+009;1.694908887147903E-001;-1.506804022938013E-002;-5.160211585462093E-004;-7.201125845313072E-005;
2.411000000000000E+009;1.688721776008606E-001;-1.672822237014771E-002;-3.385493182577193E-004;-1.832021662266925E-004;
2.411166666666667E+009;1.686796694993973E-001;-1.875738240778446E-002;-5.495568038895726E-004;-7.175657083280385E-005;
2.411333333333334E+009;1.685012131929398E-001;-2.060015499591827E-002;-6.429845816455782E-004;-9.489359945291653E-005;
2.411500000000000E+009;1.682591289281845E-001;-2.274760045111179E-002;-5.966083263047040E-004;-1.352044637314975E-004;
2.411666666666667E+009;1.682775616645813E-001;-2.473744563758373E-002;-5.344834644347429E-004;-2.170854713767767E-004;
2.411833333333334E+009;1.682357937097549E-001;-2.652206644415855E-002;-6.957391742616892E-004;-2.727078681346029E-004;
2.412000000000000E+009;1.682162284851074E-001;-2.862648665904999E-002;-6.561012705788016E-004;-2.177142159780487E-004;
2.412166666666667E+009;1.682129800319672E-001;-3.043618053197861E-002;-7.245495216920972E-004;-2.917041128966957E-004;
2.412333333333334E+009;1.685554981231690E-001;-3.217056021094322E-002;-7.197930244728923E-004;-3.484783519525081E-004;
2.412500000000000E+009;1.686561554670334E-001;-3.412955999374390E-002;-8.494765497744083E-004;-2.678742457646877E-004;
2.412666666666667E+009;1.690705120563507E-001;-3.630196675658226E-002;-8.458371739834547E-004;-1.615635410416871E-004;
2.412833333333334E+009;1.693224608898163E-001;-3.795327991247177E-002;-8.185283513739705E-004;-1.395257422700524E-004;
2.413000000000000E+009;1.698649525642395E-001;-3.979097306728363E-002;-1.017803093418479E-003;-2.125950777553953E-005;
2.413166666666667E+009;1.702473610639572E-001;-4.140936955809593E-002;-1.071051228791475E-003;-2.583610148576554E-005;
2.413333333333334E+009;1.707663685083389E-001;-4.331034421920776E-002;-1.068567857146263E-003;-3.981305053457618E-005;
2.413500000000000E+009;1.711702644824982E-001;-4.479779675602913E-002;-1.173536991700530E-003;9.194748417939991E-005;
2.413666666666667E+009;1.718228757381439E-001;-4.631979018449783E-002;-1.212397939525545E-003;1.204772706842050E-004;
2.413833333333334E+009;1.722703129053116E-001;-4.766585677862167E-002;-1.238203956745565E-003;1.349949307041243E-004;
2.414000000000000E+009;1.727549880743027E-001;-4.911163821816444E-002;-1.397644169628620E-003;1.648364705033600E-004;
2.414166666666667E+009;1.734880059957504E-001;-5.047028884291649E-002;-1.403719186782837E-003;1.861152559285983E-004;
2.414333333333334E+009;1.740626394748688E-001;-5.154862254858017E-002;-1.447016489692032E-003;3.967065131291747E-004;
2.414500000000000E+009;1.745383292436600E-001;-5.272280797362328E-002;-1.378262881189585E-003;5.627730861306191E-004;
2.414666666666667E+009;1.751615554094315E-001;-5.387805774807930E-002;-1.418346189893782E-003;3.808716137427837E-004;
2.414833333333334E+009;1.757100224494934E-001;-5.479294061660767E-002;-1.376440748572350E-003;3.643850504886359E-004;
2.415000000000000E+009;1.760921329259872E-001;-5.564988031983376E-002;-1.328804180957377E-003;5.001176614314318E-004;
2.415166666666667E+009;1.764202862977982E-001;-5.639993026852608E-002;-1.261465251445770E-003;6.617298349738121E-004;
2.415333333333334E+009;1.770274490118027E-001;-5.712844431400299E-002;-1.327595207840204E-003;6.506773643195629E-004;
2.415500000000000E+009;1.772489994764328E-001;-5.780053883790970E-002;-1.313403132371604E-003;8.792141452431679E-004;
2.415666666666667E+009;1.774809360504150E-001;-5.832008644938469E-002;-1.270968816243112E-003;8.652962860651314E-004;
2.415833333333334E+009;1.778483688831329E-001;-5.876961350440979E-002;-1.305997837334871E-003;1.033700071275234E-003;
2.416000000000000E+009;1.777555495500565E-001;-5.914435908198357E-002;-1.344183925539255E-003;7.778500439599156E-004;
2.416166666666667E+009;1.780174821615219E-001;-5.942856892943382E-002;-1.189832924865186E-003;8.393693133257330E-004;
2.416333333333334E+009;1.778783798217773E-001;-5.989679694175720E-002;-1.193746225908399E-003;9.058664436452091E-004;
2.416500000000000E+009;1.779038310050964E-001;-6.022487580776215E-002;-1.277076429687440E-003;1.099810935556889E-003;
2.416666666666667E+009;1.776266098022461E-001;-6.035222858190537E-002;-1.219610800035298E-003;1.018081209622324E-003;
2.416833333333334E+009;1.773929446935654E-001;-6.065922975540161E-002;-1.129443407990038E-003;1.242047292180359E-003;
2.417000000000000E+009;1.768651455640793E-001;-6.091686338186264E-002;-9.611385175958276E-004;1.173326629213989E-003;
2.417166666666667E+009;1.764223128557205E-001;-6.103692576289177E-002;-1.111909747123718E-003;1.291742781177163E-003;
2.417333333333334E+009;1.759793907403946E-001;-6.127582862973213E-002;-1.031798543408513E-003;1.440227148123086E-003;
2.417500000000000E+009;1.752140074968338E-001;-6.164323911070824E-002;-9.939661249518395E-004;1.269405009225011E-003;
2.417666666666667E+009;1.745472252368927E-001;-6.165507808327675E-002;-9.455406107008457E-004;1.409611548297107E-003;
2.417833333333334E+009;1.738851368427277E-001;-6.183008477091789E-002;-9.501446038484573E-004;1.613677595742047E-003;
2.418000000000000E+009;1.727808266878128E-001;-6.232715025544167E-002;-8.714023279026151E-004;1.401684246957302E-003;
2.418166666666667E+009;1.719916313886643E-001;-6.249576807022095E-002;-9.860268328338862E-004;1.573014305904508E-003;
2.418333333333334E+009;1.712169796228409E-001;-6.298793852329254E-002;-9.648640989325941E-004;1.598636619746685E-003;
2.418500000000000E+009;1.700526028871536E-001;-6.336621940135956E-002;-8.065541042014957E-004;1.708164229057729E-003;
2.418666666666667E+009;1.690501421689987E-001;-6.392372399568558E-002;-8.253878331743181E-004;1.725107664242387E-003;
2.418833333333334E+009;1.675625592470169E-001;-6.438946723937988E-002;-6.536673754453659E-004;1.797007629647851E-003;
2.419000000000000E+009;1.665226817131043E-001;-6.502383947372437E-002;-7.478003390133381E-004;1.646651769988239E-003;
2.419166666666667E+009;1.653727293014526E-001;-6.561338156461716E-002;-6.424195598810911E-004;1.703693647868931E-003;
2.419333333333334E+009;1.640834063291550E-001;-6.629396229982376E-002;-6.274568731896579E-004;1.773912110365927E-003;
2.419500000000000E+009;1.629972010850906E-001;-6.735760718584061E-002;-5.000213859602809E-004;1.853554625995457E-003;
2.419666666666667E+009;1.618285626173019E-001;-6.821877509355545E-002;-4.466786340344697E-004;1.985257724300027E-003;
2.419833333333334E+009;1.606266498565674E-001;-6.913186609745026E-002;-4.408087988849729E-004;1.895220251753926E-003;
2.420000000000000E+009;1.595687121152878E-001;-7.008742541074753E-002;-2.193682739743963E-004;1.948342774994671E-003;
2.420166666666667E+009;1.583439409732819E-001;-7.131507247686386E-002;-2.213152038166300E-004;1.999622676521540E-003;
2.420333333333334E+009;1.574469804763794E-001;-7.270653545856476E-002;-1.985516282729805E-004;1.915842178277671E-003;
2.420500000000000E+009;1.561926603317261E-001;-7.375620305538178E-002;-1.455479505239055E-004;2.056843833997846E-003;
2.420666666666667E+009;1.553284674882889E-001;-7.491797953844070E-002;-1.690965000307187E-004;1.940839923918247E-003;
2.420833333333334E+009;1.544907838106155E-001;-7.639206945896149E-002;-2.330860734218732E-004;2.037415513768792E-003;
2.421000000000000E+009;1.535592973232269E-001;-7.810789346694946E-002;-3.662407107185572E-005;2.060324652120471E-003;
2.421166666666667E+009;1.527801305055618E-001;-7.944845408201218E-002;-5.849539229529910E-005;2.131634624674916E-003;
2.421333333333334E+009;1.522455513477325E-001;-8.111350238323212E-002;3.609177656471729E-005;2.029817784205079E-003;
2.421500000000000E+009;1.514296978712082E-001;-8.265302330255508E-002;2.358173805987462E-004;2.039784099906683E-003;
2.421666666666667E+009;1.508900970220566E-001;-8.431612700223923E-002;2.616749261505902E-004;2.023397013545036E-003;
2.421833333333334E+009;1.505910903215408E-001;-8.598791807889938E-002;1.828035165090114E-004;2.013853285461664E-003;
2.422000000000000E+009;1.500095725059509E-001;-8.771599084138870E-002;3.431676595937461E-004;2.022241475060582E-003;
2.422166666666667E+009;1.498821377754211E-001;-8.947487920522690E-002;3.905227640643716E-004;2.268996788188815E-003;
2.422333333333334E+009;1.497185975313187E-001;-9.122042357921600E-002;2.670047397259623E-004;2.268089680001140E-003;
2.422500000000000E+009;1.494698226451874E-001;-9.270187467336655E-002;3.712174948304892E-004;2.206815872341394E-003;
2.422666666666667E+009;1.494276672601700E-001;-9.461627900600433E-002;4.635540244635195E-004;2.241086680442095E-003;
2.422833333333334E+009;1.495569646358490E-001;-9.630979597568512E-002;6.723169353790581E-004;2.192425541579723E-003;
2.423000000000000E+009;1.496343314647675E-001;-9.805886447429657E-002;7.739831344224513E-004;2.237850800156593E-003;
2.423166666666667E+009;1.497643440961838E-001;-9.956743568181992E-002;7.661939016543329E-004;2.197325695306063E-003;
2.423333333333334E+009;1.501347571611404E-001;-1.010824367403984E-001;8.755402523092926E-004;2.303406130522490E-003;
2.423500000000000E+009;1.504154354333878E-001;-1.027365401387215E-001;8.793357410468161E-004;2.237736480310559E-003;
2.423666666666667E+009;1.506071537733078E-001;-1.044012531638145E-001;1.161240157671273E-003;2.270142547786236E-003;
2.423833333333334E+009;1.509986370801926E-001;-1.057813838124275E-001;1.186197623610497E-003;2.290102420374751E-003;
2.424000000000000E+009;1.515114456415176E-001;-1.069358214735985E-001;1.394205261021853E-003;2.224578289315105E-003;
2.424166666666667E+009;1.519091725349426E-001;-1.083900257945061E-001;1.303761848248541E-003;2.200612565502524E-003;
2.424333333333334E+009;1.525272876024246E-001;-1.094896495342255E-001;1.475276658311486E-003;2.390666399151087E-003;
2.424500000000000E+009;1.528673619031906E-001;-1.106744557619095E-001;1.682858332060278E-003;2.296685939654708E-003;
2.424666666666667E+009;1.533901095390320E-001;-1.116663217544556E-001;1.712175202555955E-003;2.140579512342811E-003;
2.424833333333334E+009;1.538212746381760E-001;-1.126964166760445E-001;1.861227676272392E-003;2.136621391400695E-003;
2.425000000000000E+009;1.542509347200394E-001;-1.136947572231293E-001;1.966347452253103E-003;2.088359789922833E-003;
2.425166666666667E+009;1.546928882598877E-001;-1.142808645963669E-001;2.118528354912996E-003;2.026953035965562E-003;
2.425333333333334E+009;1.551573723554611E-001;-1.151732057332993E-001;2.271563978865743E-003;2.021579304710031E-003;
2.425500000000000E+009;1.555369198322296E-001;-1.158635690808296E-001;2.304042689502239E-003;1.755674718879163E-003;
2.425666666666667E+009;1.556517928838730E-001;-1.164046972990036E-001;2.308600349351764E-003;1.820527599193156E-003;
2.425833333333334E+009;1.559696644544601E-001;-1.169344931840897E-001;2.608058275654912E-003;1.682757982052863E-003;
2.426000000000000E+009;1.560556441545487E-001;-1.175441443920136E-001;2.674754941836000E-003;1.651080907322466E-003;
2.426166666666667E+009;1.563965827226639E-001;-1.178312450647354E-001;2.798142144456506E-003;1.519387122243643E-003;
2.426333333333334E+009;1.563663631677628E-001;-1.181519776582718E-001;2.701529767364264E-003;1.204200438223779E-003;
2.426500000000000E+009;1.564789265394211E-001;-1.183696314692497E-001;2.925508655607700E-003;1.331489649601281E-003;
2.426666666666667E+009;1.564772278070450E-001;-1.185134723782539E-001;2.819475485011935E-003;1.127254450693727E-003;
2.426833333333334E+009;1.562013626098633E-001;-1.185913905501366E-001;2.944178879261017E-003;1.026686863042414E-003;
2.427000000000000E+009;1.560340970754623E-001;-1.189113110303879E-001;3.059813752770424E-003;9.851112263277173E-004;
2.427166666666667E+009;1.555651277303696E-001;-1.189009472727776E-001;3.094044281169772E-003;8.602608577348292E-004;
2.427333333333334E+009;1.550868153572083E-001;-1.190584450960159E-001;3.069325350224972E-003;5.479209357872605E-004;
2.427500000000000E+009;1.545865982770920E-001;-1.191639974713326E-001;3.131449455395341E-003;5.864389822818339E-004;
2.427666666666667E+009;1.539061069488525E-001;-1.192987561225891E-001;3.107280470430851E-003;4.267053154762834E-004;
