# Version 1.00
#
freq[Hz];re:Trc1_S11;im:Trc1_S11;re:Trc2_S21;im:Trc2_S21;
2.400000000000000E+009;1.583650708198547E-001;6.263161450624466E-002;-1.982357352972031E-003;-5.569880595430732E-004;
2.400166666666667E+009;1.582585275173187E-001;6.096197664737701E-002;-1.791426562704146E-003;-5.362267838791013E-004;
2.400333333333334E+009;1.582974791526794E-001;5.895041301846504E-002;-2.058275742456317E-003;-4.300177097320557E-004;
2.400500000000000E+009;1.582335084676743E-001;5.722744017839432E-002;-1.800225581973791E-003;-2.563646121416241E-004;
2.400666666666667E+009;1.581233590841293E-001;5.524067208170891E-002;-1.974193146452308E-003;-1.717210543574765E-004;
2.400833333333334E+009;1.581947803497315E-001;5.318881571292877E-002;-1.838486175984144E-003;-3.156994062010199E-004;
2.401000000000000E+009;1.583328247070313E-001;5.108828470110893E-002;-1.931460807099938E-003;-5.450328899314627E-005;
2.401166666666667E+009;1.584206968545914E-001;4.906620085239410E-002;-1.839268137700856E-003;-8.435494237346575E-005;
2.401333333333334E+009;1.588209122419357E-001;4.692112281918526E-002;-1.841075834818184E-003;1.569442829350010E-004;
2.401500000000000E+009;1.592412292957306E-001;4.503868892788887E-002;-1.812824863009155E-003;2.157005947083235E-004;
2.401666666666667E+009;1.594393998384476E-001;4.293908923864365E-002;-1.703407382592559E-003;1.898502960102633E-004;
2.401833333333334E+009;1.597756445407867E-001;4.068645834922791E-002;-1.838550902903080E-003;2.897096273954958E-004;
2.402000000000000E+009;1.601770371198654E-001;3.895371407270432E-002;-1.402239198796451E-003;3.503258049022406E-004;
2.402166666666667E+009;1.606606543064117E-001;3.681896626949310E-002;-1.670335419476032E-003;4.037483304273337E-004;
2.402333333333334E+009;1.612532883882523E-001;3.491958975791931E-002;-1.592599786818028E-003;5.470258183777332E-004;
2.402500000000000E+009;1.620900630950928E-001;3.325589746236801E-002;-1.424325513653457E-003;5.867861909791827E-004;
2.402666666666667E+009;1.627600789070129E-001;3.138657286763191E-002;-1.359247136861086E-003;4.766388447023928E-004;
2.402833333333334E+009;1.634541153907776E-001;2.979970723390579E-002;-1.367626478895545E-003;8.457011426798999E-004;
2.403000000000000E+009;1.642553508281708E-001;2.805291488766670E-002;-1.325761666521430E-003;6.156115559861064E-004;
2.403166666666667E+009;1.651402860879898E-001;2.659325674176216E-002;-1.298849470913410E-003;6.366328452713788E-004;
2.403333333333334E+009;1.659251451492310E-001;2.513168565928936E-002;-1.129282056353986E-003;8.424966945312917E-004;
2.403500000000000E+009;1.668554544448853E-001;2.370124682784081E-002;-9.382942225784063E-004;7.490466232411563E-004;
2.403666666666667E+009;1.678992509841919E-001;2.221597731113434E-002;-7.909389096312225E-004;6.875967374071479E-004;
2.403833333333334E+009;1.687302738428116E-001;2.100029587745667E-002;-7.274657255038619E-004;8.722561178728938E-004;
2.404000000000000E+009;1.697388440370560E-001;1.990515552461147E-002;-7.631379412487149E-004;8.153033559210599E-004;
2.404166666666667E+009;1.706756800413132E-001;1.870625652372837E-002;-7.344367331825197E-004;8.801462245173752E-004;
2.404333333333334E+009;1.715581268072128E-001;1.776103489100933E-002;-5.239472375251353E-004;6.883264286443591E-004;
2.404500000000000E+009;1.724767982959747E-001;1.670906506478787E-002;-5.397947388701141E-004;7.388439844362438E-004;
2.404666666666667E+009;1.734306067228317E-001;1.596281118690968E-002;-3.593401634134352E-004;6.789079052396119E-004;
2.404833333333334E+009;1.742061376571655E-001;1.512600388377905E-002;-3.314578498248011E-004;6.786502199247479E-004;
2.405000000000000E+009;1.752298027276993E-001;1.447234023362398E-002;-3.125621879007667E-004;6.469096988439560E-004;
2.405166666666667E+009;1.758964061737061E-001;1.379793602973223E-002;-2.599349536467344E-004;5.439878441393375E-004;
2.405333333333334E+009;1.767733544111252E-001;1.298257056623697E-002;-2.133021480403841E-004;4.341586609371007E-004;
2.405500000000000E+009;1.774621903896332E-001;1.275099441409111E-002;-2.753065782599151E-004;3.920806630048901E-004;
2.405666666666667E+009;1.780612468719482E-001;1.225272379815579E-002;-1.686337491264567E-004;3.380992566235364E-004;
2.405833333333334E+009;1.785330474376679E-001;1.187495049089193E-002;-3.594521258492023E-004;4.327787610236555E-004;
2.406000000000000E+009;1.791317760944367E-001;1.133182737976313E-002;-3.509090165607631E-004;2.609865914564580E-004;
2.406166666666667E+009;1.794644892215729E-001;1.105647161602974E-002;-1.913893502205610E-004;2.371376758674160E-004;
2.406333333333334E+009;1.799462884664536E-001;1.089623477309942E-002;-1.399774191668257E-004;2.353306808799971E-005;
2.406500000000000E+009;1.802141666412354E-001;1.037364173680544E-002;-2.956072858069092E-004;1.446661626687273E-004;
2.406666666666667E+009;1.801837086677551E-001;1.029318384826183E-002;-2.699258911889046E-004;1.199527541757561E-004;
2.406833333333334E+009;1.807128041982651E-001;9.780135937035084E-003;-2.460057148709893E-004;1.855560985859484E-004;
2.407000000000000E+009;1.805447638034821E-001;9.501697495579720E-003;-2.660803729668260E-004;2.442339609842747E-004;
2.407166666666667E+009;1.806942522525787E-001;9.156926535069943E-003;-4.170287866145372E-004;1.154167621280067E-004;
2.407333333333334E+009;1.804220080375671E-001;8.642234839498997E-003;-3.620219358708710E-004;9.821917046792805E-005;
2.407500000000000E+009;1.803967952728272E-001;8.331478573381901E-003;-3.294978523626924E-004;4.637220627046190E-005;
2.407666666666667E+009;1.802380979061127E-001;7.837558165192604E-003;-2.630352100823075E-004;1.142438413808122E-004;
2.407833333333334E+009;1.796661764383316E-001;7.218109443783760E-003;-4.014187434222549E-004;7.443304639309645E-005;
2.408000000000000E+009;1.794274002313614E-001;6.684006657451391E-003;-3.324644931126386E-004;1.219509649672546E-004;
2.408166666666667E+009;1.789625287055969E-001;6.047033239156008E-003;-5.485938745550811E-004;9.848991612670943E-005;
2.408333333333334E+009;1.786416769027710E-001;5.362660624086857E-003;-3.315250796731561E-004;-4.078096026205458E-005;
2.408500000000000E+009;1.780465692281723E-001;4.416808020323515E-003;-3.375637752469629E-004;1.822477497626096E-004;
2.408666666666667E+009;1.773586124181747E-001;3.460628911852837E-003;-2.655044081620872E-004;2.540034984122030E-005;
2.408833333333334E+009;1.767739057540894E-001;2.459778450429440E-003;-3.448906645644456E-004;4.755135887535289E-005;
2.409000000000000E+009;1.760904341936112E-001;1.580440322868526E-003;-3.025561163667589E-004;1.788562367437407E-004;
2.409166666666667E+009;1.753582209348679E-001;2.984166785608977E-004;-3.167012473568320E-004;7.458501204382628E-005;
2.409333333333334E+009;1.748632043600082E-001;-1.085375668480992E-003;-1.893310254672542E-004;5.601764860330150E-005;
2.409500000000000E+009;1.739507913589478E-001;-2.421930199488998E-003;-3.044059267267585E-004;1.656453969189897E-004;
2.409666666666667E+009;1.732861548662186E-001;-3.652589162811637E-003;-3.570911067072302E-004;4.850276673096232E-005;
2.409833333333334E+009;1.725973933935165E-001;-5.075361579656601E-003;-2.106790925608948E-004;2.206948738603387E-005;
2.410000000000000E+009;1.720229685306549E-001;-6.581548135727644E-003;-2.937762474175543E-004;5.094976222608239E-005;
2.410166666666667E+009;1.714753359556198E-001;-8.432416245341301E-003;-2.654875279404223E-004;-9.050278458744288E-005;
2.410333333333334E+009;1.708122640848160E-001;-9.794272482395172E-003;-3.607851685956121E-004;-8.976909884950146E-005;
2.410500000000000E+009;1.702699512243271E-001;-1.151595264673233E-002;-3.264753904659301E-004;-1.327672216575593E-004;
2.410666666666667E+009;1.698613017797470E-001;-1.356432121247053E-002;-3.461125306785107E-004;-1.834970316849649E-004;
2.410833333333334E+009;1.693344861268997E-001;-1.512840297073126E-002;-3.966395452152938E-004;-1.055998436640948E-004;
2.411000000000000E+009;1.689878106117249E-001;-1.686786487698555E-002;-3.304904093965888E-004;-2.712461573537439E-004;
2.411166666666667E+009;1.686646640300751E-001;-1.888437941670418E-002;-3.611249849200249E-004;-2.170197258237749E-004;
2.411333333333334E+009;1.683107018470764E-001;-2.076442912220955E-002;-5.123534938320518E-004;-3.580612246878445E-004;
2.411500000000000E+009;1.681652963161469E-001;-2.285881154239178E-002;-4.525259137153626E-004;-2.611473028082401E-004;
2.411666666666667E+009;1.681824773550034E-001;-2.477404288947582E-002;-5.112708313390613E-004;-2.692200359888375E-004;
2.411833333333334E+009;1.681880652904511E-001;-2.661408111453056E-002;-6.416807300411165E-004;-2.482538111507893E-004;
2.412000000000000E+009;1.683366894721985E-001;-2.859309315681458E-002;-6.132881972007453E-004;-3.282320394646376E-004;
2.412166666666667E+009;1.682253032922745E-001;-3.050166927278042E-002;-5.395004409365356E-004;-3.590958949644119E-004;
2.412333333333334E+009;1.686822623014450E-001;-3.231569752097130E-002;-7.516095647588372E-004;-3.494427073746920E-004;
2.412500000000000E+009;1.687137782573700E-001;-3.417571634054184E-002;-8.718782919459045E-004;-2.269097021780908E-004;
2.412666666666667E+009;1.692172139883041E-001;-3.622946143150330E-002;-9.036742267198861E-004;-2.561813744250685E-004;
2.412833333333334E+009;1.694044917821884E-001;-3.808473050594330E-002;-7.825265056453645E-004;-2.907773014158011E-004;
2.413000000000000E+009;1.698772013187408E-001;-3.975947946310043E-002;-9.952527470886707E-004;-2.241764304926619E-004;
2.413166666666667E+009;1.701361536979675E-001;-4.158876091241837E-002;-1.077120890840888E-003;-2.823456306941807E-004;
2.413333333333334E+009;1.706873923540115E-001;-4.322081804275513E-002;-1.099207322113216E-003;-8.323133079102263E-005;
2.413500000000000E+009;1.711675524711609E-001;-4.489233344793320E-002;-1.063623582012951E-003;1.138362222263822E-005;
2.413666666666667E+009;1.718097031116486E-001;-4.644386842846870E-002;-1.124821254052222E-003;4.178005110588856E-005;
2.413833333333334E+009;1.723659634590149E-001;-4.789216443896294E-002;-1.306664198637009E-003;7.728608761681244E-005;
2.414000000000000E+009;1.727695316076279E-001;-4.935216158628464E-002;-1.229537767358124E-003;1.652992250456009E-005;
2.414166666666667E+009;1.735626608133316E-001;-5.052537098526955E-002;-1.239482429809868E-003;2.560071006882936E-004;
2.414333333333334E+009;1.741329431533814E-001;-5.190729349851608E-002;-1.205691602081060E-003;2.183145406888798E-004;
2.414500000000000E+009;1.747565418481827E-001;-5.285935103893280E-002;-1.332530868239701E-003;1.649344776524231E-004;
2.414666666666667E+009;1.752728074789047E-001;-5.391301214694977E-002;-1.184916123747826E-003;2.261481131426990E-004;
2.414833333333334E+009;1.756043285131455E-001;-5.498673394322395E-002;-1.341061200946569E-003;2.963574952445924E-004;
2.415000000000000E+009;1.761212944984436E-001;-5.573883652687073E-002;-1.299999654293060E-003;5.503919092006981E-004;
2.415166666666667E+009;1.765161007642746E-001;-5.644171684980393E-002;-1.347969286143780E-003;5.510038463398814E-004;
2.415333333333334E+009;1.769201010465622E-001;-5.724581703543663E-002;-1.248897868208587E-003;5.509676411747932E-004;
2.415500000000000E+009;1.773896813392639E-001;-5.786429345607758E-002;-1.279315794818103E-003;7.020273478701711E-004;
2.415666666666667E+009;1.774442940950394E-001;-5.833171680569649E-002;-1.324879936873913E-003;6.917413556948304E-004;
2.415833333333334E+009;1.777783036231995E-001;-5.885434150695801E-002;-1.330488012172282E-003;7.642014534212649E-004;
2.416000000000000E+009;1.778422296047211E-001;-5.931274965405464E-002;-1.268761116079986E-003;8.183552417904139E-004;
2.416166666666667E+009;1.779763400554657E-001;-5.967253074049950E-002;-1.259078155271709E-003;9.246487170457840E-004;
2.416333333333334E+009;1.777662038803101E-001;-5.989767611026764E-002;-1.381583278998733E-003;8.610080694779754E-004;
2.416500000000000E+009;1.778304725885391E-001;-6.024475768208504E-002;-1.163341570645571E-003;1.066048978827894E-003;
2.416666666666667E+009;1.774912625551224E-001;-6.041982024908066E-002;-1.091586891561747E-003;1.041487324982882E-003;
2.416833333333334E+009;1.773136556148529E-001;-6.083096936345100E-002;-1.314162393100560E-003;1.128420350141823E-003;
2.417000000000000E+009;1.767586618661881E-001;-6.100283190608025E-002;-1.171133131720126E-003;1.014685374684632E-003;
2.417166666666667E+009;1.764682531356812E-001;-6.112718954682350E-002;-1.060084206983447E-003;1.298296381719410E-003;
2.417333333333334E+009;1.759995520114899E-001;-6.133926287293434E-002;-1.038813032209873E-003;1.206278102472425E-003;
2.417500000000000E+009;1.751549243927002E-001;-6.172487512230873E-002;-1.004090299829841E-003;1.361281261779368E-003;
2.417666666666667E+009;1.745791286230087E-001;-6.171182170510292E-002;-1.033552573062480E-003;1.367608085274696E-003;
2.417833333333334E+009;1.737687289714813E-001;-6.190720573067665E-002;-9.540801402181387E-004;1.390723045915365E-003;
2.418000000000000E+009;1.728048920631409E-001;-6.244268268346787E-002;-9.376251837238669E-004;1.397083862684667E-003;
2.418166666666667E+009;1.719360053539276E-001;-6.258393824100494E-002;-8.767321705818176E-004;1.469067763537169E-003;
2.418333333333334E+009;1.710765808820725E-001;-6.308846175670624E-002;-9.132277918979526E-004;1.539462595246732E-003;
2.418500000000000E+009;1.699931174516678E-001;-6.342121958732605E-002;-8.508287137374282E-004;1.720450352877379E-003;
2.418666666666667E+009;1.689640134572983E-001;-6.392777711153030E-002;-7.709180354140699E-004;1.581128919497132E-003;
2.418833333333334E+009;1.676207035779953E-001;-6.452468782663345E-002;-6.351748597808182E-004;1.695641083642840E-003;
2.419000000000000E+009;1.664629876613617E-001;-6.510745733976364E-002;-5.059434915892780E-004;1.691796584054828E-003;
2.419166666666667E+009;1.654547452926636E-001;-6.579954177141190E-002;-5.816668272018433E-004;1.772526535205543E-003;
2.419333333333334E+009;1.641193628311157E-001;-6.648699939250946E-002;-6.574493600055575E-004;1.727496739476919E-003;
2.419500000000000E+009;1.629813909530640E-001;-6.732776015996933E-002;-5.396883934736252E-004;1.783862942829728E-003;
2.419666666666667E+009;1.617772579193115E-001;-6.834598630666733E-002;-4.538064240477979E-004;1.752324867993593E-003;
2.419833333333334E+009;1.605476737022400E-001;-6.918644160032272E-002;-4.494962631724775E-004;1.840069657191634E-003;
2.420000000000000E+009;1.594923585653305E-001;-7.022529840469360E-002;-4.268763877917081E-004;1.946404692716897E-003;
2.420166666666667E+009;1.583871692419052E-001;-7.130227982997894E-002;-3.230221918784082E-004;1.910641440190375E-003;
2.420333333333334E+009;1.573997139930725E-001;-7.245437055826187E-002;-2.149198553524911E-004;1.891236286610365E-003;
2.420500000000000E+009;1.563698202371597E-001;-7.359740883111954E-002;-2.463069395162165E-004;1.953117665834725E-003;
2.420666666666667E+009;1.553010940551758E-001;-7.504242658615112E-002;-3.210080030839890E-004;1.951838843524456E-003;
2.420833333333334E+009;1.543575078248978E-001;-7.656956464052200E-002;-1.376426225760952E-004;2.026022179052234E-003;
2.421000000000000E+009;1.535748690366745E-001;-7.794943451881409E-002;-2.655377647897694E-005;1.922652591019869E-003;
2.421166666666667E+009;1.528339684009552E-001;-7.944203168153763E-002;-1.451495882065501E-005;2.052284777164459E-003;
2.421333333333334E+009;1.522225141525269E-001;-8.125638961791992E-002;3.733746780198999E-005;2.149582374840975E-003;
2.421500000000000E+009;1.515077948570252E-001;-8.254555612802506E-002;2.684298669919372E-004;2.016659826040268E-003;
2.421666666666667E+009;1.509690433740616E-001;-8.421105146408081E-002;1.510492438683286E-004;1.972092315554619E-003;
2.421833333333334E+009;1.504384428262711E-001;-8.596498519182205E-002;3.719270171131939E-004;2.114977920427918E-003;
2.422000000000000E+009;1.501849591732025E-001;-8.760792762041092E-002;2.377267810516059E-004;2.192553598433733E-003;
2.422166666666667E+009;1.498714238405228E-001;-8.948536217212677E-002;3.558059688657522E-004;2.152394969016314E-003;
2.422333333333334E+009;1.495813131332398E-001;-9.120775014162064E-002;3.475980483926833E-004;2.065266948193312E-003;
2.422500000000000E+009;1.494345515966415E-001;-9.269072115421295E-002;4.732773813884705E-004;2.164663514122367E-003;
2.422666666666667E+009;1.494017690420151E-001;-9.461218863725662E-002;4.576940264087170E-004;2.130135428160429E-003;
2.422833333333334E+009;1.495732367038727E-001;-9.643247723579407E-002;5.708655808120966E-004;2.178105060011149E-003;
2.423000000000000E+009;1.496886759996414E-001;-9.807990491390228E-002;7.205641013570130E-004;2.164584351703525E-003;
2.423166666666667E+009;1.499469876289368E-001;-9.968629479408264E-002;9.025808540172875E-004;2.259597415104508E-003;
2.423333333333334E+009;1.502985507249832E-001;-1.011094972491264E-001;8.116646786220372E-004;2.313734730705619E-003;
2.423500000000000E+009;1.504378318786621E-001;-1.027307510375977E-001;9.484700276516378E-004;2.231748308986425E-003;
2.423666666666667E+009;1.505887359380722E-001;-1.042597889900208E-001;1.045452198013663E-003;2.289855619892478E-003;
2.423833333333334E+009;1.511973589658737E-001;-1.057342588901520E-001;1.128578092902899E-003;2.381065394729376E-003;
2.424000000000000E+009;1.515141725540161E-001;-1.070449352264404E-001;1.311278087086976E-003;2.433094894513488E-003;
2.424166666666667E+009;1.518345475196838E-001;-1.084310337901115E-001;1.481409766711295E-003;2.290898468345404E-003;
2.424333333333334E+009;1.524096280336380E-001;-1.095632612705231E-001;1.545470557175577E-003;2.228162018582225E-003;
2.424500000000000E+009;1.528660953044891E-001;-1.108783781528473E-001;1.648317207582295E-003;2.224465366452932E-003;
2.424666666666667E+009;1.534962505102158E-001;-1.116295382380486E-001;1.867720508016646E-003;2.076424192637205E-003;
2.424833333333334E+009;1.537692546844482E-001;-1.128041446208954E-001;1.814939430914819E-003;2.124611521139741E-003;
2.425000000000000E+009;1.543180793523789E-001;-1.136893555521965E-001;1.912674750201404E-003;1.954484498128295E-003;
2.425166666666667E+009;1.545947194099426E-001;-1.145953163504601E-001;2.218136331066489E-003;2.001606859266758E-003;
2.425333333333334E+009;1.551322638988495E-001;-1.152513027191162E-001;2.233318053185940E-003;1.838745665736496E-003;
2.425500000000000E+009;1.554829925298691E-001;-1.160002872347832E-001;2.315269084647298E-003;1.807965803891420E-003;
2.425666666666667E+009;1.556141674518585E-001;-1.165088415145874E-001;2.413468668237329E-003;1.790314796380699E-003;
2.425833333333334E+009;1.558666080236435E-001;-1.170366257429123E-001;2.456287620589137E-003;1.651365426369011E-003;
2.426000000000000E+009;1.560116708278656E-001;-1.175719872117043E-001;2.516143955290318E-003;1.421051798388362E-003;
2.426166666666667E+009;1.563216447830200E-001;-1.179089769721031E-001;2.643216401338577E-003;1.341308117844164E-003;
2.426333333333334E+009;1.562204658985138E-001;-1.181654632091522E-001;2.611121628433466E-003;1.324466662481427E-003;
2.426500000000000E+009;1.563487797975540E-001;-1.184953153133392E-001;2.925795735791326E-003;1.252864603884518E-003;
2.426666666666667E+009;1.564211845397949E-001;-1.184497550129890E-001;2.847167430445552E-003;9.491242817603052E-004;
2.426833333333334E+009;1.561667770147324E-001;-1.186793446540833E-001;2.865091897547245E-003;9.662786033004522E-004;
2.427000000000000E+009;1.558620184659958E-001;-1.190275996923447E-001;3.025636076927185E-003;9.649246348999441E-004;
2.427166666666667E+009;1.554170697927475E-001;-1.188417077064514E-001;2.960769925266504E-003;7.023748476058245E-004;
2.427333333333334E+009;1.550003588199616E-001;-1.190405562520027E-001;3.044183133170009E-003;6.473247776739299E-004;
2.427500000000000E+009;1.545267701148987E-001;-1.192032545804977E-001;2.984103746712208E-003;6.256528431549668E-004;
2.427666666666667E+009;1.537807136774063E-001;-1.193603128194809E-001;3.043972188606858E-003;4.024545487482101E-004;
