# Version 1.00
#
freq[Hz];re:Trc1_S11;im:Trc1_S11;re:Trc2_S21;im:Trc2_S21;
2.400000000000000E+009;1.556671857833862E-001;1.107065305113792E-001;-2.550687640905380E-003;5.371449515223503E-003;
2.400166666666667E+009;1.551046371459961E-001;1.084632351994515E-001;-2.393923467025161E-003;5.420098546892405E-003;
2.400333333333334E+009;1.546728610992432E-001;1.062778010964394E-001;-2.218896523118019E-003;5.737400148063898E-003;
2.400500000000000E+009;1.544869393110275E-001;1.035251542925835E-001;-2.113433321937919E-003;5.870031192898750E-003;
2.400666666666667E+009;1.545738130807877E-001;1.010835617780685E-001;-1.855347072705627E-003;6.016438826918602E-003;
2.400833333333334E+009;1.540679186582565E-001;9.811690449714661E-002;-1.639943220652640E-003;6.316650658845902E-003;
2.401000000000000E+009;1.539746671915054E-001;9.529978036880493E-002;-1.449052128009498E-003;6.358013954013586E-003;
2.401166666666667E+009;1.537889838218689E-001;9.227924793958664E-002;-1.116412226110697E-003;6.543593946844339E-003;
2.401333333333334E+009;1.537188887596130E-001;8.941777795553207E-002;-1.007555983960629E-003;6.581536028534174E-003;
2.401500000000000E+009;1.539243310689926E-001;8.655887842178345E-002;-8.248591911979020E-004;6.650170311331749E-003;
2.401666666666667E+009;1.540225148200989E-001;8.351337909698486E-002;-2.958978875540197E-004;6.739529315382242E-003;
2.401833333333334E+009;1.543449312448502E-001;8.048084378242493E-002;-1.048264748533256E-004;6.726458668708801E-003;
2.402000000000000E+009;1.550073474645615E-001;7.762108743190765E-002;3.906459314748645E-004;6.832035258412361E-003;
2.402166666666667E+009;1.555066704750061E-001;7.484653592109680E-002;6.289784796535969E-004;6.684150081127882E-003;
2.402333333333334E+009;1.564435660839081E-001;7.190807908773422E-002;8.018233929760754E-004;6.787825375795364E-003;
2.402500000000000E+009;1.574172675609589E-001;6.907372921705246E-002;1.228858600370586E-003;6.896997801959515E-003;
2.402666666666667E+009;1.584531813859940E-001;6.655991077423096E-002;1.354418694972992E-003;6.662376690655947E-003;
2.402833333333334E+009;1.595905870199204E-001;6.386710703372955E-002;1.840002718381584E-003;6.609403528273106E-003;
2.403000000000000E+009;1.610623598098755E-001;6.134892627596855E-002;2.058315090835095E-003;6.364499218761921E-003;
2.403166666666667E+009;1.625089943408966E-001;5.897102877497673E-002;2.292150398716331E-003;6.258147303014994E-003;
2.403333333333334E+009;1.641723215579987E-001;5.644504725933075E-002;2.548722084611654E-003;6.092281080782414E-003;
2.403500000000000E+009;1.657398343086243E-001;5.418927967548370E-002;2.933032345026732E-003;6.004552822560072E-003;
2.403666666666667E+009;1.675312370061874E-001;5.200770497322083E-002;3.007219638675451E-003;5.756597034633160E-003;
2.403833333333334E+009;1.692208945751190E-001;4.995616525411606E-002;3.070823382586241E-003;5.446875933557749E-003;
2.404000000000000E+009;1.709420830011368E-001;4.794320091605187E-002;3.290894674137235E-003;5.265682004392147E-003;
2.404166666666667E+009;1.729133725166321E-001;4.624602571129799E-002;3.536862088367343E-003;5.179574713110924E-003;
2.404333333333334E+009;1.745923757553101E-001;4.463363811373711E-002;3.529239445924759E-003;4.964654799550772E-003;
2.404500000000000E+009;1.765442341566086E-001;4.300572723150253E-002;3.663158277049661E-003;4.788544960319996E-003;
2.404666666666667E+009;1.782068014144898E-001;4.173327609896660E-002;3.786823246628046E-003;4.671508446335793E-003;
2.404833333333334E+009;1.801362484693527E-001;4.061587154865265E-002;3.906179917976260E-003;4.463385790586472E-003;
2.405000000000000E+009;1.817200183868408E-001;3.971376642584801E-002;3.967540338635445E-003;4.310162272304297E-003;
2.405166666666667E+009;1.834685951471329E-001;3.884161636233330E-002;4.149393644183874E-003;4.137468058615923E-003;
2.405333333333334E+009;1.851702630519867E-001;3.850180655717850E-002;4.351020790636540E-003;4.117045551538467E-003;
2.405500000000000E+009;1.868904531002045E-001;3.795169666409493E-002;4.513143096119165E-003;4.041399341076613E-003;
2.405666666666667E+009;1.882331669330597E-001;3.759256377816200E-002;4.615519661456347E-003;3.617204027250409E-003;
2.405833333333334E+009;1.898019611835480E-001;3.724343702197075E-002;4.769540857523680E-003;3.641826333478093E-003;
2.406000000000000E+009;1.910127699375153E-001;3.713625669479370E-002;4.956826101988554E-003;3.331317566335201E-003;
2.406166666666667E+009;1.924075335264206E-001;3.711182624101639E-002;5.091818980872631E-003;3.146748524159193E-003;
2.406333333333334E+009;1.934842318296433E-001;3.731542080640793E-002;5.168751813471317E-003;2.901014639064670E-003;
2.406500000000000E+009;1.944903731346130E-001;3.745724633336067E-002;5.288894288241863E-003;2.581684617325664E-003;
2.406666666666667E+009;1.954218298196793E-001;3.770694136619568E-002;5.218719132244587E-003;2.154071582481265E-003;
2.406833333333334E+009;1.962457299232483E-001;3.791116178035736E-002;5.168582312762737E-003;2.088598208501935E-003;
2.407000000000000E+009;1.968331784009934E-001;3.849874809384346E-002;5.075674504041672E-003;1.828932203352451E-003;
2.407166666666667E+009;1.973974406719208E-001;3.841846063733101E-002;5.182793829590082E-003;1.611960586160421E-003;
2.407333333333334E+009;1.975747644901276E-001;3.887621313333511E-002;5.114167928695679E-003;1.499499776400626E-003;
2.407500000000000E+009;1.976798027753830E-001;3.922641277313232E-002;5.065901670604944E-003;1.321891322731972E-003;
2.407666666666667E+009;1.978384256362915E-001;3.969967737793922E-002;5.064615979790688E-003;1.009275903925300E-003;
2.407833333333334E+009;1.975450068712235E-001;3.971413522958756E-002;4.955977667123079E-003;9.263608371838927E-004;
2.408000000000000E+009;1.976333111524582E-001;3.981439769268036E-002;4.920626524835825E-003;8.877454674802721E-004;
2.408166666666667E+009;1.971682161092758E-001;3.987106308341026E-002;4.904754459857941E-003;6.565510993823409E-004;
2.408333333333334E+009;1.967586427927017E-001;3.973599150776863E-002;4.894320853054524E-003;5.185825866647065E-004;
2.408500000000000E+009;1.960186511278153E-001;3.981661424040794E-002;4.902450833469629E-003;3.570658154785633E-004;
2.408666666666667E+009;1.953776925802231E-001;3.957607969641686E-002;4.699521232396364E-003;3.066855424549431E-004;
2.408833333333334E+009;1.947771161794663E-001;3.914044797420502E-002;4.695850890129805E-003;2.063896390609443E-004;
2.409000000000000E+009;1.936653703451157E-001;3.855262324213982E-002;4.670113790780306E-003;3.567245812519104E-006;
2.409166666666667E+009;1.926815211772919E-001;3.791324049234390E-002;4.362673033028841E-003;-1.084838731912896E-004;
2.409333333333334E+009;1.917189508676529E-001;3.726631030440331E-002;4.244215320795775E-003;-4.419059769134037E-005;
2.409500000000000E+009;1.905708760023117E-001;3.627809509634972E-002;4.281087312847376E-003;-2.190829254686832E-004;
2.409666666666667E+009;1.891256123781204E-001;3.514063730835915E-002;4.216850269585848E-003;-1.942998824233655E-005;
2.409833333333334E+009;1.881376206874847E-001;3.391635790467262E-002;4.221226088702679E-003;-2.590820076875389E-004;
2.410000000000000E+009;1.869224607944489E-001;3.244983404874802E-002;4.393020179122686E-003;-1.609959290362895E-004;
2.410166666666667E+009;1.857932209968567E-001;3.084463067352772E-002;4.281825851649046E-003;-2.864805574063212E-004;
2.410333333333334E+009;1.847116798162460E-001;2.919606305658817E-002;4.108923021703959E-003;-3.776575613301247E-004;
2.410500000000000E+009;1.835426688194275E-001;2.744332142174244E-002;4.104087129235268E-003;-5.729687982238829E-004;
2.410666666666667E+009;1.822586059570313E-001;2.546601369976997E-002;4.345132503658533E-003;-4.587750299833715E-004;
2.410833333333334E+009;1.813337057828903E-001;2.343011461198330E-002;4.265851341187954E-003;-4.924272070638835E-004;
2.411000000000000E+009;1.804911345243454E-001;2.124363370239735E-002;4.230973776429892E-003;-5.383570096455514E-004;
2.411166666666667E+009;1.795651316642761E-001;1.889356598258019E-002;4.172026179730892E-003;-5.368100246414542E-004;
2.411333333333334E+009;1.788741052150726E-001;1.651525124907494E-002;4.216954577714205E-003;-6.348665920086205E-004;
2.411500000000000E+009;1.780748665332794E-001;1.403016131371260E-002;4.355541896075010E-003;-9.660499054007232E-004;
2.411666666666667E+009;1.778040528297424E-001;1.161544024944305E-002;4.361263941973448E-003;-7.972271996550262E-004;
2.411833333333334E+009;1.772688478231430E-001;9.243829175829887E-003;4.266836680471897E-003;-1.080273301340640E-003;
2.412000000000000E+009;1.771979182958603E-001;6.337450817227364E-003;4.271618556231260E-003;-9.589633555151522E-004;
2.412166666666667E+009;1.770790368318558E-001;4.042190033942461E-003;4.147901199758053E-003;-1.180257182568312E-003;
2.412333333333334E+009;1.771347671747208E-001;1.301936456002295E-003;4.186125472187996E-003;-1.196630066260696E-003;
2.412500000000000E+009;1.776537746191025E-001;-1.293932436965406E-003;4.276172723621130E-003;-1.430689706467092E-003;
2.412666666666667E+009;1.779340803623200E-001;-4.018549341708422E-003;4.434706177562475E-003;-1.540090306662023E-003;
2.412833333333334E+009;1.785864830017090E-001;-6.549621466547251E-003;4.399981815367937E-003;-1.586071914061904E-003;
2.413000000000000E+009;1.792500615119934E-001;-9.132658131420612E-003;4.358995705842972E-003;-1.748681417666376E-003;
2.413166666666667E+009;1.800047159194946E-001;-1.157817058265209E-002;4.441272467374802E-003;-1.975690945982933E-003;
2.413333333333334E+009;1.810277402400971E-001;-1.416899915784597E-002;4.288873635232449E-003;-2.259684959426522E-003;
2.413500000000000E+009;1.819918006658554E-001;-1.673368550837040E-002;4.384261090308428E-003;-2.332389121875167E-003;
2.413666666666667E+009;1.833483725786209E-001;-1.915295794606209E-002;4.255537409335375E-003;-2.491758204996586E-003;
2.413833333333334E+009;1.844129115343094E-001;-2.151618152856827E-002;4.206493962556124E-003;-2.852991223335266E-003;
2.414000000000000E+009;1.854524761438370E-001;-2.360023558139801E-002;4.029247444123030E-003;-2.948540262877941E-003;
2.414166666666667E+009;1.869059354066849E-001;-2.578302286565304E-002;3.891174681484699E-003;-3.146431874483824E-003;
2.414333333333334E+009;1.882266551256180E-001;-2.794446237385273E-002;3.830729285255075E-003;-3.524607513099909E-003;
2.414500000000000E+009;1.894331574440002E-001;-2.961337193846703E-002;3.501784754917026E-003;-3.575448412448168E-003;
2.414666666666667E+009;1.909981518983841E-001;-3.145103156566620E-002;3.574407659471035E-003;-3.782877232879400E-003;
2.414833333333334E+009;1.923978030681610E-001;-3.295487910509110E-002;3.278011921793222E-003;-3.685700008645654E-003;
2.415000000000000E+009;1.937216520309448E-001;-3.458672761917114E-002;3.170473501086235E-003;-3.955939318984747E-003;
2.415166666666667E+009;1.951563060283661E-001;-3.598180785775185E-002;2.929270034655929E-003;-3.881121985614300E-003;
2.415333333333334E+009;1.965524107217789E-001;-3.692973032593727E-002;2.696444047614932E-003;-3.957672975957394E-003;
2.415500000000000E+009;1.980146765708923E-001;-3.789280354976654E-002;2.702159108594060E-003;-3.989258315414190E-003;
2.415666666666667E+009;1.992472559213638E-001;-3.892814368009567E-002;2.671887166798115E-003;-4.013040568679571E-003;
2.415833333333334E+009;2.005013823509216E-001;-3.964549303054810E-002;2.333709737285972E-003;-4.440384451299906E-003;
2.416000000000000E+009;2.015490680932999E-001;-4.009753465652466E-002;2.306590788066387E-003;-4.315094090998173E-003;
2.416166666666667E+009;2.026436924934387E-001;-4.083779826760292E-002;2.147094346582890E-003;-4.692252725362778E-003;
2.416333333333334E+009;2.035396546125412E-001;-4.122529551386833E-002;1.999842701479793E-003;-4.398119170218706E-003;
2.416500000000000E+009;2.042706161737442E-001;-4.162877425551415E-002;1.769567606970668E-003;-4.758793395012617E-003;
2.416666666666667E+009;2.048956006765366E-001;-4.188690707087517E-002;1.702533918432891E-003;-4.791627172380686E-003;
2.416833333333334E+009;2.052152156829834E-001;-4.185123369097710E-002;1.339418930001557E-003;-4.752942826598883E-003;
2.417000000000000E+009;2.057711780071259E-001;-4.190526902675629E-002;1.247509615495801E-003;-4.790760111063719E-003;
2.417166666666667E+009;2.056642770767212E-001;-4.185762628912926E-002;9.074440458789468E-004;-4.890352953225374E-003;
2.417333333333334E+009;2.057415246963501E-001;-4.158749803900719E-002;7.063153898343444E-004;-4.752390086650848E-003;
2.417500000000000E+009;2.056741416454315E-001;-4.150524735450745E-002;5.255263531580567E-004;-4.771520383656025E-003;
2.417666666666667E+009;2.053174227476120E-001;-4.115527868270874E-002;2.992094086948782E-004;-4.754233639687300E-003;
2.417833333333334E+009;2.051892876625061E-001;-4.086080566048622E-002;1.788507215678692E-004;-4.600158426910639E-003;
2.418000000000000E+009;2.048007100820541E-001;-4.042124003171921E-002;1.088193166651763E-004;-4.469645675271750E-003;
2.418166666666667E+009;2.042030990123749E-001;-4.020569846034050E-002;-1.785108906915411E-004;-4.395224153995514E-003;
2.418333333333334E+009;2.032069861888886E-001;-3.982618451118469E-002;-2.498607791494578E-004;-4.352292511612177E-003;
2.418500000000000E+009;2.025107741355896E-001;-3.964935988187790E-002;-3.053504042327404E-004;-4.378141835331917E-003;
2.418666666666667E+009;2.015412747859955E-001;-3.946702554821968E-002;-4.713356029242277E-004;-4.259637091308832E-003;
2.418833333333334E+009;2.004029452800751E-001;-3.929823637008667E-002;-3.898923750966787E-004;-4.281344357877970E-003;
2.419000000000000E+009;1.990859657526016E-001;-3.932732343673706E-002;-5.534271476790309E-004;-4.231218248605728E-003;
2.419166666666667E+009;1.979472637176514E-001;-3.943610191345215E-002;-6.577406893484294E-004;-4.092710558325052E-003;
2.419333333333334E+009;1.963969171047211E-001;-3.980312123894692E-002;-6.532268016599119E-004;-3.991601523011923E-003;
2.419500000000000E+009;1.947837769985199E-001;-4.001666978001595E-002;-6.843014270998538E-004;-4.061238374561071E-003;
2.419666666666667E+009;1.932250559329987E-001;-4.054099693894386E-002;-8.502794662490487E-004;-3.907280974090099E-003;
2.419833333333334E+009;1.915489584207535E-001;-4.093070700764656E-002;-9.683103999122977E-004;-4.012618679553270E-003;
2.420000000000000E+009;1.898918300867081E-001;-4.177274182438850E-002;-9.832861833274365E-004;-3.963379189372063E-003;
2.420166666666667E+009;1.880709379911423E-001;-4.250277206301689E-002;-9.179608896374703E-004;-3.919308539479971E-003;
2.420333333333334E+009;1.863958835601807E-001;-4.361800476908684E-002;-1.058750203810632E-003;-3.803672967478633E-003;
2.420500000000000E+009;1.845669448375702E-001;-4.471878334879875E-002;-1.159293693490326E-003;-3.938785288482904E-003;
2.420666666666667E+009;1.825122088193893E-001;-4.579943418502808E-002;-1.388744334690273E-003;-3.818497760221362E-003;
2.420833333333334E+009;1.809051781892777E-001;-4.715597257018089E-002;-1.171686220914125E-003;-3.706927411258221E-003;
2.421000000000000E+009;1.790970563888550E-001;-4.879112914204598E-002;-1.441431930288672E-003;-3.775959368795157E-003;
2.421166666666667E+009;1.775436848402023E-001;-5.067043751478195E-002;-1.329135964624584E-003;-3.766546258702874E-003;
2.421333333333334E+009;1.756906360387802E-001;-5.198804661631584E-002;-1.437612227164209E-003;-3.626085119321942E-003;
2.421500000000000E+009;1.740827560424805E-001;-5.392555519938469E-002;-1.680126530118287E-003;-3.799950238317251E-003;
2.421666666666667E+009;1.726714819669724E-001;-5.583765357732773E-002;-1.728239585645497E-003;-3.779704216867685E-003;
2.421833333333334E+009;1.712181717157364E-001;-5.787748470902443E-002;-1.744406530633569E-003;-3.686443436890841E-003;
2.422000000000000E+009;1.698832362890244E-001;-5.978535860776901E-002;-1.953913364559412E-003;-3.650990547612310E-003;
2.422166666666667E+009;1.687729209661484E-001;-6.206600740551949E-002;-2.020107815042138E-003;-3.654371015727520E-003;
2.422333333333334E+009;1.675387024879456E-001;-6.433924287557602E-002;-2.164810197427869E-003;-3.548252396285534E-003;
2.422500000000000E+009;1.665010005235672E-001;-6.636698544025421E-002;-2.336515346542001E-003;-3.580160671845079E-003;
2.422666666666667E+009;1.656656265258789E-001;-6.860627233982086E-002;-2.459577517583966E-003;-3.555362578481436E-003;
2.422833333333334E+009;1.651015877723694E-001;-7.084335386753082E-002;-2.693578600883484E-003;-3.311329754069448E-003;
2.423000000000000E+009;1.644455492496491E-001;-7.318518310785294E-002;-2.643337240442634E-003;-3.381208982318640E-003;
2.423166666666667E+009;1.639845520257950E-001;-7.539892941713333E-002;-2.868254901841283E-003;-3.233558731153607E-003;
2.423333333333334E+009;1.636905223131180E-001;-7.759172469377518E-002;-2.964620944112539E-003;-3.235210664570332E-003;
2.423500000000000E+009;1.635548174381256E-001;-7.951794564723969E-002;-2.924163825809956E-003;-3.028738312423229E-003;
2.423666666666667E+009;1.632908135652542E-001;-8.183283358812332E-002;-3.031822619959712E-003;-2.869069343432784E-003;
2.423833333333334E+009;1.633383333683014E-001;-8.375839889049530E-002;-3.160814521834254E-003;-2.669493434950709E-003;
2.424000000000000E+009;1.634462475776672E-001;-8.580284565687180E-002;-3.169219708070159E-003;-2.631310373544693E-003;
2.424166666666667E+009;1.635593175888062E-001;-8.771365880966187E-002;-3.239704994484782E-003;-2.518179826438427E-003;
2.424333333333334E+009;1.637767106294632E-001;-8.969489485025406E-002;-3.570636268705130E-003;-2.346577821299434E-003;
2.424500000000000E+009;1.642690002918243E-001;-9.149735420942307E-002;-3.513853065669537E-003;-2.363606356084347E-003;
2.424666666666667E+009;1.644031554460526E-001;-9.320451319217682E-002;-3.601646283641458E-003;-2.167259808629751E-003;
2.424833333333334E+009;1.653073281049728E-001;-9.471295028924942E-002;-3.731434931978583E-003;-2.265135524794459E-003;
2.425000000000000E+009;1.654698997735977E-001;-9.603115916252136E-002;-3.628649748861790E-003;-2.150093205273151E-003;
2.425166666666667E+009;1.660213023424149E-001;-9.730580449104309E-002;-3.855791408568621E-003;-2.060757251456380E-003;
2.425333333333334E+009;1.666741371154785E-001;-9.849888086318970E-002;-3.758521284908056E-003;-1.852301415055990E-003;
2.425500000000000E+009;1.671243458986282E-001;-9.978577494621277E-002;-3.903064876794815E-003;-1.602663891389966E-003;
2.425666666666667E+009;1.678029596805573E-001;-1.005656048655510E-001;-3.994720987975597E-003;-1.541611156426370E-003;
2.425833333333334E+009;1.682474613189697E-001;-1.015655472874641E-001;-4.123103804886341E-003;-1.344125601463020E-003;
2.426000000000000E+009;1.689792424440384E-001;-1.021110489964485E-001;-4.060437902808189E-003;-1.095575396902859E-003;
2.426166666666667E+009;1.695071458816528E-001;-1.027019545435906E-001;-4.038957413285971E-003;-1.182631007395685E-003;
2.426333333333334E+009;1.699204146862030E-001;-1.032622158527374E-001;-4.078466910868883E-003;-9.544454514980316E-004;
2.426500000000000E+009;1.704974174499512E-001;-1.036077439785004E-001;-4.019495099782944E-003;-7.200391264632344E-004;
2.426666666666667E+009;1.709305942058563E-001;-1.039785370230675E-001;-4.030702635645866E-003;-6.884835311211646E-004;
2.426833333333334E+009;1.714880764484406E-001;-1.042666658759117E-001;-4.110127687454224E-003;-4.379101155791432E-004;
2.427000000000000E+009;1.716851741075516E-001;-1.044171825051308E-001;-3.983721602708101E-003;-3.925390483345836E-004;
2.427166666666667E+009;1.719314455986023E-001;-1.045185402035713E-001;-4.049644339829683E-003;-3.006822371389717E-004;
2.427333333333334E+009;1.721469014883041E-001;-1.046180725097656E-001;-3.954080864787102E-003;-2.091312489937991E-004;
2.427500000000000E+009;1.721358001232147E-001;-1.047476753592491E-001;-3.893899265676737E-003;3.441392209424521E-006;
2.427666666666667E+009;1.719629019498825E-001;-1.046478226780891E-001;-4.024437628686428E-003;1.341578899882734E-004;
