# Version 1.00
#
freq[Hz];re:Trc1_S11;im:Trc1_S11;re:Trc2_S21;im:Trc2_S21;
2.400000000000000E+009;1.556409150362015E-001;1.107160821557045E-001;-2.509723417460918E-003;5.144605878740549E-003;
2.400166666666667E+009;1.550531089305878E-001;1.084884330630302E-001;-2.478195121511817E-003;5.385829601436853E-003;
2.400333333333334E+009;1.548449546098709E-001;1.061496287584305E-001;-2.313924487680197E-003;5.633337888866663E-003;
2.400500000000000E+009;1.546184718608856E-001;1.033334359526634E-001;-2.273370977491140E-003;5.930198822170496E-003;
2.400666666666667E+009;1.541979163885117E-001;1.009411513805389E-001;-2.018520142883062E-003;5.956540349870920E-003;
2.400833333333334E+009;1.539588719606400E-001;9.798804670572281E-002;-1.731841941364110E-003;6.274624727666378E-003;
2.401000000000000E+009;1.539250463247299E-001;9.525606036186218E-002;-1.518004108220339E-003;6.306805647909641E-003;
2.401166666666667E+009;1.535503566265106E-001;9.232464432716370E-002;-1.208764966577292E-003;6.354949902743101E-003;
2.401333333333334E+009;1.537439674139023E-001;8.938957750797272E-002;-9.922150056809187E-004;6.610998883843422E-003;
2.401500000000000E+009;1.539300233125687E-001;8.628907054662705E-002;-7.261685677804053E-004;6.595645099878311E-003;
2.401666666666667E+009;1.540480703115463E-001;8.321996033191681E-002;-5.162318702787161E-004;7.050242740660906E-003;
2.401833333333334E+009;1.542312949895859E-001;8.035609126091003E-002;-2.100062847603113E-004;6.805730983614922E-003;
2.402000000000000E+009;1.547931432723999E-001;7.747066766023636E-002;4.202728450763971E-004;6.346874870359898E-003;
2.402166666666667E+009;1.556081622838974E-001;7.470998167991638E-002;9.204384405165911E-004;6.246346049010754E-003;
2.402333333333334E+009;1.562581509351730E-001;7.176874577999115E-002;9.337852243334055E-004;6.530318874865770E-003;
2.402500000000000E+009;1.573649197816849E-001;6.918124854564667E-002;1.078124274499714E-003;5.346687976270914E-003;
2.402666666666667E+009;1.581233441829681E-001;6.636495888233185E-002;1.185495173558593E-003;6.455281283706427E-003;
2.402833333333334E+009;1.594976037740707E-001;6.370377540588379E-002;1.805875450372696E-003;7.277099415659905E-003;
2.403000000000000E+009;1.609016656875610E-001;6.116952747106552E-002;2.103527775034308E-003;6.403847131878138E-003;
2.403166666666667E+009;1.624603569507599E-001;5.887906253337860E-002;1.934985863044858E-003;5.809082649648190E-003;
2.403333333333334E+009;1.641668677330017E-001;5.624664202332497E-002;2.517122542485595E-003;6.167688872665167E-003;
2.403500000000000E+009;1.658525168895721E-001;5.413794144988060E-002;2.677167532965541E-003;5.898957606405020E-003;
2.403666666666667E+009;1.675772219896317E-001;5.190382152795792E-002;2.934989053755999E-003;5.756391212344170E-003;
2.403833333333334E+009;1.692822724580765E-001;4.980858415365219E-002;3.200811799615622E-003;5.552772432565689E-003;
2.404000000000000E+009;1.708643585443497E-001;4.788394644856453E-002;3.345190780237317E-003;5.225429311394692E-003;
2.404166666666667E+009;1.729657202959061E-001;4.614754021167755E-002;3.450159914791584E-003;5.155423656105995E-003;
2.404333333333334E+009;1.746254414319992E-001;4.440899193286896E-002;3.573264228180051E-003;4.877765197306871E-003;
2.404500000000000E+009;1.765145212411881E-001;4.291618242859840E-002;3.664245828986168E-003;4.846910946071148E-003;
2.404666666666667E+009;1.783621311187744E-001;4.163538292050362E-002;3.881843062117696E-003;4.580102860927582E-003;
2.404833333333334E+009;1.801716089248657E-001;4.050751030445099E-002;3.845316357910633E-003;4.431274719536305E-003;
2.405000000000000E+009;1.817301958799362E-001;3.961652517318726E-002;3.988754469901323E-003;4.287958610802889E-003;
2.405166666666667E+009;1.835357844829559E-001;3.881721571087837E-002;4.327599890530109E-003;4.306762944906950E-003;
2.405333333333334E+009;1.851648539304733E-001;3.824269771575928E-002;4.233502317219973E-003;4.113961476832628E-003;
2.405500000000000E+009;1.867907643318176E-001;3.783774748444557E-002;4.537454806268215E-003;3.969726152718067E-003;
2.405666666666667E+009;1.883078068494797E-001;3.746437653899193E-002;4.634670447558165E-003;3.987399395555258E-003;
2.405833333333334E+009;1.897425055503845E-001;3.718272596597672E-002;4.786326549947262E-003;3.435113932937384E-003;
2.406000000000000E+009;1.911692172288895E-001;3.716576099395752E-002;4.873566795140505E-003;3.220751183107495E-003;
2.406166666666667E+009;1.922671049833298E-001;3.689478337764740E-002;4.939183127135038E-003;3.157872008159757E-003;
2.406333333333334E+009;1.936531215906143E-001;3.718966990709305E-002;5.101758521050215E-003;2.826800802722573E-003;
2.406500000000000E+009;1.946032494306564E-001;3.729347512125969E-002;5.260762758553028E-003;2.483685500919819E-003;
2.406666666666667E+009;1.953860819339752E-001;3.745419532060623E-002;5.409360397607088E-003;2.310578478500247E-003;
2.406833333333334E+009;1.961873620748520E-001;3.783968091011047E-002;5.210749804973602E-003;2.200755989179015E-003;
2.407000000000000E+009;1.967387050390244E-001;3.826545923948288E-002;5.193913821130991E-003;1.841064891777933E-003;
2.407166666666667E+009;1.973262429237366E-001;3.829931840300560E-002;5.189544986933470E-003;1.606288715265691E-003;
2.407333333333334E+009;1.974717825651169E-001;3.886637464165688E-002;5.170908290892839E-003;1.550867222249508E-003;
2.407500000000000E+009;1.976420134305954E-001;3.918701410293579E-002;5.011128727346659E-003;1.137617393396795E-003;
2.407666666666667E+009;1.979437172412872E-001;3.948143497109413E-002;5.008135922253132E-003;1.084706629626453E-003;
2.407833333333334E+009;1.975338160991669E-001;3.963619470596314E-002;5.081507842987776E-003;1.117829000577331E-003;
2.408000000000000E+009;1.974864602088928E-001;3.984829783439636E-002;5.018786527216435E-003;8.022528490982950E-004;
2.408166666666667E+009;1.970379650592804E-001;3.990803658962250E-002;4.917833022773266E-003;6.325839203782380E-004;
2.408333333333334E+009;1.966558098793030E-001;3.971511870622635E-002;4.760169889777899E-003;5.811789305880666E-004;
2.408500000000000E+009;1.959814727306366E-001;3.979821875691414E-002;4.780028481036425E-003;4.598932573571801E-004;
2.408666666666667E+009;1.953769773244858E-001;3.958162292838097E-002;4.755028523504734E-003;2.981119905598462E-004;
2.408833333333334E+009;1.947673410177231E-001;3.917090967297554E-002;4.628183320164681E-003;1.352754479739815E-004;
2.409000000000000E+009;1.935707181692123E-001;3.877149522304535E-002;4.613679833710194E-003;5.130821591592394E-005;
2.409166666666667E+009;1.926620900630951E-001;3.786630183458328E-002;4.390896297991276E-003;-8.831421291688457E-005;
2.409333333333334E+009;1.917337477207184E-001;3.724701702594757E-002;4.621092695742846E-003;-1.289900319534354E-005;
2.409500000000000E+009;1.904722899198532E-001;3.626620396971703E-002;4.255179315805435E-003;-7.028861728031188E-005;
2.409666666666667E+009;1.892118901014328E-001;3.509431704878807E-002;4.314550664275885E-003;-3.038790891878307E-004;
2.409833333333334E+009;1.880422979593277E-001;3.397010639309883E-002;4.123161546885967E-003;-1.498283090768382E-004;
2.410000000000000E+009;1.869380772113800E-001;3.254293277859688E-002;4.209293052554131E-003;-2.918023383244872E-004;
2.410166666666667E+009;1.856380403041840E-001;3.099941276013851E-002;4.190786741673946E-003;-2.320330968359485E-004;
2.410333333333334E+009;1.843665838241577E-001;2.934442646801472E-002;4.208360332995653E-003;-2.738402399700135E-004;
2.410500000000000E+009;1.833685785531998E-001;2.766979299485683E-002;4.118360579013825E-003;-3.610171552281827E-004;
2.410666666666667E+009;1.823118180036545E-001;2.532257698476315E-002;4.255876876413822E-003;-4.684117157012224E-004;
2.410833333333334E+009;1.813352406024933E-001;2.332572638988495E-002;4.188485909253359E-003;-4.838043532799929E-004;
2.411000000000000E+009;1.803723424673080E-001;2.126128226518631E-002;4.200993105769157E-003;-4.818458110094070E-004;
2.411166666666667E+009;1.796140670776367E-001;1.900601014494896E-002;4.281725268810988E-003;-6.797466776333749E-004;
2.411333333333334E+009;1.786661893129349E-001;1.653061807155609E-002;4.215668421238661E-003;-6.341589614748955E-004;
2.411500000000000E+009;1.781927794218063E-001;1.406823564320803E-002;4.157757386565208E-003;-8.438561344519258E-004;
2.411666666666667E+009;1.776153296232224E-001;1.175680384039879E-002;4.338356200605631E-003;-8.361616637557745E-004;
2.411833333333334E+009;1.771814227104187E-001;9.341229684650898E-003;4.127382766455412E-003;-8.662165491841734E-004;
2.412000000000000E+009;1.771213412284851E-001;6.377917248755693E-003;4.156179726123810E-003;-1.071990816853941E-003;
2.412166666666667E+009;1.770753115415573E-001;3.895973321050406E-003;4.235913045704365E-003;-1.140394248068333E-003;
2.412333333333334E+009;1.770619601011276E-001;1.280078897252679E-003;4.308966919779778E-003;-1.279981690458953E-003;
2.412500000000000E+009;1.775266230106354E-001;-1.284370431676507E-003;4.239154979586601E-003;-1.382543588988483E-003;
2.412666666666667E+009;1.778356581926346E-001;-3.849384840577841E-003;4.451207350939512E-003;-1.630116021260619E-003;
2.412833333333334E+009;1.785294860601425E-001;-6.633523851633072E-003;4.373086150735617E-003;-1.643747207708657E-003;
2.413000000000000E+009;1.790878027677536E-001;-9.111789055168629E-003;4.392900038510561E-003;-1.704557798802853E-003;
2.413166666666667E+009;1.798388212919235E-001;-1.165288500487804E-002;4.308953415602446E-003;-1.799786812625825E-003;
2.413333333333334E+009;1.809187680482864E-001;-1.416594907641411E-002;4.409642890095711E-003;-2.226410899311304E-003;
2.413500000000000E+009;1.817750483751297E-001;-1.677299663424492E-002;4.352214746177197E-003;-2.455411944538355E-003;
2.413666666666667E+009;1.831711977720261E-001;-1.914313249289990E-002;4.413032904267311E-003;-2.620556624606252E-003;
2.413833333333334E+009;1.842158138751984E-001;-2.138415910303593E-002;4.325553309172392E-003;-2.934375079348683E-003;
2.414000000000000E+009;1.854766756296158E-001;-2.378119714558125E-002;4.138243850320578E-003;-2.953624352812767E-003;
2.414166666666667E+009;1.867680847644806E-001;-2.579457685351372E-002;4.038834944367409E-003;-3.402758855372667E-003;
2.414333333333334E+009;1.881287842988968E-001;-2.803922258317471E-002;3.859841730445623E-003;-3.272115951403976E-003;
2.414500000000000E+009;1.895317137241364E-001;-2.956975996494293E-002;3.549096174538136E-003;-3.712981007993221E-003;
2.414666666666667E+009;1.909174621105194E-001;-3.140669688582420E-002;3.283718833699822E-003;-3.653015475720167E-003;
2.414833333333334E+009;1.922625303268433E-001;-3.289449214935303E-002;3.400838002562523E-003;-3.790943650528789E-003;
2.415000000000000E+009;1.936456561088562E-001;-3.454563394188881E-002;3.163963323459029E-003;-3.992336802184582E-003;
2.415166666666667E+009;1.951720267534256E-001;-3.586082905530930E-002;2.954165916889906E-003;-3.833696013316512E-003;
2.415333333333334E+009;1.963451504707336E-001;-3.699787706136704E-002;2.760469680652022E-003;-3.996613435447216E-003;
2.415500000000000E+009;1.979075819253922E-001;-3.792851790785790E-002;2.688242588192225E-003;-4.146472550928593E-003;
2.415666666666667E+009;1.991782933473587E-001;-3.888872638344765E-002;2.597419777885079E-003;-4.166544415056706E-003;
2.415833333333334E+009;2.003563046455383E-001;-3.957533463835716E-002;2.319970401003957E-003;-4.238499328494072E-003;
2.416000000000000E+009;2.014163285493851E-001;-4.030135646462441E-002;2.298702253028750E-003;-4.335805308073759E-003;
2.416166666666667E+009;2.025062739849091E-001;-4.085477441549301E-002;2.284068148583174E-003;-4.605740774422884E-003;
2.416333333333334E+009;2.034426182508469E-001;-4.116785153746605E-002;2.029373776167631E-003;-4.578832536935806E-003;
2.416500000000000E+009;2.041850835084915E-001;-4.149357229471207E-002;1.899810158647597E-003;-4.618330858647823E-003;
2.416666666666667E+009;2.049066722393036E-001;-4.194365814328194E-002;1.638480694964528E-003;-4.751490894705057E-003;
2.416833333333334E+009;2.052795290946960E-001;-4.192305728793144E-002;1.576664741151035E-003;-4.779767245054245E-003;
2.417000000000000E+009;2.057287395000458E-001;-4.202310368418694E-002;1.183092012070119E-003;-4.800718277692795E-003;
2.417166666666667E+009;2.056632190942764E-001;-4.180768132209778E-002;1.011703512631357E-003;-4.821797367185354E-003;
2.417333333333334E+009;2.057839632034302E-001;-4.154196009039879E-002;7.262426079250872E-004;-4.793536383658648E-003;
2.417500000000000E+009;2.056855857372284E-001;-4.152991622686386E-002;5.678203888237476E-004;-4.693626891821623E-003;
2.417666666666667E+009;2.053806781768799E-001;-4.114878922700882E-002;3.091123071499169E-004;-4.701415076851845E-003;
2.417833333333334E+009;2.051297277212143E-001;-4.075944423675537E-002;2.116645919159055E-004;-4.613772965967655E-003;
2.418000000000000E+009;2.046616673469544E-001;-4.044975712895393E-002;-2.945532287412789E-005;-4.540460184216499E-003;
2.418166666666667E+009;2.040703445672989E-001;-4.017840698361397E-002;-1.281144941458479E-004;-4.409090615808964E-003;
2.418333333333334E+009;2.033363580703735E-001;-3.973494097590447E-002;-1.976681087398902E-004;-4.204785916954279E-003;
2.418500000000000E+009;2.024166435003281E-001;-3.958223760128021E-002;-3.199839266017079E-004;-4.352124873548746E-003;
2.418666666666667E+009;2.015102654695511E-001;-3.936781734228134E-002;-4.252289363648742E-004;-4.199333023279905E-003;
2.418833333333334E+009;2.003635615110397E-001;-3.934569284319878E-002;-4.735463880933821E-004;-4.138447809964418E-003;
2.419000000000000E+009;1.991189718246460E-001;-3.931890428066254E-002;-5.196923739276826E-004;-4.186464473605156E-003;
2.419166666666667E+009;1.977922022342682E-001;-3.939662501215935E-002;-5.521125276573002E-004;-4.030016716569662E-003;
2.419333333333334E+009;1.964197605848312E-001;-3.961784765124321E-002;-5.591299850493670E-004;-3.996973391622305E-003;
2.419500000000000E+009;1.947779655456543E-001;-3.996090590953827E-002;-7.134646293707192E-004;-4.054754041135311E-003;
2.419666666666667E+009;1.932317316532135E-001;-4.044154658913612E-002;-8.686372311785817E-004;-3.893834538757801E-003;
2.419833333333334E+009;1.914586275815964E-001;-4.080857709050179E-002;-8.461746620014310E-004;-3.958497196435928E-003;
2.420000000000000E+009;1.898975968360901E-001;-4.159992933273315E-002;-8.792922599241138E-004;-4.043928347527981E-003;
2.420166666666667E+009;1.880218535661697E-001;-4.244163259863854E-002;-1.042781746946275E-003;-3.864337690174580E-003;
2.420333333333334E+009;1.862722784280777E-001;-4.353845119476318E-002;-1.163650536909699E-003;-3.931187093257904E-003;
2.420500000000000E+009;1.844243854284287E-001;-4.473653808236122E-002;-1.076391432434320E-003;-3.842893289402127E-003;
2.420666666666667E+009;1.825090646743774E-001;-4.572005197405815E-002;-1.266542472876608E-003;-3.799079684540629E-003;
2.420833333333334E+009;1.807192265987396E-001;-4.720861464738846E-002;-1.445207395590842E-003;-3.717578481882811E-003;
2.421000000000000E+009;1.790851056575775E-001;-4.879488795995712E-002;-1.415675738826394E-003;-3.800790756940842E-003;
2.421166666666667E+009;1.774663627147675E-001;-5.046647042036057E-002;-1.496996032074094E-003;-3.815100761130452E-003;
2.421333333333334E+009;1.755169779062271E-001;-5.207079276442528E-002;-1.619742601178587E-003;-3.755892859771848E-003;
2.421500000000000E+009;1.739708036184311E-001;-5.387010425329208E-002;-1.693346421234310E-003;-3.722394350916147E-003;
2.421666666666667E+009;1.725626885890961E-001;-5.586320161819458E-002;-1.812059432268143E-003;-3.634843043982983E-003;
2.421833333333334E+009;1.711961925029755E-001;-5.749373883008957E-002;-1.958855660632253E-003;-3.728926414623857E-003;
2.422000000000000E+009;1.697343885898590E-001;-5.976868420839310E-002;-2.107248641550541E-003;-3.617063397541642E-003;
2.422166666666667E+009;1.688045114278793E-001;-6.212942674756050E-002;-2.230729674920440E-003;-3.593685338273644E-003;
2.422333333333334E+009;1.674434244632721E-001;-6.405984610319138E-002;-2.256767824292183E-003;-3.727377858012915E-003;
2.422500000000000E+009;1.664722263813019E-001;-6.632226705551148E-002;-2.499800873920322E-003;-3.635127563029528E-003;
2.422666666666667E+009;1.656477749347687E-001;-6.845358014106751E-002;-2.433352638036013E-003;-3.555149072781205E-003;
2.422833333333334E+009;1.649605333805084E-001;-7.073236256837845E-002;-2.764627803117037E-003;-3.294935682788491E-003;
2.423000000000000E+009;1.643773317337036E-001;-7.302457094192505E-002;-2.659321995452046E-003;-3.189855255186558E-003;
2.423166666666667E+009;1.639200299978256E-001;-7.517764717340469E-002;-2.772737992927432E-003;-3.146589035168290E-003;
2.423333333333334E+009;1.636014580726624E-001;-7.747937738895416E-002;-2.808459568768740E-003;-3.052659332752228E-003;
2.423500000000000E+009;1.633935570716858E-001;-7.952046394348145E-002;-2.860831562429667E-003;-2.945126965641975E-003;
2.423666666666667E+009;1.634888052940369E-001;-8.181669563055039E-002;-3.044136567041278E-003;-2.801543334499002E-003;
2.423833333333334E+009;1.632000654935837E-001;-8.382948487997055E-002;-3.163786837831140E-003;-2.771027153357863E-003;
2.424000000000000E+009;1.634075790643692E-001;-8.565102517604828E-002;-3.078325651586056E-003;-2.734563080593944E-003;
2.424166666666667E+009;1.634713560342789E-001;-8.764655143022537E-002;-3.305561607703567E-003;-2.523567760363221E-003;
2.424333333333334E+009;1.638664156198502E-001;-8.944810181856155E-002;-3.179224207997322E-003;-2.531266305595636E-003;
2.424500000000000E+009;1.642015576362610E-001;-9.144126623868942E-002;-3.494295291602612E-003;-2.593569923192263E-003;
2.424666666666667E+009;1.646661758422852E-001;-9.302458167076111E-002;-3.594071604311466E-003;-2.381158061325550E-003;
2.424833333333334E+009;1.652343571186066E-001;-9.454128891229630E-002;-3.596565453335643E-003;-2.278569852933288E-003;
2.425000000000000E+009;1.657240539789200E-001;-9.593105316162109E-002;-3.586472710594535E-003;-2.156245289370418E-003;
2.425166666666667E+009;1.660841703414917E-001;-9.732432663440704E-002;-3.684694645926356E-003;-1.888099475763738E-003;
2.425333333333334E+009;1.667124480009079E-001;-9.846127033233643E-002;-3.903428791090846E-003;-1.696400111541152E-003;
2.425500000000000E+009;1.672016084194183E-001;-9.976171702146530E-002;-3.906353842467070E-003;-1.863264362327755E-003;
2.425666666666667E+009;1.678693145513535E-001;-1.005520373582840E-001;-3.865458769723773E-003;-1.744363107718527E-003;
2.425833333333334E+009;1.683574318885803E-001;-1.015049219131470E-001;-3.927430603653193E-003;-1.365295378491283E-003;
2.426000000000000E+009;1.689370572566986E-001;-1.019325330853462E-001;-4.009742289781570E-003;-1.168088288977742E-003;
2.426166666666667E+009;1.695553362369537E-001;-1.026254147291184E-001;-3.868083469569683E-003;-1.157750841230154E-003;
2.426333333333334E+009;1.698164343833923E-001;-1.032882109284401E-001;-4.122004378587008E-003;-9.098837617784739E-004;
2.426500000000000E+009;1.704447120428085E-001;-1.034700348973274E-001;-3.905860474333167E-003;-9.875698015093803E-004;
2.426666666666667E+009;1.709609776735306E-001;-1.038808673620224E-001;-4.120781552046537E-003;-5.875027272850275E-004;
2.426833333333334E+009;1.714427918195725E-001;-1.041994988918304E-001;-4.099251236766577E-003;-4.299394204281271E-004;
2.427000000000000E+009;1.716766953468323E-001;-1.043903902173042E-001;-3.910082392394543E-003;-4.043650114908814E-004;
2.427166666666667E+009;1.719158291816711E-001;-1.044059395790100E-001;-3.914627246558666E-003;-2.864581183530390E-004;
2.427333333333334E+009;1.720975041389465E-001;-1.045839488506317E-001;-4.092535469681025E-003;-3.752474731300026E-005;
2.427500000000000E+009;1.720941364765167E-001;-1.046490445733070E-001;-3.858890617266297E-003;-7.965382974362001E-005;
2.427666666666667E+009;1.719045341014862E-001;-1.045813038945198E-001;-3.872314235195518E-003;1.532795577077195E-004;
