# Version 1.00
#
freq[Hz];re:Trc1_S11;im:Trc1_S11;re:Trc2_S21;im:Trc2_S21;
2.400000000000000E+009;1.553976833820343E-001;1.105853319168091E-001;-1.784471562132239E-003;5.792318377643824E-003;
2.400166666666667E+009;1.548393815755844E-001;1.085781678557396E-001;-2.031030366197228E-003;5.148430354893208E-003;
2.400333333333334E+009;1.547577977180481E-001;1.058820262551308E-001;-2.869637683033943E-003;6.494573317468166E-003;
2.400500000000000E+009;1.543756574392319E-001;1.035524457693100E-001;-1.495876116678119E-003;5.430590361356735E-003;
2.400666666666667E+009;1.542288810014725E-001;1.010625213384628E-001;-1.967363292351365E-003;5.959612783044577E-003;
2.400833333333334E+009;1.540681868791580E-001;9.807521104812622E-002;-1.770654693245888E-003;6.203050259500742E-003;
2.401000000000000E+009;1.539013534784317E-001;9.533265233039856E-002;-1.580995740368962E-003;6.331261247396469E-003;
2.401166666666667E+009;1.536569148302078E-001;9.234662353992462E-002;-1.244949409738183E-003;6.434903480112553E-003;
2.401333333333334E+009;1.537221670150757E-001;8.935543149709702E-002;-9.804267901927233E-004;6.573784630745649E-003;
2.401500000000000E+009;1.539924442768097E-001;8.636324852705002E-002;-7.592449546791613E-004;6.577740423381329E-003;
2.401666666666667E+009;1.540945321321487E-001;8.336155116558075E-002;-3.638429043348879E-004;6.710178684443235E-003;
2.401833333333334E+009;1.542583703994751E-001;8.045331388711929E-002;-4.731104490929283E-005;6.753657944500446E-003;
2.402000000000000E+009;1.549791842699051E-001;7.763478159904480E-002;2.273249410791323E-004;6.716392934322357E-003;
2.402166666666667E+009;1.554968357086182E-001;7.481573522090912E-002;5.160110886208713E-004;6.821524351835251E-003;
2.402333333333334E+009;1.563498973846436E-001;7.174963504076004E-002;7.345429039560258E-004;6.855040788650513E-003;
2.402500000000000E+009;1.574092954397202E-001;6.898729503154755E-002;1.055577187798917E-003;6.628926843404770E-003;
2.402666666666667E+009;1.583584249019623E-001;6.657257676124573E-002;1.478121150285006E-003;6.746633909642696E-003;
2.402833333333334E+009;1.595121622085571E-001;6.385792046785355E-002;1.690674340352416E-003;6.521877832710743E-003;
2.403000000000000E+009;1.609219014644623E-001;6.121985986828804E-002;1.959499204531312E-003;6.548807956278324E-003;
2.403166666666667E+009;1.627254635095596E-001;5.890299752354622E-002;2.255333354696631E-003;6.292674690485001E-003;
2.403333333333334E+009;1.641732156276703E-001;5.619747564196587E-002;2.571132499724627E-003;6.083167623728514E-003;
2.403500000000000E+009;1.658574789762497E-001;5.408434942364693E-002;2.754163695499301E-003;5.791619885712862E-003;
2.403666666666667E+009;1.676739305257797E-001;5.185012891888619E-002;3.151147393509746E-003;5.703471135348082E-003;
2.403833333333334E+009;1.694408357143402E-001;4.970470443367958E-002;3.196414094418287E-003;5.501003004610539E-003;
2.404000000000000E+009;1.710977703332901E-001;4.786047711968422E-002;3.341894829645753E-003;5.376760847866535E-003;
2.404166666666667E+009;1.729369312524796E-001;4.613170027732849E-002;3.497087396681309E-003;5.165243986994028E-003;
2.404333333333334E+009;1.747876256704330E-001;4.442350566387177E-002;3.658453002572060E-003;4.934360273182392E-003;
2.404500000000000E+009;1.765796244144440E-001;4.295785352587700E-002;3.766343696042895E-003;4.742988850921392E-003;
2.404666666666667E+009;1.783894002437592E-001;4.176180064678192E-002;3.882451681420207E-003;4.774142056703568E-003;
2.404833333333334E+009;1.802335232496262E-001;4.047997295856476E-002;3.908547572791576E-003;4.615472164005041E-003;
2.405000000000000E+009;1.820006370544434E-001;3.970872983336449E-002;4.076356068253517E-003;4.291410557925701E-003;
2.405166666666667E+009;1.834466457366943E-001;3.879489749670029E-002;4.129664506763220E-003;4.228753037750721E-003;
2.405333333333334E+009;1.850504577159882E-001;3.834915533661842E-002;4.319591447710991E-003;4.102750681340694E-003;
2.405500000000000E+009;1.867814958095551E-001;3.782568871974945E-002;4.463525023311377E-003;3.912060987204313E-003;
2.405666666666667E+009;1.883210241794586E-001;3.752741590142250E-002;4.645637702196837E-003;3.821265650913119E-003;
2.405833333333334E+009;1.896947771310806E-001;3.719049319624901E-002;4.909371957182884E-003;3.511211834847927E-003;
2.406000000000000E+009;1.910750567913055E-001;3.724981844425201E-002;4.724920261651278E-003;3.220665734261274E-003;
2.406166666666667E+009;1.923125684261322E-001;3.709418699145317E-002;5.157070234417915E-003;3.034014021977782E-003;
2.406333333333334E+009;1.935755908489227E-001;3.729070350527763E-002;5.138331092894077E-003;2.846697578206658E-003;
2.406500000000000E+009;1.945535093545914E-001;3.742185980081558E-002;5.135148297995329E-003;2.564742462709546E-003;
2.406666666666667E+009;1.954285800457001E-001;3.777409344911575E-002;5.291262641549110E-003;2.445490565150976E-003;
2.406833333333334E+009;1.962257176637650E-001;3.798374161124229E-002;5.229683127254248E-003;2.041794359683991E-003;
2.407000000000000E+009;1.967769265174866E-001;3.826517984271050E-002;5.309932865202427E-003;1.907009398564696E-003;
2.407166666666667E+009;1.973667293787003E-001;3.852239623665810E-002;5.115133244544268E-003;1.569919637404382E-003;
2.407333333333334E+009;1.975532323122025E-001;3.884596005082130E-002;5.077942740172148E-003;1.534859184175730E-003;
2.407500000000000E+009;1.977127194404602E-001;3.931087255477905E-002;5.020256154239178E-003;1.271620159968734E-003;
2.407666666666667E+009;1.979293525218964E-001;3.934275731444359E-002;4.985411651432514E-003;1.162081956863403E-003;
2.407833333333334E+009;1.974854618310928E-001;3.969698771834374E-002;5.045932717621326E-003;9.751713951118290E-004;
2.408000000000000E+009;1.975253075361252E-001;3.983936831355095E-002;4.932036623358727E-003;7.612604531459510E-004;
2.408166666666667E+009;1.971220672130585E-001;3.994428738951683E-002;4.936026874929667E-003;7.261755526997149E-004;
2.408333333333334E+009;1.966443657875061E-001;3.976465016603470E-002;4.853915423154831E-003;5.666522774845362E-004;
2.408500000000000E+009;1.959721893072128E-001;3.990953788161278E-002;4.820173140615225E-003;4.221613344270736E-004;
2.408666666666667E+009;1.954142600297928E-001;3.966637328267098E-002;4.609013441950083E-003;3.693133476190269E-004;
2.408833333333334E+009;1.947093755006790E-001;3.914597630500794E-002;4.670774098485708E-003;-5.697792221326381E-005;
2.409000000000000E+009;1.937213838100433E-001;3.859015554189682E-002;4.585261456668377E-003;1.616807276150212E-004;
2.409166666666667E+009;1.926844418048859E-001;3.794184699654579E-002;4.563936498016119E-003;-1.544338301755488E-004;
2.409333333333334E+009;1.916671246290207E-001;3.730099275708199E-002;4.449853207916021E-003;-1.030902567435987E-004;
2.409500000000000E+009;1.904698312282562E-001;3.633378818631172E-002;4.376115277409554E-003;-1.573116460349411E-004;
2.409666666666667E+009;1.893350780010223E-001;3.522413596510887E-002;4.346698056906462E-003;-1.758169673848897E-004;
2.409833333333334E+009;1.881238222122192E-001;3.387438133358955E-002;4.342144820839167E-003;-1.664242154220119E-004;
2.410000000000000E+009;1.870675534009934E-001;3.238585963845253E-002;4.104951862245798E-003;-3.060104208998382E-004;
2.410166666666667E+009;1.857649683952332E-001;3.092228434979916E-002;4.235357046127319E-003;-2.685531217139214E-004;
2.410333333333334E+009;1.846503019332886E-001;2.926696278154850E-002;4.157030954957008E-003;-2.542056317906827E-004;
2.410500000000000E+009;1.832437217235565E-001;2.760070376098156E-002;4.282008856534958E-003;-3.702885005623102E-004;
2.410666666666667E+009;1.821735799312592E-001;2.523879148066044E-002;4.267022944986820E-003;-3.795411903411150E-004;
2.410833333333334E+009;1.813414692878723E-001;2.329676039516926E-002;4.165907856076956E-003;-5.082468269392848E-004;
2.411000000000000E+009;1.803902536630631E-001;2.113616466522217E-002;4.154358524829149E-003;-4.443764628376812E-004;
2.411166666666667E+009;1.793566495180130E-001;1.905983686447144E-002;4.089851863682270E-003;-5.094971857033670E-004;
2.411333333333334E+009;1.786921322345734E-001;1.635442115366459E-002;4.224903881549835E-003;-5.653988919220865E-004;
2.411500000000000E+009;1.780140697956085E-001;1.399997528642416E-002;4.186870064586401E-003;-7.493015727959573E-004;
2.411666666666667E+009;1.776835918426514E-001;1.166707929223776E-002;4.196983296424151E-003;-1.150879892520607E-003;
2.411833333333334E+009;1.770736426115036E-001;9.140769951045513E-003;4.120205994695425E-003;-1.035489025525749E-003;
2.412000000000000E+009;1.770923584699631E-001;6.350851152092218E-003;4.331474192440510E-003;-1.159239560365677E-003;
2.412166666666667E+009;1.771739274263382E-001;4.004857502877712E-003;4.280228633433580E-003;-1.147918985225260E-003;
2.412333333333334E+009;1.770886331796646E-001;1.225132844410837E-003;4.231026396155357E-003;-1.409417483955622E-003;
2.412500000000000E+009;1.773809194564819E-001;-1.284362864680588E-003;4.199288785457611E-003;-1.226228545419872E-003;
2.412666666666667E+009;1.777962148189545E-001;-4.022266250103712E-003;4.313898272812367E-003;-1.426962320692837E-003;
2.412833333333334E+009;1.785515993833542E-001;-6.480380892753601E-003;4.460883792489767E-003;-1.587973209097982E-003;
2.413000000000000E+009;1.790410280227661E-001;-9.013018570840359E-003;4.535861313343048E-003;-1.900258823297918E-003;
2.413166666666667E+009;1.800926923751831E-001;-1.164752896875143E-002;4.451114218682051E-003;-1.864109304733574E-003;
2.413333333333334E+009;1.807745546102524E-001;-1.425497420132160E-002;4.459289833903313E-003;-2.193689579144120E-003;
2.413500000000000E+009;1.818214952945709E-001;-1.669867150485516E-002;4.450720734894276E-003;-2.245653420686722E-003;
2.413666666666667E+009;1.830362379550934E-001;-1.923497207462788E-002;4.424964543431997E-003;-2.592546632513404E-003;
2.413833333333334E+009;1.842326968908310E-001;-2.135488204658032E-002;4.305014386773109E-003;-2.742893295362592E-003;
2.414000000000000E+009;1.855423450469971E-001;-2.368488535284996E-002;4.124884493649006E-003;-3.019387368112803E-003;
2.414166666666667E+009;1.869968026876450E-001;-2.573232725262642E-002;3.932842053472996E-003;-3.279011929407716E-003;
2.414333333333334E+009;1.881805360317230E-001;-2.802948653697968E-002;3.843339160084724E-003;-3.439154243096709E-003;
2.414500000000000E+009;1.895506829023361E-001;-2.958331443369389E-002;3.647089004516602E-003;-3.741804510354996E-003;
2.414666666666667E+009;1.908824145793915E-001;-3.152877464890480E-002;3.475442994385958E-003;-3.608360420912504E-003;
2.414833333333334E+009;1.923977285623550E-001;-3.297547996044159E-002;3.193155629560351E-003;-3.775963792577386E-003;
2.415000000000000E+009;1.936335861682892E-001;-3.455219045281410E-002;2.986557083204389E-003;-3.814801806584001E-003;
2.415166666666667E+009;1.952417492866516E-001;-3.568401560187340E-002;2.938997233286500E-003;-3.816582728177309E-003;
2.415333333333334E+009;1.964939236640930E-001;-3.697181120514870E-002;2.820510882884264E-003;-4.022927489131689E-003;
2.415500000000000E+009;1.979776620864868E-001;-3.781571611762047E-002;2.657858422026038E-003;-3.961081616580486E-003;
2.415666666666667E+009;1.991638541221619E-001;-3.875216841697693E-002;2.482627285644412E-003;-4.186416510492563E-003;
2.415833333333334E+009;2.003566622734070E-001;-3.950559720396996E-002;2.471091458573937E-003;-4.172064363956451E-003;
2.416000000000000E+009;2.015296667814255E-001;-4.024716839194298E-002;2.342568244785070E-003;-4.384689498692751E-003;
2.416166666666667E+009;2.026028633117676E-001;-4.083604738116264E-002;2.191597595810890E-003;-4.344447050243616E-003;
2.416333333333334E+009;2.035327851772308E-001;-4.125232994556427E-002;2.014116616919637E-003;-4.493800923228264E-003;
2.416500000000000E+009;2.043421566486359E-001;-4.149066656827927E-002;1.979890745133162E-003;-4.626892972737551E-003;
2.416666666666667E+009;2.048414200544357E-001;-4.194251075387001E-002;1.753040705807507E-003;-4.696051590144634E-003;
2.416833333333334E+009;2.053063511848450E-001;-4.192232713103294E-002;1.380830886773765E-003;-4.736254923045635E-003;
2.417000000000000E+009;2.057108730077744E-001;-4.200478643178940E-002;1.110434881411493E-003;-4.900418687611818E-003;
2.417166666666667E+009;2.057474553585053E-001;-4.188046976923943E-002;9.512624237686396E-004;-4.847147036343813E-003;
2.417333333333334E+009;2.057500034570694E-001;-4.155449569225311E-002;8.351726573891938E-004;-4.734843503683806E-003;
2.417500000000000E+009;2.056554108858109E-001;-4.151273891329765E-002;4.024779482278973E-004;-4.837100394070149E-003;
2.417666666666667E+009;2.054007053375244E-001;-4.110647737979889E-002;2.821834932547063E-004;-4.716169089078903E-003;
2.417833333333334E+009;2.050972729921341E-001;-4.080110415816307E-002;2.111413487000391E-004;-4.603753332048655E-003;
2.418000000000000E+009;2.046927511692047E-001;-4.040842503309250E-002;4.625354267773219E-005;-4.584288690239191E-003;
2.418166666666667E+009;2.040352374315262E-001;-4.004352167248726E-002;6.718732947774697E-008;-4.459129180759192E-003;
2.418333333333334E+009;2.032121568918228E-001;-3.976637870073319E-002;-2.570111828390509E-004;-4.458712413907051E-003;
2.418500000000000E+009;2.023465931415558E-001;-3.962985798716545E-002;-2.423688856652007E-004;-4.356053192168474E-003;
2.418666666666667E+009;2.016306072473526E-001;-3.936392441391945E-002;-4.273971135262400E-004;-4.217170644551516E-003;
2.418833333333334E+009;2.002389430999756E-001;-3.929176554083824E-002;-4.681339196395129E-004;-4.227748606353998E-003;
2.419000000000000E+009;1.991593390703201E-001;-3.919951617717743E-002;-4.815204010810703E-004;-4.200831055641174E-003;
2.419166666666667E+009;1.979089528322220E-001;-3.928047791123390E-002;-5.618159775622189E-004;-4.103243816643953E-003;
2.419333333333334E+009;1.965341567993164E-001;-3.960084542632103E-002;-6.405941094271839E-004;-4.137286916375160E-003;
2.419500000000000E+009;1.948666274547577E-001;-3.988124802708626E-002;-7.123849936760962E-004;-4.039502702653408E-003;
2.419666666666667E+009;1.933132112026215E-001;-4.057158529758453E-002;-7.289891946129501E-004;-3.978158347308636E-003;
2.419833333333334E+009;1.915988475084305E-001;-4.088661819696426E-002;-8.639968000352383E-004;-3.791869617998600E-003;
2.420000000000000E+009;1.899892091751099E-001;-4.170662537217140E-002;-1.035296940244734E-003;-4.008402116596699E-003;
2.420166666666667E+009;1.879627257585526E-001;-4.247284680604935E-002;-1.068871933966875E-003;-3.920278977602720E-003;
2.420333333333334E+009;1.863294988870621E-001;-4.353103786706924E-002;-1.183684100396931E-003;-3.830231260508299E-003;
2.420500000000000E+009;1.845597773790360E-001;-4.472325369715691E-002;-1.229879446327686E-003;-3.821254940703511E-003;
2.420666666666667E+009;1.826314926147461E-001;-4.588180407881737E-002;-1.309051061980426E-003;-3.870115848258138E-003;
2.420833333333334E+009;1.806948333978653E-001;-4.728621244430542E-002;-1.341009628959000E-003;-3.789658425375819E-003;
2.421000000000000E+009;1.790939420461655E-001;-4.880223423242569E-002;-1.404762617312372E-003;-3.752009477466345E-003;
2.421166666666667E+009;1.775370240211487E-001;-5.042906105518341E-002;-1.476131496019661E-003;-3.794133896008134E-003;
2.421333333333334E+009;1.756490170955658E-001;-5.190073698759079E-002;-1.512219896540046E-003;-3.752094227820635E-003;
2.421500000000000E+009;1.740197390317917E-001;-5.393628403544426E-002;-1.465584500692785E-003;-3.736747428774834E-003;
2.421666666666667E+009;1.725853681564331E-001;-5.582440271973610E-002;-1.704269205220044E-003;-3.688571276143193E-003;
2.421833333333334E+009;1.712827086448669E-001;-5.777547881007195E-002;-1.751801348291338E-003;-3.709829412400723E-003;
2.422000000000000E+009;1.697625815868378E-001;-5.967969447374344E-002;-1.959769288077951E-003;-3.702751360833645E-003;
2.422166666666667E+009;1.688851714134216E-001;-6.194900721311569E-002;-2.192207612097263E-003;-3.683298593387008E-003;
2.422333333333334E+009;1.675287932157517E-001;-6.408408284187317E-002;-2.185598714277148E-003;-3.507411573082209E-003;
2.422500000000000E+009;1.665491610765457E-001;-6.626263260841370E-002;-2.415010938420892E-003;-3.538202960044146E-003;
2.422666666666667E+009;1.657479852437973E-001;-6.849890202283859E-002;-2.382512204349041E-003;-3.509437665343285E-003;
2.422833333333334E+009;1.650411337614059E-001;-7.065083086490631E-002;-2.523584989830852E-003;-3.373510902747512E-003;
2.423000000000000E+009;1.643442809581757E-001;-7.305883616209030E-002;-2.748453523963690E-003;-3.369713667780161E-003;
2.423166666666667E+009;1.638454198837280E-001;-7.521879673004150E-002;-2.742720535025001E-003;-3.116526175290346E-003;
2.423333333333334E+009;1.636289507150650E-001;-7.735434174537659E-002;-2.897876780480146E-003;-3.091434249654412E-003;
2.423500000000000E+009;1.634451746940613E-001;-7.952336966991425E-002;-2.980489050969482E-003;-2.957438584417105E-003;
2.423666666666667E+009;1.634349673986435E-001;-8.186677843332291E-002;-3.012481844052672E-003;-3.043733304366469E-003;
2.423833333333334E+009;1.633296012878418E-001;-8.380630612373352E-002;-3.095054766163230E-003;-2.723277080804110E-003;
2.424000000000000E+009;1.635217368602753E-001;-8.569224178791046E-002;-3.234692150726914E-003;-2.744141500443220E-003;
2.424166666666667E+009;1.634961068630219E-001;-8.760445564985275E-002;-3.196617588400841E-003;-2.593894954770804E-003;
2.424333333333334E+009;1.638846099376679E-001;-8.941996097564697E-002;-3.269006963819265E-003;-2.564687514677644E-003;
2.424500000000000E+009;1.641245782375336E-001;-9.143682569265366E-002;-3.371037077158690E-003;-2.479531103745103E-003;
2.424666666666667E+009;1.646039038896561E-001;-9.299073368310928E-002;-3.394015133380890E-003;-2.354290569201112E-003;
2.424833333333334E+009;1.652188748121262E-001;-9.465469419956207E-002;-3.648045007139444E-003;-2.342019928619266E-003;
2.425000000000000E+009;1.657184511423111E-001;-9.602828323841095E-002;-3.713172627612948E-003;-2.137233735993505E-003;
2.425166666666667E+009;1.661341190338135E-001;-9.732764214277268E-002;-3.774580312892795E-003;-1.948748133145273E-003;
2.425333333333334E+009;1.667076498270035E-001;-9.853670001029968E-002;-3.770756535232067E-003;-1.883027493022382E-003;
2.425500000000000E+009;1.672126501798630E-001;-9.980840235948563E-002;-3.862907178699970E-003;-1.772446790710092E-003;
2.425666666666667E+009;1.678507328033447E-001;-1.005455628037453E-001;-3.944084513932467E-003;-1.344390097074211E-003;
2.425833333333334E+009;1.682961881160736E-001;-1.015353351831436E-001;-3.993106540292501E-003;-1.374108949676156E-003;
2.426000000000000E+009;1.689262241125107E-001;-1.020941138267517E-001;-4.016072954982519E-003;-1.141174696385860E-003;
2.426166666666667E+009;1.695255488157272E-001;-1.026526987552643E-001;-4.119384568184614E-003;-1.111200894229114E-003;
2.426333333333334E+009;1.698867827653885E-001;-1.032667309045792E-001;-4.050049465149641E-003;-9.406280587427318E-004;
2.426500000000000E+009;1.704873442649841E-001;-1.035266444087029E-001;-4.114286974072456E-003;-7.251024362631142E-004;
2.426666666666667E+009;1.710607558488846E-001;-1.039705872535706E-001;-3.959743771702051E-003;-6.513234693557024E-004;
2.426833333333334E+009;1.714263558387756E-001;-1.041189134120941E-001;-4.213482141494751E-003;-5.511582712642849E-004;
2.427000000000000E+009;1.716817170381546E-001;-1.044279187917709E-001;-4.086941480636597E-003;-4.437015741132200E-004;
2.427166666666667E+009;1.720046699047089E-001;-1.043974906206131E-001;-4.107170272618532E-003;-2.223921910626814E-004;
2.427333333333334E+009;1.720579713582993E-001;-1.046758145093918E-001;-3.997369669377804E-003;-4.945838372805156E-005;
2.427500000000000E+009;1.720077991485596E-001;-1.046743914484978E-001;-3.858346724882722E-003;2.202600007876754E-004;
2.427666666666667E+009;1.719578802585602E-001;-1.045685112476349E-001;-3.869213163852692E-003;1.664184965193272E-004;
