# Version 1.00
#
freq[Hz];re:Trc1_S11;im:Trc1_S11;re:Trc2_S21;im:Trc2_S21;
2.400000000000000E+009;1.555917859077454E-001;1.108721494674683E-001;-2.492445288226008E-003;5.260806530714035E-003;
2.400166666666667E+009;1.550173312425613E-001;1.085375100374222E-001;-2.380859339609742E-003;5.511663388460875E-003;
2.400333333333334E+009;1.546480357646942E-001;1.063435450196266E-001;-2.395140472799540E-003;5.574483890086412E-003;
2.400500000000000E+009;1.544047594070435E-001;1.036828309297562E-001;-2.202906413003802E-003;5.843693390488625E-003;
2.400666666666667E+009;1.542704701423645E-001;1.010449156165123E-001;-1.996031263843179E-003;6.014118436723948E-003;
2.400833333333334E+009;1.539487242698669E-001;9.817003458738327E-002;-1.805987209081650E-003;6.202503573149443E-003;
2.401000000000000E+009;1.538807898759842E-001;9.545969218015671E-002;-1.405019313097000E-003;6.352971307933331E-003;
2.401166666666667E+009;1.536533683538437E-001;9.250855445861816E-002;-1.196454861201346E-003;6.450425367802382E-003;
2.401333333333334E+009;1.537886112928391E-001;8.941301703453064E-002;-8.745121303945780E-004;6.553125567734242E-003;
2.401500000000000E+009;1.539904773235321E-001;8.647530525922775E-002;-6.402091239579022E-004;6.720815319567919E-003;
2.401666666666667E+009;1.541307270526886E-001;8.354983478784561E-002;-2.695402945391834E-004;6.824878044426441E-003;
2.401833333333334E+009;1.543417274951935E-001;8.060675859451294E-002;-1.090616133296862E-004;6.801693234592676E-003;
2.402000000000000E+009;1.550512611865997E-001;7.748552411794663E-002;2.848357253242284E-004;6.765032652765513E-003;
2.402166666666667E+009;1.556993275880814E-001;7.489962875843048E-002;4.502516821958125E-004;6.698475684970617E-003;
2.402333333333334E+009;1.564537882804871E-001;7.180558890104294E-002;9.300370584242046E-004;6.844969466328621E-003;
2.402500000000000E+009;1.574329435825348E-001;6.907035410404205E-002;1.186004374176264E-003;6.682617124170065E-003;
2.402666666666667E+009;1.582825779914856E-001;6.641850620508194E-002;1.532163005322218E-003;6.637879181653261E-003;
2.402833333333334E+009;1.597569286823273E-001;6.385411322116852E-002;1.742469379678369E-003;6.572910118848085E-003;
2.403000000000000E+009;1.609718650579453E-001;6.125710904598236E-002;1.979272114112973E-003;6.332502700388432E-003;
2.403166666666667E+009;1.626562476158142E-001;5.889327079057694E-002;2.321526873856783E-003;6.290588993579149E-003;
2.403333333333334E+009;1.640776544809341E-001;5.648163706064224E-002;2.469438593834639E-003;6.162676960229874E-003;
2.403500000000000E+009;1.658498942852020E-001;5.422854050993919E-002;2.798193134367466E-003;5.919463932514191E-003;
2.403666666666667E+009;1.676346361637116E-001;5.185281857848167E-002;3.138421801850200E-003;5.721842870116234E-003;
2.403833333333334E+009;1.693180501461029E-001;5.005247518420219E-002;3.122571622952819E-003;5.391302052885294E-003;
2.404000000000000E+009;1.710252314805985E-001;4.786918684840202E-002;3.264521481469274E-003;5.233143921941519E-003;
2.404166666666667E+009;1.729881912469864E-001;4.632074013352394E-002;3.416903549805284E-003;5.192962009459734E-003;
2.404333333333334E+009;1.747066378593445E-001;4.460113495588303E-002;3.589419648051262E-003;4.945963621139526E-003;
2.404500000000000E+009;1.765001416206360E-001;4.303384199738503E-002;3.822383703663945E-003;4.807821940630674E-003;
2.404666666666667E+009;1.783397197723389E-001;4.180709645152092E-002;3.751440439373255E-003;4.632968455553055E-003;
2.404833333333334E+009;1.803196817636490E-001;4.059663414955139E-002;3.920897375792265E-003;4.579459782689810E-003;
2.405000000000000E+009;1.818309873342514E-001;3.983584791421890E-002;4.040619824081659E-003;4.493715707212687E-003;
2.405166666666667E+009;1.835629343986511E-001;3.896864876151085E-002;4.074469208717346E-003;4.249331541359425E-003;
2.405333333333334E+009;1.851189285516739E-001;3.841831535100937E-002;4.331388510763645E-003;4.077040124684572E-003;
2.405500000000000E+009;1.868763118982315E-001;3.796142712235451E-002;4.361432977020741E-003;3.902457421645522E-003;
2.405666666666667E+009;1.883821040391922E-001;3.743460774421692E-002;4.570767749100924E-003;3.890619613230228E-003;
2.405833333333334E+009;1.898657232522965E-001;3.730171918869019E-002;4.672709386795759E-003;3.487624926492572E-003;
2.406000000000000E+009;1.911209523677826E-001;3.727766126394272E-002;4.862874746322632E-003;3.312659217044711E-003;
2.406166666666667E+009;1.923530846834183E-001;3.718444705009460E-002;5.096499808132649E-003;3.204878419637680E-003;
2.406333333333334E+009;1.937122344970703E-001;3.734917193651199E-002;5.244647618383169E-003;2.848584903404117E-003;
2.406500000000000E+009;1.946953386068344E-001;3.754294663667679E-002;4.956877324730158E-003;2.594068646430969E-003;
2.406666666666667E+009;1.954002231359482E-001;3.776129707694054E-002;5.082314833998680E-003;2.446299884468317E-003;
2.406833333333334E+009;1.962445676326752E-001;3.798444941639900E-002;5.298245698213577E-003;2.180475043132901E-003;
2.407000000000000E+009;1.967664361000061E-001;3.842426463961601E-002;5.278205964714289E-003;1.894913380965591E-003;
2.407166666666667E+009;1.974062472581863E-001;3.843642398715019E-002;5.241120699793100E-003;1.671463251113892E-003;
2.407333333333334E+009;1.974958479404450E-001;3.903064504265785E-002;5.139282438904047E-003;1.459576538763940E-003;
2.407500000000000E+009;1.976735144853592E-001;3.916628658771515E-002;5.126305855810642E-003;1.116363564506173E-003;
2.407666666666667E+009;1.980550140142441E-001;3.953420370817184E-002;5.239866208285093E-003;9.278882062062621E-004;
2.407833333333334E+009;1.976473033428192E-001;3.977422788739204E-002;4.940646234899759E-003;9.716930217109621E-004;
2.408000000000000E+009;1.976160705089569E-001;3.988149389624596E-002;4.854501225054264E-003;8.572214283049107E-004;
2.408166666666667E+009;1.970955282449722E-001;3.993361070752144E-002;4.906703718006611E-003;6.888284115120769E-004;
2.408333333333334E+009;1.966961324214935E-001;3.982945904135704E-002;4.863535054028034E-003;5.329244304448366E-004;
2.408500000000000E+009;1.961275041103363E-001;3.983098268508911E-002;4.782686941325665E-003;3.428840718697757E-004;
2.408666666666667E+009;1.955129057168961E-001;3.962117433547974E-002;4.705079831182957E-003;2.560276479925960E-004;
2.408833333333334E+009;1.948424428701401E-001;3.918592631816864E-002;4.540971014648676E-003;1.038453847286291E-004;
2.409000000000000E+009;1.937170028686523E-001;3.853715583682060E-002;4.515363834798336E-003;1.940951624419540E-004;
2.409166666666667E+009;1.927344352006912E-001;3.799875825643539E-002;4.522977862507105E-003;-1.017568574752659E-004;
2.409333333333334E+009;1.917370557785034E-001;3.727864846587181E-002;4.390206187963486E-003;-1.377938315272331E-004;
2.409500000000000E+009;1.904293447732925E-001;3.629937395453453E-002;4.363523330539465E-003;-1.442221982870251E-004;
2.409666666666667E+009;1.894049793481827E-001;3.513960912823677E-002;4.394927993416786E-003;-2.104709856212139E-004;
2.409833333333334E+009;1.881825178861618E-001;3.397837281227112E-002;4.281986039131880E-003;-1.707127667032182E-004;
2.410000000000000E+009;1.869248300790787E-001;3.259802982211113E-002;4.146967083215714E-003;-2.885511785279959E-004;
2.410166666666667E+009;1.857014298439026E-001;3.087970241904259E-002;4.109680652618408E-003;-3.027811762876809E-004;
2.410333333333334E+009;1.845820546150208E-001;2.925522252917290E-002;4.201917909085751E-003;-4.506201657932252E-004;
2.410500000000000E+009;1.835080534219742E-001;2.754366211593151E-002;4.118082113564014E-003;-4.283145826775581E-004;
2.410666666666667E+009;1.823086887598038E-001;2.540707960724831E-002;4.118653479963541E-003;-4.320140578784049E-004;
2.410833333333334E+009;1.814634650945664E-001;2.314172685146332E-002;4.188800696283579E-003;-3.455777768976986E-004;
2.411000000000000E+009;1.803870648145676E-001;2.105527184903622E-002;4.078660160303116E-003;-6.076600402593613E-004;
2.411166666666667E+009;1.795881539583206E-001;1.909242011606693E-002;4.193809814751148E-003;-6.416927790269256E-004;
2.411333333333334E+009;1.787045300006867E-001;1.649242080748081E-002;4.178370814770460E-003;-6.696313503198326E-004;
2.411500000000000E+009;1.780906021595001E-001;1.399781554937363E-002;4.249387420713902E-003;-8.699794416315854E-004;
2.411666666666667E+009;1.777597665786743E-001;1.163532212376595E-002;4.297060891985893E-003;-9.775436483323574E-004;
2.411833333333334E+009;1.771733462810516E-001;9.203670546412468E-003;4.260930232703686E-003;-9.474618709646165E-004;
2.412000000000000E+009;1.772544831037521E-001;6.413907743990421E-003;4.114757757633925E-003;-1.119591179303825E-003;
2.412166666666667E+009;1.770544052124023E-001;4.037007689476013E-003;4.335010889917612E-003;-1.177303260192275E-003;
2.412333333333334E+009;1.771659255027771E-001;1.455429708585143E-003;4.255024716258049E-003;-1.283885096199811E-003;
2.412500000000000E+009;1.775382757186890E-001;-1.351995859295130E-003;4.356647841632366E-003;-1.413903897628188E-003;
2.412666666666667E+009;1.780171692371368E-001;-3.908575046807528E-003;4.273207858204842E-003;-1.585698570124805E-003;
2.412833333333334E+009;1.784038543701172E-001;-6.602813024073839E-003;4.345127381384373E-003;-1.620245631784201E-003;
2.413000000000000E+009;1.792332977056503E-001;-9.181566536426544E-003;4.521603230386972E-003;-1.741844345815480E-003;
2.413166666666667E+009;1.800633370876312E-001;-1.161284837871790E-002;4.496815614402294E-003;-2.062589162960649E-003;
2.413333333333334E+009;1.810624152421951E-001;-1.422250457108021E-002;4.340248182415962E-003;-2.129122149199247E-003;
2.413500000000000E+009;1.818687915802002E-001;-1.677499152719975E-002;4.379791673272848E-003;-2.410617889836431E-003;
2.413666666666667E+009;1.831912100315094E-001;-1.915488205850124E-002;4.283533897250891E-003;-2.485779812559485E-003;
2.413833333333334E+009;1.843866109848023E-001;-2.153228968381882E-002;4.265951458364725E-003;-2.893641591072083E-003;
2.414000000000000E+009;1.854788661003113E-001;-2.359697967767716E-002;4.201531410217285E-003;-3.061350667849183E-003;
2.414166666666667E+009;1.869712322950363E-001;-2.575432695448399E-002;3.826835192739964E-003;-3.179448889568448E-003;
2.414333333333334E+009;1.881894469261169E-001;-2.800589613616467E-002;3.893170272931457E-003;-3.390613244846463E-003;
2.414500000000000E+009;1.896283328533173E-001;-2.970633655786514E-002;3.642393508926034E-003;-3.505857661366463E-003;
2.414666666666667E+009;1.910893917083740E-001;-3.152684122323990E-002;3.343113698065281E-003;-3.739945124834776E-003;
2.414833333333334E+009;1.924015581607819E-001;-3.304062411189079E-002;3.265387611463666E-003;-3.955147229135037E-003;
2.415000000000000E+009;1.937476992607117E-001;-3.457713499665260E-002;3.110503545030952E-003;-3.849695669487119E-003;
2.415166666666667E+009;1.952292174100876E-001;-3.587181493639946E-002;2.902060747146606E-003;-3.790690563619137E-003;
2.415333333333334E+009;1.966938078403473E-001;-3.695885837078095E-002;2.866962924599648E-003;-4.004977643489838E-003;
2.415500000000000E+009;1.980028748512268E-001;-3.793231770396233E-002;2.762002171948552E-003;-4.072882235050201E-003;
2.415666666666667E+009;1.993074864149094E-001;-3.880163654685020E-002;2.562150359153748E-003;-4.267528187483549E-003;
2.415833333333334E+009;2.004618197679520E-001;-3.957003355026245E-002;2.541368361562491E-003;-4.210669547319412E-003;
2.416000000000000E+009;2.015680372714996E-001;-4.025402665138245E-002;2.394039649516344E-003;-4.288690164685249E-003;
2.416166666666667E+009;2.026166170835495E-001;-4.088824242353439E-002;2.192317275330424E-003;-4.514222498983145E-003;
2.416333333333334E+009;2.035131007432938E-001;-4.117037355899811E-002;2.132377587258816E-003;-4.613872151821852E-003;
2.416500000000000E+009;2.043238282203674E-001;-4.155075177550316E-002;1.857886323705316E-003;-4.761903546750546E-003;
2.416666666666667E+009;2.049435675144196E-001;-4.198655113577843E-002;1.785796834155917E-003;-4.780002869665623E-003;
2.416833333333334E+009;2.053765207529068E-001;-4.189551249146462E-002;1.431222306564450E-003;-4.871407058089972E-003;
2.417000000000000E+009;2.057992517948151E-001;-4.209747537970543E-002;1.159329898655415E-003;-4.869385622441769E-003;
2.417166666666667E+009;2.058013528585434E-001;-4.179494082927704E-002;1.001199940219522E-003;-4.920238163322210E-003;
2.417333333333334E+009;2.057562321424484E-001;-4.157001897692680E-002;7.909893756732345E-004;-4.941772203892469E-003;
2.417500000000000E+009;2.057288438081741E-001;-4.152739420533180E-002;5.446013528853655E-004;-4.861379973590374E-003;
2.417666666666667E+009;2.053315043449402E-001;-4.112816601991653E-002;2.269483811687678E-004;-4.793437663465738E-003;
2.417833333333334E+009;2.051619142293930E-001;-4.080181568861008E-002;7.146266580093652E-005;-4.592432174831629E-003;
2.418000000000000E+009;2.048164755105972E-001;-4.037843644618988E-002;2.883500201278366E-005;-4.591586533933878E-003;
2.418166666666667E+009;2.040153741836548E-001;-4.021679237484932E-002;-1.399319880874828E-004;-4.410978872328997E-003;
2.418333333333334E+009;2.032926827669144E-001;-3.976097330451012E-002;-1.461951178498566E-004;-4.268284887075424E-003;
2.418500000000000E+009;2.024675458669663E-001;-3.973156213760376E-002;-3.209457499906421E-004;-4.343454726040363E-003;
2.418666666666667E+009;2.015829831361771E-001;-3.931151703000069E-002;-3.144442453049123E-004;-4.227663390338421E-003;
2.418833333333334E+009;2.004207968711853E-001;-3.929286822676659E-002;-3.732105251401663E-004;-4.240022972226143E-003;
2.419000000000000E+009;1.991729736328125E-001;-3.926209732890129E-002;-4.899631603620946E-004;-4.131656605750322E-003;
2.419166666666667E+009;1.978787928819656E-001;-3.947465866804123E-002;-5.852968315593898E-004;-4.014124628156424E-003;
2.419333333333334E+009;1.965008676052094E-001;-3.976432606577873E-002;-7.005171501077712E-004;-3.977597691118717E-003;
2.419500000000000E+009;1.950649470090866E-001;-3.995354101061821E-002;-9.207651019096375E-004;-4.016840830445290E-003;
2.419666666666667E+009;1.931951940059662E-001;-4.055290669202805E-002;-7.860311889089644E-004;-4.018688574433327E-003;
2.419833333333334E+009;1.915556788444519E-001;-4.114600643515587E-002;-8.966426248662174E-004;-3.833591472357512E-003;
2.420000000000000E+009;1.897354573011398E-001;-4.167990013957024E-002;-9.880572324618697E-004;-3.936114255338907E-003;
2.420166666666667E+009;1.881602853536606E-001;-4.261972382664681E-002;-1.050803577527404E-003;-3.955659456551075E-003;
2.420333333333334E+009;1.861640214920044E-001;-4.347023740410805E-002;-1.103397691622376E-003;-3.961130511015654E-003;
2.420500000000000E+009;1.844618767499924E-001;-4.482001438736916E-002;-1.160639338195324E-003;-3.887099912390113E-003;
2.420666666666667E+009;1.825928837060928E-001;-4.585552215576172E-002;-1.300995005294681E-003;-3.803653875365853E-003;
2.420833333333334E+009;1.807246655225754E-001;-4.735814407467842E-002;-1.256826100870967E-003;-3.830871311947703E-003;
2.421000000000000E+009;1.789369881153107E-001;-4.886452481150627E-002;-1.362732145935297E-003;-3.857233794406056E-003;
2.421166666666667E+009;1.774628907442093E-001;-5.043398961424828E-002;-1.434391713701189E-003;-3.521426115185022E-003;
2.421333333333334E+009;1.754954308271408E-001;-5.195034667849541E-002;-1.510112779214978E-003;-3.645470133051276E-003;
2.421500000000000E+009;1.741381138563156E-001;-5.388246104121208E-002;-1.636495464481413E-003;-3.576411399990320E-003;
2.421666666666667E+009;1.724404394626617E-001;-5.571891367435455E-002;-1.790684415027499E-003;-3.668717574328184E-003;
2.421833333333334E+009;1.713255792856216E-001;-5.769938603043556E-002;-1.856063609011471E-003;-3.667157143354416E-003;
2.422000000000000E+009;1.698006391525269E-001;-5.966644361615181E-002;-1.921118353493512E-003;-3.563269739970565E-003;
2.422166666666667E+009;1.687473505735397E-001;-6.201754882931709E-002;-2.152631292119622E-003;-3.479680279269815E-003;
2.422333333333334E+009;1.673820018768311E-001;-6.429784744977951E-002;-2.165906364098191E-003;-3.653115592896938E-003;
2.422500000000000E+009;1.665705591440201E-001;-6.644335389137268E-002;-2.451812848448753E-003;-3.596622264012694E-003;
2.422666666666667E+009;1.656459867954254E-001;-6.835377216339111E-002;-2.493218518793583E-003;-3.442674176767469E-003;
2.422833333333334E+009;1.650929003953934E-001;-7.080620527267456E-002;-2.593507291749120E-003;-3.276972332969308E-003;
2.423000000000000E+009;1.643178313970566E-001;-7.318763434886932E-002;-2.671248279511929E-003;-3.276963951066136E-003;
2.423166666666667E+009;1.640174835920334E-001;-7.525263726711273E-002;-2.801944268867374E-003;-3.152269404381514E-003;
2.423333333333334E+009;1.636346727609634E-001;-7.758698612451553E-002;-2.809672849252820E-003;-3.134800121188164E-003;
2.423500000000000E+009;1.633552908897400E-001;-7.959441095590591E-002;-2.948253182694316E-003;-2.859855536371470E-003;
2.423666666666667E+009;1.633512079715729E-001;-8.177390694618225E-002;-2.961434656754136E-003;-2.951388945803046E-003;
2.423833333333334E+009;1.633600890636444E-001;-8.387263864278793E-002;-3.137997817248106E-003;-2.869958756491542E-003;
2.424000000000000E+009;1.634822636842728E-001;-8.575071394443512E-002;-3.173957578837872E-003;-2.808439312502742E-003;
2.424166666666667E+009;1.635166704654694E-001;-8.774720877408981E-002;-3.286876250058413E-003;-2.609430812299252E-003;
2.424333333333334E+009;1.637010127305985E-001;-8.947294205427170E-002;-3.429889446124435E-003;-2.640451304614544E-003;
2.424500000000000E+009;1.642125993967056E-001;-9.139069169759750E-002;-3.500435035675764E-003;-2.591608557850123E-003;
2.424666666666667E+009;1.646313220262528E-001;-9.308252483606339E-002;-3.534349612891674E-003;-2.334863878786564E-003;
2.424833333333334E+009;1.652690768241882E-001;-9.469889104366303E-002;-3.683752147480846E-003;-2.176511334255338E-003;
2.425000000000000E+009;1.656044572591782E-001;-9.604717046022415E-002;-3.768349066376686E-003;-2.070495160296559E-003;
2.425166666666667E+009;1.660531759262085E-001;-9.732064604759216E-002;-3.790564602240920E-003;-2.035927493125200E-003;
2.425333333333334E+009;1.665710210800171E-001;-9.864745289087296E-002;-3.893201705068350E-003;-1.756617333739996E-003;
2.425500000000000E+009;1.672113090753555E-001;-9.970253705978394E-002;-4.005009774118662E-003;-1.687821815721691E-003;
2.425666666666667E+009;1.677746623754501E-001;-1.005980670452118E-001;-4.069492686539888E-003;-1.431692391633987E-003;
2.425833333333334E+009;1.682618558406830E-001;-1.015357673168182E-001;-4.074319731444120E-003;-1.236508600413799E-003;
2.426000000000000E+009;1.688339710235596E-001;-1.021637469530106E-001;-4.020817112177610E-003;-1.146281836554408E-003;
2.426166666666667E+009;1.695687621831894E-001;-1.026794612407684E-001;-3.991449251770973E-003;-9.171296842396259E-004;
2.426333333333334E+009;1.698655784130096E-001;-1.033656820654869E-001;-4.134391434490681E-003;-9.027440100908279E-004;
2.426500000000000E+009;1.703211218118668E-001;-1.036787852644920E-001;-4.131929948925972E-003;-7.387955556623638E-004;
2.426666666666667E+009;1.708635538816452E-001;-1.040171608328819E-001;-4.110114648938179E-003;-5.790375871583819E-004;
2.426833333333334E+009;1.714163124561310E-001;-1.041756793856621E-001;-4.119868390262127E-003;-4.596097569447011E-004;
2.427000000000000E+009;1.715987175703049E-001;-1.044164150953293E-001;-4.120958037674427E-003;-4.124561964999884E-004;
2.427166666666667E+009;1.719533801078796E-001;-1.045059114694595E-001;-3.990125842392445E-003;-1.823176280595362E-004;
2.427333333333334E+009;1.721238344907761E-001;-1.046029180288315E-001;-3.923512995243073E-003;-1.513086044724332E-005;
2.427500000000000E+009;1.721032410860062E-001;-1.047804579138756E-001;-3.902701893821359E-003;-8.658570004627109E-005;
2.427666666666667E+009;1.719589531421661E-001;-1.047376915812492E-001;-3.939133603125811E-003;2.166308549931273E-004;
