# Version 1.00
#
freq[Hz];re:Trc1_S11;im:Trc1_S11;re:Trc2_S21;im:Trc2_S21;
2.400000000000000E+009;1.572508513927460E-001;1.124197542667389E-001;4.064274486154318E-003;-5.618875380605459E-003;
2.400166666666667E+009;1.566109508275986E-001;1.101662218570709E-001;3.769314382225275E-003;-5.664421711117029E-003;
2.400333333333334E+009;1.564118564128876E-001;1.081070899963379E-001;3.863072022795677E-003;-5.900931078940630E-003;
2.400500000000000E+009;1.560851037502289E-001;1.053329184651375E-001;3.771793330088258E-003;-5.986252333968878E-003;
2.400666666666667E+009;1.556704640388489E-001;1.029229685664177E-001;3.776440862566233E-003;-6.153349298983812E-003;
2.400833333333334E+009;1.552171409130096E-001;9.995242953300476E-002;3.652636660262942E-003;-6.272181402891874E-003;
2.401000000000000E+009;1.552418768405914E-001;9.717326611280441E-002;3.670189296826720E-003;-6.561130285263062E-003;
2.401166666666667E+009;1.547737270593643E-001;9.445092827081680E-002;3.443704452365637E-003;-7.026933599263430E-003;
2.401333333333334E+009;1.549271047115326E-001;9.133435040712357E-002;3.222809173166752E-003;-7.172071374952793E-003;
2.401500000000000E+009;1.550570279359818E-001;8.833553642034531E-002;2.981544006615877E-003;-7.421027403324843E-003;
2.401666666666667E+009;1.550376713275909E-001;8.536096662282944E-002;2.578245475888252E-003;-7.686790078878403E-003;
2.401833333333334E+009;1.552711874246597E-001;8.230171352624893E-002;2.361499471589923E-003;-7.947786711156368E-003;
2.402000000000000E+009;1.559912860393524E-001;7.932189106941223E-002;1.964408205822110E-003;-8.240742608904839E-003;
2.402166666666667E+009;1.563251614570618E-001;7.642797380685806E-002;1.368036842904985E-003;-8.352736942470074E-003;
2.402333333333334E+009;1.570258140563965E-001;7.335323840379715E-002;1.070642145350575E-003;-8.336048573255539E-003;
2.402500000000000E+009;1.580324470996857E-001;7.049634307622910E-002;5.177971906960011E-004;-8.310443721711636E-003;
2.402666666666667E+009;1.589748412370682E-001;6.778761744499207E-002;6.054691402823664E-005;-8.512853644788265E-003;
2.402833333333334E+009;1.600725054740906E-001;6.499239802360535E-002;-2.642509643919766E-004;-8.307022973895073E-003;
2.403000000000000E+009;1.613612771034241E-001;6.222741678357124E-002;-9.057925781235099E-004;-8.207320235669613E-003;
2.403166666666667E+009;1.630918830633164E-001;5.962757766246796E-002;-1.361800357699394E-003;-8.219078183174133E-003;
2.403333333333334E+009;1.642891019582748E-001;5.713109299540520E-002;-1.763555803336203E-003;-8.046651259064674E-003;
2.403500000000000E+009;1.661832779645920E-001;5.453993752598763E-002;-2.234178595244885E-003;-7.637212052941322E-003;
2.403666666666667E+009;1.678295284509659E-001;5.234292522072792E-002;-2.615587785840035E-003;-7.365570869296789E-003;
2.403833333333334E+009;1.694894880056381E-001;5.021873861551285E-002;-2.766707446426153E-003;-7.100521586835384E-003;
2.404000000000000E+009;1.711873114109039E-001;4.805669188499451E-002;-3.259279299527407E-003;-6.691849324852228E-003;
2.404166666666667E+009;1.731386929750443E-001;4.616498202085495E-002;-3.341480391100049E-003;-6.374645046889782E-003;
2.404333333333334E+009;1.749568879604340E-001;4.437343776226044E-002;-3.330926643684506E-003;-5.873416550457478E-003;
2.404500000000000E+009;1.767914295196533E-001;4.245384782552719E-002;-3.642087336629629E-003;-5.611904896795750E-003;
2.404666666666667E+009;1.784976422786713E-001;4.105389863252640E-002;-3.446022048592567E-003;-4.979028832167387E-003;
2.404833333333334E+009;1.805739551782608E-001;3.994756937026978E-002;-3.549459623172879E-003;-5.369848571717739E-003;
2.405000000000000E+009;1.822143048048019E-001;3.914684802293778E-002;-3.747397568076849E-003;-5.315805785357952E-003;
2.405166666666667E+009;1.839276850223541E-001;3.806709125638008E-002;-3.685018979012966E-003;-4.618102218955755E-003;
2.405333333333334E+009;1.856952458620071E-001;3.755871206521988E-002;-4.121128469705582E-003;-5.018833559006453E-003;
2.405500000000000E+009;1.873116940259934E-001;3.662237152457237E-002;-3.768459428101778E-003;-4.113962408155203E-003;
2.405666666666667E+009;1.888361424207687E-001;3.647069260478020E-002;-3.889984218403697E-003;-4.665822256356478E-003;
2.405833333333334E+009;1.906203031539917E-001;3.594239056110382E-002;-4.194660112261772E-003;-3.394075203686953E-003;
2.406000000000000E+009;1.919897645711899E-001;3.596336394548416E-002;-4.408001434057951E-003;-4.213300999253988E-003;
2.406166666666667E+009;1.932252645492554E-001;3.550321236252785E-002;-3.410546574741602E-003;-2.957216929644346E-003;
2.406333333333334E+009;1.945872157812119E-001;3.582218289375305E-002;-3.760952269658446E-003;-3.948994912207127E-003;
2.406500000000000E+009;1.956665962934494E-001;3.599371016025543E-002;-4.047031980007887E-003;-3.619383322075009E-003;
2.406666666666667E+009;1.966669112443924E-001;3.600893914699554E-002;-3.989035263657570E-003;-3.447986207902432E-003;
2.406833333333334E+009;1.975246220827103E-001;3.632761538028717E-002;-4.008721094578505E-003;-3.136709332466126E-003;
2.407000000000000E+009;1.982400864362717E-001;3.667008876800537E-002;-3.845421131700277E-003;-2.975664567202330E-003;
2.407166666666667E+009;1.989772021770477E-001;3.671003878116608E-002;-4.002840258181095E-003;-2.903384156525135E-003;
2.407333333333334E+009;1.992087066173554E-001;3.716760128736496E-002;-4.131983499974012E-003;-2.808000892400742E-003;
2.407500000000000E+009;1.993758082389832E-001;3.754313662648201E-002;-4.025963600724936E-003;-2.790320897474885E-003;
2.407666666666667E+009;1.998180598020554E-001;3.775387257337570E-002;-3.983941860496998E-003;-2.476606983691454E-003;
2.407833333333334E+009;1.995316296815872E-001;3.799561411142349E-002;-4.020653665065765E-003;-2.440469572320581E-003;
2.408000000000000E+009;1.997610181570053E-001;3.814212977886200E-002;-3.884180448949337E-003;-2.297253580763936E-003;
2.408166666666667E+009;1.993066817522049E-001;3.819644451141357E-002;-3.879868658259511E-003;-2.363723469898105E-003;
2.408333333333334E+009;1.989336162805557E-001;3.813258558511734E-002;-3.689157310873270E-003;-2.143206773325801E-003;
2.408500000000000E+009;1.983956396579742E-001;3.816222026944161E-002;-3.804917214438319E-003;-2.167936880141497E-003;
2.408666666666667E+009;1.977725178003311E-001;3.813460096716881E-002;-3.626804100349546E-003;-2.106709871441126E-003;
2.408833333333334E+009;1.972181349992752E-001;3.767491877079010E-002;-3.579176263883710E-003;-2.027633367106319E-003;
2.409000000000000E+009;1.963067650794983E-001;3.721169009804726E-002;-3.655264154076576E-003;-2.099165460094810E-003;
2.409166666666667E+009;1.951795816421509E-001;3.654760122299194E-002;-3.616536967456341E-003;-2.039014827460051E-003;
2.409333333333334E+009;1.942314654588699E-001;3.610990196466446E-002;-3.603787859901786E-003;-2.035758225247264E-003;
2.409500000000000E+009;1.930230855941773E-001;3.517558798193932E-002;-3.537709824740887E-003;-2.167319413274527E-003;
2.409666666666667E+009;1.919409483671188E-001;3.397806733846664E-002;-3.624886507168412E-003;-2.080560661852360E-003;
2.409833333333334E+009;1.906407922506332E-001;3.282644972205162E-002;-3.659580368548632E-003;-1.920009031891823E-003;
2.410000000000000E+009;1.895314753055573E-001;3.156888484954834E-002;-3.595840418711305E-003;-2.128174062818289E-003;
2.410166666666667E+009;1.882172822952271E-001;2.996862120926380E-002;-3.574064467102289E-003;-2.001547487452626E-003;
2.410333333333334E+009;1.870321929454804E-001;2.843878418207169E-002;-3.709636861458421E-003;-2.089587040245533E-003;
2.410500000000000E+009;1.856339871883392E-001;2.668790891766548E-002;-3.669129451736808E-003;-2.094331430271268E-003;
2.410666666666667E+009;1.845271289348602E-001;2.466065622866154E-002;-3.613690612837672E-003;-2.174887806177139E-003;
2.410833333333334E+009;1.834603548049927E-001;2.256190590560436E-002;-3.762062173336744E-003;-2.055861754342914E-003;
2.411000000000000E+009;1.823880076408386E-001;2.053775079548359E-002;-3.764373017475009E-003;-2.280900254845619E-003;
2.411166666666667E+009;1.814387589693070E-001;1.828469149768353E-002;-3.847119864076376E-003;-2.291824901476502E-003;
2.411333333333334E+009;1.805756092071533E-001;1.575264893472195E-002;-4.033407196402550E-003;-2.291537355631590E-003;
2.411500000000000E+009;1.796093136072159E-001;1.339481119066477E-002;-4.314973950386047E-003;-2.310727955773473E-003;
2.411666666666667E+009;1.791736334562302E-001;1.092604361474514E-002;-4.303445573896170E-003;-2.404800849035382E-003;
2.411833333333334E+009;1.785870045423508E-001;8.567444980144501E-003;-4.545810166746378E-003;-2.300931839272380E-003;
2.412000000000000E+009;1.782262772321701E-001;5.835890304297209E-003;-4.963492974638939E-003;-2.315201098099351E-003;
2.412166666666667E+009;1.779278963804245E-001;3.226202214136720E-003;-5.177328363060951E-003;-2.159977797418833E-003;
2.412333333333334E+009;1.780340969562531E-001;8.166464976966381E-004;-5.350805819034576E-003;-2.138198819011450E-003;
2.412500000000000E+009;1.782678812742233E-001;-2.001043409109116E-003;-5.541218910366297E-003;-1.999699044972658E-003;
2.412666666666667E+009;1.785509437322617E-001;-4.754255991429091E-003;-5.833782721310854E-003;-1.904022297821939E-003;
2.412833333333334E+009;1.790307909250259E-001;-7.305652834475040E-003;-6.169166881591082E-003;-1.667831791564822E-003;
2.413000000000000E+009;1.793822795152664E-001;-1.003883592784405E-002;-6.386961322277784E-003;-1.311383093707264E-003;
2.413166666666667E+009;1.799248158931732E-001;-1.255331374704838E-002;-6.553079467266798E-003;-1.223288360051811E-003;
2.413333333333334E+009;1.809235215187073E-001;-1.528174243867397E-002;-6.708677858114243E-003;-8.871682221069932E-004;
2.413500000000000E+009;1.818537116050720E-001;-1.778324507176876E-002;-6.908113602548838E-003;-5.557874101214111E-004;
2.413666666666667E+009;1.829451620578766E-001;-2.034302614629269E-002;-6.992761977016926E-003;-2.661491453181952E-004;
2.413833333333334E+009;1.839518994092941E-001;-2.267567627131939E-002;-7.098977454006672E-003;3.416466352064163E-004;
2.414000000000000E+009;1.851950436830521E-001;-2.499308437108994E-002;-7.242684718221426E-003;6.286332500167191E-004;
2.414166666666667E+009;1.865690946578980E-001;-2.698292583227158E-002;-6.952520459890366E-003;1.101989764720202E-003;
2.414333333333334E+009;1.875627934932709E-001;-2.925679832696915E-002;-6.898371502757072E-003;1.554440590552986E-003;
2.414500000000000E+009;1.891425997018814E-001;-3.117145225405693E-002;-6.885837297886610E-003;1.865628873929381E-003;
2.414666666666667E+009;1.903383582830429E-001;-3.290071338415146E-002;-6.638027727603912E-003;2.283375943079591E-003;
2.414833333333334E+009;1.915971934795380E-001;-3.474392741918564E-002;-6.424869876354933E-003;2.457423368468881E-003;
2.415000000000000E+009;1.930154860019684E-001;-3.628114238381386E-002;-6.213593296706677E-003;2.774943830445409E-003;
2.415166666666667E+009;1.946824640035629E-001;-3.767043352127075E-002;-6.091518327593803E-003;2.924825297668576E-003;
2.415333333333334E+009;1.960559487342835E-001;-3.882113471627235E-002;-5.931319668889046E-003;3.065199824050069E-003;
2.415500000000000E+009;1.973719298839569E-001;-3.976279124617577E-002;-5.963189527392387E-003;3.299417672678828E-003;
2.415666666666667E+009;1.986632943153381E-001;-4.101674258708954E-002;-5.758159328252077E-003;3.609624458476901E-003;
2.415833333333334E+009;1.997349858283997E-001;-4.163435474038124E-002;-5.515243858098984E-003;3.786071902140975E-003;
2.416000000000000E+009;2.007984668016434E-001;-4.231902584433556E-002;-5.516271106898785E-003;4.011749755591154E-003;
2.416166666666667E+009;2.018806338310242E-001;-4.304680973291397E-002;-5.295305978506804E-003;4.183026961982250E-003;
2.416333333333334E+009;2.029503732919693E-001;-4.344197362661362E-002;-4.984288476407528E-003;4.382516257464886E-003;
2.416500000000000E+009;2.036369144916534E-001;-4.376910626888275E-002;-4.830960184335709E-003;4.657299723476172E-003;
2.416666666666667E+009;2.042901813983917E-001;-4.409482330083847E-002;-4.674593918025494E-003;4.853283986449242E-003;
2.416833333333334E+009;2.048113942146301E-001;-4.410000890493393E-002;-4.390959162265062E-003;5.069924984127283E-003;
2.417000000000000E+009;2.053761333227158E-001;-4.424076154828072E-002;-4.176810383796692E-003;5.132526159286499E-003;
2.417166666666667E+009;2.052556872367859E-001;-4.392971098423004E-002;-3.747551469132304E-003;5.260876845568419E-003;
2.417333333333334E+009;2.053586691617966E-001;-4.371898248791695E-002;-3.493720199912787E-003;5.367261357605457E-003;
2.417500000000000E+009;2.053778618574143E-001;-4.367931932210922E-002;-3.269403940066695E-003;5.417171400040388E-003;
2.417666666666667E+009;2.051678746938705E-001;-4.319328814744949E-002;-3.029463347047567E-003;5.578485317528248E-003;
2.417833333333334E+009;2.049532830715179E-001;-4.287045449018478E-002;-2.756592119112611E-003;5.493599455803633E-003;
2.418000000000000E+009;2.045496255159378E-001;-4.238085448741913E-002;-2.342476742342114E-003;5.562588106840849E-003;
2.418166666666667E+009;2.040446996688843E-001;-4.199704900383949E-002;-2.325506415218115E-003;5.557184107601643E-003;
2.418333333333334E+009;2.032341957092285E-001;-4.177580773830414E-002;-1.915915752761066E-003;5.535473581403494E-003;
2.418500000000000E+009;2.024326175451279E-001;-4.139608144760132E-002;-1.641184673644602E-003;5.254906602203846E-003;
2.418666666666667E+009;2.016146630048752E-001;-4.100768268108368E-002;-1.531980698928237E-003;5.387611687183380E-003;
2.418833333333334E+009;2.003736197948456E-001;-4.086970537900925E-002;-1.336881890892983E-003;5.351646337658167E-003;
2.419000000000000E+009;1.990447789430618E-001;-4.078004881739616E-002;-1.145630259998143E-003;5.228466819971800E-003;
2.419166666666667E+009;1.979049891233444E-001;-4.068209230899811E-002;-1.034453860484064E-003;5.113128572702408E-003;
2.419333333333334E+009;1.964622884988785E-001;-4.097601771354675E-002;-8.648592629469931E-004;4.882114008069038E-003;
2.419500000000000E+009;1.949200481176376E-001;-4.095742478966713E-002;-7.163901464082301E-004;4.923454485833645E-003;
2.419666666666667E+009;1.933291107416153E-001;-4.162401705980301E-002;-6.574422004632652E-004;4.823553375899792E-003;
2.419833333333334E+009;1.915815472602844E-001;-4.177459329366684E-002;-5.583270685747266E-004;4.770572762936354E-003;
2.420000000000000E+009;1.898275613784790E-001;-4.248675331473351E-002;-6.522563053295016E-004;4.694117233157158E-003;
2.420166666666667E+009;1.879775077104569E-001;-4.310692846775055E-002;-5.642567411996424E-004;4.546184558421373E-003;
2.420333333333334E+009;1.861699968576431E-001;-4.391521215438843E-002;-5.110504571348429E-004;4.418844822794199E-003;
2.420500000000000E+009;1.842021942138672E-001;-4.501762986183167E-002;-4.225895099807531E-004;4.589939955621958E-003;
2.420666666666667E+009;1.824153810739517E-001;-4.604603722691536E-002;-3.912406973540783E-004;4.562653135508299E-003;
2.420833333333334E+009;1.805394440889359E-001;-4.748822003602982E-002;-3.364693257026374E-004;4.554916173219681E-003;
2.421000000000000E+009;1.787705719470978E-001;-4.885942861437798E-002;-2.240145258838311E-004;4.545131232589483E-003;
2.421166666666667E+009;1.770961284637451E-001;-5.032071098685265E-002;-1.938386849360541E-004;4.600468091666699E-003;
2.421333333333334E+009;1.751188933849335E-001;-5.190816894173622E-002;-1.366898504784331E-004;4.620146006345749E-003;
2.421500000000000E+009;1.734761595726013E-001;-5.377771332859993E-002;-6.255040352698416E-005;4.453159403055906E-003;
2.421666666666667E+009;1.719863712787628E-001;-5.571012571454048E-002;1.107150455936790E-004;4.537591710686684E-003;
2.421833333333334E+009;1.704540103673935E-001;-5.749734863638878E-002;2.254828141303733E-004;4.479359835386276E-003;
2.422000000000000E+009;1.688858717679977E-001;-5.961261317133904E-002;4.277907137293369E-004;4.503132309764624E-003;
2.422166666666667E+009;1.678413748741150E-001;-6.159945949912071E-002;4.101109807379544E-004;4.411252215504646E-003;
2.422333333333334E+009;1.665316373109818E-001;-6.389133632183075E-002;5.556437536142767E-004;4.378613550215960E-003;
2.422500000000000E+009;1.654550433158875E-001;-6.571526080369949E-002;6.520268507301807E-004;4.520752001553774E-003;
2.422666666666667E+009;1.644066423177719E-001;-6.803211569786072E-002;6.720238015986979E-004;4.396892618387938E-003;
2.422833333333334E+009;1.638439297676086E-001;-7.021024078130722E-002;6.842690054327250E-004;4.268218297511339E-003;
2.423000000000000E+009;1.630609184503555E-001;-7.271727174520493E-002;8.492389461025596E-004;4.213001113384962E-003;
2.423166666666667E+009;1.624552905559540E-001;-7.487694174051285E-002;9.792651981115341E-004;4.144633654505014E-003;
2.423333333333334E+009;1.622008979320526E-001;-7.721479237079620E-002;1.135181519202888E-003;4.171549342572689E-003;
2.423500000000000E+009;1.619445383548737E-001;-7.922347635030747E-002;9.459476568736136E-004;4.078015685081482E-003;
2.423666666666667E+009;1.617643386125565E-001;-8.151603490114212E-002;1.142945955507457E-003;3.844453021883965E-003;
2.423833333333334E+009;1.615960896015167E-001;-8.362510055303574E-002;1.122583402320743E-003;3.855785820633173E-003;
2.424000000000000E+009;1.617032289505005E-001;-8.569080382585526E-002;1.126123126596212E-003;3.781937528401613E-003;
2.424166666666667E+009;1.618569046258926E-001;-8.760437369346619E-002;1.015545218251646E-003;3.777561476454139E-003;
2.424333333333334E+009;1.619982123374939E-001;-8.937148749828339E-002;1.213088748045266E-003;3.695977153256536E-003;
2.424500000000000E+009;1.625208854675293E-001;-9.151963144540787E-002;1.300673000514507E-003;3.834308357909322E-003;
2.424666666666667E+009;1.627440452575684E-001;-9.328694641590118E-002;1.008504652418196E-003;3.738512983545661E-003;
2.424833333333334E+009;1.634767949581146E-001;-9.490591287612915E-002;1.317212823778391E-003;3.907218575477600E-003;
2.425000000000000E+009;1.639580130577087E-001;-9.646342694759369E-002;1.353620085865259E-003;3.968137316405773E-003;
2.425166666666667E+009;1.644218116998673E-001;-9.774369746446610E-002;1.434125937521458E-003;4.131746944040060E-003;
2.425333333333334E+009;1.649592220783234E-001;-9.897173941135407E-002;1.356395776383579E-003;4.097626544535160E-003;
2.425500000000000E+009;1.656661331653595E-001;-1.002930626273155E-001;1.620954251848161E-003;4.081266932189465E-003;
2.425666666666667E+009;1.662704795598984E-001;-1.011424064636231E-001;1.571609405800700E-003;4.313354380428791E-003;
2.425833333333334E+009;1.668768674135208E-001;-1.021469980478287E-001;1.778731588274241E-003;4.300741013139486E-003;
2.426000000000000E+009;1.676030009984970E-001;-1.028656512498856E-001;1.896980684250593E-003;4.295852035284042E-003;
2.426166666666667E+009;1.683351844549179E-001;-1.034122332930565E-001;2.073196461424232E-003;4.292156081646681E-003;
2.426333333333334E+009;1.686046272516251E-001;-1.041695028543472E-001;2.204304328188300E-003;4.475000314414501E-003;
2.426500000000000E+009;1.693937629461289E-001;-1.044664010405541E-001;2.457239665091038E-003;4.241735674440861E-003;
2.426666666666667E+009;1.699002832174301E-001;-1.048434823751450E-001;2.678337041288614E-003;4.275808576494455E-003;
2.426833333333334E+009;1.706097424030304E-001;-1.051988527178764E-001;2.793056657537818E-003;4.290494136512280E-003;
2.427000000000000E+009;1.710177063941956E-001;-1.054223850369453E-001;3.114719642326236E-003;4.206212237477303E-003;
2.427166666666667E+009;1.712609380483627E-001;-1.055019125342369E-001;3.194661112502217E-003;4.163512028753758E-003;
2.427333333333334E+009;1.714827567338944E-001;-1.057494133710861E-001;3.371104830875993E-003;4.188226070255041E-003;
2.427500000000000E+009;1.716424375772476E-001;-1.057996600866318E-001;3.610074985772371E-003;3.883195109665394E-003;
2.427666666666667E+009;1.715945452451706E-001;-1.057684719562531E-001;3.583264304324985E-003;3.830665023997426E-003;
