# Version 1.00
#
freq[Hz];re:Trc1_S11;im:Trc1_S11;re:Trc2_S21;im:Trc2_S21;
2.400000000000000E+009;1.578932851552963E-001;1.124128103256226E-001;3.934029955416918E-003;-5.657947156578302E-003;
2.400166666666667E+009;1.570628136396408E-001;1.102651879191399E-001;3.946103621274233E-003;-5.525707267224789E-003;
2.400333333333334E+009;1.569772511720657E-001;1.081604659557343E-001;3.754178294911981E-003;-5.797403864562511E-003;
2.400500000000000E+009;1.565642207860947E-001;1.054058447480202E-001;3.827357431873679E-003;-5.791803356260061E-003;
2.400666666666667E+009;1.562733054161072E-001;1.029888540506363E-001;3.859458724036813E-003;-5.970656406134367E-003;
2.400833333333334E+009;1.560574769973755E-001;1.000863015651703E-001;3.804775420576334E-003;-6.320713553577662E-003;
2.401000000000000E+009;1.557319313287735E-001;9.721785783767700E-002;3.483804175630212E-003;-6.518515758216381E-003;
2.401166666666667E+009;1.555051356554031E-001;9.437054395675659E-002;3.306155791506171E-003;-6.940639577805996E-003;
2.401333333333334E+009;1.555283367633820E-001;9.140661358833313E-002;3.131402656435967E-003;-7.060943637043238E-003;
2.401500000000000E+009;1.556616425514221E-001;8.829493075609207E-002;2.917833859100938E-003;-7.251161616295576E-003;
2.401666666666667E+009;1.555231064558029E-001;8.526042103767395E-002;2.536379732191563E-003;-7.604069542139769E-003;
2.401833333333334E+009;1.559852659702301E-001;8.220623433589935E-002;2.291646786034107E-003;-7.870633155107498E-003;
2.402000000000000E+009;1.563928723335266E-001;7.908959686756134E-002;1.895630382932723E-003;-7.917566224932671E-003;
2.402166666666667E+009;1.571007668972015E-001;7.626066356897354E-002;1.374873565509915E-003;-8.183817379176617E-003;
2.402333333333334E+009;1.577212363481522E-001;7.319318503141403E-002;9.753691265359521E-004;-8.267296478152275E-003;
2.402500000000000E+009;1.587272137403488E-001;6.993007659912109E-002;-3.399855340830982E-004;-7.416174281388521E-003;
2.402666666666667E+009;1.595904976129532E-001;6.745191663503647E-002;-2.633151307236403E-004;-8.175488561391830E-003;
2.402833333333334E+009;1.606618165969849E-001;6.465824693441391E-002;-6.821430870331824E-004;-8.364120498299599E-003;
2.403000000000000E+009;1.619239002466202E-001;6.187364459037781E-002;-9.911982342600822E-004;-8.255238644778729E-003;
2.403166666666667E+009;1.636189669370651E-001;5.926829949021339E-002;-1.324926503002644E-003;-8.063399232923985E-003;
2.403333333333334E+009;1.648825407028198E-001;5.695049092173576E-002;-1.760379062034190E-003;-7.850878871977329E-003;
2.403500000000000E+009;1.663502603769302E-001;5.449802055954933E-002;-2.062399405986071E-003;-7.953207008540630E-003;
2.403666666666667E+009;1.681780219078064E-001;5.221788957715035E-002;-2.369049005210400E-003;-7.269680034369230E-003;
2.403833333333334E+009;1.699686646461487E-001;4.981099814176559E-002;-2.868089359253645E-003;-6.703943014144898E-003;
2.404000000000000E+009;1.715253889560700E-001;4.778686910867691E-002;-3.124053822830319E-003;-6.692933849990368E-003;
2.404166666666667E+009;1.734693795442581E-001;4.590797051787376E-002;-3.320551477372646E-003;-6.551469676196575E-003;
2.404333333333334E+009;1.752035617828369E-001;4.417872801423073E-002;-3.594838781282306E-003;-5.985558964312077E-003;
2.404500000000000E+009;1.771850436925888E-001;4.234516620635986E-002;-3.623824100941420E-003;-5.458102561533451E-003;
2.404666666666667E+009;1.788582503795624E-001;4.099025577306747E-002;-3.785211825743318E-003;-5.232718307524920E-003;
2.404833333333334E+009;1.807940453290939E-001;3.971336781978607E-002;-3.819826990365982E-003;-5.483051761984825E-003;
2.405000000000000E+009;1.820845156908035E-001;3.862072899937630E-002;-3.152291290462017E-003;-4.783522803336382E-003;
2.405166666666667E+009;1.840943545103073E-001;3.794258832931519E-002;-3.613197011873126E-003;-4.714222159236670E-003;
2.405333333333334E+009;1.858293414115906E-001;3.721867874264717E-002;-3.650336759164929E-003;-4.493398126214743E-003;
2.405500000000000E+009;1.875587701797485E-001;3.636855632066727E-002;-3.622273914515972E-003;-4.197487141937017E-003;
2.405666666666667E+009;1.893180161714554E-001;3.599836304783821E-002;-3.808679757639766E-003;-4.022852052003145E-003;
2.405833333333334E+009;1.908626705408096E-001;3.561414405703545E-002;-3.648825455456972E-003;-3.948745317757130E-003;
2.406000000000000E+009;1.921049803495407E-001;3.555749729275703E-002;-3.807492321357131E-003;-3.888827282935381E-003;
2.406166666666667E+009;1.935991644859314E-001;3.532656282186508E-002;-3.893682500347495E-003;-3.783890744671226E-003;
2.406333333333334E+009;1.947719305753708E-001;3.547017276287079E-002;-3.977333661168814E-003;-3.436733270063996E-003;
2.406500000000000E+009;1.958695054054260E-001;3.542819619178772E-002;-3.966018091887236E-003;-3.359273774549365E-003;
2.406666666666667E+009;1.969298869371414E-001;3.564554825425148E-002;-3.992661833763123E-003;-3.252032445743680E-003;
2.406833333333334E+009;1.977813094854355E-001;3.584348782896996E-002;-3.964569419622421E-003;-3.129491582512856E-003;
2.407000000000000E+009;1.983835101127625E-001;3.631436824798584E-002;-3.820207202807069E-003;-3.027107100933790E-003;
2.407166666666667E+009;1.990048438310623E-001;3.636161237955093E-002;-3.978028893470764E-003;-2.844534814357758E-003;
2.407333333333334E+009;1.994090229272842E-001;3.675385192036629E-002;-3.864495549350977E-003;-2.712147077545524E-003;
2.407500000000000E+009;1.996000856161118E-001;3.713374212384224E-002;-3.978842403739691E-003;-2.545661060139537E-003;
2.407666666666667E+009;1.998884826898575E-001;3.731321543455124E-002;-3.805320011451840E-003;-2.428775886073709E-003;
2.407833333333334E+009;1.994943171739578E-001;3.761555999517441E-002;-3.831672947853804E-003;-2.243791939690709E-003;
2.408000000000000E+009;1.997549235820770E-001;3.772870823740959E-002;-3.732401411980391E-003;-2.339568454772234E-003;
2.408166666666667E+009;1.991963386535645E-001;3.786832094192505E-002;-3.842682810500264E-003;-2.197524532675743E-003;
2.408333333333334E+009;1.990583837032318E-001;3.770114853978157E-002;-3.655175678431988E-003;-2.196551300585270E-003;
2.408500000000000E+009;1.985544413328171E-001;3.791221231222153E-002;-3.546744352206588E-003;-1.960864756256342E-003;
2.408666666666667E+009;1.978557854890823E-001;3.754089027643204E-002;-3.467057365924120E-003;-2.090758644044399E-003;
2.408833333333334E+009;1.972474455833435E-001;3.724770620465279E-002;-3.662967821583152E-003;-2.007613191381097E-003;
2.409000000000000E+009;1.963136941194534E-001;3.673451021313667E-002;-3.494251286610961E-003;-2.161832759156823E-003;
2.409166666666667E+009;1.952688544988632E-001;3.629710897803307E-002;-3.520742058753967E-003;-2.039483049884439E-003;
2.409333333333334E+009;1.943104714155197E-001;3.556912019848824E-002;-3.490880830213428E-003;-2.028647810220718E-003;
2.409500000000000E+009;1.929759085178375E-001;3.461438417434692E-002;-3.558885306119919E-003;-2.078723628073931E-003;
2.409666666666667E+009;1.918434053659439E-001;3.353817015886307E-002;-3.333621891215444E-003;-1.958185574039817E-003;
2.409833333333334E+009;1.906463056802750E-001;3.241160884499550E-002;-3.451416734606028E-003;-2.114039380103350E-003;
2.410000000000000E+009;1.894080042839050E-001;3.096039593219757E-002;-3.559220349416137E-003;-2.082393504679203E-003;
2.410166666666667E+009;1.881246566772461E-001;2.938532270491123E-002;-3.541061421856284E-003;-2.087704837322235E-003;
2.410333333333334E+009;1.869501471519470E-001;2.798365987837315E-002;-3.684504190459848E-003;-2.106518717482686E-003;
2.410500000000000E+009;1.857587695121765E-001;2.624643780291081E-002;-3.632679348811507E-003;-2.194778062403202E-003;
2.410666666666667E+009;1.843799501657486E-001;2.416064590215683E-002;-3.667237469926477E-003;-2.159356838092208E-003;
2.410833333333334E+009;1.833891123533249E-001;2.200601808726788E-002;-3.725171089172363E-003;-2.226154087111354E-003;
2.411000000000000E+009;1.822205632925034E-001;2.012789621949196E-002;-3.829723922535777E-003;-2.210477832704783E-003;
2.411166666666667E+009;1.814625859260559E-001;1.791922189295292E-002;-3.858368145301938E-003;-2.284319140017033E-003;
2.411333333333334E+009;1.804464459419251E-001;1.543359085917473E-002;-4.034958779811859E-003;-2.265956951305270E-003;
2.411500000000000E+009;1.796097606420517E-001;1.300442777574062E-002;-4.123084712773562E-003;-2.364326035603881E-003;
2.411666666666667E+009;1.791605204343796E-001;1.049786154180765E-002;-4.373933188617230E-003;-2.346946857869625E-003;
2.411833333333334E+009;1.785177290439606E-001;8.082913234829903E-003;-4.517895169556141E-003;-2.376808552071452E-003;
2.412000000000000E+009;1.783037930727005E-001;5.296611692756414E-003;-4.718982148915529E-003;-2.376301912590861E-003;
2.412166666666667E+009;1.779990047216415E-001;2.963701030239463E-003;-4.908027127385140E-003;-2.265149494633079E-003;
2.412333333333334E+009;1.779615134000778E-001;5.012559995520860E-005;-5.072686821222305E-003;-2.182935131713748E-003;
2.412500000000000E+009;1.781265288591385E-001;-2.522944007068873E-003;-5.539895035326481E-003;-1.957864966243506E-003;
2.412666666666667E+009;1.783286333084106E-001;-5.123101640492678E-003;-5.674236919730902E-003;-1.859879121184349E-003;
2.412833333333334E+009;1.788119822740555E-001;-7.894051261246204E-003;-6.023069377988577E-003;-1.597006106749177E-003;
2.413000000000000E+009;1.795251071453095E-001;-1.033247075974941E-002;-6.202249787747860E-003;-1.474200980737805E-003;
2.413166666666667E+009;1.800518929958344E-001;-1.299063675105572E-002;-6.426849868148565E-003;-1.112352474592626E-003;
2.413333333333334E+009;1.807990223169327E-001;-1.553918980062008E-002;-6.510922685265541E-003;-8.438069489784539E-004;
2.413500000000000E+009;1.817418783903122E-001;-1.816022954881191E-002;-6.748682819306850E-003;-6.971241673454642E-004;
2.413666666666667E+009;1.828120499849320E-001;-2.054150216281414E-002;-6.843446288257837E-003;-1.738962018862367E-004;
2.413833333333334E+009;1.837951689958572E-001;-2.285028249025345E-002;-6.976684089750052E-003;2.574832469690591E-004;
2.414000000000000E+009;1.850353479385376E-001;-2.521125227212906E-002;-6.963749881833792E-003;5.423417314887047E-004;
2.414166666666667E+009;1.863966733217239E-001;-2.753103151917458E-002;-6.937122903764248E-003;1.137600978836417E-003;
2.414333333333334E+009;1.873999238014221E-001;-2.967253327369690E-002;-6.711431778967381E-003;1.413704245351255E-003;
2.414500000000000E+009;1.888811141252518E-001;-3.139457106590271E-002;-6.670120172202587E-003;1.823961036279798E-003;
2.414666666666667E+009;1.902475655078888E-001;-3.324073180556297E-002;-6.621084641665220E-003;1.893223961815238E-003;
2.414833333333334E+009;1.914700716733933E-001;-3.498787805438042E-002;-6.527353543788195E-003;2.327516674995422E-003;
2.415000000000000E+009;1.928067356348038E-001;-3.645796701312065E-002;-6.215449422597885E-003;2.624488202854991E-003;
2.415166666666667E+009;1.943373233079910E-001;-3.786101937294006E-002;-6.231441162526608E-003;3.050325438380241E-003;
2.415333333333334E+009;1.957616508007050E-001;-3.914584964513779E-002;-5.909115541726351E-003;3.120089415460825E-003;
2.415500000000000E+009;1.970368474721909E-001;-4.004856199026108E-002;-5.818542093038559E-003;3.228071611374617E-003;
2.415666666666667E+009;1.983208656311035E-001;-4.108462855219841E-002;-5.615638568997383E-003;3.259229473769665E-003;
2.415833333333334E+009;1.995133310556412E-001;-4.187502339482307E-002;-5.563790444284678E-003;3.640764625743032E-003;
2.416000000000000E+009;2.005223929882050E-001;-4.263017699122429E-002;-5.338116083294153E-003;3.824469866231084E-003;
2.416166666666667E+009;2.015612721443176E-001;-4.330392926931381E-002;-5.246776621788740E-003;4.030876327306032E-003;
2.416333333333334E+009;2.025206536054611E-001;-4.361838847398758E-002;-5.041102878749371E-003;4.188289865851402E-003;
2.416500000000000E+009;2.033535838127136E-001;-4.383176937699318E-002;-4.790688864886761E-003;4.500683862715960E-003;
2.416666666666667E+009;2.040347158908844E-001;-4.417030513286591E-002;-4.592714365571737E-003;4.565345123410225E-003;
2.416833333333334E+009;2.043487727642059E-001;-4.425668716430664E-002;-4.367438610643148E-003;4.944852087646723E-003;
2.417000000000000E+009;2.048682272434235E-001;-4.424772411584854E-002;-4.106245469301939E-003;4.994252230972052E-003;
2.417166666666667E+009;2.049340009689331E-001;-4.417552798986435E-002;-3.791675204411149E-003;5.156222730875015E-003;
2.417333333333334E+009;2.050917148590088E-001;-4.382989555597305E-002;-3.664685180410743E-003;5.334527231752873E-003;
2.417500000000000E+009;2.050342410802841E-001;-4.369184747338295E-002;-3.256871132180095E-003;5.291427485644817E-003;
2.417666666666667E+009;2.048841863870621E-001;-4.325565695762634E-002;-2.970561385154724E-003;5.335676018148661E-003;
2.417833333333334E+009;2.046190649271011E-001;-4.298728331923485E-002;-2.907722722738981E-003;5.385573487728834E-003;
2.418000000000000E+009;2.042932063341141E-001;-4.241933301091194E-002;-2.406045095995069E-003;5.426831543445587E-003;
2.418166666666667E+009;2.036121636629105E-001;-4.210698604583740E-002;-2.295730868354440E-003;5.337107460945845E-003;
2.418333333333334E+009;2.027980834245682E-001;-4.182569682598114E-002;-2.157565439119935E-003;5.352869629859924E-003;
2.418500000000000E+009;2.020607143640518E-001;-4.144012555480003E-002;-1.703841844573617E-003;5.362778902053833E-003;
2.418666666666667E+009;2.012369483709335E-001;-4.103226959705353E-002;-1.644572359509766E-003;5.288749933242798E-003;
2.418833333333334E+009;2.000826001167297E-001;-4.098437353968620E-002;-1.275748247280717E-003;5.075170192867518E-003;
2.419000000000000E+009;1.988300234079361E-001;-4.079261049628258E-002;-1.277422648854554E-003;5.108105484396219E-003;
2.419166666666667E+009;1.975127756595612E-001;-4.075485095381737E-002;-1.064550480805337E-003;4.942702129483223E-003;
2.419333333333334E+009;1.961210072040558E-001;-4.079556465148926E-002;-9.665580000728369E-004;4.899336025118828E-003;
2.419500000000000E+009;1.946114897727966E-001;-4.112249612808228E-002;-7.684796582907438E-004;4.814391955733299E-003;
2.419666666666667E+009;1.928415298461914E-001;-4.157882928848267E-002;-8.051668992266059E-004;4.776494111865759E-003;
2.419833333333334E+009;1.912094354629517E-001;-4.185334965586662E-002;-7.277011754922569E-004;4.581438377499580E-003;
2.420000000000000E+009;1.893942356109619E-001;-4.244471713900566E-002;-7.035783492028713E-004;4.462999291718006E-003;
2.420166666666667E+009;1.876642704010010E-001;-4.310213774442673E-002;-6.574654835276306E-004;4.478158894926310E-003;
2.420333333333334E+009;1.859389841556549E-001;-4.410774260759354E-002;-6.159013719297946E-004;4.583731293678284E-003;
2.420500000000000E+009;1.838919371366501E-001;-4.515682533383369E-002;-4.894279409199953E-004;4.481970798224211E-003;
2.420666666666667E+009;1.821107119321823E-001;-4.612095281481743E-002;-4.506976692937315E-004;4.327078349888325E-003;
2.420833333333334E+009;1.801656037569046E-001;-4.746375605463982E-002;-4.937540506944060E-004;4.400632809847593E-003;
2.421000000000000E+009;1.785057634115219E-001;-4.879954829812050E-002;-5.192777025513351E-004;4.639243707060814E-003;
2.421166666666667E+009;1.767105758190155E-001;-5.041161552071571E-002;-2.826946729328483E-004;4.623352084308863E-003;
2.421333333333334E+009;1.747629344463348E-001;-5.181883648037911E-002;-2.712947607506067E-004;4.437819123268127E-003;
2.421500000000000E+009;1.731069833040237E-001;-5.357927829027176E-002;-2.743234217632562E-004;4.545550793409348E-003;
2.421666666666667E+009;1.715590357780457E-001;-5.549502745270729E-002;7.870508852647618E-005;4.569306969642639E-003;
2.421833333333334E+009;1.701319515705109E-001;-5.737328156828880E-002;2.045462169917300E-004;4.529914818704128E-003;
2.422000000000000E+009;1.687731742858887E-001;-5.933437123894692E-002;1.900794886751100E-004;4.472850356251001E-003;
2.422166666666667E+009;1.675171703100205E-001;-6.158460676670075E-002;2.753619628492743E-004;4.382507409900427E-003;
2.422333333333334E+009;1.661862432956696E-001;-6.365146487951279E-002;3.000870055984706E-004;4.351187497377396E-003;
2.422500000000000E+009;1.652251780033112E-001;-6.577417254447937E-002;5.537694087252021E-004;4.255146253854036E-003;
2.422666666666667E+009;1.641654521226883E-001;-6.802913546562195E-002;5.817748606204987E-004;4.339951556175947E-003;
2.422833333333334E+009;1.634398102760315E-001;-7.023526728153229E-002;6.988173699937761E-004;4.121130798012018E-003;
2.423000000000000E+009;1.627973169088364E-001;-7.264750450849533E-002;7.567960419692099E-004;4.113028757274151E-003;
2.423166666666667E+009;1.624781489372253E-001;-7.475352287292481E-002;8.331640274263918E-004;4.026107955724001E-003;
2.423333333333334E+009;1.618728339672089E-001;-7.700131833553314E-002;9.471790399402380E-004;3.980455920100212E-003;
2.423500000000000E+009;1.616184115409851E-001;-7.915797829627991E-002;8.496993687003851E-004;3.951101098209620E-003;
2.423666666666667E+009;1.616271436214447E-001;-8.131487667560577E-002;1.119948923587799E-003;3.971476573497057E-003;
2.423833333333334E+009;1.614195108413696E-001;-8.346299827098846E-002;1.011470914818347E-003;3.809050656855106E-003;
2.424000000000000E+009;1.615553647279739E-001;-8.551204949617386E-002;1.034681568853557E-003;3.906982950866222E-003;
2.424166666666667E+009;1.617573499679565E-001;-8.754328638315201E-002;8.339828345924616E-004;3.858080832287669E-003;
2.424333333333334E+009;1.619041413068771E-001;-8.935970067977905E-002;9.871345246210694E-004;3.797967685386539E-003;
2.424500000000000E+009;1.622806340456009E-001;-9.147115796804428E-002;1.093592494726181E-003;3.892502980306745E-003;
2.424666666666667E+009;1.625561416149139E-001;-9.303880482912064E-002;9.881274309009314E-004;3.922721371054649E-003;
2.424833333333334E+009;1.632464975118637E-001;-9.477174282073975E-002;1.010785228572786E-003;3.922146279364824E-003;
2.425000000000000E+009;1.636907011270523E-001;-9.608989208936691E-002;1.163600245490670E-003;4.071861505508423E-003;
2.425166666666667E+009;1.643042117357254E-001;-9.759093821048737E-002;1.177342142909765E-003;4.008887801319361E-003;
2.425333333333334E+009;1.647554039955139E-001;-9.882631897926331E-002;1.374266925267875E-003;4.009263124316931E-003;
2.425500000000000E+009;1.655907034873962E-001;-1.000643149018288E-001;1.299081835895777E-003;4.214224871248007E-003;
2.425666666666667E+009;1.661578118801117E-001;-1.009534895420075E-001;1.645770738832653E-003;4.381799604743719E-003;
2.425833333333334E+009;1.667221188545227E-001;-1.020032837986946E-001;1.662644208408892E-003;4.317938350141048E-003;
2.426000000000000E+009;1.674224734306335E-001;-1.026759445667267E-001;1.915244618430734E-003;4.438849166035652E-003;
2.426166666666667E+009;1.681666523218155E-001;-1.032074764370918E-001;2.043391577899456E-003;4.561864770948887E-003;
2.426333333333334E+009;1.685586422681809E-001;-1.040097996592522E-001;2.125449012964964E-003;4.394848830997944E-003;
2.426500000000000E+009;1.693141311407089E-001;-1.042761802673340E-001;2.415836555883288E-003;4.425033461302519E-003;
2.426666666666667E+009;1.698387414216995E-001;-1.046981066465378E-001;2.641801023855805E-003;4.395076073706150E-003;
2.426833333333334E+009;1.704665571451187E-001;-1.051210463047028E-001;2.759353257715702E-003;4.422128666192293E-003;
2.427000000000000E+009;1.708060055971146E-001;-1.052049100399017E-001;3.007163060829043E-003;4.224623553454876E-003;
2.427166666666667E+009;1.712175458669663E-001;-1.053773388266563E-001;3.008285304531455E-003;4.270245786756277E-003;
2.427333333333334E+009;1.714336872100830E-001;-1.054957136511803E-001;3.333935979753733E-003;4.381956998258829E-003;
2.427500000000000E+009;1.715326756238937E-001;-1.056117117404938E-001;3.680411260575056E-003;4.191980697214603E-003;
2.427666666666667E+009;1.714670658111572E-001;-1.056531891226769E-001;3.567753126844764E-003;3.950173500925303E-003;
