# Version 1.00
#
freq[Hz];re:Trc1_S11;im:Trc1_S11;re:Trc2_S21;im:Trc2_S21;
2.400000000000000E+009;1.555771529674530E-001;1.068300083279610E-001;-3.343681106343865E-003;-4.694591276347637E-003;
2.400166666666667E+009;1.552667617797852E-001;1.044480800628662E-001;-3.576083341613412E-003;-4.565450828522444E-003;
2.400333333333334E+009;1.552891731262207E-001;1.020676195621491E-001;-3.908264916390181E-003;-4.292830359190702E-003;
2.400500000000000E+009;1.551822572946549E-001;9.939657896757126E-002;-3.980998415499926E-003;-3.985146060585976E-003;
2.400666666666667E+009;1.552168577909470E-001;9.685356914997101E-002;-4.111599642783403E-003;-3.807643661275506E-003;
2.400833333333334E+009;1.553072035312653E-001;9.394975751638413E-002;-4.241484217345715E-003;-3.493344178423286E-003;
2.401000000000000E+009;1.554029583930969E-001;9.107605367898941E-002;-4.324178677052259E-003;-3.229578258469701E-003;
2.401166666666667E+009;1.554624587297440E-001;8.833520859479904E-002;-4.439826123416424E-003;-2.970410510897636E-003;
2.401333333333334E+009;1.558595299720764E-001;8.557889610528946E-002;-4.428605549037457E-003;-2.729073166847229E-003;
2.401500000000000E+009;1.563391238451004E-001;8.253435045480728E-002;-4.460799042135477E-003;-2.506961813196540E-003;
2.401666666666667E+009;1.565262526273727E-001;7.957897335290909E-002;-4.438895732164383E-003;-2.324143191799521E-003;
2.401833333333334E+009;1.571348309516907E-001;7.695697993040085E-002;-4.299960099160671E-003;-2.021662890911102E-003;
2.402000000000000E+009;1.579518765211105E-001;7.407166808843613E-002;-4.280684981495142E-003;-1.932428218424320E-003;
2.402166666666667E+009;1.586091667413712E-001;7.158348709344864E-002;-4.281460773199797E-003;-1.797671080566943E-003;
2.402333333333334E+009;1.596793234348297E-001;6.873401999473572E-002;-4.212122410535812E-003;-1.643650582991540E-003;
2.402500000000000E+009;1.606980711221695E-001;6.613183021545410E-002;-4.219184163957834E-003;-1.549245673231781E-003;
2.402666666666667E+009;1.619694232940674E-001;6.405268609523773E-002;-4.106209147721529E-003;-1.363810966722667E-003;
2.402833333333334E+009;1.632951945066452E-001;6.132571771740913E-002;-4.227218218147755E-003;-1.422860077582300E-003;
2.403000000000000E+009;1.646718829870224E-001;5.894653871655464E-002;-4.273744765669107E-003;-1.199311111122370E-003;
2.403166666666667E+009;1.664855331182480E-001;5.688359960913658E-002;-4.486163146793842E-003;-9.767407318577170E-004;
2.403333333333334E+009;1.678055822849274E-001;5.464842543005943E-002;-4.470047540962696E-003;-9.859097190201283E-004;
2.403500000000000E+009;1.696607023477554E-001;5.256959050893784E-002;-4.469297360628843E-003;-6.731293397024274E-004;
2.403666666666667E+009;1.713309437036514E-001;5.082724988460541E-002;-4.495600704103708E-003;-6.208274280652404E-004;
2.403833333333334E+009;1.729951947927475E-001;4.878910630941391E-002;-4.486252088099718E-003;-4.014542209915817E-004;
2.404000000000000E+009;1.745062172412872E-001;4.699320346117020E-002;-4.494043998420239E-003;-1.015620218822733E-004;
2.404166666666667E+009;1.763062775135040E-001;4.554020613431931E-002;-4.524761345237494E-003;1.354534178972244E-004;
2.404333333333334E+009;1.780042797327042E-001;4.405541345477104E-002;-4.444709978997707E-003;2.487900783307850E-004;
2.404500000000000E+009;1.794434934854507E-001;4.254513233900070E-002;-4.343227483332157E-003;3.939347516279668E-004;
2.404666666666667E+009;1.812631636857987E-001;4.156494140625000E-002;-4.160171840339899E-003;6.629265844821930E-004;
2.404833333333334E+009;1.829077154397965E-001;4.045534506440163E-002;-4.053284879773855E-003;8.913829806260765E-004;
2.405000000000000E+009;1.842788904905319E-001;3.978140652179718E-002;-4.034939222037792E-003;1.096974476240575E-003;
2.405166666666667E+009;1.857073456048966E-001;3.903711587190628E-002;-3.850737586617470E-003;1.127545605413616E-003;
2.405333333333334E+009;1.873223483562470E-001;3.864031285047531E-002;-3.532911418005824E-003;1.457378384657204E-003;
2.405500000000000E+009;1.885926425457001E-001;3.808497637510300E-002;-3.405087860301137E-003;1.553136389702559E-003;
2.405666666666667E+009;1.898032426834106E-001;3.771270811557770E-002;-3.299533156678081E-003;1.570460386574268E-003;
2.405833333333334E+009;1.910579204559326E-001;3.759492933750153E-002;-3.171719610691071E-003;1.733718789182603E-003;
2.406000000000000E+009;1.920842677354813E-001;3.730504959821701E-002;-2.907895250245929E-003;1.822593156248331E-003;
2.406166666666667E+009;1.931918859481812E-001;3.719797730445862E-002;-2.809019060805440E-003;1.691095181740820E-003;
2.406333333333334E+009;1.940372437238693E-001;3.715049102902412E-002;-2.606767462566495E-003;1.928170910105109E-003;
2.406500000000000E+009;1.947506666183472E-001;3.718569129705429E-002;-2.513686195015907E-003;1.732062199153006E-003;
2.406666666666667E+009;1.954379975795746E-001;3.729147836565971E-002;-2.253584330901504E-003;1.787270302884281E-003;
2.406833333333334E+009;1.959551870822907E-001;3.726830333471298E-002;-2.075934549793601E-003;1.684377901256084E-003;
2.407000000000000E+009;1.962765604257584E-001;3.752950951457024E-002;-2.027681563049555E-003;1.455209567211568E-003;
2.407166666666667E+009;1.966397911310196E-001;3.729779645800591E-002;-1.899564871564508E-003;1.474946038797498E-003;
2.407333333333334E+009;1.965127289295197E-001;3.752364218235016E-002;-1.752306940034032E-003;1.496253884397447E-003;
2.407500000000000E+009;1.964480429887772E-001;3.766757994890213E-002;-1.579222967848182E-003;1.284531783312559E-003;
2.407666666666667E+009;1.965609937906265E-001;3.740322589874268E-002;-1.580443931743503E-003;1.368440571241081E-003;
2.407833333333334E+009;1.958407759666443E-001;3.748439252376556E-002;-1.361869857646525E-003;1.097587635740638E-003;
2.408000000000000E+009;1.957523226737976E-001;3.751367703080177E-002;-1.311148400418460E-003;1.049947226420045E-003;
2.408166666666667E+009;1.953205913305283E-001;3.701738640666008E-002;-1.462514977902174E-003;9.164141956716776E-004;
2.408333333333334E+009;1.947336792945862E-001;3.687851503491402E-002;-1.423651701770723E-003;7.544099353253841E-004;
2.408500000000000E+009;1.938128918409348E-001;3.615936636924744E-002;-1.487856032326818E-003;7.901109056547284E-004;
2.408666666666667E+009;1.932594627141953E-001;3.573632612824440E-002;-1.737186801619828E-003;6.222090451046825E-004;
2.408833333333334E+009;1.924906969070435E-001;3.504316508769989E-002;-1.751599600538611E-003;4.234020889271051E-004;
2.409000000000000E+009;1.915485262870789E-001;3.415389358997345E-002;-1.824426813982427E-003;3.979266330134124E-004;
2.409166666666667E+009;1.906623840332031E-001;3.314810246229172E-002;-1.852363580837846E-003;4.254243103787303E-004;
2.409333333333334E+009;1.896371841430664E-001;3.216131031513214E-002;-2.185192657634616E-003;3.679734654724598E-004;
2.409500000000000E+009;1.884479820728302E-001;3.094057179987431E-002;-2.290351781994104E-003;4.969933070242405E-004;
2.409666666666667E+009;1.874936223030090E-001;2.957623638212681E-002;-2.269738586619496E-003;5.874798516742885E-004;
2.409833333333334E+009;1.862573623657227E-001;2.806877158582211E-002;-2.339488593861461E-003;5.211292300373316E-004;
2.410000000000000E+009;1.853258460760117E-001;2.639183960855007E-002;-2.462911885231733E-003;7.911776774562895E-004;
2.410166666666667E+009;1.842876970767975E-001;2.444868534803391E-002;-2.655955264344811E-003;7.734663668088615E-004;
2.410333333333334E+009;1.832009851932526E-001;2.290777675807476E-002;-2.600828884169459E-003;1.027743564918637E-003;
2.410500000000000E+009;1.823054552078247E-001;2.108267135918140E-002;-2.647964050993323E-003;1.163383596576750E-003;
2.410666666666667E+009;1.814848184585571E-001;1.878816261887550E-002;-2.594243036583066E-003;1.229629851877689E-003;
2.410833333333334E+009;1.808014512062073E-001;1.657907478511334E-002;-2.566793235018849E-003;1.330552739091218E-003;
2.411000000000000E+009;1.800078153610230E-001;1.426351163536310E-002;-2.454485977068543E-003;1.399126485921443E-003;
2.411166666666667E+009;1.792512834072113E-001;1.215546578168869E-002;-2.433903515338898E-003;1.339608454145491E-003;
2.411333333333334E+009;1.787696778774262E-001;9.644357487559319E-003;-2.329711802303791E-003;1.535879098810256E-003;
2.411500000000000E+009;1.782875955104828E-001;7.196594495326281E-003;-2.369791734963656E-003;1.529446337372065E-003;
2.411666666666667E+009;1.780415475368500E-001;4.752560518682003E-003;-2.228367608040571E-003;1.604865537956357E-003;
2.411833333333334E+009;1.778099834918976E-001;2.563049318268895E-003;-2.285795751959086E-003;1.617678557522595E-003;
2.412000000000000E+009;1.779191493988037E-001;-1.935166510520503E-004;-2.228971105068922E-003;1.576579990796745E-003;
2.412166666666667E+009;1.778642237186432E-001;-2.463762182742357E-003;-2.360758604481816E-003;1.636965549550951E-003;
2.412333333333334E+009;1.781777441501617E-001;-4.939919337630272E-003;-2.122465753927827E-003;1.533743343316019E-003;
2.412500000000000E+009;1.786376982927322E-001;-7.302724756300449E-003;-2.358730882406235E-003;1.512141316197813E-003;
2.412666666666667E+009;1.790370643138886E-001;-9.988718666136265E-003;-2.358014695346355E-003;1.643496914766729E-003;
2.412833333333334E+009;1.798943132162094E-001;-1.227497961372137E-002;-2.442079596221447E-003;1.737370970658958E-003;
2.413000000000000E+009;1.805147975683212E-001;-1.462545339018107E-002;-2.570684533566237E-003;1.651092781685293E-003;
2.413166666666667E+009;1.813764870166779E-001;-1.683070696890354E-002;-2.699845237657428E-003;1.707558985799551E-003;
2.413333333333334E+009;1.824495494365692E-001;-1.924259029328823E-002;-2.695052884519100E-003;1.888387487269938E-003;
2.413500000000000E+009;1.833610832691193E-001;-2.130613848567009E-002;-2.828002907335758E-003;2.040575025603175E-003;
2.413666666666667E+009;1.845293045043945E-001;-2.355097234249115E-002;-2.772761043161154E-003;2.091264585033059E-003;
2.413833333333334E+009;1.854366511106491E-001;-2.550685964524746E-002;-2.771090716123581E-003;2.388567896559835E-003;
2.414000000000000E+009;1.865511834621429E-001;-2.750126644968987E-002;-2.800999209284782E-003;2.640591003000736E-003;
2.414166666666667E+009;1.879061311483383E-001;-2.931861020624638E-002;-2.798593137413263E-003;2.903536427766085E-003;
2.414333333333334E+009;1.891741305589676E-001;-3.122142329812050E-002;-2.763631287962198E-003;3.189445706084371E-003;
2.414500000000000E+009;1.903750300407410E-001;-3.280288353562355E-002;-2.582928398624063E-003;3.498033154755831E-003;
2.414666666666667E+009;1.914549767971039E-001;-3.412737697362900E-002;-2.538535976782441E-003;3.657056717202067E-003;
2.414833333333334E+009;1.926003247499466E-001;-3.549277409911156E-002;-2.223208080977202E-003;3.754781559109688E-003;
2.415000000000000E+009;1.938720792531967E-001;-3.678692877292633E-002;-1.980782952159643E-003;3.951889928430319E-003;
2.415166666666667E+009;1.951738446950913E-001;-3.784960135817528E-002;-1.790801994502544E-003;4.173571243882179E-003;
2.415333333333334E+009;1.962560117244721E-001;-3.878476098179817E-002;-1.720734871923924E-003;4.373637493699789E-003;
2.415500000000000E+009;1.973362118005753E-001;-3.944851458072662E-002;-1.414094818755984E-003;4.199705552309752E-003;
2.415666666666667E+009;1.984264254570007E-001;-4.026405513286591E-002;-1.114839571528137E-003;4.551976919174194E-003;
2.415833333333334E+009;1.993103623390198E-001;-4.074360430240631E-002;-9.542967309243977E-004;4.599820356816053E-003;
2.416000000000000E+009;2.000644952058792E-001;-4.134077951312065E-002;-7.992416503839195E-004;4.606586880981922E-003;
2.416166666666667E+009;2.009808421134949E-001;-4.193718358874321E-002;-4.103081591892988E-004;4.596516024321318E-003;
2.416333333333334E+009;2.015015184879303E-001;-4.209667444229126E-002;-1.713679666863754E-004;4.716730210930109E-003;
2.416500000000000E+009;2.021411210298538E-001;-4.229857027530670E-002;-2.915521872637328E-005;4.465814679861069E-003;
2.416666666666667E+009;2.023294121026993E-001;-4.261274263262749E-002;2.467813610564917E-004;4.615152720361948E-003;
2.416833333333334E+009;2.025162577629089E-001;-4.269244149327278E-002;4.130539600737393E-004;4.463360179215670E-003;
2.417000000000000E+009;2.025710493326187E-001;-4.263901710510254E-002;7.356710266321898E-004;4.488169681280851E-003;
2.417166666666667E+009;2.025370597839356E-001;-4.279153421521187E-002;8.730655536055565E-004;4.347527399659157E-003;
2.417333333333334E+009;2.022498399019241E-001;-4.248228669166565E-002;1.010528299957514E-003;4.280996508896351E-003;
2.417500000000000E+009;2.019766420125961E-001;-4.243988916277885E-002;1.194863230921328E-003;4.223726689815521E-003;
2.417666666666667E+009;2.013572305440903E-001;-4.230030626058579E-002;1.236229320056737E-003;4.228415898978710E-003;
2.417833333333334E+009;2.010315060615540E-001;-4.206755012273789E-002;1.282308134250343E-003;3.940990194678307E-003;
2.418000000000000E+009;2.003572583198547E-001;-4.185073450207710E-002;1.497425371780992E-003;3.899239003658295E-003;
2.418166666666667E+009;1.995635926723480E-001;-4.179662466049194E-002;1.681604189798236E-003;3.777984296903014E-003;
2.418333333333334E+009;1.986141055822372E-001;-4.163472726941109E-002;1.753056538291276E-003;3.588363062590361E-003;
2.418500000000000E+009;1.976154446601868E-001;-4.165212064981461E-002;1.877276692539454E-003;3.523768624290824E-003;
2.418666666666667E+009;1.966824084520340E-001;-4.159513860940933E-002;2.015469362959266E-003;3.459256375208497E-003;
2.418833333333334E+009;1.953256875276566E-001;-4.173255339264870E-002;2.034198492765427E-003;3.415710991248488E-003;
2.419000000000000E+009;1.941304504871368E-001;-4.195512458682060E-002;2.100570360198617E-003;3.171893768012524E-003;
2.419166666666667E+009;1.927795559167862E-001;-4.233429580926895E-002;2.183839213103056E-003;3.092913422733545E-003;
2.419333333333334E+009;1.913500130176544E-001;-4.272118210792542E-002;2.415628870949149E-003;2.885362831875682E-003;
2.419500000000000E+009;1.899501085281372E-001;-4.316106066107750E-002;2.538358327001333E-003;2.828969620168209E-003;
2.419666666666667E+009;1.883412152528763E-001;-4.391710460186005E-002;2.359492937102914E-003;2.693763468414545E-003;
2.419833333333334E+009;1.866748034954071E-001;-4.469065740704536E-002;2.494392218068242E-003;2.649939619004726E-003;
2.420000000000000E+009;1.850099563598633E-001;-4.548690468072891E-002;2.504335250705481E-003;2.432899316772819E-003;
2.420166666666667E+009;1.835172027349472E-001;-4.651203006505966E-002;2.643397310748696E-003;2.286605071276426E-003;
2.420333333333334E+009;1.817587763071060E-001;-4.770385473966599E-002;2.449615392833948E-003;2.108032116666436E-003;
2.420500000000000E+009;1.801336407661438E-001;-4.904072359204292E-002;2.656493801623583E-003;2.022440312430263E-003;
2.420666666666667E+009;1.786479204893112E-001;-5.017859488725662E-002;2.513855695724487E-003;1.940193586051464E-003;
2.420833333333334E+009;1.769138723611832E-001;-5.162359401583672E-002;2.588414587080479E-003;1.780572230927646E-003;
2.421000000000000E+009;1.755497306585312E-001;-5.330180749297142E-002;2.587298396974802E-003;1.649215817451477E-003;
2.421166666666667E+009;1.740097105503082E-001;-5.501668155193329E-002;2.437446964904666E-003;1.485850429162383E-003;
2.421333333333334E+009;1.722213476896286E-001;-5.658524855971336E-002;2.370762405917049E-003;1.418534084223211E-003;
2.421500000000000E+009;1.710452884435654E-001;-5.854301154613495E-002;2.213532803580165E-003;1.275360351428390E-003;
2.421666666666667E+009;1.698304414749146E-001;-6.024666503071785E-002;2.176577690988779E-003;1.199301914311945E-003;
2.421833333333334E+009;1.686966121196747E-001;-6.211539730429649E-002;2.163938945159316E-003;1.110894256271422E-003;
2.422000000000000E+009;1.675032377243042E-001;-6.412184983491898E-002;2.024525543674827E-003;1.251150853931904E-003;
2.422166666666667E+009;1.666564196348190E-001;-6.628999859094620E-002;2.002897206693888E-003;1.211696653626859E-003;
2.422333333333334E+009;1.656660586595535E-001;-6.844110786914825E-002;1.859276904724538E-003;1.318291062489152E-003;
2.422500000000000E+009;1.648983210325241E-001;-7.017283141613007E-002;1.748107955791056E-003;1.267629442736507E-003;
2.422666666666667E+009;1.640662997961044E-001;-7.242143154144287E-002;1.676199957728386E-003;1.324756885878742E-003;
2.422833333333334E+009;1.637260466814041E-001;-7.436800748109818E-002;1.810376881621778E-003;1.439156592823565E-003;
2.423000000000000E+009;1.631510108709335E-001;-7.632980495691299E-002;1.884803874418140E-003;1.316554960794747E-003;
2.423166666666667E+009;1.628984808921814E-001;-7.832409441471100E-002;1.748229027725756E-003;1.401671906933188E-003;
2.423333333333334E+009;1.626330912113190E-001;-8.031680434942246E-002;1.874574110843241E-003;1.487812842242420E-003;
2.423500000000000E+009;1.623814254999161E-001;-8.203922212123871E-002;1.748441252857447E-003;1.348823425360024E-003;
2.423666666666667E+009;1.625440269708633E-001;-8.419226109981537E-002;1.929117017425597E-003;1.373598817735910E-003;
2.423833333333334E+009;1.623443961143494E-001;-8.573312312364578E-002;1.808522152714431E-003;1.405623625032604E-003;
2.424000000000000E+009;1.626274883747101E-001;-8.759516477584839E-002;2.035076031461358E-003;1.526737236417830E-003;
2.424166666666667E+009;1.625586003065109E-001;-8.914764970541000E-002;1.995235681533814E-003;1.384318806231022E-003;
2.424333333333334E+009;1.629254370927811E-001;-9.064120799303055E-002;1.995515543967485E-003;1.465566689148545E-003;
2.424500000000000E+009;1.632574200630188E-001;-9.239368885755539E-002;2.183741191402078E-003;1.650870661251247E-003;
2.424666666666667E+009;1.634878665208817E-001;-9.380040317773819E-002;2.239688998088241E-003;1.476395642384887E-003;
2.424833333333334E+009;1.640921086072922E-001;-9.500192850828171E-002;2.266441239044070E-003;1.679622451774776E-003;
2.425000000000000E+009;1.644410490989685E-001;-9.619125723838806E-002;2.302813343703747E-003;1.541877631098032E-003;
2.425166666666667E+009;1.648264080286026E-001;-9.733746945858002E-002;2.452512970194221E-003;1.756811514496803E-003;
2.425333333333334E+009;1.652294695377350E-001;-9.826111793518066E-002;2.611426636576653E-003;1.615312532521784E-003;
2.425500000000000E+009;1.655641794204712E-001;-9.915685653686523E-002;2.675780095160008E-003;1.520230784080923E-003;
2.425666666666667E+009;1.659719198942184E-001;-9.981048107147217E-002;2.830852055922151E-003;1.574696274474263E-003;
2.425833333333334E+009;1.664136797189713E-001;-1.006442680954933E-001;2.913838950917125E-003;1.458691433072090E-003;
2.426000000000000E+009;1.668489724397659E-001;-1.010915413498879E-001;3.068809630349279E-003;1.590121653862298E-003;
2.426166666666667E+009;1.671545207500458E-001;-1.015930920839310E-001;3.128655953332782E-003;1.397732296027243E-003;
2.426333333333334E+009;1.674090474843979E-001;-1.020455360412598E-001;3.265883773565292E-003;1.197219826281071E-003;
2.426500000000000E+009;1.678114831447601E-001;-1.023380011320114E-001;3.336703171953559E-003;1.249508932232857E-003;
2.426666666666667E+009;1.679395288228989E-001;-1.025283783674240E-001;3.545276354998350E-003;1.020449912175536E-003;
2.426833333333334E+009;1.682121008634567E-001;-1.027959808707237E-001;3.610205836594105E-003;1.029355102218688E-003;
2.427000000000000E+009;1.682277470827103E-001;-1.030104830861092E-001;3.530654823407531E-003;9.194894228130579E-004;
2.427166666666667E+009;1.683025807142258E-001;-1.030220389366150E-001;3.582153469324112E-003;8.357428596355021E-004;
2.427333333333334E+009;1.681444644927979E-001;-1.033414378762245E-001;3.791858907788992E-003;6.267873686738312E-004;
2.427500000000000E+009;1.679914891719818E-001;-1.034332588315010E-001;3.697836538776755E-003;6.978285382501781E-004;
2.427666666666667E+009;1.676767319440842E-001;-1.033431962132454E-001;3.916353918612003E-003;4.589357704389840E-004;
2.427833333333334E+009;1.673064678907394E-001;-1.034956350922585E-001;4.014303907752037E-003;4.313310200814158E-004;
