# Version 1.00
#
freq[Hz];re:Trc1_S11;im:Trc1_S11;re:Trc2_S21;im:Trc2_S21;
2.400000000000000E+009;1.554221659898758E-001;1.068627163767815E-001;-3.293283283710480E-003;-4.721847362816334E-003;
2.400166666666667E+009;1.550306528806686E-001;1.044739782810211E-001;-3.498372854664922E-003;-4.471669439226389E-003;
2.400333333333334E+009;1.550135165452957E-001;1.020925641059876E-001;-3.960845526307821E-003;-4.210353828966618E-003;
2.400500000000000E+009;1.550650596618652E-001;9.945730119943619E-002;-3.946393262594938E-003;-4.153326153755188E-003;
2.400666666666667E+009;1.551431417465210E-001;9.685899317264557E-002;-4.095091484487057E-003;-3.636739682406187E-003;
2.400833333333334E+009;1.550685167312622E-001;9.406460821628571E-002;-4.237004555761814E-003;-3.529358422383666E-003;
2.401000000000000E+009;1.551227122545242E-001;9.112016111612320E-002;-4.252516664564610E-003;-3.132624551653862E-003;
2.401166666666667E+009;1.552309542894363E-001;8.844523131847382E-002;-4.398824647068977E-003;-3.016300266608596E-003;
2.401333333333334E+009;1.555865108966827E-001;8.560715615749359E-002;-4.441016353666782E-003;-2.726241946220398E-003;
2.401500000000000E+009;1.558872610330582E-001;8.251126855611801E-002;-4.382784478366375E-003;-2.466453937813640E-003;
2.401666666666667E+009;1.565113514661789E-001;7.980974018573761E-002;-4.306670278310776E-003;-2.189720282331109E-003;
2.401833333333334E+009;1.568694859743118E-001;7.680925726890564E-002;-4.346576984971762E-003;-2.079615835100412E-003;
2.402000000000000E+009;1.577417403459549E-001;7.408636063337326E-002;-4.163777921348810E-003;-1.876945141702890E-003;
2.402166666666667E+009;1.586593985557556E-001;7.170744240283966E-002;-4.173103254288435E-003;-1.773227937519550E-003;
2.402333333333334E+009;1.595296710729599E-001;6.889802962541580E-002;-4.273217637091875E-003;-1.631383085623384E-003;
2.402500000000000E+009;1.606679111719132E-001;6.637967377901077E-002;-4.197891335934401E-003;-1.337306224741042E-003;
2.402666666666667E+009;1.620185971260071E-001;6.400121748447418E-002;-3.989812452346087E-003;-1.464779837988317E-003;
2.402833333333334E+009;1.629695892333984E-001;6.145635247230530E-002;-4.061475861817598E-003;-1.442906330339611E-003;
2.403000000000000E+009;1.646765917539597E-001;5.922191217541695E-002;-4.188046324998140E-003;-1.327186822891235E-003;
2.403166666666667E+009;1.663265079259872E-001;5.694108083844185E-002;-4.296312108635902E-003;-1.206998946145177E-003;
2.403333333333334E+009;1.678738296031952E-001;5.465920269489288E-002;-4.404845181852579E-003;-8.945831796154380E-004;
2.403500000000000E+009;1.693959087133408E-001;5.274493247270584E-002;-4.292244091629982E-003;-7.903698715381324E-004;
2.403666666666667E+009;1.712080538272858E-001;5.062494426965714E-002;-4.507312085479498E-003;-7.338502909988165E-004;
2.403833333333334E+009;1.729657799005508E-001;4.883223772048950E-002;-4.623709246516228E-003;-4.585209535434842E-004;
2.404000000000000E+009;1.743689626455307E-001;4.708547517657280E-002;-4.432358313351870E-003;-1.778268197085708E-004;
2.404166666666667E+009;1.763963997364044E-001;4.556163027882576E-002;-4.569659475237131E-003;6.138187745818868E-005;
2.404333333333334E+009;1.779823303222656E-001;4.398886859416962E-002;-4.486963152885437E-003;2.283047069795430E-004;
2.404500000000000E+009;1.794649064540863E-001;4.249391704797745E-002;-4.333249758929014E-003;5.082908901385963E-004;
2.404666666666667E+009;1.811175942420960E-001;4.168731346726418E-002;-4.128387197852135E-003;9.708515717647970E-004;
2.404833333333334E+009;1.829834729433060E-001;4.047756269574165E-002;-4.143075551837683E-003;9.002148872241378E-004;
2.405000000000000E+009;1.842235028743744E-001;3.978754207491875E-002;-3.907057456672192E-003;1.050699618645012E-003;
2.405166666666667E+009;1.856015771627426E-001;3.910832479596138E-002;-3.787215100601316E-003;1.196673722006381E-003;
2.405333333333334E+009;1.869764626026154E-001;3.842128813266754E-002;-3.362053539603949E-003;1.393935643136501E-003;
2.405500000000000E+009;1.888422369956970E-001;3.816182166337967E-002;-3.358521731570363E-003;1.453789416700602E-003;
2.405666666666667E+009;1.897898018360138E-001;3.761048242449760E-002;-3.097312292084098E-003;1.697420724667609E-003;
2.405833333333334E+009;1.911673247814179E-001;3.743535280227661E-002;-3.001702716574073E-003;1.536567462608218E-003;
2.406000000000000E+009;1.920268982648850E-001;3.739361092448235E-002;-2.785132965072990E-003;1.554596354253590E-003;
2.406166666666667E+009;1.930766403675079E-001;3.684206679463387E-002;-2.769592683762312E-003;1.666519092395902E-003;
2.406333333333334E+009;1.938594877719879E-001;3.706884011626244E-002;-2.473556902259588E-003;1.686726463958621E-003;
2.406500000000000E+009;1.948121935129166E-001;3.737182170152664E-002;-2.426561899483204E-003;1.675898092798889E-003;
2.406666666666667E+009;1.954736113548279E-001;3.736893832683563E-002;-2.086908323690295E-003;1.728398958221078E-003;
2.406833333333334E+009;1.958866268396378E-001;3.720013424754143E-002;-2.106630476191640E-003;1.569977379404008E-003;
2.407000000000000E+009;1.962541490793228E-001;3.766274452209473E-002;-1.907893689349294E-003;1.487174886278808E-003;
2.407166666666667E+009;1.965865492820740E-001;3.731515258550644E-002;-1.859251060523093E-003;1.481094514019787E-003;
2.407333333333334E+009;1.963947713375092E-001;3.767718002200127E-002;-1.749263843521476E-003;1.379137509502471E-003;
2.407500000000000E+009;1.963190138339996E-001;3.771547973155975E-002;-1.611307845450938E-003;1.397590036503971E-003;
2.407666666666667E+009;1.965067833662033E-001;3.760800510644913E-002;-1.468280446715653E-003;1.148748677223921E-003;
2.407833333333334E+009;1.958250105381012E-001;3.756783902645111E-002;-1.598087837919593E-003;1.101857749745250E-003;
2.408000000000000E+009;1.957259625196457E-001;3.736090287566185E-002;-1.580708776600659E-003;9.936969727277756E-004;
2.408166666666667E+009;1.950298398733139E-001;3.715597838163376E-002;-1.489879330620170E-003;7.178250234574080E-004;
2.408333333333334E+009;1.946357935667038E-001;3.666945174336433E-002;-1.701269880868495E-003;7.231687195599079E-004;
2.408500000000000E+009;1.939313262701035E-001;3.627653047442436E-002;-1.386592164635658E-003;3.726021386682987E-004;
2.408666666666667E+009;1.931690126657486E-001;3.583497181534767E-002;-1.676833373494446E-003;6.152453715912998E-004;
2.408833333333334E+009;1.924924701452255E-001;3.518863394856453E-002;-1.700854743830860E-003;3.758069651667029E-004;
2.409000000000000E+009;1.915083825588226E-001;3.410410508513451E-002;-1.931209699250758E-003;4.943591193296015E-004;
2.409166666666667E+009;1.905291378498077E-001;3.334159031510353E-002;-1.961957197636366E-003;4.280100692994893E-004;
2.409333333333334E+009;1.896145641803742E-001;3.223016858100891E-002;-2.203454962000251E-003;3.511759859975427E-004;
2.409500000000000E+009;1.883447021245956E-001;3.100172244012356E-002;-2.198544098064303E-003;5.211271345615387E-004;
2.409666666666667E+009;1.874653100967407E-001;2.966963686048985E-002;-2.235254971310496E-003;4.847371310461313E-004;
2.409833333333334E+009;1.863350272178650E-001;2.824270166456699E-002;-2.459506271407008E-003;5.431979661807418E-004;
2.410000000000000E+009;1.853152662515640E-001;2.667820826172829E-002;-2.383212791755796E-003;7.265653694048524E-004;
2.410166666666667E+009;1.841245591640472E-001;2.468528226017952E-002;-2.460632706061006E-003;9.325066930614412E-004;
2.410333333333334E+009;1.834492385387421E-001;2.299414202570915E-002;-2.553991042077541E-003;9.382158168591559E-004;
2.410500000000000E+009;1.822827160358429E-001;2.081611379981041E-002;-2.651176415383816E-003;1.057414105162025E-003;
2.410666666666667E+009;1.812384873628616E-001;1.871103420853615E-002;-2.548130927607417E-003;1.159683102741838E-003;
2.410833333333334E+009;1.807381510734558E-001;1.673420704901218E-002;-2.496141009032726E-003;1.317081623710692E-003;
2.411000000000000E+009;1.801221370697022E-001;1.448761951178312E-002;-2.527715638279915E-003;1.349899102933705E-003;
2.411166666666667E+009;1.793038845062256E-001;1.215103082358837E-002;-2.383981598541141E-003;1.408816315233707E-003;
2.411333333333334E+009;1.787824034690857E-001;9.703000076115131E-003;-2.390254987403750E-003;1.541460165753961E-003;
2.411500000000000E+009;1.782866269350052E-001;7.510354276746512E-003;-2.356912242248654E-003;1.470816554501653E-003;
2.411666666666667E+009;1.781588196754456E-001;5.000952631235123E-003;-2.297344617545605E-003;1.532072434201837E-003;
2.411833333333334E+009;1.777289658784866E-001;2.554018748924136E-003;-2.221953589469194E-003;1.601807889528573E-003;
2.412000000000000E+009;1.778939664363861E-001;-1.295227848459035E-004;-2.133934525772929E-003;1.569818239659071E-003;
2.412166666666667E+009;1.778712272644043E-001;-2.337391488254070E-003;-2.227268880233169E-003;1.545723062008619E-003;
2.412333333333334E+009;1.781189739704132E-001;-5.056578665971756E-003;-2.265647752210498E-003;1.544750528410077E-003;
2.412500000000000E+009;1.786037981510162E-001;-7.404988631606102E-003;-2.380199963226914E-003;1.605689292773604E-003;
2.412666666666667E+009;1.790821850299835E-001;-9.918645024299622E-003;-2.420351840555668E-003;1.602757954970002E-003;
2.412833333333334E+009;1.798278093338013E-001;-1.239017955958843E-002;-2.374924020841718E-003;1.542515819892287E-003;
2.413000000000000E+009;1.804172098636627E-001;-1.447765994817019E-002;-2.506991382688284E-003;1.639896887354553E-003;
2.413166666666667E+009;1.811833828687668E-001;-1.671773567795754E-002;-2.439039759337902E-003;1.739512779749930E-003;
2.413333333333334E+009;1.824591904878616E-001;-1.909635402262211E-002;-2.679130528122187E-003;1.928647863678634E-003;
2.413500000000000E+009;1.830851584672928E-001;-2.128996141254902E-002;-2.663427498191595E-003;2.040835795924068E-003;
2.413666666666667E+009;1.845216453075409E-001;-2.358734980225563E-002;-2.743936842307448E-003;2.188658807426691E-003;
2.413833333333334E+009;1.856653988361359E-001;-2.550229243934155E-002;-2.842637244611979E-003;2.362807746976614E-003;
2.414000000000000E+009;1.866892874240875E-001;-2.746392041444778E-002;-2.825586590915918E-003;2.647985704243183E-003;
2.414166666666667E+009;1.879278868436813E-001;-2.917478419840336E-002;-2.830663463100791E-003;2.781349467113614E-003;
2.414333333333334E+009;1.890616118907929E-001;-3.109475784003735E-002;-2.562207402661443E-003;3.087486140429974E-003;
2.414500000000000E+009;1.904032677412033E-001;-3.269548714160919E-002;-2.557260682806373E-003;3.443741239607334E-003;
2.414666666666667E+009;1.915376931428909E-001;-3.404844179749489E-002;-2.520637121051550E-003;3.595863236114383E-003;
2.414833333333334E+009;1.927316784858704E-001;-3.544986620545387E-002;-2.281443681567907E-003;3.784885164350271E-003;
2.415000000000000E+009;1.938032060861588E-001;-3.659236803650856E-002;-2.107308944687247E-003;4.075390752404928E-003;
2.415166666666667E+009;1.950529664754868E-001;-3.768914565443993E-002;-1.847457839176059E-003;4.184520803391933E-003;
2.415333333333334E+009;1.962795257568359E-001;-3.871243819594383E-002;-1.713858568109572E-003;4.282710142433643E-003;
2.415500000000000E+009;1.973031312227249E-001;-3.942606598138809E-002;-1.443426241166890E-003;4.397551994770765E-003;
2.415666666666667E+009;1.984598487615585E-001;-4.020113497972488E-002;-1.227847416885197E-003;4.483048338443041E-003;
2.415833333333334E+009;1.993675529956818E-001;-4.075093567371368E-002;-8.891208562999964E-004;4.639430902898312E-003;
2.416000000000000E+009;2.001694589853287E-001;-4.131000488996506E-002;-7.822731276974082E-004;4.607450682669878E-003;
2.416166666666667E+009;2.009693682193756E-001;-4.178480803966522E-002;-5.354795721359551E-004;4.743725992739201E-003;
2.416333333333334E+009;2.015815228223801E-001;-4.214414581656456E-002;-2.067023888230324E-004;4.607720300555229E-003;
2.416500000000000E+009;2.021396905183792E-001;-4.227775707840920E-002;-1.730623043840751E-004;4.573897924274206E-003;
2.416666666666667E+009;2.024238705635071E-001;-4.259612411260605E-002;3.345563891343772E-004;4.437683615833521E-003;
2.416833333333334E+009;2.026046216487885E-001;-4.270690679550171E-002;2.681582118384540E-004;4.578032530844212E-003;
2.417000000000000E+009;2.027394920587540E-001;-4.276402294635773E-002;4.511950828600675E-004;4.356586840003729E-003;
2.417166666666667E+009;2.025136649608612E-001;-4.269737377762795E-002;6.768931634724140E-004;4.385754931718111E-003;
2.417333333333334E+009;2.022672444581986E-001;-4.251097515225411E-002;9.274331387132406E-004;4.177719820290804E-003;
2.417500000000000E+009;2.020140290260315E-001;-4.238279536366463E-002;1.127055496908724E-003;4.312381613999605E-003;
2.417666666666667E+009;2.015567421913147E-001;-4.226529970765114E-002;1.045307726599276E-003;4.068904556334019E-003;
2.417833333333334E+009;2.010897397994995E-001;-4.208303615450859E-002;1.445947331376374E-003;3.976373467594385E-003;
2.418000000000000E+009;2.004794478416443E-001;-4.173198342323303E-002;1.574140856973827E-003;3.987612202763557E-003;
2.418166666666667E+009;1.997343152761459E-001;-4.174695163965225E-002;1.664814306423068E-003;3.624314675107598E-003;
2.418333333333334E+009;1.987602114677429E-001;-4.159031435847282E-002;1.642935327254236E-003;3.744690213352442E-003;
2.418500000000000E+009;1.976598054170609E-001;-4.147307574748993E-002;1.913226093165577E-003;3.712804988026619E-003;
2.418666666666667E+009;1.967409700155258E-001;-4.148660600185394E-002;1.974478131160140E-003;3.446395276114345E-003;
2.418833333333334E+009;1.954292953014374E-001;-4.164020344614983E-002;2.069543581455946E-003;3.248175606131554E-003;
2.419000000000000E+009;1.941850334405899E-001;-4.198231548070908E-002;2.207652432844043E-003;3.297772724181414E-003;
2.419166666666667E+009;1.928666830062866E-001;-4.213770106434822E-002;2.154572634026408E-003;2.983135404065251E-003;
2.419333333333334E+009;1.915406733751297E-001;-4.260417446494103E-002;2.425511833280325E-003;2.886357251554728E-003;
2.419500000000000E+009;1.901125460863113E-001;-4.312245547771454E-002;2.423099009320140E-003;2.853612881153822E-003;
2.419666666666667E+009;1.883990317583084E-001;-4.388348385691643E-002;2.304521156474948E-003;2.738187555223703E-003;
2.419833333333334E+009;1.867279261350632E-001;-4.459859058260918E-002;2.548626856878400E-003;2.574538812041283E-003;
2.420000000000000E+009;1.851150244474411E-001;-4.551847279071808E-002;2.461722120642662E-003;2.402083249762654E-003;
2.420166666666667E+009;1.834852546453476E-001;-4.648261517286301E-002;2.589884679764509E-003;2.310137031599879E-003;
2.420333333333334E+009;1.818527877330780E-001;-4.766093567013741E-002;2.547991462051868E-003;2.198520814999938E-003;
2.420500000000000E+009;1.803800463676453E-001;-4.896115511655808E-002;2.563808578997850E-003;2.094762399792671E-003;
2.420666666666667E+009;1.785951554775238E-001;-5.014195293188095E-002;2.626677975058556E-003;1.803429680876434E-003;
2.420833333333334E+009;1.770252436399460E-001;-5.174073949456215E-002;2.614742377772927E-003;1.840613665990531E-003;
2.421000000000000E+009;1.756173074245453E-001;-5.324007198214531E-002;2.626170869916678E-003;1.404162845574319E-003;
2.421166666666667E+009;1.742644906044006E-001;-5.485950410366058E-002;2.357432385906577E-003;1.349021447822452E-003;
2.421333333333334E+009;1.724866032600403E-001;-5.646387860178947E-002;2.348263980820775E-003;1.344720483757556E-003;
2.421500000000000E+009;1.711976230144501E-001;-5.845653638243675E-002;2.294790232554078E-003;1.112760975956917E-003;
2.421666666666667E+009;1.699407845735550E-001;-6.030308082699776E-002;2.166751073673368E-003;1.240203739143908E-003;
2.421833333333334E+009;1.688849627971649E-001;-6.216009706258774E-002;2.173835644498467E-003;1.209065434522927E-003;
2.422000000000000E+009;1.676222681999207E-001;-6.415617465972900E-002;2.016586018726230E-003;1.222093007527292E-003;
2.422166666666667E+009;1.668897122144699E-001;-6.620137393474579E-002;1.886586309410632E-003;1.292062108404934E-003;
2.422333333333334E+009;1.657157391309738E-001;-6.826376169919968E-002;1.748476643115282E-003;1.163135981187224E-003;
2.422500000000000E+009;1.650701761245728E-001;-7.019235193729401E-002;1.811619848012924E-003;1.369122182950378E-003;
2.422666666666667E+009;1.643392443656921E-001;-7.215589284896851E-002;1.841695164330304E-003;1.362716197036207E-003;
2.422833333333334E+009;1.638652831315994E-001;-7.434184849262238E-002;1.787454704754055E-003;1.437213737517595E-003;
2.423000000000000E+009;1.634078025817871E-001;-7.645495980978012E-002;1.588263083249331E-003;1.342053408734500E-003;
2.423166666666667E+009;1.629386544227600E-001;-7.835609465837479E-002;1.882241806015372E-003;1.360730966553092E-003;
2.423333333333334E+009;1.628109216690064E-001;-8.038754761219025E-002;1.827400061301887E-003;1.543081132695079E-003;
2.423500000000000E+009;1.627164036035538E-001;-8.222962915897369E-002;1.881825621239841E-003;1.528447261080146E-003;
2.423666666666667E+009;1.626012325286865E-001;-8.414943516254425E-002;1.872099353931844E-003;1.384547562338412E-003;
2.423833333333334E+009;1.625519394874573E-001;-8.585170656442642E-002;2.039277693256736E-003;1.590761356055737E-003;
2.424000000000000E+009;1.626805365085602E-001;-8.762433379888535E-002;2.074091462418437E-003;1.354893087409437E-003;
2.424166666666667E+009;1.628995239734650E-001;-8.916728943586350E-002;2.055607736110687E-003;1.585641060955823E-003;
2.424333333333334E+009;1.630454063415527E-001;-9.072900563478470E-002;2.016473095864058E-003;1.576344482600689E-003;
2.424500000000000E+009;1.634706705808640E-001;-9.242027997970581E-002;2.116488059982657E-003;1.563447993248701E-003;
2.424666666666667E+009;1.637407094240189E-001;-9.379778057336807E-002;2.254951046779752E-003;1.654623541980982E-003;
2.424833333333334E+009;1.641981750726700E-001;-9.498838335275650E-002;2.162948716431856E-003;1.607855549082160E-003;
2.425000000000000E+009;1.645944714546204E-001;-9.616322815418243E-002;2.387523418292403E-003;1.607309095561504E-003;
2.425166666666667E+009;1.649504005908966E-001;-9.735152870416641E-002;2.579827792942524E-003;1.705916249193251E-003;
2.425333333333334E+009;1.652447432279587E-001;-9.840980172157288E-002;2.567521063610911E-003;1.722777727991343E-003;
2.425500000000000E+009;1.657254397869110E-001;-9.926497936248779E-002;2.586859278380871E-003;1.681276364251971E-003;
2.425666666666667E+009;1.662071794271469E-001;-9.979771822690964E-002;2.895084209740162E-003;1.782320206984878E-003;
2.425833333333334E+009;1.664697974920273E-001;-1.006269529461861E-001;3.123198403045535E-003;1.586813014000654E-003;
2.426000000000000E+009;1.668180376291275E-001;-1.010504662990570E-001;3.040279494598508E-003;1.540594152174890E-003;
2.426166666666667E+009;1.673713177442551E-001;-1.015706360340118E-001;3.215940669178963E-003;1.334308646619320E-003;
2.426333333333334E+009;1.674035638570786E-001;-1.021263226866722E-001;3.317758440971375E-003;1.308301812969148E-003;
2.426500000000000E+009;1.678002923727036E-001;-1.022861525416374E-001;3.505516564473510E-003;1.071840175427496E-003;
2.426666666666667E+009;1.680074185132980E-001;-1.026334986090660E-001;3.520715748891234E-003;1.165161142125726E-003;
2.426833333333334E+009;1.683820784091950E-001;-1.029046401381493E-001;3.631400642916560E-003;9.981215698644519E-004;
2.427000000000000E+009;1.683354824781418E-001;-1.029834672808647E-001;3.530777059495449E-003;1.010596402920783E-003;
2.427166666666667E+009;1.682775318622589E-001;-1.030478104948998E-001;3.483960637822747E-003;8.305212832055986E-004;
2.427333333333334E+009;1.681738793849945E-001;-1.033318415284157E-001;3.651287406682968E-003;7.348901126533747E-004;
2.427500000000000E+009;1.679625511169434E-001;-1.034875288605690E-001;3.764574648812413E-003;6.676716147921979E-004;
2.427666666666667E+009;1.675779223442078E-001;-1.034457609057427E-001;3.694541752338409E-003;5.157742998562753E-004;
2.427833333333334E+009;1.672165244817734E-001;-1.036459133028984E-001;3.884832840412855E-003;5.196705460548401E-004;
