# Version 1.00
#
freq[Hz];re:Trc1_S11;im:Trc1_S11;re:Trc2_S21;im:Trc2_S21;
2.400000000000000E+009;1.521903723478317E-001;1.166437938809395E-001;1.965570700122044E-004;2.606950001791120E-003;
2.400166666666667E+009;1.516236811876297E-001;1.143252626061440E-001;2.091508067678660E-004;2.587381051853299E-003;
2.400333333333334E+009;1.515560895204544E-001;1.120010912418366E-001;2.531551290303469E-004;2.511468250304461E-003;
2.400500000000000E+009;1.514084190130234E-001;1.094545572996140E-001;2.163412864319980E-004;2.548224292695522E-003;
2.400666666666667E+009;1.512176841497421E-001;1.068274304270744E-001;2.432302280794829E-004;2.550156321376562E-003;
2.400833333333334E+009;1.508931815624237E-001;1.040167659521103E-001;2.827474672812969E-004;2.386299660429359E-003;
2.401000000000000E+009;1.508558839559555E-001;1.011446565389633E-001;2.860407694242895E-004;2.556748222559691E-003;
2.401166666666667E+009;1.507340967655182E-001;9.833068400621414E-002;3.358015674166381E-004;2.544748364016414E-003;
2.401333333333334E+009;1.509939432144165E-001;9.542437642812729E-002;2.782174269668758E-004;2.543610753491521E-003;
2.401500000000000E+009;1.513022333383560E-001;9.236567467451096E-002;2.336057950742543E-004;2.751769730821252E-003;
2.401666666666667E+009;1.515110135078430E-001;8.936418592929840E-002;4.433439462445676E-004;2.677018288522959E-003;
2.401833333333334E+009;1.517751812934876E-001;8.643817156553268E-002;4.408159584272653E-004;2.840335015207529E-003;
2.402000000000000E+009;1.526213884353638E-001;8.351127058267593E-002;5.081075942143798E-004;2.892063232138753E-003;
2.402166666666667E+009;1.533689200878143E-001;8.085393160581589E-002;6.413654773496091E-004;3.158091567456722E-003;
2.402333333333334E+009;1.542488336563110E-001;7.777375727891922E-002;6.852151709608734E-004;3.104546805843711E-003;
2.402500000000000E+009;1.552485376596451E-001;7.497840374708176E-002;8.506699232384563E-004;3.105839015915990E-003;
2.402666666666667E+009;1.565359681844711E-001;7.249992340803146E-002;1.035458408296108E-003;3.191082272678614E-003;
2.402833333333334E+009;1.578255146741867E-001;6.972333788871765E-002;1.194152282550931E-003;3.170505631715059E-003;
2.403000000000000E+009;1.593164056539536E-001;6.716445833444595E-002;1.444021821953356E-003;3.150561591610313E-003;
2.403166666666667E+009;1.611391901969910E-001;6.473986059427261E-002;1.564834383316338E-003;3.161257132887840E-003;
2.403333333333334E+009;1.627629399299622E-001;6.232791766524315E-002;1.762615051120520E-003;3.000383730977774E-003;
2.403500000000000E+009;1.646866649389267E-001;5.998966842889786E-002;1.772440504282713E-003;2.942348597571254E-003;
2.403666666666667E+009;1.664440035820007E-001;5.762080103158951E-002;2.039865357801318E-003;2.814425155520439E-003;
2.403833333333334E+009;1.685001999139786E-001;5.561446398496628E-002;2.181500429287553E-003;2.899084007367492E-003;
2.404000000000000E+009;1.701133996248245E-001;5.341373383998871E-002;2.331802621483803E-003;2.710292348638177E-003;
2.404166666666667E+009;1.722319573163986E-001;5.168278142809868E-002;2.355776960030198E-003;2.720695687457919E-003;
2.404333333333334E+009;1.741029620170593E-001;4.991444572806358E-002;2.367986831814051E-003;2.647427842020989E-003;
2.404500000000000E+009;1.759153455495834E-001;4.805769398808479E-002;2.293436322361231E-003;2.336438745260239E-003;
2.404666666666667E+009;1.779620200395584E-001;4.685540869832039E-002;2.645844127982855E-003;2.359419129788876E-003;
2.404833333333334E+009;1.798240095376968E-001;4.548399895429611E-002;2.579883439466357E-003;2.308377064764500E-003;
2.405000000000000E+009;1.816655397415161E-001;4.460168257355690E-002;2.690570894628763E-003;2.123224316164851E-003;
2.405166666666667E+009;1.835186034440994E-001;4.376144334673882E-002;2.921165665611625E-003;2.324586268514395E-003;
2.405333333333334E+009;1.854188889265060E-001;4.317995533347130E-002;3.070663660764694E-003;2.080195350572467E-003;
2.405500000000000E+009;1.869395226240158E-001;4.254089295864105E-002;3.093768376857042E-003;2.190865809097886E-003;
2.405666666666667E+009;1.885213851928711E-001;4.189884290099144E-002;3.274983493611217E-003;1.952596823684871E-003;
2.405833333333334E+009;1.902720928192139E-001;4.175431281328201E-002;3.417895175516605E-003;1.697919098660350E-003;
2.406000000000000E+009;1.914934366941452E-001;4.154286533594132E-002;3.591578220948577E-003;1.755565055646002E-003;
2.406166666666667E+009;1.928530633449554E-001;4.138632491230965E-002;3.696455154567957E-003;1.709345146082342E-003;
2.406333333333334E+009;1.941416114568710E-001;4.139710962772369E-002;3.871585242450237E-003;1.447676098905504E-003;
2.406500000000000E+009;1.952129602432251E-001;4.141815751791000E-002;3.741751890629530E-003;1.327680307440460E-003;
2.406666666666667E+009;1.962959915399551E-001;4.156325012445450E-002;3.935161512345076E-003;1.012330292724073E-003;
2.406833333333334E+009;1.971378475427628E-001;4.181777313351631E-002;3.856603056192398E-003;8.993751835078001E-004;
2.407000000000000E+009;1.976105570793152E-001;4.218706488609314E-002;3.947827033698559E-003;5.686337826773524E-004;
2.407166666666667E+009;1.982736140489578E-001;4.212052375078201E-002;4.178430885076523E-003;4.802860494237393E-004;
2.407333333333334E+009;1.985302567481995E-001;4.257323592901230E-002;4.020678810775280E-003;2.634697593748570E-004;
2.407500000000000E+009;1.986773908138275E-001;4.283271729946137E-002;4.092732910066843E-003;1.101086672861129E-004;
2.407666666666667E+009;1.988928169012070E-001;4.297315329313278E-002;4.051443655043840E-003;-1.232683280250058E-004;
2.407833333333334E+009;1.985889077186585E-001;4.307442158460617E-002;3.961543086916208E-003;-1.797680597519502E-004;
2.408000000000000E+009;1.985985487699509E-001;4.312855750322342E-002;3.822851693257690E-003;-4.443856887519360E-004;
2.408166666666667E+009;1.981030106544495E-001;4.312924668192864E-002;3.856668481603265E-003;-6.286348798312247E-004;
2.408333333333334E+009;1.978462636470795E-001;4.293791949748993E-002;3.890446387231350E-003;-7.295271498151124E-004;
2.408500000000000E+009;1.970999985933304E-001;4.293196275830269E-002;3.794152056798339E-003;-9.881062433123589E-004;
2.408666666666667E+009;1.965058445930481E-001;4.281520098447800E-002;3.687768010422587E-003;-1.047237426973879E-003;
2.408833333333334E+009;1.957841217517853E-001;4.236066713929176E-002;3.594325156882405E-003;-1.168220303952694E-003;
2.409000000000000E+009;1.946582347154617E-001;4.169924929738045E-002;3.575383219867945E-003;-1.263730344362557E-003;
2.409166666666667E+009;1.937140077352524E-001;4.120609909296036E-002;3.495011245831847E-003;-1.391232828609645E-003;
2.409333333333334E+009;1.926573961973190E-001;4.045469686388969E-002;3.343046875670552E-003;-1.416080631315708E-003;
2.409500000000000E+009;1.913703083992004E-001;3.923711925745010E-002;3.387215081602335E-003;-1.774457516148686E-003;
2.409666666666667E+009;1.902895122766495E-001;3.827599063515663E-002;3.326279576867819E-003;-1.807789551094174E-003;
2.409833333333334E+009;1.890402287244797E-001;3.712089359760284E-002;3.071841550990939E-003;-1.977119361981750E-003;
2.410000000000000E+009;1.879177540540695E-001;3.564326465129852E-002;3.091681282967329E-003;-1.997231272980571E-003;
2.410166666666667E+009;1.866616755723953E-001;3.413020819425583E-002;2.934143645688891E-003;-2.106969943270087E-003;
2.410333333333334E+009;1.854164153337479E-001;3.239197656512260E-002;2.696618670597673E-003;-2.057461300864816E-003;
2.410500000000000E+009;1.841213405132294E-001;3.071528673171997E-002;2.713794354349375E-003;-2.158376155421138E-003;
2.410666666666667E+009;1.831256449222565E-001;2.838284522294998E-002;2.571120159700513E-003;-2.340947277843952E-003;
2.410833333333334E+009;1.820563822984695E-001;2.653863653540611E-002;2.377802738919854E-003;-2.331762108951807E-003;
2.411000000000000E+009;1.811214983463287E-001;2.427923679351807E-002;2.394136739894748E-003;-2.352444222196937E-003;
2.411166666666667E+009;1.803476661443710E-001;2.207806706428528E-002;2.092174952849746E-003;-2.353939460590482E-003;
2.411333333333334E+009;1.795131117105484E-001;1.981616578996182E-002;2.062264597043395E-003;-2.294518519192934E-003;
2.411500000000000E+009;1.789148747920990E-001;1.739909313619137E-002;1.949517522007227E-003;-2.374855335801840E-003;
2.411666666666667E+009;1.784193664789200E-001;1.483751274645329E-002;1.786089385859668E-003;-2.371798269450665E-003;
2.411833333333334E+009;1.777527481317520E-001;1.237214915454388E-002;1.929868129082024E-003;-2.290707780048251E-003;
2.412000000000000E+009;1.778658330440521E-001;9.613391943275929E-003;1.704242313280702E-003;-2.386475680395961E-003;
2.412166666666667E+009;1.776226907968521E-001;7.094314787536860E-003;1.682868576608598E-003;-2.272675978019834E-003;
2.412333333333334E+009;1.776809394359589E-001;4.343846347182989E-003;1.613764907233417E-003;-2.330927178263664E-003;
2.412500000000000E+009;1.780315190553665E-001;1.863213256001473E-003;1.635234104469419E-003;-2.345698419958353E-003;
2.412666666666667E+009;1.783226430416107E-001;-8.807733538560569E-004;1.620238064788282E-003;-2.253069775179029E-003;
2.412833333333334E+009;1.789922714233398E-001;-3.641710150986910E-003;1.629394129849970E-003;-2.374849747866392E-003;
2.413000000000000E+009;1.794838905334473E-001;-6.263406481593847E-003;1.568854902870953E-003;-2.265504095703363E-003;
2.413166666666667E+009;1.801986992359161E-001;-8.801477029919624E-003;1.625503529794514E-003;-2.567612100392580E-003;
2.413333333333334E+009;1.813029646873474E-001;-1.139151863753796E-002;1.614686101675034E-003;-2.451015869155526E-003;
2.413500000000000E+009;1.822545975446701E-001;-1.403552759438753E-002;1.593071501702070E-003;-2.667806809768081E-003;
2.413666666666667E+009;1.833683401346207E-001;-1.645578257739544E-002;1.618033158592880E-003;-2.778297988697887E-003;
2.413833333333334E+009;1.844129562377930E-001;-1.879803091287613E-002;1.551767694763839E-003;-2.898989710956812E-003;
2.414000000000000E+009;1.854881793260574E-001;-2.102945186197758E-002;1.378712360747159E-003;-2.979263430461288E-003;
2.414166666666667E+009;1.868913322687149E-001;-2.300978824496269E-002;1.359675545245409E-003;-3.017760114744306E-003;
2.414333333333334E+009;1.881182342767716E-001;-2.552917227149010E-002;1.040989067405462E-003;-3.170356154441834E-003;
2.414500000000000E+009;1.894534826278687E-001;-2.724949084222317E-002;9.399705450050533E-004;-3.213620977476239E-003;
2.414666666666667E+009;1.908851712942123E-001;-2.897517383098602E-002;6.966404034756124E-004;-3.314441535621882E-003;
2.414833333333334E+009;1.922327131032944E-001;-3.075074590742588E-002;6.483863107860088E-004;-3.315157024189830E-003;
2.415000000000000E+009;1.935300379991531E-001;-3.223762661218643E-002;4.762163152918220E-004;-3.316728165373206E-003;
2.415166666666667E+009;1.948180943727493E-001;-3.364080563187599E-002;3.078843001276255E-004;-3.286462510004640E-003;
2.415333333333334E+009;1.962289959192276E-001;-3.484726324677467E-002;2.454800414852798E-004;-3.208000911399722E-003;
2.415500000000000E+009;1.975046396255493E-001;-3.568210825324059E-002;2.430666936561465E-004;-3.055043984204531E-003;
2.415666666666667E+009;1.987082809209824E-001;-3.673304989933968E-002;-4.181133772362955E-005;-3.092116909101605E-003;
2.415833333333334E+009;1.998347342014313E-001;-3.748538345098496E-002;9.092025720747188E-005;-3.057972062379122E-003;
2.416000000000000E+009;2.007792294025421E-001;-3.819512575864792E-002;1.259275741176680E-004;-3.056841203942895E-003;
2.416166666666667E+009;2.017524689435959E-001;-3.882852196693420E-002;1.393695811202633E-006;-3.013407578691840E-003;
2.416333333333334E+009;2.025976628065109E-001;-3.910883888602257E-002;-2.869751369871665E-005;-3.088426543399692E-003;
2.416500000000000E+009;2.033302783966065E-001;-3.936624154448509E-002;-3.559106335160323E-005;-3.247291082516313E-003;
2.416666666666667E+009;2.038760036230087E-001;-3.962265327572823E-002;-5.263658022158779E-005;-3.161172615364194E-003;
2.416833333333334E+009;2.042027711868286E-001;-3.961993753910065E-002;-1.480680803069845E-004;-3.254809882491827E-003;
2.417000000000000E+009;2.046746462583542E-001;-3.967132791876793E-002;-2.017531223827973E-004;-3.376082051545382E-003;
2.417166666666667E+009;2.046260684728622E-001;-3.937366232275963E-002;-4.349329101387411E-004;-3.373705316334963E-003;
2.417333333333334E+009;2.046211361885071E-001;-3.907445445656776E-002;-3.494340344332159E-004;-3.473377320915461E-003;
2.417500000000000E+009;2.046948373317719E-001;-3.900584205985069E-002;-6.668223650194705E-004;-3.537774318829179E-003;
2.417666666666667E+009;2.043416500091553E-001;-3.860088065266609E-002;-7.762704044580460E-004;-3.521481063216925E-003;
2.417833333333334E+009;2.040687948465347E-001;-3.822026401758194E-002;-1.033323118463159E-003;-3.675806568935514E-003;
2.418000000000000E+009;2.035432755947113E-001;-3.761336952447891E-002;-1.272257883101702E-003;-3.804124658927321E-003;
2.418166666666667E+009;2.030981928110123E-001;-3.719980269670487E-002;-1.536353724077344E-003;-3.728732466697693E-003;
2.418333333333334E+009;2.023121118545532E-001;-3.683640062808991E-002;-1.808018423616886E-003;-3.486451227217913E-003;
2.418500000000000E+009;2.014802694320679E-001;-3.657954186201096E-002;-1.967943273484707E-003;-3.548986045643687E-003;
2.418666666666667E+009;2.007310986518860E-001;-3.624270856380463E-002;-2.323149936273694E-003;-3.289677901193500E-003;
2.418833333333334E+009;1.994816511869431E-001;-3.610118851065636E-002;-2.380580874159932E-003;-3.258503740653396E-003;
2.419000000000000E+009;1.983246803283691E-001;-3.599983081221581E-002;-2.563817892223597E-003;-3.045283257961273E-003;
2.419166666666667E+009;1.969818025827408E-001;-3.598140180110931E-002;-2.788271056488156E-003;-2.863905392587185E-003;
2.419333333333334E+009;1.956897974014282E-001;-3.631297126412392E-002;-2.799781039357185E-003;-2.680253237485886E-003;
2.419500000000000E+009;1.943297237157822E-001;-3.659909218549728E-002;-2.952784765511751E-003;-2.521704183891416E-003;
2.419666666666667E+009;1.926416754722595E-001;-3.702697530388832E-002;-2.854077611118555E-003;-2.330273156985641E-003;
2.419833333333334E+009;1.910625547170639E-001;-3.739570453763008E-002;-2.910653129220009E-003;-2.128753112629056E-003;
2.420000000000000E+009;1.893000453710556E-001;-3.811246901750565E-002;-2.997083356603980E-003;-1.975729828700423E-003;
2.420166666666667E+009;1.875127702951431E-001;-3.883975371718407E-002;-2.972466172650456E-003;-1.916751498356462E-003;
2.420333333333334E+009;1.858704239130020E-001;-3.978897631168366E-002;-2.998881042003632E-003;-1.709925825707614E-003;
2.420500000000000E+009;1.839024573564529E-001;-4.088678583502770E-002;-2.864185720682144E-003;-1.639730180613697E-003;
2.420666666666667E+009;1.820474714040756E-001;-4.181538522243500E-002;-2.803804585710168E-003;-1.546345767565072E-003;
2.420833333333334E+009;1.802199631929398E-001;-4.336699843406677E-002;-2.828861353918910E-003;-1.491402392275631E-003;
2.421000000000000E+009;1.785611361265183E-001;-4.452108219265938E-002;-2.951825736090541E-003;-1.314580440521240E-003;
2.421166666666667E+009;1.769018024206162E-001;-4.620176553726196E-002;-2.955326111987233E-003;-1.392006175592542E-003;
2.421333333333334E+009;1.748107820749283E-001;-4.749779403209686E-002;-2.839461667463183E-003;-1.404569600708783E-003;
2.421500000000000E+009;1.734261512756348E-001;-4.934837669134140E-002;-2.930548507720232E-003;-1.356590539216995E-003;
2.421666666666667E+009;1.718289554119110E-001;-5.119565129280090E-002;-2.987552667036653E-003;-1.134675461798906E-003;
2.421833333333334E+009;1.705635786056519E-001;-5.279002711176872E-002;-2.997498027980328E-003;-1.014796784147620E-003;
2.422000000000000E+009;1.690958738327026E-001;-5.459747463464737E-002;-3.092841245234013E-003;-9.539134916849434E-004;
2.422166666666667E+009;1.681605875492096E-001;-5.687785521149635E-002;-3.167341230437160E-003;-8.457346702925861E-004;
2.422333333333334E+009;1.668343842029572E-001;-5.901917070150375E-002;-3.245519474148750E-003;-9.520684834569693E-004;
2.422500000000000E+009;1.659801155328751E-001;-6.088986620306969E-002;-3.243061248213053E-003;-6.730836466886103E-004;
2.422666666666667E+009;1.651677340269089E-001;-6.309862434864044E-002;-3.281486220657826E-003;-5.754734156653285E-004;
2.422833333333334E+009;1.646647006273270E-001;-6.509838253259659E-002;-3.138975938782096E-003;-4.766882921103388E-004;
2.423000000000000E+009;1.638825386762619E-001;-6.730169802904129E-002;-3.385822754353285E-003;-3.425675968173891E-004;
2.423166666666667E+009;1.635316908359528E-001;-6.943023204803467E-002;-3.253929782658815E-003;-2.914244250860065E-004;
2.423333333333334E+009;1.632601618766785E-001;-7.156650722026825E-002;-3.352163825184107E-003;-2.328092341485899E-005;
2.423500000000000E+009;1.631798446178436E-001;-7.345899939537048E-002;-3.285136772319675E-003;-5.666018751071533E-006;
2.423666666666667E+009;1.632081568241119E-001;-7.567377388477325E-002;-3.272186266258359E-003;1.143388435593806E-004;
2.423833333333334E+009;1.633327901363373E-001;-7.763263583183289E-002;-3.262568730860949E-003;3.050999075639993E-004;
2.424000000000000E+009;1.634148657321930E-001;-7.974403351545334E-002;-3.301103832200170E-003;4.778220318257809E-004;
2.424166666666667E+009;1.636436730623245E-001;-8.141704648733139E-002;-3.153381636366248E-003;5.157293635420501E-004;
2.424333333333334E+009;1.639727801084518E-001;-8.316334336996079E-002;-3.109348006546497E-003;5.124691524542868E-004;
2.424500000000000E+009;1.644942909479141E-001;-8.525373786687851E-002;-3.144864458590746E-003;7.972221355885267E-004;
2.424666666666667E+009;1.648969650268555E-001;-8.661974221467972E-002;-3.093612845987082E-003;8.168459171429277E-004;
2.424833333333334E+009;1.656941026449204E-001;-8.828080445528030E-002;-2.902190433815122E-003;1.070241676643491E-003;
2.425000000000000E+009;1.662384569644928E-001;-8.963396400213242E-002;-2.925049513578415E-003;1.066792057827115E-003;
2.425166666666667E+009;1.667921841144562E-001;-9.087537974119186E-002;-2.936424687504768E-003;1.199961989186704E-003;
2.425333333333334E+009;1.674830317497253E-001;-9.207548946142197E-002;-2.915498102083802E-003;1.330354250967503E-003;
2.425500000000000E+009;1.682540625333786E-001;-9.335099160671234E-002;-2.672706963494420E-003;1.371550839394331E-003;
2.425666666666667E+009;1.689340919256210E-001;-9.419018775224686E-002;-2.597762271761894E-003;1.478006714023650E-003;
2.425833333333334E+009;1.696913391351700E-001;-9.511566907167435E-002;-2.516918350011110E-003;1.568383071571589E-003;
2.426000000000000E+009;1.704229861497879E-001;-9.577132761478424E-002;-2.321808831766248E-003;1.645282376557589E-003;
2.426166666666667E+009;1.712095737457275E-001;-9.645698964595795E-002;-2.328114118427038E-003;1.605583820492029E-003;
2.426333333333334E+009;1.717624068260193E-001;-9.715237468481064E-002;-2.196283079683781E-003;1.670598285272718E-003;
2.426500000000000E+009;1.724297553300858E-001;-9.749463945627213E-002;-2.176059409976006E-003;1.563211902976036E-003;
2.426666666666667E+009;1.731644868850708E-001;-9.797406941652298E-002;-2.007450442761183E-003;1.693980651907623E-003;
2.426833333333334E+009;1.737859249114990E-001;-9.833114594221115E-002;-1.829848391935229E-003;1.698245177976787E-003;
2.427000000000000E+009;1.741621792316437E-001;-9.864351898431778E-002;-1.914491876959801E-003;1.713823643513024E-003;
2.427166666666667E+009;1.745574474334717E-001;-9.885787218809128E-002;-1.921673421747983E-003;1.693474710918963E-003;
2.427333333333334E+009;1.749362200498581E-001;-9.918110817670822E-002;-1.771675073541701E-003;1.667118049226701E-003;
2.427500000000000E+009;1.750274002552033E-001;-9.945981949567795E-002;-1.693070516921580E-003;1.802288810722530E-003;
2.427666666666667E+009;1.750404834747315E-001;-9.968730062246323E-002;-1.614873996004462E-003;1.695592654868960E-003;
2.427833333333334E+009;1.749143302440643E-001;-9.967433661222458E-002;-1.698497566394508E-003;1.746978727169335E-003;
