# Version 1.00
#
freq[Hz];re:Trc1_S11;im:Trc1_S11;re:Trc2_S21;im:Trc2_S21;
2.400000000000000E+009;1.519357115030289E-001;1.170836165547371E-001;2.018146333284676E-004;2.527174772694707E-003;
2.400166666666667E+009;1.517248898744583E-001;1.148970574140549E-001;1.765306806191802E-004;2.486286917701364E-003;
2.400333333333334E+009;1.514425277709961E-001;1.127206459641457E-001;2.811767626553774E-004;2.419423544779420E-003;
2.400500000000000E+009;1.513083428144455E-001;1.100132912397385E-001;2.442058757878840E-004;2.482817042618990E-003;
2.400666666666667E+009;1.513099521398544E-001;1.074459478259087E-001;-2.387189852015581E-005;2.557828091084957E-003;
2.400833333333334E+009;1.509626060724258E-001;1.047396436333656E-001;1.256404793821275E-004;2.330178860574961E-003;
2.401000000000000E+009;1.510237455368042E-001;1.015955954790115E-001;2.745932724792510E-004;2.342592459172010E-003;
2.401166666666667E+009;1.509954333305359E-001;9.880175441503525E-002;2.252830017823726E-004;2.524989889934659E-003;
2.401333333333334E+009;1.509633511304855E-001;9.594421088695526E-002;3.232072340324521E-004;2.586545655503869E-003;
2.401500000000000E+009;1.513034105300903E-001;9.286484122276306E-002;2.599749714136124E-004;2.672044793143868E-003;
2.401666666666667E+009;1.515152752399445E-001;8.993073552846909E-002;2.663214982021600E-004;2.661455189809203E-003;
2.401833333333334E+009;1.521028727293015E-001;8.697240799665451E-002;3.612697473727167E-004;2.811651444062591E-003;
2.402000000000000E+009;1.527121365070343E-001;8.389444649219513E-002;3.270861634518951E-004;2.825421746820211E-003;
2.402166666666667E+009;1.532108038663864E-001;8.123681694269180E-002;5.337588372640312E-004;2.986659761518240E-003;
2.402333333333334E+009;1.544535756111145E-001;7.840032130479813E-002;6.081534083932638E-004;3.122837515547872E-003;
2.402500000000000E+009;1.553676426410675E-001;7.556708902120590E-002;6.370785995386541E-004;3.215415170416236E-003;
2.402666666666667E+009;1.565034538507462E-001;7.298544049263001E-002;1.098919659852982E-003;3.227721201255918E-003;
2.402833333333334E+009;1.579393893480301E-001;7.025250792503357E-002;1.079159555956721E-003;3.220306010916829E-003;
2.403000000000000E+009;1.593695729970932E-001;6.768093258142471E-002;1.179541926831007E-003;3.037316957488656E-003;
2.403166666666667E+009;1.611596792936325E-001;6.521312892436981E-002;1.536710653454065E-003;3.208770183846355E-003;
2.403333333333334E+009;1.627280414104462E-001;6.272259354591370E-002;1.736049540340900E-003;3.128601238131523E-003;
2.403500000000000E+009;1.647505760192871E-001;6.032329052686691E-002;1.646600547246635E-003;3.098787972703576E-003;
2.403666666666667E+009;1.667574048042297E-001;5.807998776435852E-002;1.878013834357262E-003;2.968154847621918E-003;
2.403833333333334E+009;1.687444150447846E-001;5.591958016157150E-002;2.108686370775104E-003;2.841903362423182E-003;
2.404000000000000E+009;1.705527603626251E-001;5.391927808523178E-002;2.091908827424049E-003;2.824259456247091E-003;
2.404166666666667E+009;1.723853647708893E-001;5.193222686648369E-002;2.126322127878666E-003;2.645351691171527E-003;
2.404333333333334E+009;1.743561476469040E-001;5.030890181660652E-002;2.180000534281135E-003;2.483279444277287E-003;
2.404500000000000E+009;1.762525886297226E-001;4.844191297888756E-002;2.311059972271323E-003;2.576114842668176E-003;
2.404666666666667E+009;1.782358884811401E-001;4.701833054423332E-002;2.502236282452941E-003;2.491652732715011E-003;
2.404833333333334E+009;1.802974194288254E-001;4.587373882532120E-002;2.498523565009236E-003;2.428318839520216E-003;
2.405000000000000E+009;1.819786876440048E-001;4.498405009508133E-002;2.753211418166757E-003;2.249475335702300E-003;
2.405166666666667E+009;1.837816387414932E-001;4.418529570102692E-002;2.903822809457779E-003;2.373655326664448E-003;
2.405333333333334E+009;1.856102496385574E-001;4.329745098948479E-002;3.124492242932320E-003;2.203433774411678E-003;
2.405500000000000E+009;1.873429268598557E-001;4.280310496687889E-002;2.962361788377166E-003;2.167993457987905E-003;
2.405666666666667E+009;1.888295114040375E-001;4.223098978400230E-002;3.102850168943405E-003;2.250993624329567E-003;
2.405833333333334E+009;1.906019896268845E-001;4.182132333517075E-002;3.380676265805960E-003;1.913485815748572E-003;
2.406000000000000E+009;1.920018047094345E-001;4.176197201013565E-002;3.490790259093046E-003;1.809838111512363E-003;
2.406166666666667E+009;1.933268606662750E-001;4.156070947647095E-002;3.633668879047036E-003;1.568732084706426E-003;
2.406333333333334E+009;1.945205479860306E-001;4.161577299237251E-002;3.803972620517016E-003;1.374621409922838E-003;
2.406500000000000E+009;1.955251693725586E-001;4.171581193804741E-002;3.767172573134303E-003;1.401748275384307E-003;
2.406666666666667E+009;1.966709494590759E-001;4.181853681802750E-002;3.919371403753758E-003;1.104802824556828E-003;
2.406833333333334E+009;1.974806338548660E-001;4.189151898026466E-002;3.809615038335323E-003;9.023338207043707E-004;
2.407000000000000E+009;1.979855895042419E-001;4.217400401830673E-002;3.891631728038192E-003;8.337642066180706E-004;
2.407166666666667E+009;1.987115591764450E-001;4.223832488059998E-002;4.052791278809309E-003;6.812841747887433E-004;
2.407333333333334E+009;1.988614946603775E-001;4.258112236857414E-002;3.885123413056135E-003;3.365580341778696E-004;
2.407500000000000E+009;1.990322172641754E-001;4.300432652235031E-002;3.876114496961236E-003;1.777736179064959E-004;
2.407666666666667E+009;1.993082761764526E-001;4.305531457066536E-002;3.943581134080887E-003;5.766435424447991E-005;
2.407833333333334E+009;1.989952176809311E-001;4.320352524518967E-002;3.847418818622828E-003;-2.009706659009680E-004;
2.408000000000000E+009;1.990297287702560E-001;4.333109036087990E-002;3.975008614361286E-003;-2.979504934046418E-004;
2.408166666666667E+009;1.984486430883408E-001;4.335253313183785E-002;3.998782485723496E-003;-4.599833046086133E-004;
2.408333333333334E+009;1.981973052024841E-001;4.319950938224793E-002;3.872965928167105E-003;-6.836903630755842E-004;
2.408500000000000E+009;1.975956112146378E-001;4.312213137745857E-002;3.694485872983933E-003;-8.256667642854154E-004;
2.408666666666667E+009;1.968010514974594E-001;4.293533042073250E-002;3.769077593460679E-003;-1.087670098058879E-003;
2.408833333333334E+009;1.961803287267685E-001;4.246260225772858E-002;3.657251829281449E-003;-9.795209625735879E-004;
2.409000000000000E+009;1.951418519020081E-001;4.187188297510147E-002;3.542156424373388E-003;-1.271526212804020E-003;
2.409166666666667E+009;1.941241174936295E-001;4.115428775548935E-002;3.548843087628484E-003;-1.318168127909303E-003;
2.409333333333334E+009;1.931580752134323E-001;4.051268100738525E-002;3.495124867185950E-003;-1.513808267191052E-003;
2.409500000000000E+009;1.918209940195084E-001;3.940948843955994E-002;3.325604600831866E-003;-1.776471268385649E-003;
2.409666666666667E+009;1.907128840684891E-001;3.826062753796578E-002;3.253376809880137E-003;-1.671935315243900E-003;
2.409833333333334E+009;1.894958317279816E-001;3.713103383779526E-002;3.104440402239561E-003;-1.868954277597368E-003;
2.410000000000000E+009;1.882320493459702E-001;3.572357445955277E-002;3.178246784955263E-003;-1.956487540155649E-003;
2.410166666666667E+009;1.870777308940888E-001;3.423513472080231E-002;3.021571552380920E-003;-1.872769673354924E-003;
2.410333333333334E+009;1.858780831098557E-001;3.268088400363922E-002;2.874397672712803E-003;-2.124979859218001E-003;
2.410500000000000E+009;1.847625821828842E-001;3.071722202003002E-002;2.700747689232230E-003;-2.098241355270147E-003;
2.410666666666667E+009;1.836687922477722E-001;2.867574431002140E-002;2.727998420596123E-003;-2.268740674480796E-003;
2.410833333333334E+009;1.825994104146957E-001;2.659687027335167E-002;2.439059549942613E-003;-2.273290418088436E-003;
2.411000000000000E+009;1.814938634634018E-001;2.445110492408276E-002;2.412373200058937E-003;-2.330414485186338E-003;
2.411166666666667E+009;1.807866841554642E-001;2.230562269687653E-002;2.150211948901415E-003;-2.383864251896739E-003;
2.411333333333334E+009;1.799603700637817E-001;1.985791698098183E-002;2.150581218302250E-003;-2.363420557230711E-003;
2.411500000000000E+009;1.793169826269150E-001;1.737055927515030E-002;1.951125683262944E-003;-2.251622034236789E-003;
2.411666666666667E+009;1.788629740476608E-001;1.485428865998983E-002;1.929695485159755E-003;-2.327776048332453E-003;
2.411833333333334E+009;1.782858520746231E-001;1.234239339828491E-002;1.837930409237742E-003;-2.361818449571729E-003;
2.412000000000000E+009;1.782960593700409E-001;9.625097736716270E-003;1.843426260165870E-003;-2.351485192775726E-003;
2.412166666666667E+009;1.780500411987305E-001;7.158238440752029E-003;1.818522927351296E-003;-2.330570714548230E-003;
2.412333333333334E+009;1.782292872667313E-001;4.413745831698179E-003;1.772959134541452E-003;-2.402736805379391E-003;
2.412500000000000E+009;1.784778237342835E-001;1.834982424043119E-003;1.667006523348391E-003;-2.367178909480572E-003;
2.412666666666667E+009;1.788328588008881E-001;-1.015380956232548E-003;1.802146201953292E-003;-2.285568276420236E-003;
2.412833333333334E+009;1.793310642242432E-001;-3.619996132329106E-003;1.805474283173680E-003;-2.315653255209327E-003;
2.413000000000000E+009;1.800415217876434E-001;-6.421828642487526E-003;1.723143388517201E-003;-2.346676541492343E-003;
2.413166666666667E+009;1.807293593883514E-001;-8.924125693738461E-003;1.742244930937886E-003;-2.409888198599219E-003;
2.413333333333334E+009;1.817263513803482E-001;-1.158088352531195E-002;1.748508308082819E-003;-2.621258376166225E-003;
2.413500000000000E+009;1.826174259185791E-001;-1.420448068529367E-002;1.796667580492795E-003;-2.558762906119227E-003;
2.413666666666667E+009;1.837519705295563E-001;-1.668829284608364E-002;1.669091288931668E-003;-2.671525347977877E-003;
2.413833333333334E+009;1.847876310348511E-001;-1.906708441674709E-002;1.608527149073780E-003;-2.918546088039875E-003;
2.414000000000000E+009;1.860429048538208E-001;-2.116137929260731E-002;1.437650993466377E-003;-2.971365582197905E-003;
2.414166666666667E+009;1.874539107084274E-001;-2.347496710717678E-002;1.362206530757248E-003;-3.234963165596128E-003;
2.414333333333334E+009;1.885951757431030E-001;-2.578004449605942E-002;1.135782920755446E-003;-3.103537717834115E-003;
2.414500000000000E+009;1.898847520351410E-001;-2.755975164473057E-002;9.935190901160240E-004;-3.200585255399346E-003;
2.414666666666667E+009;1.911283135414124E-001;-2.932602912187576E-002;9.670986910350621E-004;-3.233394352719188E-003;
2.414833333333334E+009;1.924180686473846E-001;-3.114595264196396E-002;7.523143431171775E-004;-3.171582240611315E-003;
2.415000000000000E+009;1.936340034008026E-001;-3.257624432444572E-002;5.258813034743071E-004;-3.266332903876901E-003;
2.415166666666667E+009;1.951503008604050E-001;-3.391225263476372E-002;4.493585147429258E-004;-3.218799130991101E-003;
2.415333333333334E+009;1.964767873287201E-001;-3.509762510657311E-002;4.256163665559143E-004;-3.072191728278995E-003;
2.415500000000000E+009;1.979267746210098E-001;-3.614916652441025E-002;1.241480349563062E-004;-3.188940929248929E-003;
2.415666666666667E+009;1.990453749895096E-001;-3.711706027388573E-002;3.035994304809719E-004;-3.083341056481004E-003;
2.415833333333334E+009;2.000629752874374E-001;-3.774689510464668E-002;2.005463466048241E-004;-3.062622854486108E-003;
2.416000000000000E+009;2.010906785726547E-001;-3.860221803188324E-002;1.517767959740013E-004;-3.119154367595911E-003;
2.416166666666667E+009;2.020418345928192E-001;-3.918983042240143E-002;9.737113578012213E-005;-3.184721805155277E-003;
2.416333333333334E+009;2.028980255126953E-001;-3.956534713506699E-002;8.279806934297085E-005;-3.163636894896627E-003;
2.416500000000000E+009;2.036491483449936E-001;-3.986261039972305E-002;4.856920713791624E-005;-3.196152392774820E-003;
2.416666666666667E+009;2.041909098625183E-001;-4.019831866025925E-002;3.856531839119270E-005;-3.283692756667733E-003;
2.416833333333334E+009;2.045422792434692E-001;-4.006837680935860E-002;-2.185242192354053E-004;-3.309564897790551E-003;
2.417000000000000E+009;2.049723267555237E-001;-4.013994708657265E-002;-3.606286918511614E-005;-3.407833864912391E-003;
2.417166666666667E+009;2.048012465238571E-001;-3.991191461682320E-002;-1.606034784344956E-004;-3.498113015666604E-003;
2.417333333333334E+009;2.049621194601059E-001;-3.952918201684952E-002;-4.067776899319142E-004;-3.659985959529877E-003;
2.417500000000000E+009;2.048847824335098E-001;-3.943169862031937E-002;-6.463661557063460E-004;-3.687194082885981E-003;
2.417666666666667E+009;2.045460194349289E-001;-3.904703259468079E-002;-7.709095370955765E-004;-3.876381553709507E-003;
2.417833333333334E+009;2.044854462146759E-001;-3.860662877559662E-002;-8.530354825779796E-004;-3.804932348430157E-003;
2.418000000000000E+009;2.039540708065033E-001;-3.820355236530304E-002;-1.236443757079542E-003;-3.765717148780823E-003;
2.418166666666667E+009;2.032978832721710E-001;-3.787824884057045E-002;-1.564936013892293E-003;-3.830937435850501E-003;
2.418333333333334E+009;2.025770246982575E-001;-3.740537166595459E-002;-1.712036668322980E-003;-3.763519693166018E-003;
2.418500000000000E+009;2.017199248075485E-001;-3.724272549152374E-002;-1.916171982884407E-003;-3.610689193010330E-003;
2.418666666666667E+009;2.010013163089752E-001;-3.677405044436455E-002;-2.328842645511031E-003;-3.512857481837273E-003;
2.418833333333334E+009;1.997862607240677E-001;-3.666301444172859E-002;-2.483520656824112E-003;-3.276642411947250E-003;
2.419000000000000E+009;1.985038816928864E-001;-3.661517053842545E-002;-2.536063548177481E-003;-3.258137265220285E-003;
2.419166666666667E+009;1.973537504673004E-001;-3.672400116920471E-002;-2.797608030959964E-003;-3.026401158422232E-003;
2.419333333333334E+009;1.958125233650208E-001;-3.679741173982620E-002;-2.921703038737178E-003;-2.896609483286738E-003;
2.419500000000000E+009;1.944710910320282E-001;-3.706194087862968E-002;-2.970942296087742E-003;-2.657995326444507E-003;
2.419666666666667E+009;1.928519457578659E-001;-3.760283440351486E-002;-2.896238351240754E-003;-2.537754597142339E-003;
2.419833333333334E+009;1.911166608333588E-001;-3.791690990328789E-002;-2.922742627561092E-003;-2.069890266284347E-003;
2.420000000000000E+009;1.895012706518173E-001;-3.862307593226433E-002;-2.952490001916885E-003;-2.138955285772681E-003;
2.420166666666667E+009;1.876543164253235E-001;-3.938543796539307E-002;-2.948956331238151E-003;-1.980573637410998E-003;
2.420333333333334E+009;1.858706623315811E-001;-4.039452597498894E-002;-2.973507624119520E-003;-1.956701977178454E-003;
2.420500000000000E+009;1.839292496442795E-001;-4.136006906628609E-002;-3.074921900406480E-003;-1.829004380851984E-003;
2.420666666666667E+009;1.820563077926636E-001;-4.238741099834442E-002;-2.974289003759623E-003;-1.732552540488541E-003;
2.420833333333334E+009;1.802426725625992E-001;-4.386723041534424E-002;-2.991128945723176E-003;-1.539787510409951E-003;
2.421000000000000E+009;1.784358024597168E-001;-4.526543989777565E-002;-3.003772115334868E-003;-1.514762057922781E-003;
2.421166666666667E+009;1.769371628761292E-001;-4.673331603407860E-002;-2.935387659817934E-003;-1.408095005899668E-003;
2.421333333333334E+009;1.748565584421158E-001;-4.814298823475838E-002;-3.050836035981774E-003;-1.399945002049208E-003;
2.421500000000000E+009;1.734024882316589E-001;-5.009604245424271E-002;-3.038811264559627E-003;-1.399886561557651E-003;
2.421666666666667E+009;1.716749966144562E-001;-5.165839195251465E-002;-3.142308443784714E-003;-1.216005883179605E-003;
2.421833333333334E+009;1.702955067157745E-001;-5.327076837420464E-002;-3.107862547039986E-003;-1.171802869066596E-003;
2.422000000000000E+009;1.690935939550400E-001;-5.540009215474129E-002;-3.189474809914827E-003;-1.058524008840323E-003;
2.422166666666667E+009;1.679958552122116E-001;-5.742622539401054E-002;-3.163987072184682E-003;-1.004177494905889E-003;
2.422333333333334E+009;1.666741222143173E-001;-5.955479294061661E-002;-3.326751757413149E-003;-9.202705114148557E-004;
2.422500000000000E+009;1.657914519309998E-001;-6.130784377455711E-002;-3.242772538214922E-003;-7.048932602629066E-004;
2.422666666666667E+009;1.650282442569733E-001;-6.356617063283920E-002;-3.464396810159087E-003;-4.961402737535536E-004;
2.422833333333334E+009;1.642185300588608E-001;-6.574843078851700E-002;-3.389294957742095E-003;-4.594440397340804E-004;
2.423000000000000E+009;1.637209653854370E-001;-6.791484355926514E-002;-3.369897603988648E-003;-3.239403886254877E-004;
2.423166666666667E+009;1.633102893829346E-001;-6.980402022600174E-002;-3.388179233297706E-003;-1.669922494329512E-004;
2.423333333333334E+009;1.630818098783493E-001;-7.217290252447128E-002;-3.572236513718963E-003;-5.377113484428264E-005;
2.423500000000000E+009;1.628182232379913E-001;-7.393223047256470E-002;-3.256820142269135E-003;1.291593525820645E-005;
2.423666666666667E+009;1.629385501146317E-001;-7.612197101116180E-002;-3.397437976673245E-003;7.428727258229628E-005;
2.423833333333334E+009;1.629841774702072E-001;-7.801041007041931E-002;-3.430803073570132E-003;2.468277525622398E-004;
2.424000000000000E+009;1.631776839494705E-001;-8.009969443082809E-002;-3.179345512762666E-003;4.958803765475750E-004;
2.424166666666667E+009;1.632344126701355E-001;-8.180384337902069E-002;-3.350713523104787E-003;4.943022504448891E-004;
2.424333333333334E+009;1.637510806322098E-001;-8.368622511625290E-002;-3.281353507190943E-003;4.418136377353221E-004;
2.424500000000000E+009;1.641112118959427E-001;-8.549293875694275E-002;-3.199617378413677E-003;7.429987308569253E-004;
2.424666666666667E+009;1.644344776868820E-001;-8.716363459825516E-002;-3.119019325822592E-003;9.518845472484827E-004;
2.424833333333334E+009;1.653331816196442E-001;-8.867613226175308E-002;-3.086820710450411E-003;1.073515508323908E-003;
2.425000000000000E+009;1.659646779298782E-001;-9.004659205675125E-002;-3.152922494336963E-003;1.062739989720285E-003;
2.425166666666667E+009;1.663625538349152E-001;-9.137833863496780E-002;-2.943826140835881E-003;1.229178742505610E-003;
2.425333333333334E+009;1.670196950435638E-001;-9.250196069478989E-002;-2.916100900620222E-003;1.356167136691511E-003;
2.425500000000000E+009;1.677346080541611E-001;-9.362746775150299E-002;-2.654697047546506E-003;1.494060503318906E-003;
2.425666666666667E+009;1.685763597488403E-001;-9.448020160198212E-002;-2.747476333752275E-003;1.611604820936918E-003;
2.425833333333334E+009;1.690389066934586E-001;-9.554164856672287E-002;-2.583998255431652E-003;1.464867731556296E-003;
2.426000000000000E+009;1.699382960796356E-001;-9.616423398256302E-002;-2.408011350780726E-003;1.682604197412729E-003;
2.426166666666667E+009;1.706962138414383E-001;-9.683915227651596E-002;-2.436972456052899E-003;1.671031001023948E-003;
2.426333333333334E+009;1.711974889039993E-001;-9.748762100934982E-002;-2.175611676648259E-003;1.699449960142374E-003;
2.426500000000000E+009;1.718769073486328E-001;-9.783786535263062E-002;-2.207543468102813E-003;1.735634286887944E-003;
2.426666666666667E+009;1.724777221679688E-001;-9.831194579601288E-002;-2.043942688032985E-003;1.879953662864864E-003;
2.426833333333334E+009;1.731671839952469E-001;-9.847328066825867E-002;-1.998815685510635E-003;1.831061905249953E-003;
2.427000000000000E+009;1.735318601131439E-001;-9.888128191232681E-002;-1.881050528027117E-003;1.748792477883399E-003;
2.427166666666667E+009;1.740254014730454E-001;-9.908592700958252E-002;-1.893003936856985E-003;1.723984023556113E-003;
2.427333333333334E+009;1.742938309907913E-001;-9.950459748506546E-002;-1.789884874597192E-003;2.096821786835790E-003;
2.427500000000000E+009;1.743880659341812E-001;-9.963912516832352E-002;-1.850936911068857E-003;2.008565934374929E-003;
2.427666666666667E+009;1.744266599416733E-001;-9.961330145597458E-002;-1.780493999831379E-003;1.900362898595631E-003;
2.427833333333334E+009;1.743632704019547E-001;-9.981919080018997E-002;-1.823000959120691E-003;1.769429887644947E-003;
