# Version 1.00
#
freq[Hz];re:Trc1_S11;im:Trc1_S11;re:Trc2_S21;im:Trc2_S21;
2.400000000000000E+009;1.524897813796997E-001;1.166479513049126E-001;-5.688064848072827E-004;3.355915192514658E-003;
2.400166666666667E+009;1.520793437957764E-001;1.143776252865791E-001;2.895008365157992E-004;4.287065006792545E-003;
2.400333333333334E+009;1.519318521022797E-001;1.122607514262199E-001;-1.066091790562496E-004;2.792988205328584E-003;
2.400500000000000E+009;1.518717855215073E-001;1.094137802720070E-001;8.492958731949329E-004;4.003581590950489E-003;
2.400666666666667E+009;1.514704823493958E-001;1.068132966756821E-001;1.030738349072635E-003;2.729678060859442E-003;
2.400833333333334E+009;1.511408537626267E-001;1.041196584701538E-001;4.409395842230879E-005;2.635342068970203E-003;
2.401000000000000E+009;1.513166129589081E-001;1.011932641267777E-001;3.219909849576652E-004;2.524208975955844E-003;
2.401166666666667E+009;1.511917412281036E-001;9.848123788833618E-002;2.033004129771143E-004;2.530160360038281E-003;
2.401333333333334E+009;1.511475890874863E-001;9.541792422533035E-002;1.064725365722552E-004;2.549733500927687E-003;
2.401500000000000E+009;1.515673100948334E-001;9.228675067424774E-002;1.048859849106520E-004;2.649601316079497E-003;
2.401666666666667E+009;1.515679210424423E-001;8.943659812211990E-002;1.098890206776559E-004;2.669796114787459E-003;
2.401833333333334E+009;1.521831005811691E-001;8.638209104537964E-002;2.916926168836653E-004;2.928318222984672E-003;
2.402000000000000E+009;1.527556329965591E-001;8.351902663707733E-002;4.390406538732350E-004;3.004880156368017E-003;
2.402166666666667E+009;1.534124910831451E-001;8.070361614227295E-002;5.522491410374641E-004;3.099641762673855E-003;
2.402333333333334E+009;1.545007377862930E-001;7.781085371971130E-002;6.352599593810737E-004;3.126712981611490E-003;
2.402500000000000E+009;1.553726345300674E-001;7.508960366249085E-002;6.872308440506458E-004;3.343047574162483E-003;
2.402666666666667E+009;1.568614095449448E-001;7.250799238681793E-002;9.698681533336639E-004;3.175054211169481E-003;
2.402833333333334E+009;1.579723656177521E-001;6.967376917600632E-002;1.129623269662261E-003;3.339525545015931E-003;
2.403000000000000E+009;1.593635678291321E-001;6.710783392190933E-002;1.264643389731646E-003;3.297499846667051E-003;
2.403166666666667E+009;1.612324714660645E-001;6.459156423807144E-002;1.641328213736415E-003;3.155084094032645E-003;
2.403333333333334E+009;1.629457324743271E-001;6.209912896156311E-002;1.706361188553274E-003;2.978521399199963E-003;
2.403500000000000E+009;1.645385026931763E-001;5.972041189670563E-002;1.829903572797775E-003;3.056220943108201E-003;
2.403666666666667E+009;1.667200177907944E-001;5.770441889762878E-002;1.920965150929987E-003;3.042412921786308E-003;
2.403833333333334E+009;1.684885174036026E-001;5.542505532503128E-002;2.178581198677421E-003;2.935657044872642E-003;
2.404000000000000E+009;1.702080816030502E-001;5.331650376319885E-002;2.110600471496582E-003;2.763278549537063E-003;
2.404166666666667E+009;1.722334325313568E-001;5.150426179170609E-002;2.209196100011468E-003;2.699975157156587E-003;
2.404333333333334E+009;1.743176281452179E-001;4.981498792767525E-002;2.277692779898644E-003;2.590528456494212E-003;
2.404500000000000E+009;1.760212928056717E-001;4.798820614814758E-002;2.344971289858222E-003;2.510561142116785E-003;
2.404666666666667E+009;1.782098859548569E-001;4.661858454346657E-002;2.459853421896696E-003;2.368707442656159E-003;
2.404833333333334E+009;1.799999475479126E-001;4.537331312894821E-002;2.400891622528434E-003;2.336088800802827E-003;
2.405000000000000E+009;1.815821975469589E-001;4.449220001697540E-002;2.639911836013198E-003;2.499538240954280E-003;
2.405166666666667E+009;1.835101842880249E-001;4.370393231511116E-002;2.823917660862207E-003;2.519020577892661E-003;
2.405333333333334E+009;1.851769387722015E-001;4.303220659494400E-002;2.963669598102570E-003;2.278550295159221E-003;
2.405500000000000E+009;1.871153712272644E-001;4.235865548253059E-002;3.017665585502982E-003;2.195033244788647E-003;
2.405666666666667E+009;1.886042207479477E-001;4.196304082870483E-002;3.219214733690023E-003;2.088476438075304E-003;
2.405833333333334E+009;1.902115494012833E-001;4.163316637277603E-002;3.462541848421097E-003;1.978322863578796E-003;
2.406000000000000E+009;1.916926354169846E-001;4.144004732370377E-002;3.665172494947910E-003;1.868823193944991E-003;
2.406166666666667E+009;1.929680407047272E-001;4.121100530028343E-002;3.509406466037035E-003;1.707983785308898E-003;
2.406333333333334E+009;1.943678110837936E-001;4.129724949598312E-002;3.759733168408275E-003;1.552692614495754E-003;
2.406500000000000E+009;1.953391581773758E-001;4.129660874605179E-002;3.905356395989656E-003;1.416500308550894E-003;
2.406666666666667E+009;1.963346153497696E-001;4.145541414618492E-002;3.788386937230825E-003;1.085605123080313E-003;
2.406833333333334E+009;1.972542405128479E-001;4.163058847188950E-002;4.005864262580872E-003;9.103731135837734E-004;
2.407000000000000E+009;1.977604329586029E-001;4.188155382871628E-002;3.998032771050930E-003;5.842883256264031E-004;
2.407166666666667E+009;1.984412074089050E-001;4.195145145058632E-002;4.014282021671534E-003;6.991356494836509E-004;
2.407333333333334E+009;1.986340433359146E-001;4.229569435119629E-002;4.148072563111782E-003;2.070533955702558E-004;
2.407500000000000E+009;1.989479660987854E-001;4.256163164973259E-002;4.066886380314827E-003;8.182470628526062E-005;
2.407666666666667E+009;1.990219652652741E-001;4.282431304454804E-002;3.980027511715889E-003;-9.087092621484771E-005;
2.407833333333334E+009;1.986492872238159E-001;4.286637157201767E-002;4.022281616926193E-003;-1.404624636052176E-004;
2.408000000000000E+009;1.986882090568543E-001;4.285893961787224E-002;3.934430889785290E-003;-3.986140363849700E-004;
2.408166666666667E+009;1.982719600200653E-001;4.288505390286446E-002;4.037813283503056E-003;-6.499652517959476E-004;
2.408333333333334E+009;1.979352831840515E-001;4.269246757030487E-002;3.977452404797077E-003;-5.960235721431673E-004;
2.408500000000000E+009;1.972644180059433E-001;4.276641085743904E-002;3.903105389326811E-003;-9.262617095373571E-004;
2.408666666666667E+009;1.965533494949341E-001;4.253311827778816E-002;3.846885636448860E-003;-1.072871033102274E-003;
2.408833333333334E+009;1.958237737417221E-001;4.200509563088417E-002;3.739766543731093E-003;-1.185374334454536E-003;
2.409000000000000E+009;1.947302222251892E-001;4.143239930272102E-002;3.586936043575406E-003;-1.284306752495468E-003;
2.409166666666667E+009;1.937607675790787E-001;4.084273055195808E-002;3.676138585433364E-003;-1.519096316769719E-003;
2.409333333333334E+009;1.927550137042999E-001;4.005123302340508E-002;3.588136052712798E-003;-1.640953589230776E-003;
2.409500000000000E+009;1.914727538824081E-001;3.908455371856690E-002;3.422014880925417E-003;-1.531990477815270E-003;
2.409666666666667E+009;1.903109252452850E-001;3.796724230051041E-002;3.412304911762476E-003;-1.619480433873832E-003;
2.409833333333334E+009;1.889076232910156E-001;3.675301745533943E-002;3.214419120922685E-003;-1.791930058971047E-003;
2.410000000000000E+009;1.877846717834473E-001;3.539491817355156E-002;3.067577723413706E-003;-1.946586649864912E-003;
2.410166666666667E+009;1.865908354520798E-001;3.372518345713615E-002;3.083595074713230E-003;-2.100779442116618E-003;
2.410333333333334E+009;1.853183060884476E-001;3.232268244028091E-002;2.804989693686366E-003;-2.229475881904364E-003;
2.410500000000000E+009;1.841313689947128E-001;3.054283373057842E-002;2.701669698581100E-003;-2.217466011643410E-003;
2.410666666666667E+009;1.829471886157990E-001;2.848809957504273E-002;2.597701270133257E-003;-2.292813733220100E-003;
2.410833333333334E+009;1.821047514677048E-001;2.642394788563252E-002;2.646448789164424E-003;-2.424634760245681E-003;
2.411000000000000E+009;1.810952574014664E-001;2.433589287102222E-002;2.382677048444748E-003;-2.362228231504560E-003;
2.411166666666667E+009;1.802048981189728E-001;2.217943035066128E-002;2.314796205610037E-003;-2.399230608716607E-003;
2.411333333333334E+009;1.794364452362061E-001;1.956066675484181E-002;2.215584041550756E-003;-2.412840258330107E-003;
2.411500000000000E+009;1.787184774875641E-001;1.710026897490025E-002;2.090971218422055E-003;-2.498732414096594E-003;
2.411666666666667E+009;1.784733980894089E-001;1.486686430871487E-002;2.012470969930291E-003;-2.477569738402963E-003;
2.411833333333334E+009;1.777462363243103E-001;1.235190033912659E-002;1.843158504925668E-003;-2.483927411958575E-003;
2.412000000000000E+009;1.778083145618439E-001;9.556232020258904E-003;1.836588839069009E-003;-2.467794576659799E-003;
2.412166666666667E+009;1.777497977018356E-001;7.061730138957501E-003;1.735532074235380E-003;-2.447976730763912E-003;
2.412333333333334E+009;1.775567531585693E-001;4.229165147989988E-003;1.844966202042997E-003;-2.244607312604785E-003;
2.412500000000000E+009;1.778760105371475E-001;1.604503951966763E-003;1.641003531403840E-003;-2.357037970796228E-003;
2.412666666666667E+009;1.782297044992447E-001;-9.125423384830356E-004;1.742525259032846E-003;-2.513961866497994E-003;
2.412833333333334E+009;1.786408126354218E-001;-3.704420058056712E-003;1.620649243704975E-003;-2.308189403265715E-003;
2.413000000000000E+009;1.794646680355072E-001;-6.284118164330721E-003;1.744419801980257E-003;-2.429654356092215E-003;
2.413166666666667E+009;1.801400482654572E-001;-8.836670778691769E-003;1.809779088944197E-003;-2.563439542427659E-003;
2.413333333333334E+009;1.810155659914017E-001;-1.135205477476120E-002;1.718483050353825E-003;-2.556726336479187E-003;
2.413500000000000E+009;1.819477975368500E-001;-1.413029711693525E-002;1.639797934331000E-003;-2.740187104791403E-003;
2.413666666666667E+009;1.831293255090714E-001;-1.653748378157616E-002;1.624593045562506E-003;-2.792946528643370E-003;
2.413833333333334E+009;1.842989772558212E-001;-1.884892769157887E-002;1.464054570533335E-003;-2.958272816613317E-003;
2.414000000000000E+009;1.854638010263443E-001;-2.121886052191258E-002;1.424595830030739E-003;-3.092699684202671E-003;
2.414166666666667E+009;1.866693943738937E-001;-2.334825880825520E-002;1.329360529780388E-003;-3.253022441640496E-003;
2.414333333333334E+009;1.878411918878555E-001;-2.565397322177887E-002;1.014993642456830E-003;-3.211228875443339E-003;
2.414500000000000E+009;1.893352419137955E-001;-2.734378911554813E-002;9.219460771419108E-004;-3.324810182675719E-003;
2.414666666666667E+009;1.905934661626816E-001;-2.921670861542225E-002;6.848096381872892E-004;-3.245629603043199E-003;
2.414833333333334E+009;1.918609738349915E-001;-3.076210245490074E-002;6.976565928198397E-004;-3.322487464174628E-003;
2.415000000000000E+009;1.929573416709900E-001;-3.237867727875710E-002;5.360249197110534E-004;-3.374698106199503E-003;
2.415166666666667E+009;1.945967227220535E-001;-3.362821415066719E-002;1.438140316167846E-004;-3.356892382726073E-003;
2.415333333333334E+009;1.960140466690064E-001;-3.471190109848976E-002;1.805131323635578E-004;-3.080222290009260E-003;
2.415500000000000E+009;1.972955614328384E-001;-3.581750020384789E-002;4.078401252627373E-005;-3.192793345078826E-003;
2.415666666666667E+009;1.984947025775909E-001;-3.691491484642029E-002;-1.345320833934238E-005;-3.182300599291921E-003;
2.415833333333334E+009;1.995701342821121E-001;-3.755310177803040E-002;5.268683889880776E-005;-3.174798795953393E-003;
2.416000000000000E+009;2.005075812339783E-001;-3.820069879293442E-002;2.419328438918456E-006;-3.089213976636529E-003;
2.416166666666667E+009;2.016120553016663E-001;-3.885952383279800E-002;-1.846470113378018E-004;-3.116748528555036E-003;
2.416333333333334E+009;2.024333775043488E-001;-3.910908102989197E-002;-4.207290476188064E-005;-3.207678208127618E-003;
2.416500000000000E+009;2.030192166566849E-001;-3.941847383975983E-002;-9.042885358212516E-005;-3.215605858713388E-003;
2.416666666666667E+009;2.037185132503510E-001;-3.976385295391083E-002;-1.179037935798988E-004;-3.203484695404768E-003;
2.416833333333334E+009;2.041812986135483E-001;-3.955923393368721E-002;-1.960613008122891E-004;-3.306214697659016E-003;
2.417000000000000E+009;2.044188678264618E-001;-3.966203331947327E-002;-2.202560863224790E-004;-3.335965331643820E-003;
2.417166666666667E+009;2.044773995876312E-001;-3.942054510116577E-002;-2.899980754591525E-004;-3.439914667978883E-003;
2.417333333333334E+009;2.044709622859955E-001;-3.914622962474823E-002;-5.138867418281734E-004;-3.526675282046199E-003;
2.417500000000000E+009;2.044419497251511E-001;-3.889152407646179E-002;-7.385798380710185E-004;-3.541199024766684E-003;
2.417666666666667E+009;2.041718661785126E-001;-3.855797648429871E-002;-9.089324157685041E-004;-3.680817084386945E-003;
2.417833333333334E+009;2.039424926042557E-001;-3.807703033089638E-002;-1.100214780308306E-003;-3.724947338923812E-003;
2.418000000000000E+009;2.036252915859222E-001;-3.752976283431053E-002;-1.374896266497672E-003;-3.778323298320174E-003;
2.418166666666667E+009;2.028883099555969E-001;-3.724049776792526E-002;-1.567102852277458E-003;-3.618500428274274E-003;
2.418333333333334E+009;2.020552605390549E-001;-3.683064505457878E-002;-1.866832608357072E-003;-3.733035875484347E-003;
2.418500000000000E+009;2.014673948287964E-001;-3.653434291481972E-002;-2.020839368924499E-003;-3.562534460797906E-003;
2.418666666666667E+009;2.006143331527710E-001;-3.615426272153854E-002;-2.293988829478622E-003;-3.419966669753194E-003;
2.418833333333334E+009;1.994207501411438E-001;-3.592478483915329E-002;-2.608434064313769E-003;-3.156944876536727E-003;
2.419000000000000E+009;1.982082575559616E-001;-3.601191937923431E-002;-2.754851710051298E-003;-2.974682487547398E-003;
2.419166666666667E+009;1.970442086458206E-001;-3.596793860197067E-002;-2.869186224415898E-003;-2.879789564758539E-003;
2.419333333333334E+009;1.958451420068741E-001;-3.613375127315521E-002;-2.957296324893832E-003;-2.732340944930911E-003;
2.419500000000000E+009;1.941880732774735E-001;-3.633961081504822E-002;-2.927943365648389E-003;-2.505531301721931E-003;
2.419666666666667E+009;1.926308870315552E-001;-3.699274361133575E-002;-2.919531892985106E-003;-2.274240832775831E-003;
2.419833333333334E+009;1.909816116094589E-001;-3.743528202176094E-002;-2.942974446341395E-003;-2.146917860955000E-003;
2.420000000000000E+009;1.893450319766998E-001;-3.797531500458717E-002;-2.885525347664952E-003;-1.913834945298731E-003;
2.420166666666667E+009;1.875505447387695E-001;-3.867902979254723E-002;-2.939634956419468E-003;-1.878208713606000E-003;
2.420333333333334E+009;1.856936067342758E-001;-3.980214521288872E-002;-2.871459117159247E-003;-1.825020415708423E-003;
2.420500000000000E+009;1.840006560087204E-001;-4.072355479001999E-002;-3.004829166457057E-003;-1.617688685655594E-003;
2.420666666666667E+009;1.820151358842850E-001;-4.177730157971382E-002;-2.946441993117333E-003;-1.692243502475321E-003;
2.420833333333334E+009;1.801784038543701E-001;-4.317276924848557E-002;-2.942826598882675E-003;-1.547310617752373E-003;
2.421000000000000E+009;1.784339994192123E-001;-4.442888498306274E-002;-3.002127632498741E-003;-1.407542498782277E-003;
2.421166666666667E+009;1.767549216747284E-001;-4.607609286904335E-002;-3.099229885265231E-003;-1.427709707058966E-003;
2.421333333333334E+009;1.747089326381683E-001;-4.742788523435593E-002;-3.082995070144534E-003;-1.172926975414157E-003;
2.421500000000000E+009;1.733026951551437E-001;-4.927163198590279E-002;-3.030827734619379E-003;-1.306553720496595E-003;
2.421666666666667E+009;1.718377619981766E-001;-5.087468773126602E-002;-3.114649560302496E-003;-1.183513784781098E-003;
2.421833333333334E+009;1.704454123973846E-001;-5.284984782338142E-002;-3.150187199935317E-003;-1.037040259689093E-003;
2.422000000000000E+009;1.691808551549912E-001;-5.450928583741188E-002;-3.130048979073763E-003;-9.068223298527300E-004;
2.422166666666667E+009;1.679528653621674E-001;-5.662859231233597E-002;-3.224729793146253E-003;-8.716685697436333E-004;
2.422333333333334E+009;1.666761636734009E-001;-5.879522114992142E-002;-3.285001497715712E-003;-7.346480269916356E-004;
2.422500000000000E+009;1.660326272249222E-001;-6.072138622403145E-002;-3.361084265634418E-003;-8.454482886008918E-004;
2.422666666666667E+009;1.650831997394562E-001;-6.281496584415436E-002;-3.204129636287689E-003;-6.710792658850551E-004;
2.422833333333334E+009;1.645741164684296E-001;-6.488463282585144E-002;-3.217299701645970E-003;-3.379776026122272E-004;
2.423000000000000E+009;1.640369594097138E-001;-6.703367829322815E-002;-3.363499883562326E-003;-3.823299193754792E-004;
2.423166666666667E+009;1.636811345815659E-001;-6.912470608949661E-002;-3.306437749415636E-003;-2.803151146508753E-004;
2.423333333333334E+009;1.632627397775650E-001;-7.133324444293976E-002;-3.301752265542746E-003;-3.844812454190105E-005;
2.423500000000000E+009;1.632526665925980E-001;-7.324289530515671E-002;-3.289809217676520E-003;-4.904515299131163E-005;
2.423666666666667E+009;1.633751988410950E-001;-7.543171942234039E-002;-3.194793825969100E-003;1.655989472055808E-004;
2.423833333333334E+009;1.633393764495850E-001;-7.739807665348053E-002;-3.236526157706976E-003;3.481040184851736E-004;
2.424000000000000E+009;1.635475754737854E-001;-7.944343239068985E-002;-3.128941636532545E-003;4.532210296019912E-004;
2.424166666666667E+009;1.636295169591904E-001;-8.126675337553024E-002;-3.198299324139953E-003;6.013812962919474E-004;
2.424333333333334E+009;1.640042364597321E-001;-8.296995609998703E-002;-3.184595145285130E-003;7.452152203768492E-004;
2.424500000000000E+009;1.645929515361786E-001;-8.491349220275879E-002;-3.000984201207757E-003;7.422312628477812E-004;
2.424666666666667E+009;1.649862080812454E-001;-8.655684441328049E-002;-3.083449322730303E-003;8.266667718999088E-004;
2.424833333333334E+009;1.656911969184876E-001;-8.801723271608353E-002;-3.029700368642807E-003;1.105505856685340E-003;
2.425000000000000E+009;1.664627790451050E-001;-8.943551033735275E-002;-2.727922750636935E-003;1.103983842767775E-003;
2.425166666666667E+009;1.670157462358475E-001;-9.090732038021088E-002;-2.865189220756292E-003;1.304354867897928E-003;
2.425333333333334E+009;1.676290035247803E-001;-9.195298701524735E-002;-2.875896869227290E-003;1.458165352232754E-003;
2.425500000000000E+009;1.683478355407715E-001;-9.321879595518112E-002;-2.632079878821969E-003;1.455587218515575E-003;
2.425666666666667E+009;1.690039634704590E-001;-9.418896585702896E-002;-2.482139272615314E-003;1.536699826829135E-003;
2.425833333333334E+009;1.697644889354706E-001;-9.505936503410339E-002;-2.491882536560297E-003;1.607891055755317E-003;
2.426000000000000E+009;1.705518066883087E-001;-9.571950882673264E-002;-2.285761293023825E-003;1.598389702849090E-003;
2.426166666666667E+009;1.714287698268890E-001;-9.645045548677445E-002;-2.228111727163196E-003;1.553048845380545E-003;
2.426333333333334E+009;1.718344986438751E-001;-9.699134528636932E-002;-2.089509041979909E-003;1.735143945552409E-003;
2.426500000000000E+009;1.726618409156799E-001;-9.753515571355820E-002;-1.835508272051811E-003;1.696422928944230E-003;
2.426666666666667E+009;1.732163280248642E-001;-9.785515069961548E-002;-2.000926062464714E-003;1.705631613731384E-003;
2.426833333333334E+009;1.738937497138977E-001;-9.842504560947418E-002;-1.983596943318844E-003;1.862398232333362E-003;
2.427000000000000E+009;1.742347031831741E-001;-9.867909550666809E-002;-1.856549410149455E-003;1.671954523772001E-003;
2.427166666666667E+009;1.746716499328613E-001;-9.887659549713135E-002;-1.763237989507616E-003;1.709973555989564E-003;
2.427333333333334E+009;1.749684363603592E-001;-9.919844567775726E-002;-1.810878864489496E-003;1.779652200639248E-003;
2.427500000000000E+009;1.751213669776917E-001;-9.929428249597549E-002;-1.675673294812441E-003;1.763738226145506E-003;
2.427666666666667E+009;1.750923693180084E-001;-9.954102337360382E-002;-1.721953740343452E-003;1.795955467969179E-003;
2.427833333333334E+009;1.750739216804504E-001;-9.964479506015778E-002;-1.747417263686657E-003;1.743452157825232E-003;
