# Version 1.00
#
freq[Hz];re:Trc1_S11;im:Trc1_S11;re:Trc2_S21;im:Trc2_S21;
2.400000000000000E+009;1.713054627180100E-001;4.033588990569115E-002;8.656886639073491E-004;-2.586848335340619E-003;
2.400166666666667E+009;1.720212697982788E-001;3.997126221656799E-002;7.965204422362149E-004;-2.622247207909823E-003;
2.400333333333334E+009;1.724506765604019E-001;3.916255012154579E-002;8.914620848372579E-004;-2.674338407814503E-003;
2.400500000000000E+009;1.728702336549759E-001;3.862516582012177E-002;8.769815904088318E-004;-2.873249817639589E-003;
2.400666666666667E+009;1.733593344688416E-001;3.805631399154663E-002;8.219257579185069E-004;-3.050320316106081E-003;
2.400833333333334E+009;1.736038178205490E-001;3.733784332871437E-002;7.829926325939596E-004;-3.049974795430899E-003;
2.401000000000000E+009;1.737442463636398E-001;3.676612675189972E-002;8.184010512195528E-004;-3.087403252720833E-003;
2.401166666666667E+009;1.738135516643524E-001;3.633335977792740E-002;6.673173047602177E-004;-3.229317720979452E-003;
2.401333333333334E+009;1.737411171197891E-001;3.539136424660683E-002;5.716441082768142E-004;-3.453201847150922E-003;
2.401500000000000E+009;1.738357990980148E-001;3.488020226359367E-002;4.790818202309310E-004;-3.504923311993480E-003;
2.401666666666667E+009;1.737428754568100E-001;3.424368798732758E-002;2.827305870596319E-004;-3.651207545772195E-003;
2.401833333333334E+009;1.736681014299393E-001;3.343436121940613E-002;1.433967372577172E-005;-3.542581340298057E-003;
2.402000000000000E+009;1.734178960323334E-001;3.272411227226257E-002;-1.829441462177783E-004;-3.701318288221955E-003;
2.402166666666667E+009;1.731315404176712E-001;3.175070136785507E-002;-2.043105196207762E-004;-3.691907273605466E-003;
2.402333333333334E+009;1.726587265729904E-001;3.088839538395405E-002;-5.556914256885648E-004;-3.620916279032826E-003;
2.402500000000000E+009;1.726642400026321E-001;3.021149709820747E-002;-6.560714682564139E-004;-3.702599089592695E-003;
2.402666666666667E+009;1.722215116024017E-001;2.917815372347832E-002;-9.135887376032770E-004;-3.395553212612867E-003;
2.402833333333334E+009;1.718282699584961E-001;2.827160619199276E-002;-1.063818344846368E-003;-3.419506596401334E-003;
2.403000000000000E+009;1.716332137584686E-001;2.716340869665146E-002;-1.180409220978618E-003;-3.473002463579178E-003;
2.403166666666667E+009;1.711960732936859E-001;2.585978433489800E-002;-1.381858834065497E-003;-3.173103323206306E-003;
2.403333333333334E+009;1.708325147628784E-001;2.467960864305496E-002;-1.489708083681762E-003;-3.073168219998479E-003;
2.403500000000000E+009;1.704662144184113E-001;2.353217080235481E-002;-1.636248547583818E-003;-3.112024860456586E-003;
2.403666666666667E+009;1.700934320688248E-001;2.200654335319996E-002;-1.550836139358580E-003;-3.088390920311213E-003;
2.403833333333334E+009;1.697106063365936E-001;2.081561647355557E-002;-1.885477220639586E-003;-2.815543208271265E-003;
2.404000000000000E+009;1.693744659423828E-001;1.924034208059311E-002;-2.003112575039268E-003;-2.665130421519280E-003;
2.404166666666667E+009;1.690388470888138E-001;1.780690066516399E-002;-1.851448090746999E-003;-2.532604150474072E-003;
2.404333333333334E+009;1.687114834785461E-001;1.635636948049069E-002;-1.880280673503876E-003;-2.434348920360208E-003;
2.404500000000000E+009;1.685175448656082E-001;1.453217491507530E-002;-2.077645622193813E-003;-2.251447644084692E-003;
2.404666666666667E+009;1.683881878852844E-001;1.302408427000046E-002;-1.950775389559567E-003;-2.081685233861208E-003;
2.404833333333334E+009;1.679895818233490E-001;1.129866298288107E-002;-2.039977815002203E-003;-2.060330240055919E-003;
2.405000000000000E+009;1.680044084787369E-001;9.545988403260708E-003;-1.918382593430579E-003;-1.934502855874598E-003;
2.405166666666667E+009;1.679772734642029E-001;7.699872367084026E-003;-1.892559346742928E-003;-1.975363120436668E-003;
2.405333333333334E+009;1.680052727460861E-001;5.705904681235552E-003;-1.986253773793578E-003;-2.114812145009637E-003;
2.405500000000000E+009;1.680226624011993E-001;4.069033544510603E-003;-2.124162390828133E-003;-1.917675603181124E-003;
2.405666666666667E+009;1.679318696260452E-001;2.098182914778590E-003;-1.981426728889346E-003;-1.790015492588282E-003;
2.405833333333334E+009;1.677140593528748E-001;3.365115553606302E-004;-2.006009919568896E-003;-1.802148530259728E-003;
2.406000000000000E+009;1.679279208183289E-001;-1.786201377399266E-003;-2.122847596183419E-003;-1.656893524341285E-003;
2.406166666666667E+009;1.678040325641632E-001;-3.578656818717718E-003;-2.249807817861438E-003;-1.499739475548267E-003;
2.406333333333334E+009;1.679542809724808E-001;-5.300639662891626E-003;-2.198262140154839E-003;-1.444916706532240E-003;
2.406500000000000E+009;1.679352521896362E-001;-7.282650563865900E-003;-2.096644137054682E-003;-1.384975039400160E-003;
2.406666666666667E+009;1.678535193204880E-001;-8.938847109675407E-003;-2.098962198942900E-003;-1.146905473433435E-003;
2.406833333333334E+009;1.679100543260574E-001;-1.074402872473002E-002;-2.297285478562117E-003;-1.065292744897306E-003;
2.407000000000000E+009;1.680658757686615E-001;-1.229810249060392E-002;-1.985854702070355E-003;-8.560069836676121E-004;
2.407166666666667E+009;1.681482642889023E-001;-1.386703457683325E-002;-2.072261180728674E-003;-9.177734027616680E-004;
2.407333333333334E+009;1.680599004030228E-001;-1.541732531040907E-002;-1.829298911616206E-003;-7.576335337944329E-004;
2.407500000000000E+009;1.682365387678146E-001;-1.672744378447533E-002;-1.839626464061439E-003;-8.157779229804874E-004;
2.407666666666667E+009;1.682885289192200E-001;-1.798455230891705E-002;-1.575003960169852E-003;-6.352122290991247E-004;
2.407833333333334E+009;1.682303994894028E-001;-1.925694197416306E-002;-1.421088236384094E-003;-7.290709763765335E-004;
2.408000000000000E+009;1.684984117746353E-001;-2.051503024995327E-002;-1.508256187662482E-003;-7.154869381338358E-004;
2.408166666666667E+009;1.686712652444840E-001;-2.117123082280159E-002;-1.319780247285962E-003;-7.430672994814813E-004;
2.408333333333334E+009;1.691000014543533E-001;-2.229080162942410E-002;-1.391292084008455E-003;-8.428401197306812E-004;
2.408500000000000E+009;1.691519021987915E-001;-2.302424237132072E-002;-1.348970923572779E-003;-8.306056843139231E-004;
2.408666666666667E+009;1.693193018436432E-001;-2.398299798369408E-002;-1.205633510835469E-003;-8.843840914778411E-004;
2.408833333333334E+009;1.697287559509277E-001;-2.473575994372368E-002;-1.299713039770722E-003;-9.557585581205785E-004;
2.409000000000000E+009;1.699984669685364E-001;-2.546834945678711E-002;-1.170203206129372E-003;-9.886146290227771E-004;
2.409166666666667E+009;1.705117225646973E-001;-2.613806352019310E-002;-1.233224524185062E-003;-1.191240502521396E-003;
2.409333333333334E+009;1.709266155958176E-001;-2.687599509954453E-002;-1.291149063035846E-003;-1.227758009918034E-003;
2.409500000000000E+009;1.711113154888153E-001;-2.758230455219746E-002;-1.257500727660954E-003;-1.325931283645332E-003;
2.409666666666667E+009;1.713828593492508E-001;-2.808502875268459E-002;-1.147637842223048E-003;-1.500136218965054E-003;
2.409833333333334E+009;1.715049594640732E-001;-2.883943356573582E-002;-1.339286332949996E-003;-1.431392272934318E-003;
2.410000000000000E+009;1.717890650033951E-001;-2.955428138375282E-002;-1.427844748832285E-003;-1.618405920453370E-003;
2.410166666666667E+009;1.720195114612579E-001;-3.009644895792007E-002;-1.317670452408493E-003;-1.721146283671260E-003;
2.410333333333334E+009;1.721528023481369E-001;-3.083415888249874E-002;-1.636894303373992E-003;-1.787629211321473E-003;
2.410500000000000E+009;1.721415221691132E-001;-3.140570595860481E-002;-1.776418066583574E-003;-1.897147740237415E-003;
2.410666666666667E+009;1.719068139791489E-001;-3.227117285132408E-002;-1.861473778262734E-003;-1.933856750838459E-003;
2.410833333333334E+009;1.719443798065186E-001;-3.262611478567123E-002;-2.000746550038457E-003;-1.995724858716130E-003;
2.411000000000000E+009;1.716629117727280E-001;-3.350217267870903E-002;-2.270304830744863E-003;-1.866748905740678E-003;
2.411166666666667E+009;1.713420450687408E-001;-3.405833244323731E-002;-2.406265586614609E-003;-1.982488436624408E-003;
2.411333333333334E+009;1.711122989654541E-001;-3.449009731411934E-002;-2.683159662410617E-003;-2.019306411966682E-003;
2.411500000000000E+009;1.708065569400787E-001;-3.539055958390236E-002;-2.794212661683559E-003;-1.922499388456345E-003;
2.411666666666667E+009;1.705824434757233E-001;-3.583967685699463E-002;-3.017455805093050E-003;-1.735681667923927E-003;
2.411833333333334E+009;1.699625104665756E-001;-3.666447103023529E-002;-3.170994808897376E-003;-1.667895470745862E-003;
2.412000000000000E+009;1.697588264942169E-001;-3.735202923417091E-002;-3.490613773465157E-003;-1.554349204525352E-003;
2.412166666666667E+009;1.691182404756546E-001;-3.816131129860878E-002;-3.451624419540167E-003;-1.426958246156573E-003;
2.412333333333334E+009;1.686955988407135E-001;-3.875865042209625E-002;-3.509061411023140E-003;-1.218701829202473E-003;
2.412500000000000E+009;1.679899394512177E-001;-3.970874473452568E-002;-3.734169760718942E-003;-1.150316791608930E-003;
2.412666666666667E+009;1.673938482999802E-001;-4.064884409308434E-002;-3.973147366195917E-003;-8.560272399336100E-004;
2.412833333333334E+009;1.669555902481079E-001;-4.152495786547661E-002;-3.817863995209336E-003;-7.773974211886525E-004;
2.413000000000000E+009;1.662120223045349E-001;-4.245210066437721E-002;-3.961888607591391E-003;-5.663240444846451E-004;
2.413166666666667E+009;1.654503494501114E-001;-4.348180815577507E-002;-3.970751538872719E-003;-3.902363532688469E-004;
2.413333333333334E+009;1.647459715604782E-001;-4.451261088252068E-002;-4.049778915941715E-003;-2.180266019422561E-004;
2.413500000000000E+009;1.639665067195892E-001;-4.544080421328545E-002;-4.127733875066042E-003;-2.083102008327842E-004;
2.413666666666667E+009;1.633064597845078E-001;-4.659730195999146E-002;-4.204825963824987E-003;1.163564011221752E-004;
2.413833333333334E+009;1.626449823379517E-001;-4.761244729161263E-002;-4.200511611998081E-003;2.647227374836803E-004;
2.414000000000000E+009;1.619445383548737E-001;-4.876638576388359E-002;-4.314536228775978E-003;4.685707390308380E-004;
2.414166666666667E+009;1.612392067909241E-001;-4.988355189561844E-002;-4.227433353662491E-003;5.297058960422874E-004;
2.414333333333334E+009;1.605619639158249E-001;-5.102004855871201E-002;-4.259193781763315E-003;7.445706869475544E-004;
2.414500000000000E+009;1.602382659912109E-001;-5.219534039497376E-002;-4.332145676016808E-003;1.230952912010253E-003;
2.414666666666667E+009;1.597308218479157E-001;-5.326282978057861E-002;-4.161491524428129E-003;1.040537841618061E-003;
2.414833333333334E+009;1.591959595680237E-001;-5.457947403192520E-002;-4.233719315379858E-003;1.424129353836179E-003;
2.415000000000000E+009;1.588809192180634E-001;-5.568565055727959E-002;-4.222228191792965E-003;1.570056308992207E-003;
2.415166666666667E+009;1.584437340497971E-001;-5.713283270597458E-002;-4.094647243618965E-003;1.933353487402201E-003;
2.415333333333334E+009;1.583840548992157E-001;-5.847856402397156E-002;-3.938730806112289E-003;2.164262114092708E-003;
2.415500000000000E+009;1.580505520105362E-001;-5.982896313071251E-002;-3.946187440305948E-003;2.307705814018846E-003;
2.415666666666667E+009;1.579311043024063E-001;-6.115633621811867E-002;-3.879700554534793E-003;2.380118938162923E-003;
2.415833333333334E+009;1.576985120773315E-001;-6.257946789264679E-002;-3.480433952063322E-003;2.685299608856440E-003;
2.416000000000000E+009;1.574332863092423E-001;-6.412998586893082E-002;-3.514579497277737E-003;2.787537407130003E-003;
2.416166666666667E+009;1.573659777641296E-001;-6.553732603788376E-002;-3.180243074893951E-003;2.897437894716859E-003;
2.416333333333334E+009;1.571284681558609E-001;-6.686156243085861E-002;-2.952944254502654E-003;3.052042564377189E-003;
2.416500000000000E+009;1.569420844316483E-001;-6.846623867750168E-002;-2.828205702826381E-003;3.082617651671171E-003;
2.416666666666667E+009;1.567782014608383E-001;-6.990919262170792E-002;-2.625660737976432E-003;3.035593777894974E-003;
2.416833333333334E+009;1.567458361387253E-001;-7.130981981754303E-002;-2.518665278330445E-003;3.151045413687825E-003;
2.417000000000000E+009;1.564023941755295E-001;-7.261152565479279E-002;-2.218487439677119E-003;3.120149485766888E-003;
2.417166666666667E+009;1.561836451292038E-001;-7.378279417753220E-002;-2.197850029915571E-003;3.112588310614228E-003;
2.417333333333334E+009;1.561876535415649E-001;-7.486181706190109E-002;-2.219956833869219E-003;3.148142714053392E-003;
2.417500000000000E+009;1.559194773435593E-001;-7.622248679399490E-002;-1.813210896216333E-003;3.235889365896583E-003;
2.417666666666667E+009;1.559165716171265E-001;-7.700809836387634E-002;-1.851252163760364E-003;3.254209645092487E-003;
2.417833333333334E+009;1.558444499969482E-001;-7.805269211530685E-002;-1.815265743061900E-003;3.196774050593376E-003;
2.418000000000000E+009;1.557284146547318E-001;-7.918161898851395E-002;-1.719323918223381E-003;3.271016990765929E-003;
2.418166666666667E+009;1.555215567350388E-001;-7.987221330404282E-002;-1.620260067284107E-003;3.214486176148057E-003;
2.418333333333334E+009;1.558188647031784E-001;-8.074439316987991E-002;-1.444630324840546E-003;3.157624974846840E-003;
2.418500000000000E+009;1.555360704660416E-001;-8.149538934230804E-002;-1.493881805799902E-003;3.227340755984187E-003;
2.418666666666667E+009;1.556448936462402E-001;-8.234656602144241E-002;-1.376757398247719E-003;3.341475268825889E-003;
2.418833333333334E+009;1.554640978574753E-001;-8.309915661811829E-002;-1.281233038753271E-003;3.346235025674105E-003;
2.419000000000000E+009;1.553514003753662E-001;-8.363625407218933E-002;-1.177651458419859E-003;3.385627875104547E-003;
2.419166666666667E+009;1.552079617977142E-001;-8.423043787479401E-002;-1.125538954511285E-003;3.539913333952427E-003;
2.419333333333334E+009;1.549358665943146E-001;-8.458602428436279E-002;-1.052903826348484E-003;3.471150062978268E-003;
2.419500000000000E+009;1.550083458423615E-001;-8.529296517372131E-002;-8.937417878769338E-004;3.493885975331068E-003;
2.419666666666667E+009;1.548986434936523E-001;-8.558837324380875E-002;-8.305803639814258E-004;3.510135225951672E-003;
2.419833333333334E+009;1.545681357383728E-001;-8.600844442844391E-002;-8.215407724492252E-004;3.688351018354297E-003;
2.420000000000000E+009;1.545627266168594E-001;-8.642458170652390E-002;-6.478962604887784E-004;3.674546955153346E-003;
2.420166666666667E+009;1.541221290826798E-001;-8.671038597822189E-002;-3.670848382171243E-004;3.697203006595373E-003;
2.420333333333334E+009;1.540274918079376E-001;-8.706310391426086E-002;-2.643064653966576E-004;3.535815514624119E-003;
2.420500000000000E+009;1.539071500301361E-001;-8.719324320554733E-002;-6.474787369370461E-005;3.683193819597364E-003;
2.420666666666667E+009;1.533420234918594E-001;-8.759115636348724E-002;2.296290176673210E-006;3.681547241285443E-003;
2.420833333333334E+009;1.530665606260300E-001;-8.797925710678101E-002;1.172756237792783E-004;3.454922698438168E-003;
2.421000000000000E+009;1.525829285383225E-001;-8.839590847492218E-002;1.881754869828001E-004;3.600615309551358E-003;
2.421166666666667E+009;1.523231416940689E-001;-8.868104219436646E-002;4.415084549691528E-004;3.568342421203852E-003;
2.421333333333334E+009;1.518842726945877E-001;-8.927293121814728E-002;3.897551214322448E-004;3.564971731975675E-003;
2.421500000000000E+009;1.512677669525147E-001;-8.970250934362412E-002;5.281686317175627E-004;3.606895916163921E-003;
2.421666666666667E+009;1.505857110023499E-001;-9.025865793228149E-002;5.748563562519848E-004;3.501310944557190E-003;
2.421833333333334E+009;1.500115692615509E-001;-9.061123430728912E-002;6.587798125110567E-004;3.485393710434437E-003;
2.422000000000000E+009;1.491497457027435E-001;-9.126951545476914E-002;8.147245971485972E-004;3.528028493747115E-003;
2.422166666666667E+009;1.485580354928970E-001;-9.201169759035111E-002;1.105989562347531E-003;3.554210765287280E-003;
2.422333333333334E+009;1.477032750844955E-001;-9.246335178613663E-002;1.182469655759633E-003;3.452162956818938E-003;
2.422500000000000E+009;1.468564569950104E-001;-9.307210892438889E-002;1.464668079279363E-003;3.599615069106221E-003;
2.422666666666667E+009;1.460477560758591E-001;-9.387467056512833E-002;1.700123539194465E-003;3.423066344112158E-003;
2.422833333333334E+009;1.452230960130692E-001;-9.459587931632996E-002;1.817269716411829E-003;3.145418828353286E-003;
2.423000000000000E+009;1.443717181682587E-001;-9.534314274787903E-002;1.988318283110857E-003;2.880132757127285E-003;
2.423166666666667E+009;1.435094922780991E-001;-9.613329172134399E-002;2.122288569808006E-003;2.844042843207717E-003;
2.423333333333334E+009;1.426672637462616E-001;-9.669919312000275E-002;2.250764286145568E-003;2.624963643029332E-003;
2.423500000000000E+009;1.417869478464127E-001;-9.786560386419296E-002;2.303852001205087E-003;2.399173332378268E-003;
2.423666666666667E+009;1.406109929084778E-001;-9.886503219604492E-002;2.238453831523657E-003;2.105074469000101E-003;
2.423833333333334E+009;1.399026662111282E-001;-9.982936829328537E-002;2.307765418663621E-003;1.991720171645284E-003;
2.424000000000000E+009;1.389058977365494E-001;-1.007089540362358E-001;2.214638050645590E-003;1.743024215102196E-003;
2.424166666666667E+009;1.380074769258499E-001;-1.017516702413559E-001;2.080755773931742E-003;1.479514059610665E-003;
2.424333333333334E+009;1.372186094522476E-001;-1.027234196662903E-001;1.962602837011218E-003;1.427743467502296E-003;
2.424500000000000E+009;1.362687349319458E-001;-1.039634793996811E-001;1.814008806832135E-003;1.355853048153222E-003;
2.424666666666667E+009;1.357010155916214E-001;-1.048615872859955E-001;1.915594097226858E-003;1.270199893042445E-003;
2.424833333333334E+009;1.347001791000366E-001;-1.059896647930145E-001;1.696795341558754E-003;1.168328686617315E-003;
2.425000000000000E+009;1.340686827898026E-001;-1.072567701339722E-001;1.738675520755351E-003;1.121317618526518E-003;
2.425166666666667E+009;1.332667469978333E-001;-1.084879264235497E-001;1.446701819077134E-003;1.225171610713005E-003;
2.425333333333334E+009;1.328527033329010E-001;-1.095028519630432E-001;1.580057665705681E-003;1.016435911878943E-003;
2.425500000000000E+009;1.322779357433319E-001;-1.108293160796166E-001;1.354831620119512E-003;1.119265798479319E-003;
2.425666666666667E+009;1.314693838357925E-001;-1.119549050927162E-001;1.425368478521705E-003;1.017801347188652E-003;
2.425833333333334E+009;1.310431212186813E-001;-1.132259517908096E-001;1.349669764749706E-003;1.119540072977543E-003;
2.426000000000000E+009;1.305406689643860E-001;-1.145227849483490E-001;1.187471207231283E-003;1.146052498370409E-003;
2.426166666666667E+009;1.303140521049500E-001;-1.156560257077217E-001;1.190765644423664E-003;1.143414061516523E-003;
2.426333333333334E+009;1.297925859689713E-001;-1.168622002005577E-001;1.095370156690478E-003;1.250516390427947E-003;
2.426500000000000E+009;1.294729858636856E-001;-1.180172190070152E-001;1.156930462457240E-003;1.153248827904463E-003;
2.426666666666667E+009;1.292326152324677E-001;-1.190031096339226E-001;1.045837881974876E-003;1.217831159010530E-003;
2.426833333333334E+009;1.288413107395172E-001;-1.200831457972527E-001;9.787086164578795E-004;1.294033019803464E-003;
2.427000000000000E+009;1.286001950502396E-001;-1.212097704410553E-001;9.662207448855043E-004;1.365151721984148E-003;
2.427166666666667E+009;1.283238977193832E-001;-1.219651103019714E-001;1.007545040920377E-003;1.547798630781472E-003;
2.427333333333334E+009;1.281315535306931E-001;-1.230282410979271E-001;9.592202841304243E-004;1.568056060932577E-003;
2.427500000000000E+009;1.280603855848312E-001;-1.239497661590576E-001;1.128771575167775E-003;1.455283840186894E-003;
2.427666666666667E+009;1.279138624668121E-001;-1.247554793953896E-001;1.049845712259412E-003;1.688204822130501E-003;
