# Version 1.00
#
freq[Hz];re:Trc1_S11;im:Trc1_S11;re:Trc2_S21;im:Trc2_S21;
2.400000000000000E+009;1.580116897821426E-001;6.263343244791031E-002;-4.265394527465105E-003;1.682004658505321E-003;
2.400166666666667E+009;1.578628718852997E-001;6.121031194925308E-002;-4.157749470323324E-003;1.715727034024894E-003;
2.400333333333334E+009;1.577946692705154E-001;5.936760827898979E-002;-4.182093311101198E-003;1.944565097801387E-003;
2.400500000000000E+009;1.578032076358795E-001;5.718599632382393E-002;-4.090499598532915E-003;2.018425846472383E-003;
2.400666666666667E+009;1.577929109334946E-001;5.520009621977806E-002;-4.083222709596157E-003;2.163093769922853E-003;
2.400833333333334E+009;1.577824950218201E-001;5.326620489358902E-002;-3.864727914333344E-003;2.249073470011354E-003;
2.401000000000000E+009;1.577445715665817E-001;5.129391700029373E-002;-3.741193097084761E-003;2.350588794797659E-003;
2.401166666666667E+009;1.578589379787445E-001;4.912351444363594E-002;-3.824922256171703E-003;2.444614656269550E-003;
2.401333333333334E+009;1.580512970685959E-001;4.713889956474304E-002;-3.692312166094780E-003;2.662961604073644E-003;
2.401500000000000E+009;1.584673076868057E-001;4.520074650645256E-002;-3.678009379655123E-003;2.583398716524243E-003;
2.401666666666667E+009;1.588046103715897E-001;4.318173229694367E-002;-3.524509724229574E-003;2.681210404261947E-003;
2.401833333333334E+009;1.591879427433014E-001;4.086166992783546E-002;-3.263007849454880E-003;2.772817621007562E-003;
2.402000000000000E+009;1.595263928174973E-001;3.891044855117798E-002;-3.343706252053380E-003;2.840291010215879E-003;
2.402166666666667E+009;1.600501239299774E-001;3.695172816514969E-002;-3.203194821253419E-003;2.942875958979130E-003;
2.402333333333334E+009;1.604641675949097E-001;3.495405614376068E-002;-3.063031006604433E-003;3.120318753644824E-003;
2.402500000000000E+009;1.614381074905396E-001;3.315388783812523E-002;-2.893148455768824E-003;3.121262649074197E-003;
2.402666666666667E+009;1.620884686708450E-001;3.151104599237442E-002;-2.832418773323298E-003;3.075574990361929E-003;
2.402833333333334E+009;1.628386378288269E-001;2.969222329556942E-002;-2.769984537735581E-003;3.221798455342650E-003;
2.403000000000000E+009;1.634443998336792E-001;2.804541401565075E-002;-2.619165927171707E-003;3.306098515167832E-003;
2.403166666666667E+009;1.643976569175720E-001;2.642195671796799E-002;-2.601863816380501E-003;3.258082782849670E-003;
2.403333333333334E+009;1.654452830553055E-001;2.490593865513802E-002;-2.473322441801429E-003;3.403726499527693E-003;
2.403500000000000E+009;1.662137657403946E-001;2.356320805847645E-002;-2.432915149256587E-003;3.449949203059077E-003;
2.403666666666667E+009;1.671221703290939E-001;2.212788164615631E-002;-2.286093076691032E-003;3.524157451465726E-003;
2.403833333333334E+009;1.682775765657425E-001;2.073786221444607E-002;-2.152871107682586E-003;3.473091637715697E-003;
2.404000000000000E+009;1.691507548093796E-001;1.973503828048706E-002;-2.028254559263587E-003;3.611495252698660E-003;
2.404166666666667E+009;1.701442897319794E-001;1.851622946560383E-002;-2.084300853312016E-003;3.758487524464726E-003;
2.404333333333334E+009;1.711483150720596E-001;1.762703061103821E-002;-2.004957525059581E-003;3.925016149878502E-003;
2.404500000000000E+009;1.721278578042984E-001;1.651946455240250E-002;-1.818911172449589E-003;3.791515016928315E-003;
2.404666666666667E+009;1.731452792882919E-001;1.566243916749954E-002;-1.760383252985776E-003;4.104333929717541E-003;
2.404833333333334E+009;1.740309000015259E-001;1.492467150092125E-002;-1.613168162293732E-003;4.012878984212875E-003;
2.405000000000000E+009;1.748031675815582E-001;1.388614252209663E-002;-1.359937712550163E-003;3.926083911210299E-003;
2.405166666666667E+009;1.758072078227997E-001;1.332570705562830E-002;-1.413008896633983E-003;4.057503305375576E-003;
2.405333333333334E+009;1.766811013221741E-001;1.277018152177334E-002;-1.151192118413746E-003;4.147680941969156E-003;
2.405500000000000E+009;1.773108989000320E-001;1.239960175007582E-002;-1.226486871019006E-003;4.332759417593479E-003;
2.405666666666667E+009;1.781436949968338E-001;1.184687670320272E-002;-9.717741631902754E-004;4.165269434452057E-003;
2.405833333333334E+009;1.784866750240326E-001;1.156606525182724E-002;-6.575874285772443E-004;4.392315633594990E-003;
2.406000000000000E+009;1.791770756244659E-001;1.098871883004904E-002;-8.775006863288581E-004;4.385814536362886E-003;
2.406166666666667E+009;1.796842217445374E-001;1.085858885198832E-002;-6.176882889121771E-004;4.387163091450930E-003;
2.406333333333334E+009;1.802026033401489E-001;1.056511793285608E-002;-5.584543687291443E-004;4.330389667302370E-003;
2.406500000000000E+009;1.804887801408768E-001;1.021967269480228E-002;-2.301901258761063E-004;4.578497726470232E-003;
2.406666666666667E+009;1.804317981004715E-001;9.933291934430599E-003;-3.453559111221694E-005;4.426931496709585E-003;
2.406833333333334E+009;1.807924807071686E-001;9.553867392241955E-003;1.522312668384984E-004;4.587048664689064E-003;
2.407000000000000E+009;1.808710843324661E-001;9.311478585004807E-003;2.709404507186264E-004;4.422332625836134E-003;
2.407166666666667E+009;1.809887290000916E-001;9.018284268677235E-003;4.422163765411824E-004;4.511144477874041E-003;
2.407333333333334E+009;1.808585822582245E-001;8.523594588041306E-003;6.384024163708091E-004;4.318550694733858E-003;
2.407500000000000E+009;1.807248294353485E-001;8.256386965513229E-003;7.981667295098305E-004;4.391156136989594E-003;
2.407666666666667E+009;1.804788410663605E-001;7.700760383158922E-003;1.101525500416756E-003;4.300914239138365E-003;
2.407833333333334E+009;1.800085157155991E-001;7.203603163361549E-003;1.142932567745447E-003;4.150990862399340E-003;
2.408000000000000E+009;1.798803657293320E-001;6.531324237585068E-003;1.263195765204728E-003;4.135110415518284E-003;
2.408166666666667E+009;1.792596131563187E-001;6.121049635112286E-003;1.296893693506718E-003;4.013345576822758E-003;
2.408333333333334E+009;1.789704710245132E-001;5.294893402606249E-003;1.361579983495176E-003;4.016433376818895E-003;
2.408500000000000E+009;1.782495826482773E-001;4.401039797812700E-003;1.580717158503830E-003;3.877533599734306E-003;
2.408666666666667E+009;1.777135878801346E-001;3.551057074218988E-003;1.620439463295043E-003;3.762629814445972E-003;
2.408833333333334E+009;1.769826114177704E-001;2.638497855514288E-003;1.800041180104017E-003;3.770806593820453E-003;
2.409000000000000E+009;1.762558370828629E-001;1.609507831744850E-003;1.772558433003724E-003;3.588123945519328E-003;
2.409166666666667E+009;1.755927801132202E-001;4.124803526792675E-004;1.938779838383198E-003;3.627148224040866E-003;
2.409333333333334E+009;1.750651895999908E-001;-6.447528721764684E-004;2.079393249005079E-003;3.500177757814527E-003;
2.409500000000000E+009;1.741882264614105E-001;-2.043389715254307E-003;2.010240918025374E-003;3.325849771499634E-003;
2.409666666666667E+009;1.735576987266541E-001;-3.239901969209313E-003;2.057907637208700E-003;3.300819545984268E-003;
2.409833333333334E+009;1.728338599205017E-001;-4.588581155985594E-003;2.224186202511191E-003;3.288883250206709E-003;
2.410000000000000E+009;1.722747683525085E-001;-6.126623135060072E-003;2.422806108370423E-003;3.171195974573493E-003;
2.410166666666667E+009;1.715329885482788E-001;-7.839345373213291E-003;2.386102220043540E-003;3.108838805928826E-003;
2.410333333333334E+009;1.708995550870895E-001;-9.350736625492573E-003;2.548316493630409E-003;3.114553634077311E-003;
2.410500000000000E+009;1.704857498407364E-001;-1.106633059680462E-002;2.654063282534480E-003;3.079060930758715E-003;
2.410666666666667E+009;1.699014604091644E-001;-1.306896284222603E-002;2.515787491574884E-003;2.817302709445357E-003;
2.410833333333334E+009;1.694382131099701E-001;-1.474943011999130E-002;2.597771817818284E-003;2.800527028739452E-003;
2.411000000000000E+009;1.689415127038956E-001;-1.658244431018829E-002;2.668213099241257E-003;2.806589473038912E-003;
2.411166666666667E+009;1.686846017837524E-001;-1.855074241757393E-002;2.867093542590737E-003;2.548857126384974E-003;
2.411333333333334E+009;1.683815568685532E-001;-2.029135078191757E-002;2.943506697192788E-003;2.693876391276717E-003;
2.411500000000000E+009;1.681950539350510E-001;-2.241143956780434E-002;2.956380136311054E-003;2.506680786609650E-003;
2.411666666666667E+009;1.681622415781021E-001;-2.427266538143158E-002;2.979341894388199E-003;2.480295253917575E-003;
2.411833333333334E+009;1.680709868669510E-001;-2.619789540767670E-002;3.218468045815826E-003;2.208826830610633E-003;
2.412000000000000E+009;1.681852638721466E-001;-2.845877781510353E-002;3.113052574917674E-003;2.264078706502914E-003;
2.412166666666667E+009;1.681175976991653E-001;-3.028374724090099E-002;3.062642877921462E-003;2.215223386883736E-003;
2.412333333333334E+009;1.684873104095459E-001;-3.211694210767746E-002;3.230554750189185E-003;2.083069877699018E-003;
2.412500000000000E+009;1.686194837093353E-001;-3.395903110504150E-002;3.256076248362660E-003;2.030594972893596E-003;
2.412666666666667E+009;1.688793599605560E-001;-3.609133511781693E-002;3.454652382060885E-003;2.033427124843001E-003;
2.412833333333334E+009;1.692254096269608E-001;-3.784371912479401E-002;3.629645798355341E-003;1.724496483802795E-003;
2.413000000000000E+009;1.695555895566940E-001;-3.962204977869988E-002;3.612939035519958E-003;1.661956077441573E-003;
2.413166666666667E+009;1.699295639991760E-001;-4.132433980703354E-002;3.607372753322125E-003;1.719029853120446E-003;
2.413333333333334E+009;1.703570187091827E-001;-4.298926517367363E-002;3.641237271949649E-003;1.453787321224809E-003;
2.413500000000000E+009;1.708812266588211E-001;-4.476751387119293E-002;3.768467810004950E-003;1.225191517733038E-003;
2.413666666666667E+009;1.715292781591415E-001;-4.640785604715347E-002;3.784228581935167E-003;1.070167520083487E-003;
2.413833333333334E+009;1.719808578491211E-001;-4.772293940186501E-002;3.831262700259686E-003;9.946844074875116E-004;
2.414000000000000E+009;1.724290847778320E-001;-4.922882840037346E-002;3.798097604885697E-003;9.136333246715367E-004;
2.414166666666667E+009;1.731484979391098E-001;-5.057854577898979E-002;3.738521365448833E-003;8.088258909992874E-004;
2.414333333333334E+009;1.735849529504776E-001;-5.176722258329392E-002;3.945972304791212E-003;7.268070476129651E-004;
2.414500000000000E+009;1.744652390480042E-001;-5.286825448274612E-002;3.764642868191004E-003;5.239350139163435E-004;
2.414666666666667E+009;1.746328920125961E-001;-5.382816493511200E-002;3.701064037159085E-003;3.902095486409962E-004;
2.414833333333334E+009;1.752200871706009E-001;-5.495638400316238E-002;3.739041974768043E-003;2.984699094668031E-004;
2.415000000000000E+009;1.756354272365570E-001;-5.582801625132561E-002;3.790285671129823E-003;9.904269245453179E-005;
2.415166666666667E+009;1.761658638715744E-001;-5.659293755888939E-002;3.797076409682632E-003;1.434751757187769E-004;
2.415333333333334E+009;1.765605658292770E-001;-5.749720335006714E-002;3.841111669316888E-003;2.995937575178687E-005;
2.415500000000000E+009;1.768751442432404E-001;-5.801118910312653E-002;3.850828623399139E-003;-1.831846020650119E-004;
2.415666666666667E+009;1.771026104688644E-001;-5.847508832812309E-002;3.887679893523455E-003;-2.304782974533737E-004;
2.415833333333334E+009;1.773832887411118E-001;-5.893713608384132E-002;3.733318531885743E-003;-3.988338576164097E-004;
2.416000000000000E+009;1.775087863206863E-001;-5.944193899631500E-002;3.807643195614219E-003;-4.037072940263897E-004;
2.416166666666667E+009;1.776525676250458E-001;-5.976339802145958E-002;3.781034611165524E-003;-5.528121255338192E-004;
2.416333333333334E+009;1.776803731918335E-001;-6.009559333324432E-002;3.784937551245093E-003;-6.969301612116396E-004;
2.416500000000000E+009;1.774882972240448E-001;-6.053329259157181E-002;3.807952860370278E-003;-8.586542098782957E-004;
2.416666666666667E+009;1.772066801786423E-001;-6.062423810362816E-002;3.746381960809231E-003;-9.968632366508246E-004;
2.416833333333334E+009;1.771881878376007E-001;-6.099567562341690E-002;3.630801104009152E-003;-1.010614447295666E-003;
2.417000000000000E+009;1.765469908714294E-001;-6.115318834781647E-002;3.669037483632565E-003;-1.134441117756069E-003;
2.417166666666667E+009;1.760997474193573E-001;-6.128325313329697E-002;3.427086630836129E-003;-1.374277984723449E-003;
2.417333333333334E+009;1.756980866193771E-001;-6.150118261575699E-002;3.432538593187928E-003;-1.486653345637023E-003;
2.417500000000000E+009;1.750603318214417E-001;-6.191324815154076E-002;3.458140417933464E-003;-1.544868340715766E-003;
2.417666666666667E+009;1.745689064264298E-001;-6.197484582662582E-002;3.379333997145295E-003;-1.747434958815575E-003;
2.417833333333334E+009;1.736646741628647E-001;-6.223447620868683E-002;3.361322684213519E-003;-1.856133341789246E-003;
2.418000000000000E+009;1.727000921964645E-001;-6.258998066186905E-002;3.094464540481567E-003;-1.906905556097627E-003;
2.418166666666667E+009;1.718651205301285E-001;-6.272063404321671E-002;3.045186866074801E-003;-1.968891359865665E-003;
2.418333333333334E+009;1.710636913776398E-001;-6.315514445304871E-002;3.094312734901905E-003;-2.148018917068839E-003;
2.418500000000000E+009;1.699068099260330E-001;-6.363183259963989E-002;2.962476573884487E-003;-2.277716761454940E-003;
2.418666666666667E+009;1.688904315233231E-001;-6.421194225549698E-002;2.882548607885838E-003;-2.372950548306108E-003;
2.418833333333334E+009;1.675778776407242E-001;-6.463422626256943E-002;2.982411067932844E-003;-2.296092454344034E-003;
2.419000000000000E+009;1.662519276142120E-001;-6.513959169387817E-002;2.775906119495630E-003;-2.406407846137881E-003;
2.419166666666667E+009;1.652114093303680E-001;-6.596542149782181E-002;2.649879781529307E-003;-2.514958148822188E-003;
2.419333333333334E+009;1.639973074197769E-001;-6.641837209463120E-002;2.553069498389959E-003;-2.652322640642524E-003;
2.419500000000000E+009;1.627514511346817E-001;-6.739937514066696E-002;2.531245350837708E-003;-2.649248344823718E-003;
2.419666666666667E+009;1.616178750991821E-001;-6.837882846593857E-002;2.240092493593693E-003;-2.673130948096514E-003;
2.419833333333334E+009;1.604911684989929E-001;-6.915208697319031E-002;2.271637320518494E-003;-2.910937648266554E-003;
2.420000000000000E+009;1.592911034822464E-001;-7.012441754341126E-002;2.175079891458154E-003;-2.962046535685659E-003;
2.420166666666667E+009;1.581397503614426E-001;-7.132153213024139E-002;2.182546770200133E-003;-2.962992293760181E-003;
2.420333333333334E+009;1.571109592914581E-001;-7.251269370317459E-002;1.942470436915755E-003;-2.934048650786281E-003;
2.420500000000000E+009;1.560487151145935E-001;-7.372617721557617E-002;1.930085010826588E-003;-3.059674520045519E-003;
2.420666666666667E+009;1.551729589700699E-001;-7.482831925153732E-002;1.843855250626802E-003;-2.934558317065239E-003;
2.420833333333334E+009;1.541898846626282E-001;-7.646575570106506E-002;1.760462182573974E-003;-3.235525684431195E-003;
2.421000000000000E+009;1.532754451036453E-001;-7.808107137680054E-002;1.568030682392418E-003;-3.065490862354636E-003;
2.421166666666667E+009;1.526054739952087E-001;-7.924186438322067E-002;1.448784489184618E-003;-3.284580539911985E-003;
2.421333333333334E+009;1.520415544509888E-001;-8.106702566146851E-002;1.364927389658988E-003;-3.141886321827769E-003;
2.421500000000000E+009;1.511359959840775E-001;-8.245249837636948E-002;1.246490981429815E-003;-3.435568185523152E-003;
2.421666666666667E+009;1.506705433130264E-001;-8.417213708162308E-002;1.117087551392615E-003;-3.341639647260308E-003;
2.421833333333334E+009;1.501447558403015E-001;-8.591787517070770E-002;1.042640069499612E-003;-3.389272606000304E-003;
2.422000000000000E+009;1.497993171215057E-001;-8.732432872056961E-002;8.572367369197309E-004;-3.679740708321333E-003;
2.422166666666667E+009;1.495191603899002E-001;-8.939018845558167E-002;8.740656776353717E-004;-3.454338992014527E-003;
2.422333333333334E+009;1.494300514459610E-001;-9.082763642072678E-002;6.935478886589408E-004;-3.422549460083246E-003;
2.422500000000000E+009;1.492552161216736E-001;-9.237844496965408E-002;4.339403822086752E-004;-3.495733486488462E-003;
2.422666666666667E+009;1.489506363868713E-001;-9.417395293712616E-002;3.762058622669429E-004;-3.532484639436007E-003;
2.422833333333334E+009;1.494156569242477E-001;-9.602030366659164E-002;1.331018575001508E-004;-3.570788307115436E-003;
2.423000000000000E+009;1.493245512247086E-001;-9.764345735311508E-002;1.635119988350198E-004;-3.527607303112745E-003;
2.423166666666667E+009;1.496677249670029E-001;-9.916562587022781E-002;-5.031519322074018E-005;-3.396065207198262E-003;
2.423333333333334E+009;1.499073207378388E-001;-1.006203293800354E-001;-2.127267071045935E-004;-3.513136878609657E-003;
2.423500000000000E+009;1.502192616462708E-001;-1.024265140295029E-001;-2.195805427618325E-004;-3.522394690662623E-003;
2.423666666666667E+009;1.505357772111893E-001;-1.038058474659920E-001;-5.932586500421166E-004;-3.526587504893541E-003;
2.423833333333334E+009;1.512121111154556E-001;-1.054279059171677E-001;-6.899822619743645E-004;-3.324385732412338E-003;
2.424000000000000E+009;1.514548957347870E-001;-1.066370978951454E-001;-8.086949237622321E-004;-3.443256253376603E-003;
2.424166666666667E+009;1.518366634845734E-001;-1.079171523451805E-001;-8.957799873314798E-004;-3.301994176581502E-003;
2.424333333333334E+009;1.524850130081177E-001;-1.091813743114471E-001;-1.048712292686105E-003;-3.254570998251438E-003;
2.424500000000000E+009;1.528865247964859E-001;-1.103524044156075E-001;-1.318478607572615E-003;-3.158985404297710E-003;
2.424666666666667E+009;1.534945517778397E-001;-1.113503724336624E-001;-1.251564943231642E-003;-2.963685896247625E-003;
2.424833333333334E+009;1.539132893085480E-001;-1.123023182153702E-001;-1.570413354784250E-003;-2.942563965916634E-003;
2.425000000000000E+009;1.544702500104904E-001;-1.133770272135735E-001;-1.731181982904673E-003;-2.837099833413959E-003;
2.425166666666667E+009;1.547477543354034E-001;-1.141448542475700E-001;-1.825009705498815E-003;-2.650745213031769E-003;
2.425333333333334E+009;1.552096754312515E-001;-1.148945689201355E-001;-1.896278234198690E-003;-2.601853804662824E-003;
2.425500000000000E+009;1.556555330753326E-001;-1.157762855291367E-001;-1.992730656638742E-003;-2.494697459042072E-003;
2.425666666666667E+009;1.558091938495636E-001;-1.163255348801613E-001;-1.843144535087049E-003;-2.180701587349176E-003;
2.425833333333334E+009;1.561490744352341E-001;-1.168573796749115E-001;-1.975105842575431E-003;-2.259210217744112E-003;
2.426000000000000E+009;1.563965082168579E-001;-1.173021793365479E-001;-2.133186208084226E-003;-1.952797756530345E-003;
2.426166666666667E+009;1.566086560487747E-001;-1.177337020635605E-001;-2.124128863215447E-003;-1.788171939551830E-003;
2.426333333333334E+009;1.566414833068848E-001;-1.180129051208496E-001;-2.117300871759653E-003;-1.805651234462857E-003;
2.426500000000000E+009;1.566093415021896E-001;-1.183217316865921E-001;-2.105464460328221E-003;-1.587878563441336E-003;
2.426666666666667E+009;1.566928923130035E-001;-1.184205189347267E-001;-2.209997270256281E-003;-1.343495794571936E-003;
2.426833333333334E+009;1.564803868532181E-001;-1.187098100781441E-001;-2.183727454394102E-003;-1.329277642071247E-003;
2.427000000000000E+009;1.561760753393173E-001;-1.188373565673828E-001;-2.072364790365100E-003;-1.194379990920425E-003;
2.427166666666667E+009;1.557775735855103E-001;-1.189699098467827E-001;-2.279840409755707E-003;-1.286956365220249E-003;
2.427333333333334E+009;1.551508456468582E-001;-1.190176755189896E-001;-2.271726028993726E-003;-9.933334076777101E-004;
2.427500000000000E+009;1.547982096672058E-001;-1.191863417625427E-001;-2.066381042823196E-003;-8.248076192103326E-004;
2.427666666666667E+009;1.540870070457459E-001;-1.193488687276840E-001;-1.967927673831582E-003;-6.150741828605533E-004;
2.427833333333334E+009;1.532694846391678E-001;-1.194187551736832E-001;-2.028476446866989E-003;-7.291808724403381E-004;
