# Version 1.00
#
freq[Hz];re:Trc1_S11;im:Trc1_S11;re:Trc2_S21;im:Trc2_S21;
2.400000000000000E+009;1.551382243633270E-001;1.065435186028481E-001;-2.760550705716014E-003;-5.170298973098397E-004;
2.400166666666667E+009;1.549291014671326E-001;1.040386706590653E-001;-2.664023078978062E-003;-4.584406560752541E-004;
2.400333333333334E+009;1.549023389816284E-001;1.018688678741455E-001;-2.646057168021798E-003;-3.067412471864373E-004;
2.400500000000000E+009;1.549426764249802E-001;9.919524192810059E-002;-2.561325440183282E-003;-2.032452612183988E-004;
2.400666666666667E+009;1.551294177770615E-001;9.665357321500778E-002;-2.542420756071806E-003;-1.681878202361986E-004;
2.400833333333334E+009;1.550800651311874E-001;9.379094839096069E-002;-2.447641920298338E-003;-8.961986168287695E-005;
2.401000000000000E+009;1.552611142396927E-001;9.092828631401062E-002;-2.436792012304068E-003;-5.993873855913989E-005;
2.401166666666667E+009;1.556361019611359E-001;8.826012164354324E-002;-2.393272472545505E-003;-2.032414886343759E-005;
2.401333333333334E+009;1.558218747377396E-001;8.553960919380188E-002;-2.411757363006473E-003;4.998050280846655E-005;
2.401500000000000E+009;1.563005000352860E-001;8.267785608768463E-002;-2.502800198271871E-003;4.346618152339943E-005;
2.401666666666667E+009;1.566123068332672E-001;7.975141704082489E-002;-2.257747109979391E-003;-3.167333125020377E-005;
2.401833333333334E+009;1.572484821081162E-001;7.712318748235703E-002;-2.463539363816381E-003;1.746276102494448E-004;
2.402000000000000E+009;1.581709682941437E-001;7.435223460197449E-002;-2.352799987420440E-003;4.448209438123740E-005;
2.402166666666667E+009;1.589788049459457E-001;7.198637723922730E-002;-2.432523062452674E-003;2.400946395937353E-004;
2.402333333333334E+009;1.598516255617142E-001;6.920269876718521E-002;-2.408656058833003E-003;3.516478172969073E-004;
2.402500000000000E+009;1.612517386674881E-001;6.662725657224655E-002;-2.408555475994945E-003;1.964728871826083E-004;
2.402666666666667E+009;1.623110622167587E-001;6.444220244884491E-002;-2.308755181729794E-003;1.981440582312644E-004;
2.402833333333334E+009;1.635873317718506E-001;6.214385479688644E-002;-2.381251892074943E-003;2.157228591386229E-004;
2.403000000000000E+009;1.650502830743790E-001;5.977001786231995E-002;-2.370479051023722E-003;3.402606816962361E-004;
2.403166666666667E+009;1.667959690093994E-001;5.747424438595772E-002;-2.483952324837446E-003;2.606959897093475E-004;
2.403333333333334E+009;1.682740002870560E-001;5.524672195315361E-002;-2.484497148543596E-003;4.049081180710346E-004;
2.403500000000000E+009;1.699432134628296E-001;5.354067683219910E-002;-2.516476204618812E-003;3.150978591293097E-004;
2.403666666666667E+009;1.717804670333862E-001;5.148429051041603E-002;-2.553321886807680E-003;5.756822647526860E-004;
2.403833333333334E+009;1.732812076807022E-001;4.968833550810814E-002;-2.617585007101297E-003;6.616758764721453E-004;
2.404000000000000E+009;1.746929883956909E-001;4.774423316121101E-002;-2.632718766108155E-003;7.471396820619702E-004;
2.404166666666667E+009;1.766977757215500E-001;4.647291451692581E-002;-2.644884865731001E-003;7.438445463776588E-004;
2.404333333333334E+009;1.781712472438812E-001;4.475395753979683E-002;-2.592577133327723E-003;9.591765701770783E-004;
2.404500000000000E+009;1.799144893884659E-001;4.351290315389633E-002;-2.446776023134589E-003;1.094517065212131E-003;
2.404666666666667E+009;1.813417375087738E-001;4.238240420818329E-002;-2.309674862772226E-003;1.190286362543702E-003;
2.404833333333334E+009;1.830693632364273E-001;4.130865260958672E-002;-2.360800513997674E-003;1.397305866703391E-003;
2.405000000000000E+009;1.843256801366806E-001;4.073091223835945E-002;-2.296621445566416E-003;1.439717249013484E-003;
2.405166666666667E+009;1.858113706111908E-001;3.995503112673760E-002;-2.110478701069951E-003;1.489315414801240E-003;
2.405333333333334E+009;1.870350539684296E-001;3.962229564785957E-002;-2.133479807525873E-003;1.529049361124635E-003;
2.405500000000000E+009;1.886061877012253E-001;3.896380960941315E-002;-2.011953853070736E-003;1.525830943137407E-003;
2.405666666666667E+009;1.897180378437042E-001;3.867829591035843E-002;-2.041912404820323E-003;1.568264327943325E-003;
2.405833333333334E+009;1.910359859466553E-001;3.847263380885124E-002;-1.901271054521203E-003;1.498583005741239E-003;
2.406000000000000E+009;1.920768469572067E-001;3.823024407029152E-002;-1.852508983574808E-003;1.661457819864154E-003;
2.406166666666667E+009;1.930336803197861E-001;3.801390156149864E-002;-1.806707237847149E-003;1.404113951139152E-003;
2.406333333333334E+009;1.939102262258530E-001;3.805254772305489E-002;-1.572880893945694E-003;1.430115080438554E-003;
2.406500000000000E+009;1.945853233337402E-001;3.816711530089378E-002;-1.741194981150329E-003;1.485078246332705E-003;
2.406666666666667E+009;1.951541453599930E-001;3.804186359047890E-002;-1.840762211941183E-003;1.531556132249534E-003;
2.406833333333334E+009;1.956381052732468E-001;3.796468675136566E-002;-1.798242446966469E-003;1.471036695875228E-003;
2.407000000000000E+009;1.959395855665207E-001;3.824963048100472E-002;-1.748561277054250E-003;1.423681038431823E-003;
2.407166666666667E+009;1.962891072034836E-001;3.794245794415474E-002;-1.831034314818680E-003;1.370902522467077E-003;
2.407333333333334E+009;1.962501704692841E-001;3.804523125290871E-002;-1.716450322419405E-003;1.600867253728211E-003;
2.407500000000000E+009;1.962448805570602E-001;3.799368441104889E-002;-1.674162806011736E-003;1.523266779258847E-003;
2.407666666666667E+009;1.962576955556870E-001;3.794061765074730E-002;-1.747995615005493E-003;1.499530975706875E-003;
2.407833333333334E+009;1.956748515367508E-001;3.774954006075859E-002;-1.718496787361801E-003;1.635644934140146E-003;
2.408000000000000E+009;1.956944018602371E-001;3.750714287161827E-002;-1.875345711596310E-003;1.611218904145062E-003;
2.408166666666667E+009;1.950882822275162E-001;3.727720677852631E-002;-1.624299678951502E-003;1.746016554534435E-003;
2.408333333333334E+009;1.946028620004654E-001;3.653076291084290E-002;-1.895722933113575E-003;1.700800494290888E-003;
2.408500000000000E+009;1.940286606550217E-001;3.621812537312508E-002;-1.784095191396773E-003;1.826337771490216E-003;
2.408666666666667E+009;1.933540850877762E-001;3.565781936049461E-002;-1.917068264447153E-003;1.794014940969646E-003;
2.408833333333334E+009;1.925666779279709E-001;3.486868366599083E-002;-2.070295624434948E-003;1.980840461328626E-003;
2.409000000000000E+009;1.916200965642929E-001;3.385349363088608E-002;-1.890171202830970E-003;1.987201161682606E-003;
2.409166666666667E+009;1.907869279384613E-001;3.282519429922104E-002;-1.996631501242518E-003;2.170108724385500E-003;
2.409333333333334E+009;1.899803578853607E-001;3.179995343089104E-002;-1.988156000152230E-003;2.269844291731715E-003;
2.409500000000000E+009;1.887697130441666E-001;3.045177645981312E-002;-2.052151365205646E-003;2.399177057668567E-003;
2.409666666666667E+009;1.878302991390228E-001;2.906149066984654E-002;-2.066876273602247E-003;2.422038698568940E-003;
2.409833333333334E+009;1.867840439081192E-001;2.747682854533196E-002;-1.884702476672828E-003;2.630127361044288E-003;
2.410000000000000E+009;1.858346164226532E-001;2.589155547320843E-002;-1.791257993318141E-003;2.721851691603661E-003;
2.410166666666667E+009;1.847493797540665E-001;2.402411773800850E-002;-1.759913167916238E-003;2.934238407760859E-003;
2.410333333333334E+009;1.839103996753693E-001;2.239942736923695E-002;-1.646502874791622E-003;3.097818233072758E-003;
2.410500000000000E+009;1.828463375568390E-001;2.035975083708763E-002;-1.597912050783634E-003;3.208499168977141E-003;
2.410666666666667E+009;1.820064485073090E-001;1.799857430160046E-002;-1.512947841547430E-003;3.308535087853670E-003;
2.410833333333334E+009;1.815400272607803E-001;1.583469100296497E-002;-1.303869416005909E-003;3.323279321193695E-003;
2.411000000000000E+009;1.807585209608078E-001;1.361921615898609E-002;-1.171804266050458E-003;3.470893017947674E-003;
2.411166666666667E+009;1.801725327968597E-001;1.140879187732935E-002;-1.187204383313656E-003;3.519242396578193E-003;
2.411333333333334E+009;1.796537488698959E-001;9.043055586516857E-003;-8.279354660771787E-004;3.603436052799225E-003;
2.411500000000000E+009;1.791132837533951E-001;6.649819202721119E-003;-7.714423700235784E-004;3.711007069796324E-003;
2.411666666666667E+009;1.789734661579132E-001;4.284821450710297E-003;-5.837738863192499E-004;3.646042430773377E-003;
2.411833333333334E+009;1.786213964223862E-001;1.920453389175236E-003;-3.048781945835799E-004;3.721664194017649E-003;
2.412000000000000E+009;1.787708997726440E-001;-6.073313415981829E-004;-2.500280679669231E-004;3.809608751907945E-003;
2.412166666666667E+009;1.788748353719711E-001;-2.961705671623349E-003;-2.128969645127654E-004;3.678230801597238E-003;
2.412333333333334E+009;1.792127639055252E-001;-5.329664796590805E-003;7.382548210443929E-005;3.651085775345564E-003;
2.412500000000000E+009;1.795841157436371E-001;-7.827102206647396E-003;2.896716177929193E-004;3.621252486482263E-003;
2.412666666666667E+009;1.798497438430786E-001;-1.011730916798115E-002;2.230631362181157E-004;3.609245643019676E-003;
2.412833333333334E+009;1.807230263948441E-001;-1.262299809604883E-002;5.322984070517123E-004;3.619713010266423E-003;
2.413000000000000E+009;1.814741492271423E-001;-1.481390744447708E-002;4.935738397762179E-004;3.479989012703300E-003;
2.413166666666667E+009;1.822046488523483E-001;-1.707235723733902E-002;5.555718089453876E-004;3.394203959032893E-003;
2.413333333333334E+009;1.832345575094223E-001;-1.932138577103615E-002;7.634972571395338E-004;3.512605093419552E-003;
2.413500000000000E+009;1.840843260288239E-001;-2.172622270882130E-002;9.353251080028713E-004;3.350662533193827E-003;
2.413666666666667E+009;1.852862834930420E-001;-2.356599830091000E-002;7.773559773340821E-004;3.319206181913614E-003;
2.413833333333334E+009;1.863337159156799E-001;-2.556405216455460E-002;8.491745102219284E-004;3.385284682735801E-003;
2.414000000000000E+009;1.872577071189880E-001;-2.756714075803757E-002;1.014658482745290E-003;3.341361414641142E-003;
2.414166666666667E+009;1.886882930994034E-001;-2.945633232593536E-002;1.029294682666659E-003;3.202761057764292E-003;
2.414333333333334E+009;1.897435635328293E-001;-3.134007751941681E-002;1.065235352143645E-003;3.205459099262953E-003;
2.414500000000000E+009;1.908996105194092E-001;-3.274134919047356E-002;1.183684798888862E-003;3.220464568585157E-003;
2.414666666666667E+009;1.919861435890198E-001;-3.419363871216774E-002;1.374697312712669E-003;3.173106117174029E-003;
2.414833333333334E+009;1.930910795927048E-001;-3.552941977977753E-002;1.437881728634238E-003;3.186863381415606E-003;
2.415000000000000E+009;1.941771805286408E-001;-3.682788833975792E-002;1.481188111938536E-003;3.064409596845508E-003;
2.415166666666667E+009;1.953305006027222E-001;-3.782197088003159E-002;1.602551084943116E-003;3.079826943576336E-003;
2.415333333333334E+009;1.963860243558884E-001;-3.876035287976265E-002;1.905800541862845E-003;3.126415191218257E-003;
2.415500000000000E+009;1.974729001522064E-001;-3.964933007955551E-002;1.867714570835233E-003;3.006040118634701E-003;
2.415666666666667E+009;1.984361559152603E-001;-4.034842550754547E-002;1.922354334965348E-003;2.901689382269979E-003;
2.415833333333334E+009;1.991528868675232E-001;-4.097973555326462E-002;1.992962788790464E-003;2.811095211654902E-003;
2.416000000000000E+009;1.998852491378784E-001;-4.143378138542175E-002;1.881116768345237E-003;2.788003068417311E-003;
2.416166666666667E+009;2.006313651800156E-001;-4.207408428192139E-002;2.076658653095365E-003;2.684490056708455E-003;
2.416333333333334E+009;2.012995630502701E-001;-4.236011579632759E-002;2.139430027455092E-003;2.702474128454924E-003;
2.416500000000000E+009;2.016007453203201E-001;-4.263732209801674E-002;2.181734191253781E-003;2.630071016028523E-003;
2.416666666666667E+009;2.019217461347580E-001;-4.301682114601135E-002;2.215237589552999E-003;2.748724538832903E-003;
2.416833333333334E+009;2.019974291324616E-001;-4.291060566902161E-002;2.407683990895748E-003;2.613571472465992E-003;
2.417000000000000E+009;2.020975798368454E-001;-4.317057505249977E-002;2.426025923341513E-003;2.692712238058448E-003;
2.417166666666667E+009;2.018359452486038E-001;-4.299389198422432E-002;2.618847414851189E-003;2.582841552793980E-003;
2.417333333333334E+009;2.015740722417831E-001;-4.287882894277573E-002;2.638957230374217E-003;2.515591913834214E-003;
2.417500000000000E+009;2.013122737407684E-001;-4.290133714675903E-002;2.998097566887736E-003;2.472341060638428E-003;
2.417666666666667E+009;2.006650269031525E-001;-4.271170124411583E-002;2.836253261193633E-003;2.265225164592266E-003;
2.417833333333334E+009;2.001912742853165E-001;-4.254289343953133E-002;3.153064288198948E-003;2.324505243450403E-003;
2.418000000000000E+009;1.995795667171478E-001;-4.230417683720589E-002;3.160730237141252E-003;2.176201902329922E-003;
2.418166666666667E+009;1.986998319625855E-001;-4.217718169093132E-002;3.380011767148972E-003;2.178027993068099E-003;
2.418333333333334E+009;1.977828890085220E-001;-4.208948463201523E-002;3.411894198507071E-003;1.957249362021685E-003;
2.418500000000000E+009;1.967902183532715E-001;-4.208844527602196E-002;3.442781744524837E-003;1.788951107300818E-003;
2.418666666666667E+009;1.958608925342560E-001;-4.212150722742081E-002;3.575407434254885E-003;1.837123301811516E-003;
2.418833333333334E+009;1.945878565311432E-001;-4.235136136412621E-002;3.668457968160510E-003;1.606095233000815E-003;
2.419000000000000E+009;1.934161186218262E-001;-4.250498116016388E-002;3.593611996620894E-003;1.420554588548839E-003;
2.419166666666667E+009;1.920654624700546E-001;-4.278890788555145E-002;3.678970970213413E-003;1.201402628794313E-003;
2.419333333333334E+009;1.906549930572510E-001;-4.331946000456810E-002;3.694256301969290E-003;1.190256560221314E-003;
2.419500000000000E+009;1.892838776111603E-001;-4.370890930294991E-002;3.736240789294243E-003;8.435614872723818E-004;
2.419666666666667E+009;1.877012550830841E-001;-4.456993937492371E-002;3.604747354984283E-003;8.168837521225214E-004;
2.419833333333334E+009;1.861250400543213E-001;-4.530264064669609E-002;3.603393910452724E-003;8.152521913871169E-004;
2.420000000000000E+009;1.847007572650909E-001;-4.615237936377525E-002;3.430241020396352E-003;8.290559635497630E-004;
2.420166666666667E+009;1.831464469432831E-001;-4.710807651281357E-002;3.421820001676679E-003;7.593324407935143E-004;
2.420333333333334E+009;1.814827471971512E-001;-4.839214310050011E-002;3.405248280614615E-003;5.919945542700589E-004;
2.420500000000000E+009;1.799039095640183E-001;-4.947014525532723E-002;3.568633459508419E-003;6.238010246306658E-004;
2.420666666666667E+009;1.782334595918655E-001;-5.056016147136688E-002;3.681569825857878E-003;7.377688307315111E-004;
2.420833333333334E+009;1.767467856407166E-001;-5.212588235735893E-002;3.771979361772537E-003;5.460059619508684E-004;
2.421000000000000E+009;1.753904074430466E-001;-5.358057096600533E-002;3.775999648496509E-003;5.417984211817384E-004;
2.421166666666667E+009;1.739880740642548E-001;-5.544335022568703E-002;3.877052338793874E-003;4.872174176853150E-004;
2.421333333333334E+009;1.723910868167877E-001;-5.701597034931183E-002;3.928612452000380E-003;3.592626890167594E-004;
2.421500000000000E+009;1.709475368261337E-001;-5.882235988974571E-002;3.915098961442709E-003;7.434856524923816E-005;
2.421666666666667E+009;1.697471439838409E-001;-6.065767630934715E-002;3.925267606973648E-003;8.080236148089171E-005;
2.421833333333334E+009;1.687400490045548E-001;-6.242065876722336E-002;4.012594930827618E-003;-8.162354060914367E-005;
2.422000000000000E+009;1.677698045969009E-001;-6.424134224653244E-002;4.265684168785811E-003;-2.548268530517817E-004;
2.422166666666667E+009;1.668718457221985E-001;-6.639846414327622E-002;4.113740287721157E-003;-4.364561464171857E-004;
2.422333333333334E+009;1.658666431903839E-001;-6.835845857858658E-002;4.049960989505053E-003;-5.318435141816735E-004;
2.422500000000000E+009;1.651360690593720E-001;-7.024472951889038E-002;4.020418040454388E-003;-7.635737420059741E-004;
2.422666666666667E+009;1.643541604280472E-001;-7.229761779308319E-002;3.974630497395992E-003;-8.684548665769398E-004;
2.422833333333334E+009;1.639637500047684E-001;-7.443719357252121E-002;3.905813209712505E-003;-9.371890337206423E-004;
2.423000000000000E+009;1.634719073772430E-001;-7.625540345907211E-002;3.923933953046799E-003;-1.258976059034467E-003;
2.423166666666667E+009;1.630656421184540E-001;-7.819685339927673E-002;3.892809618264437E-003;-1.235060277394950E-003;
2.423333333333334E+009;1.628677099943161E-001;-8.018158376216888E-002;3.834143048152328E-003;-1.406522933393717E-003;
2.423500000000000E+009;1.628621220588684E-001;-8.185043931007385E-002;3.799637313932180E-003;-1.589165069162846E-003;
2.423666666666667E+009;1.628114283084869E-001;-8.395166695117950E-002;3.737096674740315E-003;-1.627260120585561E-003;
2.423833333333334E+009;1.627105623483658E-001;-8.548364788293839E-002;3.716858103871346E-003;-1.875113579444587E-003;
2.424000000000000E+009;1.629969626665115E-001;-8.721655607223511E-002;3.650668775662780E-003;-2.007061382755637E-003;
2.424166666666667E+009;1.629974693059921E-001;-8.871750533580780E-002;3.530472749844194E-003;-2.066525863483548E-003;
2.424333333333334E+009;1.632477939128876E-001;-9.031424671411514E-002;3.507156157866120E-003;-2.061808248981834E-003;
2.424500000000000E+009;1.635835170745850E-001;-9.197572618722916E-002;3.178558778017759E-003;-2.148042200133205E-003;
2.424666666666667E+009;1.638256311416626E-001;-9.322626143693924E-002;3.192587289959192E-003;-2.428589621558785E-003;
2.424833333333334E+009;1.644077152013779E-001;-9.444911032915115E-002;3.066505538299680E-003;-2.490116283297539E-003;
2.425000000000000E+009;1.646578758955002E-001;-9.565097093582153E-002;3.095732536166906E-003;-2.516373526304960E-003;
2.425166666666667E+009;1.650401651859283E-001;-9.664314985275269E-002;3.096317639574409E-003;-2.627232577651739E-003;
2.425333333333334E+009;1.655158698558807E-001;-9.771938621997833E-002;2.889488823711872E-003;-2.601941116154194E-003;
2.425500000000000E+009;1.657287329435349E-001;-9.868629276752472E-002;2.820759778842330E-003;-2.824144205078483E-003;
2.425666666666667E+009;1.662375628948212E-001;-9.926761686801910E-002;2.814294071868062E-003;-2.882374916225672E-003;
2.425833333333334E+009;1.664416491985321E-001;-1.001169234514237E-001;2.829530043527484E-003;-2.835642779245973E-003;
2.426000000000000E+009;1.668562442064285E-001;-1.004786565899849E-001;2.511369064450264E-003;-3.044046461582184E-003;
2.426166666666667E+009;1.672523021697998E-001;-1.010207459330559E-001;2.484585857018828E-003;-3.083654213696718E-003;
2.426333333333334E+009;1.673798263072968E-001;-1.015189215540886E-001;2.366571454331279E-003;-3.137342398986220E-003;
2.426500000000000E+009;1.678168475627899E-001;-1.018485873937607E-001;2.248188946396112E-003;-3.074124688282609E-003;
2.426666666666667E+009;1.679307222366333E-001;-1.020761802792549E-001;2.063015010207892E-003;-3.269381122663617E-003;
2.426833333333334E+009;1.680809110403061E-001;-1.024145334959030E-001;2.039770362898707E-003;-3.326781326904893E-003;
2.427000000000000E+009;1.682048738002777E-001;-1.026440933346748E-001;1.858517993241549E-003;-3.463048022240400E-003;
2.427166666666667E+009;1.682010143995285E-001;-1.028232425451279E-001;1.851071254350245E-003;-3.398557426407933E-003;
2.427333333333334E+009;1.680500209331513E-001;-1.030234619975090E-001;1.948841963894665E-003;-3.561229445040226E-003;
2.427500000000000E+009;1.677799224853516E-001;-1.032133325934410E-001;1.602960866875947E-003;-3.467596834525466E-003;
2.427666666666667E+009;1.674254834651947E-001;-1.033877283334732E-001;1.506363973021507E-003;-3.710764227434993E-003;
2.427833333333334E+009;1.670748293399811E-001;-1.033918857574463E-001;1.368584926240146E-003;-3.602401353418827E-003;
