# Version 1.00
#
freq[Hz];re:Trc1_S11;im:Trc1_S11;re:Trc2_S21;im:Trc2_S21;
2.400000000000000E+009;1.549353748559952E-001;1.065161153674126E-001;-2.878712024539709E-003;-4.339761508163065E-004;
2.400166666666667E+009;1.547671109437943E-001;1.042240262031555E-001;-2.814820734784007E-003;-3.162081120535731E-004;
2.400333333333334E+009;1.548241227865219E-001;1.018962189555168E-001;-2.641899511218071E-003;-3.298119409009814E-004;
2.400500000000000E+009;1.549880057573319E-001;9.922529757022858E-002;-2.661211183294654E-003;-1.535011979285628E-004;
2.400666666666667E+009;1.550203263759613E-001;9.674541652202606E-002;-2.618119819089770E-003;-7.706000178586692E-005;
2.400833333333334E+009;1.550882160663605E-001;9.371386468410492E-002;-2.535182517021895E-003;-2.318403130630031E-004;
2.401000000000000E+009;1.553139984607697E-001;9.116890281438828E-002;-2.361975144594908E-003;-1.430003612767905E-004;
2.401166666666667E+009;1.555145829916000E-001;8.835490792989731E-002;-2.379591809585691E-003;-2.334736018383410E-005;
2.401333333333334E+009;1.558883935213089E-001;8.546663075685501E-002;-2.361246617510915E-003;-1.303331373492256E-004;
2.401500000000000E+009;1.563229262828827E-001;8.271843940019608E-002;-2.303479239344597E-003;3.513479532557540E-005;
2.401666666666667E+009;1.566505879163742E-001;7.991962879896164E-002;-2.387827029451728E-003;6.601792847504839E-005;
2.401833333333334E+009;1.573222875595093E-001;7.721468806266785E-002;-2.399412216618657E-003;4.540785448625684E-005;
2.402000000000000E+009;1.582557410001755E-001;7.440491020679474E-002;-2.553702564910054E-003;-2.103589849866694E-006;
2.402166666666667E+009;1.590860188007355E-001;7.197710126638413E-002;-2.317096339538693E-003;1.997482468141243E-004;
2.402333333333334E+009;1.599546968936920E-001;6.937231868505478E-002;-2.384136198088527E-003;2.941664715763181E-004;
2.402500000000000E+009;1.612159311771393E-001;6.687358021736145E-002;-2.396066440269351E-003;1.362855691695586E-004;
2.402666666666667E+009;1.621631830930710E-001;6.463962793350220E-002;-2.276380313560367E-003;2.559800632297993E-004;
2.402833333333334E+009;1.637151539325714E-001;6.197657436132431E-002;-2.518599387258291E-003;2.867057919502258E-004;
2.403000000000000E+009;1.651428788900375E-001;5.972691625356674E-002;-2.530420199036598E-003;1.721722801448777E-004;
2.403166666666667E+009;1.668310016393662E-001;5.764304846525192E-002;-2.465119818225503E-003;3.975617000833154E-004;
2.403333333333334E+009;1.682837307453156E-001;5.535069480538368E-002;-2.427456900477409E-003;2.258375607198104E-004;
2.403500000000000E+009;1.699490994215012E-001;5.342808365821838E-002;-2.561325440183282E-003;4.695339885074645E-004;
2.403666666666667E+009;1.717191338539124E-001;5.155319720506668E-002;-2.622938482090831E-003;5.575757240876555E-004;
2.403833333333334E+009;1.732371002435684E-001;4.976629838347435E-002;-2.617869060486555E-003;6.204875535331667E-004;
2.404000000000000E+009;1.748296469449997E-001;4.793352261185646E-002;-2.653933828696609E-003;7.298355922102928E-004;
2.404166666666667E+009;1.765835881233215E-001;4.660001769661903E-002;-2.447527134791017E-003;8.396200137212873E-004;
2.404333333333334E+009;1.782151609659195E-001;4.500181972980499E-002;-2.598195569589734E-003;9.966940851882100E-004;
2.404500000000000E+009;1.796675920486450E-001;4.363061860203743E-002;-2.676060423254967E-003;1.158213359303772E-003;
2.404666666666667E+009;1.815014183521271E-001;4.256048426032066E-002;-2.690745517611504E-003;1.231372356414795E-003;
2.404833333333334E+009;1.830265969038010E-001;4.156502336263657E-002;-2.471994608640671E-003;1.323597738519311E-003;
2.405000000000000E+009;1.842517405748367E-001;4.081521183252335E-002;-2.348742214962840E-003;1.416968880221248E-003;
2.405166666666667E+009;1.856887489557266E-001;4.013631120324135E-002;-2.243932336568832E-003;1.462195534259081E-003;
2.405333333333334E+009;1.870630532503128E-001;3.971169888973236E-002;-2.091031055897474E-003;1.476506120525301E-003;
2.405500000000000E+009;1.884719580411911E-001;3.924866765737534E-002;-2.074949909001589E-003;1.403540372848511E-003;
2.405666666666667E+009;1.898156255483627E-001;3.885154426097870E-002;-1.959928777068853E-003;1.507629989646375E-003;
2.405833333333334E+009;1.910322457551956E-001;3.858158737421036E-002;-1.946847303770483E-003;1.501266029663384E-003;
2.406000000000000E+009;1.919228434562683E-001;3.836784511804581E-002;-1.914927153848112E-003;1.429588766768575E-003;
2.406166666666667E+009;1.929619461297989E-001;3.821910172700882E-002;-1.882598618976772E-003;1.507437555119395E-003;
2.406333333333334E+009;1.937755942344666E-001;3.816211223602295E-002;-1.928338780999184E-003;1.531639136373997E-003;
2.406500000000000E+009;1.944755762815476E-001;3.813282400369644E-002;-1.710480428300798E-003;1.459726830944419E-003;
2.406666666666667E+009;1.951405704021454E-001;3.808853402733803E-002;-1.820284407585859E-003;1.478813122957945E-003;
2.406833333333334E+009;1.957823634147644E-001;3.811440989375114E-002;-1.717240083962679E-003;1.553077949211001E-003;
2.407000000000000E+009;1.958399266004562E-001;3.838011622428894E-002;-1.609771279618144E-003;1.377666834741831E-003;
2.407166666666667E+009;1.962489187717438E-001;3.802128136157990E-002;-1.869621686637402E-003;1.499931211583316E-003;
2.407333333333334E+009;1.962749809026718E-001;3.826967254281044E-002;-1.954566687345505E-003;1.409641583450139E-003;
2.407500000000000E+009;1.962560862302780E-001;3.819213807582855E-002;-1.937600784003735E-003;1.690304372459650E-003;
2.407666666666667E+009;1.961909234523773E-001;3.808983415365219E-002;-1.777599216438830E-003;1.684286049567163E-003;
2.407833333333334E+009;1.958711147308350E-001;3.793558478355408E-002;-1.615486340597272E-003;1.661555608734489E-003;
2.408000000000000E+009;1.957438737154007E-001;3.760597109794617E-002;-1.867024111561477E-003;1.615184126421809E-003;
2.408166666666667E+009;1.952194422483444E-001;3.731478750705719E-002;-1.924836076796055E-003;1.833903836086392E-003;
2.408333333333334E+009;1.947695910930634E-001;3.669219091534615E-002;-1.944191404618323E-003;1.907228142954409E-003;
2.408500000000000E+009;1.941149383783341E-001;3.631776943802834E-002;-1.916813664138317E-003;1.673122751526535E-003;
2.408666666666667E+009;1.933826953172684E-001;3.566340729594231E-002;-1.928015612065792E-003;2.004204317927361E-003;
2.408833333333334E+009;1.928252875804901E-001;3.498596698045731E-002;-1.922301249578595E-003;1.946957432664931E-003;
2.409000000000000E+009;1.918099820613861E-001;3.400955721735954E-002;-1.960931345820427E-003;2.122805221006274E-003;
2.409166666666667E+009;1.908706277608872E-001;3.294296562671661E-002;-1.915848231874406E-003;2.219967544078827E-003;
2.409333333333334E+009;1.899561583995819E-001;3.185053542256355E-002;-1.903534634038806E-003;2.203421434387565E-003;
2.409500000000000E+009;1.888091117143631E-001;3.044839948415756E-002;-1.986113609746099E-003;2.401836682111025E-003;
2.409666666666667E+009;1.879778206348419E-001;2.916303835809231E-002;-1.842365949414671E-003;2.522611524909735E-003;
2.409833333333334E+009;1.867973804473877E-001;2.761976420879364E-002;-1.908634905703366E-003;2.571183722466230E-003;
2.410000000000000E+009;1.859802156686783E-001;2.600492164492607E-002;-1.947560929693282E-003;2.732809167355299E-003;
2.410166666666667E+009;1.851187646389008E-001;2.408535033464432E-002;-1.931136939674616E-003;2.869427669793367E-003;
2.410333333333334E+009;1.840884983539581E-001;2.231969125568867E-002;-1.780453603714705E-003;3.122515976428986E-003;
2.410500000000000E+009;1.830562651157379E-001;2.032899111509323E-002;-1.692303339950740E-003;3.267206950113177E-003;
2.410666666666667E+009;1.822747588157654E-001;1.788882911205292E-002;-1.584235345944762E-003;3.384060459211469E-003;
2.410833333333334E+009;1.816862523555756E-001;1.590601541101933E-002;-1.329227117821574E-003;3.416351508349180E-003;
2.411000000000000E+009;1.809285581111908E-001;1.369001064449549E-002;-1.256721676327288E-003;3.706614021211863E-003;
2.411166666666667E+009;1.804006844758987E-001;1.146364118903875E-002;-1.069567166268826E-003;3.610953455790877E-003;
2.411333333333334E+009;1.798268556594849E-001;8.998517878353596E-003;-9.105470380745828E-004;3.639766247943044E-003;
2.411500000000000E+009;1.793387830257416E-001;6.627798080444336E-003;-6.892270757816732E-004;3.589767497032881E-003;
2.411666666666667E+009;1.790563911199570E-001;4.302776418626308E-003;-6.295567145571113E-004;3.879242343828082E-003;
2.411833333333334E+009;1.786689311265945E-001;1.917499816045165E-003;-4.242587601765990E-004;3.793981624767184E-003;
2.412000000000000E+009;1.788502931594849E-001;-6.419672281481326E-004;-2.386149863013998E-004;3.678078763186932E-003;
2.412166666666667E+009;1.789238601922989E-001;-2.912600990384817E-003;-7.732851372566074E-005;3.721690736711025E-003;
2.412333333333334E+009;1.791685074567795E-001;-5.500026978552342E-003;9.339163079857826E-005;3.653984051197767E-003;
2.412500000000000E+009;1.795778721570969E-001;-7.763904985040426E-003;3.051257226616144E-004;3.682678099721670E-003;
2.412666666666667E+009;1.800837665796280E-001;-1.020241528749466E-002;2.127460611518472E-004;3.493891563266516E-003;
2.412833333333334E+009;1.808677911758423E-001;-1.269926968961954E-002;5.266898078843951E-004;3.457658691331744E-003;
2.413000000000000E+009;1.814304739236832E-001;-1.494586095213890E-002;6.284111877903342E-004;3.544662380591035E-003;
2.413166666666667E+009;1.823106855154038E-001;-1.710279844701290E-002;6.258921930566430E-004;3.477906808257103E-003;
2.413333333333334E+009;1.832786798477173E-001;-1.960586756467819E-002;7.864566287025809E-004;3.241600934416056E-003;
2.413500000000000E+009;1.841438561677933E-001;-2.154700271785259E-002;7.673911168240011E-004;3.529255278408527E-003;
2.413666666666667E+009;1.853080838918686E-001;-2.382505871355534E-002;8.043375564739108E-004;3.324039047583938E-003;
2.413833333333334E+009;1.863568872213364E-001;-2.578740194439888E-002;9.929548250511289E-004;3.323687240481377E-003;
2.414000000000000E+009;1.874959319829941E-001;-2.780401334166527E-002;8.380076615139842E-004;3.193081356585026E-003;
2.414166666666667E+009;1.885950118303299E-001;-2.938172034919262E-002;1.173678669147193E-003;3.279730677604675E-003;
2.414333333333334E+009;1.896410137414932E-001;-3.146937489509583E-002;1.094573177397251E-003;3.264250466600061E-003;
2.414500000000000E+009;1.909252852201462E-001;-3.283765912055969E-002;1.169853261671960E-003;3.308732761070132E-003;
2.414666666666667E+009;1.919424682855606E-001;-3.422251343727112E-002;1.366012496873736E-003;3.166844602674246E-003;
2.414833333333334E+009;1.930260211229324E-001;-3.566321358084679E-002;1.525887171737850E-003;3.364842152222991E-003;
2.415000000000000E+009;1.942923814058304E-001;-3.693536296486855E-002;1.534911571070552E-003;3.202241146937013E-003;
2.415166666666667E+009;1.952753812074661E-001;-3.787580877542496E-002;1.595581881701946E-003;3.342321375384927E-003;
2.415333333333334E+009;1.965942382812500E-001;-3.888202831149101E-002;1.780607621185482E-003;3.146415576338768E-003;
2.415500000000000E+009;1.973831951618195E-001;-3.949191793799400E-002;1.824568025767803E-003;2.889466937631369E-003;
2.415666666666667E+009;1.985203474760056E-001;-4.039732366800308E-002;1.959161367267370E-003;2.925953362137079E-003;
2.415833333333334E+009;1.992821097373962E-001;-4.087562486529350E-002;1.902389456517994E-003;2.888406626880169E-003;
2.416000000000000E+009;2.000237554311752E-001;-4.158572480082512E-002;2.189424121752381E-003;2.836435800418258E-003;
2.416166666666667E+009;2.006707638502121E-001;-4.210481047630310E-002;2.115924376994371E-003;2.768340287730098E-003;
2.416333333333334E+009;2.012552618980408E-001;-4.230105131864548E-002;2.112043555825949E-003;2.726566046476364E-003;
2.416500000000000E+009;2.017762959003449E-001;-4.262855276465416E-002;2.329939277842641E-003;2.727103885263205E-003;
2.416666666666667E+009;2.019798904657364E-001;-4.295927286148071E-002;2.403046237304807E-003;2.742435084655881E-003;
2.416833333333334E+009;2.020558267831802E-001;-4.291957989335060E-002;2.558856504037976E-003;2.594719640910626E-003;
2.417000000000000E+009;2.020673304796219E-001;-4.318286478519440E-002;2.509699668735266E-003;2.665159059688449E-003;
2.417166666666667E+009;2.018782049417496E-001;-4.292106255888939E-002;2.739165211096406E-003;2.505553653463721E-003;
2.417333333333334E+009;2.015480399131775E-001;-4.284626245498657E-002;2.802957547828555E-003;2.555665327236056E-003;
2.417500000000000E+009;2.012272477149963E-001;-4.297407716512680E-002;2.929932903498411E-003;2.509262878447771E-003;
2.417666666666667E+009;2.006157189607620E-001;-4.276505112648010E-002;3.074718639254570E-003;2.376272343099117E-003;
2.417833333333334E+009;2.003261446952820E-001;-4.250074550509453E-002;3.116667736321688E-003;2.399289049208164E-003;
2.418000000000000E+009;1.995863914489746E-001;-4.235102236270905E-002;3.290728665888310E-003;2.258118940517306E-003;
2.418166666666667E+009;1.988206356763840E-001;-4.228928685188294E-002;3.345054807141423E-003;2.077997662127018E-003;
2.418333333333334E+009;1.977851092815399E-001;-4.212383553385735E-002;3.363391617313027E-003;1.994938356801868E-003;
2.418500000000000E+009;1.968378126621246E-001;-4.214891046285629E-002;3.677872009575367E-003;2.025261055678129E-003;
2.418666666666667E+009;1.958545744419098E-001;-4.211310297250748E-002;3.634145017713308E-003;1.717318897135556E-003;
2.418833333333334E+009;1.946862936019898E-001;-4.236472398042679E-002;3.649729071184993E-003;1.517121796496213E-003;
2.419000000000000E+009;1.932836621999741E-001;-4.263278469443321E-002;3.706716932356358E-003;1.478453399613500E-003;
2.419166666666667E+009;1.920843273401260E-001;-4.282983392477036E-002;3.655891632661223E-003;1.270344364456832E-003;
2.419333333333334E+009;1.906917095184326E-001;-4.341460391879082E-002;3.747717710211873E-003;1.320895156823099E-003;
2.419500000000000E+009;1.893291920423508E-001;-4.383388161659241E-002;3.794814459979534E-003;1.041998970322311E-003;
2.419666666666667E+009;1.876731514930725E-001;-4.469647631049156E-002;3.593678120523691E-003;9.602602804079652E-004;
2.419833333333334E+009;1.859897375106812E-001;-4.530945047736168E-002;3.619801485911012E-003;8.836507913656533E-004;
2.420000000000000E+009;1.846511512994766E-001;-4.621477797627449E-002;3.649809164926410E-003;6.379150436259806E-004;
2.420166666666667E+009;1.829696744680405E-001;-4.709491133689880E-002;3.543279599398375E-003;7.976377964951098E-004;
2.420333333333334E+009;1.814175695180893E-001;-4.832521453499794E-002;3.618583781644702E-003;7.377165020443499E-004;
2.420500000000000E+009;1.798246651887894E-001;-4.960810765624046E-002;3.627053229138255E-003;6.869318312965334E-004;
2.420666666666667E+009;1.782812476158142E-001;-5.079848691821098E-002;3.750345669686794E-003;5.982967559248209E-004;
2.420833333333334E+009;1.766146570444107E-001;-5.225608497858048E-002;3.809955902397633E-003;5.765344249084592E-004;
2.421000000000000E+009;1.750651448965073E-001;-5.388673394918442E-002;3.764092456549406E-003;3.702128014992923E-004;
2.421166666666667E+009;1.737691760063171E-001;-5.534307658672333E-002;3.915664274245501E-003;4.083290987182409E-004;
2.421333333333334E+009;1.722810715436935E-001;-5.705103278160095E-002;3.934309352189302E-003;1.753570541040972E-004;
2.421500000000000E+009;1.710140407085419E-001;-5.889769643545151E-002;4.130166955292225E-003;1.804731291485950E-004;
2.421666666666667E+009;1.698987483978272E-001;-6.073654815554619E-002;4.034772980958223E-003;-7.037188333924860E-005;
2.421833333333334E+009;1.686265617609024E-001;-6.256416440010071E-002;4.085033666342497E-003;-1.057862027664669E-004;
2.422000000000000E+009;1.676911711692810E-001;-6.435673683881760E-002;4.049479961395264E-003;-3.016230766661465E-004;
2.422166666666667E+009;1.667654961347580E-001;-6.650104373693466E-002;4.116132855415344E-003;-4.786777135450393E-004;
2.422333333333334E+009;1.657609641551971E-001;-6.856360286474228E-002;4.081405699253082E-003;-5.470691830851138E-004;
2.422500000000000E+009;1.650602072477341E-001;-7.042481005191803E-002;4.093831405043602E-003;-8.067065500654280E-004;
2.422666666666667E+009;1.643886715173721E-001;-7.233167439699173E-002;4.235747270286083E-003;-8.289404213428497E-004;
2.422833333333334E+009;1.638825833797455E-001;-7.428038120269775E-002;3.949691075831652E-003;-1.087579177692533E-003;
2.423000000000000E+009;1.633831113576889E-001;-7.644948363304138E-002;4.091111477464438E-003;-1.118008047342300E-003;
2.423166666666667E+009;1.630390286445618E-001;-7.834175229072571E-002;3.830944653600454E-003;-1.257158815860748E-003;
2.423333333333334E+009;1.628276258707047E-001;-8.028203994035721E-002;3.969679120928049E-003;-1.387783908285201E-003;
2.423500000000000E+009;1.627770662307739E-001;-8.194449543952942E-002;3.781859530135989E-003;-1.550859655253589E-003;
2.423666666666667E+009;1.627400368452072E-001;-8.382789045572281E-002;3.862843383103609E-003;-1.726670190691948E-003;
2.423833333333334E+009;1.627546399831772E-001;-8.554827421903610E-002;3.853480098769069E-003;-1.855222042649984E-003;
2.424000000000000E+009;1.627907305955887E-001;-8.732266724109650E-002;3.597721923142672E-003;-1.964269671589136E-003;
2.424166666666667E+009;1.628388017416000E-001;-8.875414729118347E-002;3.702396526932716E-003;-2.176595851778984E-003;
2.424333333333334E+009;1.631397306919098E-001;-9.010904282331467E-002;3.569882595911622E-003;-2.335990779101849E-003;
2.424500000000000E+009;1.634578704833984E-001;-9.196729958057404E-002;3.197604557499290E-003;-2.203176263719797E-003;
2.424666666666667E+009;1.638944596052170E-001;-9.325172007083893E-002;3.303132252767682E-003;-2.347385277971625E-003;
2.424833333333334E+009;1.643015146255493E-001;-9.442950040102005E-002;3.136208979412913E-003;-2.605633810162544E-003;
2.425000000000000E+009;1.646911054849625E-001;-9.562537074089050E-002;3.115523373708129E-003;-2.646311884745956E-003;
2.425166666666667E+009;1.650064140558243E-001;-9.664717316627502E-002;3.063239622861147E-003;-2.634499454870820E-003;
2.425333333333334E+009;1.653459370136261E-001;-9.768684208393097E-002;2.808345016092062E-003;-2.767871599644423E-003;
2.425500000000000E+009;1.657596528530121E-001;-9.866826236248016E-002;2.702867845073342E-003;-2.929425565525889E-003;
2.425666666666667E+009;1.660694479942322E-001;-9.916098415851593E-002;2.811002545058727E-003;-2.981854137033224E-003;
2.425833333333334E+009;1.664944440126419E-001;-1.001010388135910E-001;2.719213720411062E-003;-3.044593846425414E-003;
2.426000000000000E+009;1.668510735034943E-001;-1.004552692174912E-001;2.551573561504483E-003;-3.203979460522533E-003;
2.426166666666667E+009;1.671592593193054E-001;-1.010255888104439E-001;2.553259022533894E-003;-3.109517274424434E-003;
2.426333333333334E+009;1.672455519437790E-001;-1.014682725071907E-001;2.305562840774655E-003;-3.259229939430952E-003;
2.426500000000000E+009;1.676901727914810E-001;-1.017664596438408E-001;2.221231814473867E-003;-3.202105173841119E-003;
2.426666666666667E+009;1.678541153669357E-001;-1.020591631531715E-001;2.206728560850024E-003;-3.435080172494054E-003;
2.426833333333334E+009;1.682092994451523E-001;-1.023893877863884E-001;1.963021233677864E-003;-3.335114102810621E-003;
2.427000000000000E+009;1.681721657514572E-001;-1.025998294353485E-001;1.779349520802498E-003;-3.547156695276499E-003;
2.427166666666667E+009;1.681780815124512E-001;-1.026805713772774E-001;1.786368433386087E-003;-3.575654467567802E-003;
2.427333333333334E+009;1.680824756622315E-001;-1.030495688319206E-001;1.765643944963813E-003;-3.659168723970652E-003;
2.427500000000000E+009;1.677185893058777E-001;-1.032917350530624E-001;1.614053733646870E-003;-3.562403377145529E-003;
2.427666666666667E+009;1.674930900335312E-001;-1.033354699611664E-001;1.532681286334992E-003;-3.673997242003679E-003;
2.427833333333334E+009;1.671229302883148E-001;-1.034722849726677E-001;1.351449871435762E-003;-3.747856011614204E-003;
