# Version 1.00
#
freq[Hz];re:Trc1_S11;im:Trc1_S11;re:Trc2_S21;im:Trc2_S21;
2.400000000000000E+009;1.552140116691589E-001;1.065104454755783E-001;-2.796366577968001E-003;-4.920325591228902E-004;
2.400166666666667E+009;1.548764854669571E-001;1.040893793106079E-001;-2.746017649769783E-003;-3.716196515597403E-004;
2.400333333333334E+009;1.550312489271164E-001;1.018073186278343E-001;-2.652688184753060E-003;-1.759295118972659E-004;
2.400500000000000E+009;1.549006402492523E-001;9.926022589206696E-002;-2.603434259071946E-003;-1.715765538392589E-004;
2.400666666666667E+009;1.551187783479691E-001;9.669753909111023E-002;-2.512880600988865E-003;3.560151890269481E-005;
2.400833333333334E+009;1.551297605037689E-001;9.383653104305267E-002;-2.636370249092579E-003;-1.768280635587871E-004;
2.401000000000000E+009;1.552918255329132E-001;9.098543971776962E-002;-2.439222997054458E-003;-1.355181448161602E-004;
2.401166666666667E+009;1.555240154266357E-001;8.830595016479492E-002;-2.426804974675179E-003;-1.334695843979716E-004;
2.401333333333334E+009;1.560425311326981E-001;8.566325902938843E-002;-2.423682017251849E-003;-1.082634480553679E-004;
2.401500000000000E+009;1.563763916492462E-001;8.261365443468094E-002;-2.403058111667633E-003;-9.640939242672175E-005;
2.401666666666667E+009;1.567494720220566E-001;7.994722574949265E-002;-2.370294416323304E-003;2.731015956669580E-005;
2.401833333333334E+009;1.572839468717575E-001;7.720826566219330E-002;-2.365470165386796E-003;-9.260726801585406E-005;
2.402000000000000E+009;1.583373099565506E-001;7.443909347057343E-002;-2.391378628090024E-003;5.611011511064135E-005;
2.402166666666667E+009;1.591958850622177E-001;7.195349037647247E-002;-2.335268771275878E-003;7.353007094934583E-005;
2.402333333333334E+009;1.599708646535873E-001;6.929406523704529E-002;-2.446119906380773E-003;1.100592344300821E-004;
2.402500000000000E+009;1.612018644809723E-001;6.674110889434815E-002;-2.430528402328491E-003;1.821386686060578E-004;
2.402666666666667E+009;1.622778475284576E-001;6.460145115852356E-002;-2.450761152431369E-003;2.300996857229620E-004;
2.402833333333334E+009;1.635783612728119E-001;6.195591762661934E-002;-2.456262009218335E-003;2.079547120956704E-004;
2.403000000000000E+009;1.652061343193054E-001;5.966846644878388E-002;-2.321275416761637E-003;1.834412105381489E-004;
2.403166666666667E+009;1.668275445699692E-001;5.763361230492592E-002;-2.356271725147963E-003;1.544625411042944E-004;
2.403333333333334E+009;1.680612713098526E-001;5.542443692684174E-002;-2.552838064730167E-003;3.204946115147322E-004;
2.403500000000000E+009;1.700367182493210E-001;5.351422727108002E-002;-2.466846955940127E-003;4.312705132178962E-004;
2.403666666666667E+009;1.717140376567841E-001;5.162649601697922E-002;-2.548850141465664E-003;4.955314216203988E-004;
2.403833333333334E+009;1.734182834625244E-001;4.967201501131058E-002;-2.484056400135160E-003;5.491342744790018E-004;
2.404000000000000E+009;1.747876405715942E-001;4.804094135761261E-002;-2.606369322165847E-003;6.268759607337415E-004;
2.404166666666667E+009;1.764318197965622E-001;4.642459005117416E-002;-2.578559797257185E-003;8.994798408821225E-004;
2.404333333333334E+009;1.781035065650940E-001;4.501445963978767E-002;-2.557911677286029E-003;9.094343404285610E-004;
2.404500000000000E+009;1.797911524772644E-001;4.362918063998222E-002;-2.451586304232478E-003;1.047175377607346E-003;
2.404666666666667E+009;1.812031865119934E-001;4.266138747334480E-002;-2.522035269066691E-003;1.151001197285950E-003;
2.404833333333334E+009;1.830019354820252E-001;4.134152084589005E-002;-2.285592257976532E-003;1.239066594280303E-003;
2.405000000000000E+009;1.842849999666214E-001;4.083472862839699E-002;-2.278207335621119E-003;1.390696386806667E-003;
2.405166666666667E+009;1.858127415180206E-001;4.011521488428116E-002;-2.120982389897108E-003;1.457872567698360E-003;
2.405333333333334E+009;1.870884597301483E-001;3.967400267720223E-002;-1.975166611373425E-003;1.443103887140751E-003;
2.405500000000000E+009;1.885706484317780E-001;3.905094414949417E-002;-2.112233778461814E-003;1.585771213285625E-003;
2.405666666666667E+009;1.897793859243393E-001;3.875042870640755E-002;-1.861154451034963E-003;1.320662326179445E-003;
2.405833333333334E+009;1.910532116889954E-001;3.835137188434601E-002;-1.934066996909678E-003;1.417520688846707E-003;
2.406000000000000E+009;1.919790953397751E-001;3.820132464170456E-002;-1.822478719986975E-003;1.399506349116564E-003;
2.406166666666667E+009;1.930100768804550E-001;3.811420500278473E-002;-1.908946665935218E-003;1.450747717171907E-003;
2.406333333333334E+009;1.938671916723251E-001;3.809700161218643E-002;-1.775612472556531E-003;1.276154769584537E-003;
2.406500000000000E+009;1.947432160377502E-001;3.808907419443131E-002;-1.674287253990769E-003;1.375896739773452E-003;
2.406666666666667E+009;1.952475160360336E-001;3.803721442818642E-002;-1.727278809994459E-003;1.279829768463969E-003;
2.406833333333334E+009;1.958715319633484E-001;3.807149454951286E-002;-1.782057108357549E-003;1.316945534199476E-003;
2.407000000000000E+009;1.960760056972504E-001;3.815940394997597E-002;-1.790565554983914E-003;1.602723845280707E-003;
2.407166666666667E+009;1.964221745729446E-001;3.788040950894356E-002;-1.725457259453833E-003;1.370959565974772E-003;
2.407333333333334E+009;1.964290887117386E-001;3.800997138023377E-002;-1.782305771484971E-003;1.592674641869962E-003;
2.407500000000000E+009;1.964073479175568E-001;3.802543133497238E-002;-1.925193937495351E-003;1.477869809605181E-003;
2.407666666666667E+009;1.963865756988525E-001;3.788584843277931E-002;-1.718875020742416E-003;1.455650082789362E-003;
2.407833333333334E+009;1.959379762411118E-001;3.777911141514778E-002;-2.032004995271564E-003;1.583337434567511E-003;
2.408000000000000E+009;1.958173364400864E-001;3.754141181707382E-002;-1.927995122969151E-003;1.552914269268513E-003;
2.408166666666667E+009;1.952617168426514E-001;3.714164718985558E-002;-1.778881065547466E-003;1.549014938063920E-003;
2.408333333333334E+009;1.948048025369644E-001;3.666659444570541E-002;-1.955729909241200E-003;1.661488553509116E-003;
2.408500000000000E+009;1.941091716289520E-001;3.617267310619354E-002;-1.948502031154931E-003;1.799012417905033E-003;
2.408666666666667E+009;1.935091018676758E-001;3.554648160934448E-002;-1.884582801721990E-003;1.824434497393668E-003;
2.408833333333334E+009;1.928429454565048E-001;3.486191481351852E-002;-1.937584951519966E-003;1.846083090640605E-003;
2.409000000000000E+009;1.919191032648087E-001;3.377128019928932E-002;-2.045543165877461E-003;1.909014885313809E-003;
2.409166666666667E+009;1.909629106521606E-001;3.271278738975525E-002;-2.032914431765676E-003;2.049359725788236E-003;
2.409333333333334E+009;1.901054382324219E-001;3.166393563151360E-002;-2.004372421652079E-003;2.130277687683702E-003;
2.409500000000000E+009;1.889195442199707E-001;3.043033741414547E-002;-2.068242290988565E-003;2.359532983973622E-003;
2.409666666666667E+009;1.880714744329453E-001;2.890056744217873E-002;-1.958511769771576E-003;2.373510738834739E-003;
2.409833333333334E+009;1.868916451931000E-001;2.739476971328259E-002;-2.010645112022758E-003;2.578861080110073E-003;
2.410000000000000E+009;1.859737038612366E-001;2.574331127107143E-002;-1.985348528251052E-003;2.630909672006965E-003;
2.410166666666667E+009;1.849929094314575E-001;2.352452650666237E-002;-1.908172736875713E-003;2.841572277247906E-003;
2.410333333333334E+009;1.838987320661545E-001;2.212383784353733E-002;-1.747268368490040E-003;3.078974550589919E-003;
2.410500000000000E+009;1.830113381147385E-001;2.013363316655159E-002;-1.781572704203427E-003;3.066884586587548E-003;
2.410666666666667E+009;1.822763979434967E-001;1.793389581143856E-002;-1.612153020687401E-003;3.313332796096802E-003;
2.410833333333334E+009;1.814758181571960E-001;1.565779000520706E-002;-1.409556949511170E-003;3.332983935251832E-003;
2.411000000000000E+009;1.806602776050568E-001;1.349189784377813E-002;-1.324046053923667E-003;3.369207959622145E-003;
2.411166666666667E+009;1.800941228866577E-001;1.132031995803118E-002;-1.261534634977579E-003;3.555193776264787E-003;
2.411333333333334E+009;1.797221750020981E-001;8.690229617059231E-003;-9.163162903860211E-004;3.605579258874059E-003;
2.411500000000000E+009;1.790915727615356E-001;6.424425169825554E-003;-7.812597323209047E-004;3.541097976267338E-003;
2.411666666666667E+009;1.790380924940109E-001;4.176650661975145E-003;-5.788514390587807E-004;3.581052878871560E-003;
2.411833333333334E+009;1.787023246288300E-001;1.761370804160833E-003;-5.843236576765776E-004;3.736050100997090E-003;
2.412000000000000E+009;1.789219677448273E-001;-8.653165423311293E-004;-3.069096710532904E-004;3.726708469912410E-003;
2.412166666666667E+009;1.789336055517197E-001;-3.154190955683589E-003;-2.287319512106478E-004;3.499008016660810E-003;
2.412333333333334E+009;1.791049391031265E-001;-5.465145688503981E-003;-1.161384789156728E-004;3.754613222554326E-003;
2.412500000000000E+009;1.794391274452210E-001;-7.972975261509419E-003;1.613425265531987E-004;3.519342746585608E-003;
2.412666666666667E+009;1.799446940422058E-001;-1.031715981662273E-002;3.639825445134193E-004;3.713254583999515E-003;
2.412833333333334E+009;1.807325184345245E-001;-1.280080154538155E-002;4.839167522732168E-004;3.595365444198251E-003;
2.413000000000000E+009;1.814605742692947E-001;-1.510614156723023E-002;5.375358741730452E-004;3.518101293593645E-003;
2.413166666666667E+009;1.821739971637726E-001;-1.713880710303783E-002;4.943726817145944E-004;3.464143490418792E-003;
2.413333333333334E+009;1.831927150487900E-001;-1.958815008401871E-002;5.143689340911806E-004;3.385100746527314E-003;
2.413500000000000E+009;1.840272247791290E-001;-2.165072783827782E-002;7.012448622845113E-004;3.291606903076172E-003;
2.413666666666667E+009;1.851981431245804E-001;-2.376390062272549E-002;7.910655695013702E-004;3.216105047613382E-003;
2.413833333333334E+009;1.862314194440842E-001;-2.577973157167435E-002;8.254317217506468E-004;3.323169192299247E-003;
2.414000000000000E+009;1.872967779636383E-001;-2.783082798123360E-002;8.822964155115187E-004;3.192226635292172E-003;
2.414166666666667E+009;1.885662674903870E-001;-2.953006327152252E-002;9.683159878477454E-004;3.335749963298440E-003;
2.414333333333334E+009;1.895348727703095E-001;-3.150621429085732E-002;8.553864900022745E-004;3.296125680208206E-003;
2.414500000000000E+009;1.907753050327301E-001;-3.299150615930557E-002;1.197081524878740E-003;3.289990359917283E-003;
2.414666666666667E+009;1.919994205236435E-001;-3.439758345484734E-002;1.230342546477914E-003;3.279885742813349E-003;
2.414833333333334E+009;1.929577887058258E-001;-3.569791838526726E-002;1.392713165841997E-003;3.212097799405456E-003;
2.415000000000000E+009;1.941553056240082E-001;-3.696798160672188E-002;1.513495109975338E-003;3.193500218912959E-003;
2.415166666666667E+009;1.953159421682358E-001;-3.817687928676605E-002;1.451651449315250E-003;3.057452151551843E-003;
2.415333333333334E+009;1.963917762041092E-001;-3.898795694112778E-002;1.706060487776995E-003;3.079713322222233E-003;
2.415500000000000E+009;1.973396986722946E-001;-3.964798897504807E-002;1.817839569412172E-003;3.062782110646367E-003;
2.415666666666667E+009;1.983884274959564E-001;-4.042676463723183E-002;2.003067173063755E-003;2.928159432485700E-003;
2.415833333333334E+009;1.991811096668243E-001;-4.110268875956535E-002;2.005707938224077E-003;2.984528196975589E-003;
2.416000000000000E+009;1.998809278011322E-001;-4.165304452180862E-002;2.062908839434385E-003;2.852328820154071E-003;
2.416166666666667E+009;2.004856765270233E-001;-4.220111668109894E-002;1.982760615646839E-003;2.862150780856609E-003;
2.416333333333334E+009;2.010956555604935E-001;-4.248572513461113E-002;2.160863019526005E-003;2.739717718213797E-003;
2.416500000000000E+009;2.016005516052246E-001;-4.261523857712746E-002;2.232857747003436E-003;2.762882737442851E-003;
2.416666666666667E+009;2.018304467201233E-001;-4.304458573460579E-002;2.220721915364265E-003;2.673387760296464E-003;
2.416833333333334E+009;2.019122540950775E-001;-4.302937909960747E-002;2.482063136994839E-003;2.730940934270620E-003;
2.417000000000000E+009;2.020160108804703E-001;-4.317831993103027E-002;2.393143484368920E-003;2.661185804754496E-003;
2.417166666666667E+009;2.016420066356659E-001;-4.312736541032791E-002;2.448258688673377E-003;2.637893194332719E-003;
2.417333333333334E+009;2.014326006174088E-001;-4.289120435714722E-002;2.696044277399778E-003;2.560254419222474E-003;
2.417500000000000E+009;2.010547965764999E-001;-4.298552125692368E-002;2.842622576281428E-003;2.428802428767085E-003;
2.417666666666667E+009;2.005610615015030E-001;-4.280598089098930E-002;2.828894881531596E-003;2.479118527844548E-003;
2.417833333333334E+009;2.000985443592072E-001;-4.264515638351440E-002;3.066886914893985E-003;2.479976275935769E-003;
2.418000000000000E+009;1.994345635175705E-001;-4.231921210885048E-002;3.215991891920567E-003;2.251244848594070E-003;
2.418166666666667E+009;1.985650807619095E-001;-4.233945161104202E-002;3.324432065710425E-003;2.256329404190183E-003;
2.418333333333334E+009;1.976083219051361E-001;-4.218194633722305E-002;3.404409158974886E-003;2.043948043137789E-003;
2.418500000000000E+009;1.966166794300079E-001;-4.220191761851311E-002;3.476973157376051E-003;1.936068991199136E-003;
2.418666666666667E+009;1.957705467939377E-001;-4.203611612319946E-002;3.632273990660906E-003;1.800151192583144E-003;
2.418833333333334E+009;1.945020705461502E-001;-4.229071363806725E-002;3.478446509689093E-003;1.626921119168401E-003;
2.419000000000000E+009;1.931352019309998E-001;-4.245957359671593E-002;3.546115010976791E-003;1.407022820785642E-003;
2.419166666666667E+009;1.919957697391510E-001;-4.286224022507668E-002;3.643769770860672E-003;1.446812995709479E-003;
2.419333333333334E+009;1.905837208032608E-001;-4.328577965497971E-002;3.540850244462490E-003;1.055243192240596E-003;
2.419500000000000E+009;1.890742480754852E-001;-4.382599517703056E-002;3.483532927930355E-003;1.166702713817358E-003;
2.419666666666667E+009;1.875380277633667E-001;-4.463550075888634E-002;3.667129436507821E-003;9.965018834918737E-004;
2.419833333333334E+009;1.859998404979706E-001;-4.528906196355820E-002;3.653934458270669E-003;8.815866312943399E-004;
2.420000000000000E+009;1.844702810049057E-001;-4.601172730326653E-002;3.407951910048723E-003;8.684502099640667E-004;
2.420166666666667E+009;1.828571110963821E-001;-4.711496829986572E-002;3.494702279567719E-003;7.436068262904882E-004;
2.420333333333334E+009;1.814202070236206E-001;-4.834423214197159E-002;3.593151690438390E-003;7.489699637517333E-004;
2.420500000000000E+009;1.797754317522049E-001;-4.970224946737289E-002;3.610643791034818E-003;6.927495123818517E-004;
2.420666666666667E+009;1.782913058996201E-001;-5.063787102699280E-002;3.605211386457086E-003;8.129376801662147E-004;
2.420833333333334E+009;1.765083521604538E-001;-5.223327502608299E-002;3.644201438874006E-003;6.518138688988984E-004;
2.421000000000000E+009;1.751082986593247E-001;-5.371303483843803E-002;3.637664485722780E-003;5.902160773985088E-004;
2.421166666666667E+009;1.738030016422272E-001;-5.540651828050613E-002;3.921893890947104E-003;5.174492252990603E-004;
2.421333333333334E+009;1.721185296773911E-001;-5.690133199095726E-002;3.975611645728350E-003;4.241076239850372E-004;
2.421500000000000E+009;1.708979010581970E-001;-5.891904607415199E-002;3.946606535464525E-003;2.567876072134823E-004;
2.421666666666667E+009;1.696400791406632E-001;-6.054112687706947E-002;3.941850736737251E-003;1.824862702051178E-004;
2.421833333333334E+009;1.686428189277649E-001;-6.256409734487534E-002;3.977961372584105E-003;-1.037942784023471E-004;
2.422000000000000E+009;1.675873845815659E-001;-6.433083117008209E-002;4.052531439810991E-003;-7.356286369031295E-005;
2.422166666666667E+009;1.666811555624008E-001;-6.632180511951447E-002;4.103514831513166E-003;-2.001900284085423E-004;
2.422333333333334E+009;1.657201349735260E-001;-6.836230307817459E-002;4.197432659566402E-003;-4.168335581198335E-004;
2.422500000000000E+009;1.648834347724915E-001;-7.020486891269684E-002;4.168654792010784E-003;-6.710644811391830E-004;
2.422666666666667E+009;1.641562581062317E-001;-7.233612984418869E-002;3.960760310292244E-003;-7.357206777669489E-004;
2.422833333333334E+009;1.638875752687454E-001;-7.417854666709900E-002;4.063114058226347E-003;-7.983646937645972E-004;
2.423000000000000E+009;1.632980108261108E-001;-7.635455578565598E-002;3.934260457754135E-003;-9.867877233773470E-004;
2.423166666666667E+009;1.630704402923584E-001;-7.814473658800125E-002;3.931396640837193E-003;-1.176072750240564E-003;
2.423333333333334E+009;1.628440320491791E-001;-8.001722395420075E-002;3.993360791355372E-003;-1.254107803106308E-003;
2.423500000000000E+009;1.627904474735260E-001;-8.185346424579620E-002;3.886669175699353E-003;-1.456442056223750E-003;
2.423666666666667E+009;1.625721305608749E-001;-8.369518816471100E-002;3.884766250848770E-003;-1.522172125987709E-003;
2.423833333333334E+009;1.625405400991440E-001;-8.541754633188248E-002;3.686909796670079E-003;-1.779429963789880E-003;
2.424000000000000E+009;1.626208871603012E-001;-8.719757944345474E-002;3.609164385125041E-003;-1.898273243568838E-003;
2.424166666666667E+009;1.628354787826538E-001;-8.863536268472672E-002;3.605338279157877E-003;-1.827245461754501E-003;
2.424333333333334E+009;1.631728410720825E-001;-9.017616510391235E-002;3.548419568687677E-003;-2.071466995403171E-003;
2.424500000000000E+009;1.635898053646088E-001;-9.186200797557831E-002;3.470845753327012E-003;-2.287349198013544E-003;
2.424666666666667E+009;1.637221127748489E-001;-9.309516102075577E-002;3.258614568039775E-003;-2.301227068528533E-003;
2.424833333333334E+009;1.643385291099548E-001;-9.442978352308273E-002;3.287124680355191E-003;-2.453538123518229E-003;
2.425000000000000E+009;1.645663678646088E-001;-9.556298702955246E-002;3.082947339862585E-003;-2.435550792142749E-003;
2.425166666666667E+009;1.649644672870636E-001;-9.660943597555161E-002;3.110732417553663E-003;-2.466619247570634E-003;
2.425333333333334E+009;1.652054190635681E-001;-9.759917855262756E-002;3.068798920139670E-003;-2.746375976130366E-003;
2.425500000000000E+009;1.656617671251297E-001;-9.843180328607559E-002;2.964570885524154E-003;-2.894690493121743E-003;
2.425666666666667E+009;1.661309748888016E-001;-9.915232658386231E-002;2.860420383512974E-003;-3.021512879058719E-003;
2.425833333333334E+009;1.663601547479630E-001;-9.996115416288376E-002;2.857515355572105E-003;-3.040886484086514E-003;
2.426000000000000E+009;1.668880134820938E-001;-1.003636568784714E-001;2.600839361548424E-003;-3.190023126080632E-003;
2.426166666666667E+009;1.672131121158600E-001;-1.009916141629219E-001;2.727219834923744E-003;-3.065799130126834E-003;
2.426333333333334E+009;1.673024743795395E-001;-1.015161499381065E-001;2.559065120294690E-003;-3.219692502170801E-003;
2.426500000000000E+009;1.676453500986099E-001;-1.017884090542793E-001;2.468828344717622E-003;-3.222387749701738E-003;
2.426666666666667E+009;1.679147332906723E-001;-1.020020842552185E-001;2.335675060749054E-003;-3.282151883468032E-003;
2.426833333333334E+009;1.681272089481354E-001;-1.023758202791214E-001;2.247851109132171E-003;-3.324684454128146E-003;
2.427000000000000E+009;1.680613309144974E-001;-1.025123298168182E-001;2.010475611314178E-003;-3.418374806642532E-003;
2.427166666666667E+009;1.681659966707230E-001;-1.026635840535164E-001;1.970829209312797E-003;-3.517244476824999E-003;
2.427333333333334E+009;1.679911017417908E-001;-1.029679477214813E-001;1.840675249695778E-003;-3.585456637665629E-003;
2.427500000000000E+009;1.677370071411133E-001;-1.031954959034920E-001;1.754360506311059E-003;-3.613951615989208E-003;
2.427666666666667E+009;1.673703789710999E-001;-1.033109650015831E-001;1.564445788972080E-003;-3.689717035740614E-003;
2.427833333333334E+009;1.668758243322372E-001;-1.034285873174667E-001;1.551483524963260E-003;-3.602002514526248E-003;
