# Version 1.00
#
freq[Hz];re:Trc1_S11;im:Trc1_S11;re:Trc2_S21;im:Trc2_S21;
2.400000000000000E+009;1.551907509565353E-001;1.065461188554764E-001;-2.894375007599592E-003;-4.616041260305792E-004;
2.400166666666667E+009;1.547719538211823E-001;1.042166799306870E-001;-2.913462463766336E-003;-2.642273611854762E-004;
2.400333333333334E+009;1.549476832151413E-001;1.018741801381111E-001;-2.747023478150368E-003;-1.489406567998231E-004;
2.400500000000000E+009;1.548383533954620E-001;9.930866211652756E-002;-2.634685020893812E-003;-2.383276296313852E-004;
2.400666666666667E+009;1.550963670015335E-001;9.665229171514511E-002;-2.503097523003817E-003;-1.996366045204923E-004;
2.400833333333334E+009;1.549692898988724E-001;9.379553049802780E-002;-2.433246932923794E-003;-1.115847408073023E-005;
2.401000000000000E+009;1.552601307630539E-001;9.102991968393326E-002;-2.319171326234937E-003;-1.327089121332392E-004;
2.401166666666667E+009;1.555293798446655E-001;8.826152235269547E-002;-2.525267656892538E-003;-1.174173376057297E-004;
2.401333333333334E+009;1.558589637279511E-001;8.578031510114670E-002;-2.517660846933723E-003;3.238185399823124E-007;
2.401500000000000E+009;1.562516391277313E-001;8.274294435977936E-002;-2.429112792015076E-003;-1.328748330706731E-004;
2.401666666666667E+009;1.566398590803146E-001;7.989636808633804E-002;-2.459832001477480E-003;7.396883302135393E-005;
2.401833333333334E+009;1.571660637855530E-001;7.720654457807541E-002;-2.447100123390555E-003;9.811278869165108E-005;
2.402000000000000E+009;1.580446064472199E-001;7.455700635910034E-002;-2.416992792859674E-003;1.105763803934678E-004;
2.402166666666667E+009;1.588529497385025E-001;7.207016646862030E-002;-2.474900335073471E-003;1.505570544395596E-004;
2.402333333333334E+009;1.599933654069901E-001;6.940334290266037E-002;-2.412497997283936E-003;1.787902001524344E-004;
2.402500000000000E+009;1.611256897449493E-001;6.693201512098312E-002;-2.306588226929307E-003;1.863364595919848E-004;
2.402666666666667E+009;1.622162908315659E-001;6.457841396331787E-002;-2.453247550874949E-003;3.608597326092422E-004;
2.402833333333334E+009;1.635441184043884E-001;6.211443990468979E-002;-2.462303265929222E-003;2.598894061520696E-004;
2.403000000000000E+009;1.649276614189148E-001;5.970494821667671E-002;-2.375151962041855E-003;2.481017727404833E-004;
2.403166666666667E+009;1.666708290576935E-001;5.766845494508743E-002;-2.488480182364583E-003;2.694373542908579E-004;
2.403333333333334E+009;1.679915189743042E-001;5.560628324747086E-002;-2.592480974271894E-003;4.925854736939073E-004;
2.403500000000000E+009;1.699772626161575E-001;5.345774814486504E-002;-2.625258639454842E-003;5.018168594688177E-004;
2.403666666666667E+009;1.715375483036041E-001;5.156396329402924E-002;-2.708366373553872E-003;4.207012825645506E-004;
2.403833333333334E+009;1.733605861663818E-001;4.977865517139435E-002;-2.600909676402807E-003;6.438812706619501E-004;
2.404000000000000E+009;1.745689362287521E-001;4.794139787554741E-002;-2.707841573283076E-003;6.201220094226301E-004;
2.404166666666667E+009;1.766221076250076E-001;4.648108780384064E-002;-2.669185632839799E-003;8.502556011080742E-004;
2.404333333333334E+009;1.780779510736466E-001;4.510548338294029E-002;-2.559247193858028E-003;9.849949274212122E-004;
2.404500000000000E+009;1.796036660671234E-001;4.349804669618607E-002;-2.551224315539002E-003;1.083756214939058E-003;
2.404666666666667E+009;1.813104152679443E-001;4.262921586632729E-002;-2.541689667850733E-003;1.208085217513144E-003;
2.404833333333334E+009;1.828726530075073E-001;4.148244857788086E-002;-2.600303385406733E-003;1.162771368399262E-003;
2.405000000000000E+009;1.842399686574936E-001;4.090660437941551E-002;-2.446241211146116E-003;1.371201127767563E-003;
2.405166666666667E+009;1.857287287712097E-001;4.003654792904854E-002;-2.283982699736953E-003;1.538382959552109E-003;
2.405333333333334E+009;1.871037036180496E-001;3.962318971753120E-002;-2.098765689879656E-003;1.435845508240163E-003;
2.405500000000000E+009;1.884457170963287E-001;3.910470753908157E-002;-2.125993603840470E-003;1.437381841242313E-003;
2.405666666666667E+009;1.897380650043488E-001;3.873572871088982E-002;-2.061857841908932E-003;1.461272942833602E-003;
2.405833333333334E+009;1.907884031534195E-001;3.844875097274780E-002;-1.873900997452438E-003;1.547603751532733E-003;
2.406000000000000E+009;1.919405460357666E-001;3.828450292348862E-002;-1.799561898224056E-003;1.485285349190235E-003;
2.406166666666667E+009;1.928633749485016E-001;3.816314414143562E-002;-1.863841782324016E-003;1.552230445668101E-003;
2.406333333333334E+009;1.939669251441956E-001;3.808179497718811E-002;-1.671218778938055E-003;1.464855740778148E-003;
2.406500000000000E+009;1.944872140884399E-001;3.807074949145317E-002;-1.684209099039435E-003;1.501773833297193E-003;
2.406666666666667E+009;1.952991932630539E-001;3.814072161912918E-002;-1.785341766662896E-003;1.641782349906862E-003;
2.406833333333334E+009;1.957100480794907E-001;3.814572468400002E-002;-1.660751528106630E-003;1.536387600935996E-003;
2.407000000000000E+009;1.959613859653473E-001;3.827793896198273E-002;-1.765036722645164E-003;1.532939961180091E-003;
2.407166666666667E+009;1.964153051376343E-001;3.814208135008812E-002;-1.844628830440342E-003;1.496517099440098E-003;
2.407333333333334E+009;1.963509768247604E-001;3.816272690892220E-002;-1.843173638917506E-003;1.488151727244258E-003;
2.407500000000000E+009;1.961703747510910E-001;3.818547353148460E-002;-1.851205364800990E-003;1.604388235136867E-003;
2.407666666666667E+009;1.962702125310898E-001;3.804789111018181E-002;-1.884867087937892E-003;1.572235254570842E-003;
2.407833333333334E+009;1.958065330982208E-001;3.791202977299690E-002;-1.867552520707250E-003;1.636929693631828E-003;
2.408000000000000E+009;1.957355439662933E-001;3.775308281183243E-002;-1.858078641816974E-003;1.478480175137520E-003;
2.408166666666667E+009;1.952132582664490E-001;3.730791807174683E-002;-2.082105027511716E-003;1.731159863993526E-003;
2.408333333333334E+009;1.947399377822876E-001;3.676543757319450E-002;-1.783238956704736E-003;1.797592616640031E-003;
2.408500000000000E+009;1.941723376512528E-001;3.632883355021477E-002;-1.809661393053830E-003;2.031574957072735E-003;
2.408666666666667E+009;1.935013532638550E-001;3.590664267539978E-002;-1.975372433662415E-003;1.880804891698062E-003;
2.408833333333334E+009;1.927122175693512E-001;3.500583022832871E-002;-2.108940854668617E-003;1.955867512151599E-003;
2.409000000000000E+009;1.918478161096573E-001;3.400189802050591E-002;-1.893886015750468E-003;1.973461126908660E-003;
2.409166666666667E+009;1.909195780754089E-001;3.301820158958435E-002;-2.013967838138342E-003;2.150475513190031E-003;
2.409333333333334E+009;1.900828480720520E-001;3.201173618435860E-002;-1.988758565858007E-003;2.260371576994658E-003;
2.409500000000000E+009;1.889335960149765E-001;3.055638819932938E-002;-2.008599461987615E-003;2.222469309344888E-003;
2.409666666666667E+009;1.878734827041626E-001;2.911560796201229E-002;-1.938196597620845E-003;2.420634729787707E-003;
2.409833333333334E+009;1.868905574083328E-001;2.765612490475178E-002;-2.028678776696324E-003;2.723104087635875E-003;
2.410000000000000E+009;1.860719174146652E-001;2.603532932698727E-002;-1.864810008555651E-003;2.747531747445464E-003;
2.410166666666667E+009;1.850283890962601E-001;2.407643385231495E-002;-1.716730301268399E-003;2.861747751012445E-003;
2.410333333333334E+009;1.841043233871460E-001;2.249051630496979E-002;-1.649490790441632E-003;3.138715168461204E-003;
2.410500000000000E+009;1.830861568450928E-001;2.050714567303658E-002;-1.625660806894302E-003;3.265715669840574E-003;
2.410666666666667E+009;1.824155598878861E-001;1.814169064164162E-002;-1.437037601135671E-003;3.297323826700449E-003;
2.410833333333334E+009;1.815381795167923E-001;1.589698903262615E-002;-1.338027417659760E-003;3.447182709351182E-003;
2.411000000000000E+009;1.808655560016632E-001;1.379197277128696E-002;-1.152933691628277E-003;3.429416567087174E-003;
2.411166666666667E+009;1.802544891834259E-001;1.152772083878517E-002;-9.902695892378688E-004;3.505429020151496E-003;
2.411333333333334E+009;1.796177774667740E-001;8.946058340370655E-003;-8.003757102414966E-004;3.517458913847804E-003;
2.411500000000000E+009;1.793022453784943E-001;6.583295762538910E-003;-6.237880443222821E-004;3.713717218488455E-003;
2.411666666666667E+009;1.791540235280991E-001;4.274177365005016E-003;-5.991162615828216E-004;3.834928153082728E-003;
2.411833333333334E+009;1.788982003927231E-001;1.822917372919619E-003;-4.750226507894695E-004;3.763883374631405E-003;
2.412000000000000E+009;1.789179146289825E-001;-7.625111029483378E-004;-2.539735287427902E-004;3.893529297783971E-003;
2.412166666666667E+009;1.790477633476257E-001;-3.004693426191807E-003;-4.630420517059974E-005;3.593483008444309E-003;
2.412333333333334E+009;1.792117506265640E-001;-5.575167015194893E-003;1.732971140882000E-004;3.758786246180534E-003;
2.412500000000000E+009;1.796039044857025E-001;-7.794948294758797E-003;1.946584379766136E-004;3.773539094254375E-003;
2.412666666666667E+009;1.801280379295349E-001;-1.024947781115770E-002;2.713509020395577E-004;3.598918439820409E-003;
2.412833333333334E+009;1.807184219360352E-001;-1.282893121242523E-002;4.318414430599660E-004;3.631333587691188E-003;
2.413000000000000E+009;1.814485937356949E-001;-1.488376408815384E-002;6.051536183804274E-004;3.370472462847829E-003;
2.413166666666667E+009;1.823029965162277E-001;-1.712691225111485E-002;5.750061245635152E-004;3.510458394885063E-003;
2.413333333333334E+009;1.832222044467926E-001;-1.929799467325211E-002;6.789251347072423E-004;3.478770842775703E-003;
2.413500000000000E+009;1.842001825571060E-001;-2.162846550345421E-002;7.300188881345093E-004;3.276297589763999E-003;
2.413666666666667E+009;1.851253658533096E-001;-2.378983236849308E-002;9.339143871329725E-004;3.451029770076275E-003;
2.413833333333334E+009;1.862633824348450E-001;-2.557845599949360E-002;8.659391314722598E-004;3.347932593896985E-003;
2.414000000000000E+009;1.874065548181534E-001;-2.777971141040325E-002;8.903593407012522E-004;3.216605866327882E-003;
2.414166666666667E+009;1.885701119899750E-001;-2.945818938314915E-002;1.107602380216122E-003;3.230405272915959E-003;
2.414333333333334E+009;1.898059993982315E-001;-3.133239224553108E-002;1.250707777217031E-003;3.155424259603024E-003;
2.414500000000000E+009;1.908636391162872E-001;-3.273937478661537E-002;1.224752515554428E-003;3.197257407009602E-003;
2.414666666666667E+009;1.919182091951370E-001;-3.421904146671295E-002;1.404613023623824E-003;3.124262439087033E-003;
2.414833333333334E+009;1.930830776691437E-001;-3.559245169162750E-002;1.633518491871655E-003;3.151796525344253E-003;
2.415000000000000E+009;1.942948848009110E-001;-3.674117848277092E-002;1.567759434692562E-003;3.108467673882842E-003;
2.415166666666667E+009;1.954789161682129E-001;-3.803146257996559E-002;1.687224139459431E-003;3.122250782325864E-003;
2.415333333333334E+009;1.964977830648422E-001;-3.886965289711952E-002;1.688896445557475E-003;3.100516507402062E-003;
2.415500000000000E+009;1.975186914205551E-001;-3.943801298737526E-002;1.968472031876445E-003;2.984063932672143E-003;
2.415666666666667E+009;1.984784454107285E-001;-4.038326069712639E-002;1.959366491064429E-003;3.071069251745939E-003;
2.415833333333334E+009;1.991004049777985E-001;-4.093969985842705E-002;1.996996114030480E-003;2.842779969796538E-003;
2.416000000000000E+009;2.000183761119843E-001;-4.143412038683891E-002;2.153335604816675E-003;2.936513395980001E-003;
2.416166666666667E+009;2.008157670497894E-001;-4.209300130605698E-002;2.209783066064119E-003;2.837384585291147E-003;
2.416333333333334E+009;2.013362944126129E-001;-4.238427430391312E-002;2.293695695698261E-003;2.782327355816960E-003;
2.416500000000000E+009;2.018099874258041E-001;-4.259169101715088E-002;2.247537719085813E-003;2.760921372100711E-003;
2.416666666666667E+009;2.019584178924561E-001;-4.296246916055679E-002;2.321555977687240E-003;2.703196369111538E-003;
2.416833333333334E+009;2.021009474992752E-001;-4.299375042319298E-002;2.370203845202923E-003;2.559798536822200E-003;
2.417000000000000E+009;2.021556943655014E-001;-4.314655065536499E-002;2.500493777915835E-003;2.569654490798712E-003;
2.417166666666667E+009;2.017500102519989E-001;-4.306236654520035E-002;2.674158196896315E-003;2.561346860602498E-003;
2.417333333333334E+009;2.016538381576538E-001;-4.285347461700440E-002;2.774400170892477E-003;2.554645994678140E-003;
2.417500000000000E+009;2.013378292322159E-001;-4.295589774847031E-002;3.029243554919958E-003;2.580357016995549E-003;
2.417666666666667E+009;2.007726281881332E-001;-4.271643236279488E-002;2.906971843913198E-003;2.480538096278906E-003;
2.417833333333334E+009;2.003614902496338E-001;-4.252115264534950E-002;3.264405997470021E-003;2.323603956028819E-003;
2.418000000000000E+009;1.995981484651566E-001;-4.244144633412361E-002;3.266603918746114E-003;2.218415960669518E-003;
2.418166666666667E+009;1.987592130899429E-001;-4.227882623672485E-002;3.361721988767386E-003;2.280578250065446E-003;
2.418333333333334E+009;1.977200806140900E-001;-4.222834855318070E-002;3.391695907339454E-003;1.974415499716997E-003;
2.418500000000000E+009;1.968223452568054E-001;-4.220569506287575E-002;3.504749387502670E-003;1.928366255015135E-003;
2.418666666666667E+009;1.959882974624634E-001;-4.221322759985924E-002;3.670840756967664E-003;1.686019124463201E-003;
2.418833333333334E+009;1.947490423917770E-001;-4.241323471069336E-002;3.675766056403518E-003;1.516146701760590E-003;
2.419000000000000E+009;1.932834982872009E-001;-4.248675331473351E-002;3.607788356021047E-003;1.498361234553158E-003;
2.419166666666667E+009;1.921387910842896E-001;-4.287860915064812E-002;3.648838959634304E-003;1.227650791406632E-003;
2.419333333333334E+009;1.907839328050613E-001;-4.334811121225357E-002;3.716330975294113E-003;1.097683794796467E-003;
2.419500000000000E+009;1.893534362316132E-001;-4.379877448081970E-002;3.777405945584178E-003;1.027486403472722E-003;
2.419666666666667E+009;1.876639723777771E-001;-4.462520405650139E-002;3.522091777995229E-003;9.017372503876686E-004;
2.419833333333334E+009;1.862218081951141E-001;-4.540083929896355E-002;3.694328246638179E-003;9.187801042571664E-004;
2.420000000000000E+009;1.847134232521057E-001;-4.617249965667725E-002;3.503349609673023E-003;9.317786898463965E-004;
2.420166666666667E+009;1.829918324947357E-001;-4.709618166089058E-002;3.558378200978041E-003;7.942612865008414E-004;
2.420333333333334E+009;1.814617514610291E-001;-4.839001595973969E-002;3.760851453989744E-003;6.007018382661045E-004;
2.420500000000000E+009;1.797659546136856E-001;-4.957038909196854E-002;3.569882828742266E-003;6.099356687627733E-004;
2.420666666666667E+009;1.783456355333328E-001;-5.088947340846062E-002;3.647137666121125E-003;7.403451018035412E-004;
2.420833333333334E+009;1.765004992485046E-001;-5.214480310678482E-002;3.880963195115328E-003;5.721157067455351E-004;
2.421000000000000E+009;1.752696931362152E-001;-5.386014655232430E-002;3.765207948163152E-003;4.770907980855554E-004;
2.421166666666667E+009;1.738442778587341E-001;-5.547765269875526E-002;3.940129186958075E-003;3.517095174174756E-004;
2.421333333333334E+009;1.722900867462158E-001;-5.686781182885170E-002;3.935029730200768E-003;1.485437387600541E-004;
2.421500000000000E+009;1.708757132291794E-001;-5.903331562876701E-002;4.040841013193131E-003;2.126128529198468E-004;
2.421666666666667E+009;1.698189675807953E-001;-6.068506836891174E-002;3.955725114792585E-003;-4.997196083422750E-005;
2.421833333333334E+009;1.687174290418625E-001;-6.256900727748871E-002;4.181236959993839E-003;-1.899835624499247E-004;
2.422000000000000E+009;1.675610095262528E-001;-6.428504735231400E-002;4.028054419904947E-003;-2.892445190809667E-004;
2.422166666666667E+009;1.667887419462204E-001;-6.644403189420700E-002;4.060717299580574E-003;-4.137182259000838E-004;
2.422333333333334E+009;1.657746732234955E-001;-6.862320005893707E-002;4.188285209238529E-003;-6.547397933900356E-004;
2.422500000000000E+009;1.650207787752152E-001;-7.036297023296356E-002;3.957555163651705E-003;-7.014676230028272E-004;
2.422666666666667E+009;1.643078178167343E-001;-7.237607985734940E-002;4.045258276164532E-003;-9.443889721296728E-004;
2.422833333333334E+009;1.639199554920197E-001;-7.426156848669052E-002;4.087209235876799E-003;-1.110848737880588E-003;
2.423000000000000E+009;1.633379012346268E-001;-7.639684528112412E-002;3.932934254407883E-003;-1.130408840253949E-003;
2.423166666666667E+009;1.630549132823944E-001;-7.808092981576920E-002;3.963876515626907E-003;-1.294581918045878E-003;
2.423333333333334E+009;1.628837734460831E-001;-8.022314310073853E-002;3.952556289732456E-003;-1.521947560831904E-003;
2.423500000000000E+009;1.627116501331329E-001;-8.192715048789978E-002;3.881282173097134E-003;-1.525845262221992E-003;
2.423666666666667E+009;1.627805382013321E-001;-8.375260978937149E-002;3.755760379135609E-003;-1.660507288761437E-003;
2.423833333333334E+009;1.627085804939270E-001;-8.551356196403503E-002;3.844690509140492E-003;-1.777061028406024E-003;
2.424000000000000E+009;1.628460139036179E-001;-8.717388659715653E-002;3.697344800457358E-003;-2.143629360944033E-003;
2.424166666666667E+009;1.628961265087128E-001;-8.866856992244721E-002;3.546540625393391E-003;-2.204675925895572E-003;
2.424333333333334E+009;1.631930917501450E-001;-9.010395407676697E-002;3.437708830460906E-003;-2.224043942987919E-003;
2.424500000000000E+009;1.634941399097443E-001;-9.195418655872345E-002;3.377323504537344E-003;-2.375144278630614E-003;
2.424666666666667E+009;1.637479364871979E-001;-9.316974878311157E-002;3.372841747477651E-003;-2.419649856165052E-003;
2.424833333333334E+009;1.643075942993164E-001;-9.440203011035919E-002;3.082386450842023E-003;-2.525631338357925E-003;
2.425000000000000E+009;1.647073775529862E-001;-9.551892429590225E-002;3.125675721094012E-003;-2.584005240350962E-003;
2.425166666666667E+009;1.649184077978134E-001;-9.659625589847565E-002;2.966722240671516E-003;-2.752079162746668E-003;
2.425333333333334E+009;1.653908044099808E-001;-9.772548079490662E-002;2.955460222437978E-003;-2.833366626873612E-003;
2.425500000000000E+009;1.657744348049164E-001;-9.863146394491196E-002;2.791644772514701E-003;-2.872105455026031E-003;
2.425666666666667E+009;1.661119163036346E-001;-9.920933842658997E-002;2.725940430536866E-003;-3.081461414694786E-003;
2.425833333333334E+009;1.663730144500732E-001;-1.000643298029900E-001;2.629790920764208E-003;-2.928759204223752E-003;
2.426000000000000E+009;1.668160557746887E-001;-1.004996523261070E-001;2.503616735339165E-003;-3.120284294709563E-003;
2.426166666666667E+009;1.672223955392838E-001;-1.009657308459282E-001;2.422595163807273E-003;-3.215893637388945E-003;
2.426333333333334E+009;1.673604100942612E-001;-1.014162153005600E-001;2.310271840542555E-003;-3.070683218538761E-003;
2.426500000000000E+009;1.677066385746002E-001;-1.017722263932228E-001;2.414150629192591E-003;-3.437028964981437E-003;
2.426666666666667E+009;1.679129451513290E-001;-1.020825728774071E-001;2.217754488810897E-003;-3.241387195885181E-003;
2.426833333333334E+009;1.681923270225525E-001;-1.024772971868515E-001;1.990600256249309E-003;-3.528375178575516E-003;
2.427000000000000E+009;1.681984663009644E-001;-1.026406809687614E-001;2.037581522017717E-003;-3.504440886899829E-003;
2.427166666666667E+009;1.681738942861557E-001;-1.027212589979172E-001;1.868531806394458E-003;-3.446551505476236E-003;
2.427333333333334E+009;1.680266112089157E-001;-1.029918044805527E-001;1.800052938051522E-003;-3.440586384385824E-003;
2.427500000000000E+009;1.677263081073761E-001;-1.032216399908066E-001;1.547414925880730E-003;-3.582624951377511E-003;
2.427666666666667E+009;1.674110740423203E-001;-1.033920049667358E-001;1.472782227210701E-003;-3.647481324151158E-003;
2.427833333333334E+009;1.670463234186173E-001;-1.034820079803467E-001;1.599806826561689E-003;-3.616196569055319E-003;
