# Version 1.00
#
freq[Hz];re:Trc1_S11;im:Trc1_S11;re:Trc2_S21;im:Trc2_S21;
2.400000000000000E+009;1.559821516275406E-001;1.117468848824501E-001;-2.113287104293704E-003;2.781220478937030E-003;
2.400166666666667E+009;1.554559767246246E-001;1.094378158450127E-001;-1.884503057226539E-003;2.817486179992557E-003;
2.400333333333334E+009;1.551430523395538E-001;1.071001440286636E-001;-1.772701158188283E-003;2.768981037661433E-003;
2.400500000000000E+009;1.549983620643616E-001;1.045084893703461E-001;-1.623737043701112E-003;2.872832585126162E-003;
2.400666666666667E+009;1.547772735357285E-001;1.019895821809769E-001;-1.447883783839643E-003;2.902880776673555E-003;
2.400833333333334E+009;1.544781029224396E-001;9.917078167200089E-002;-1.413874910213053E-003;2.850485034286976E-003;
2.401000000000000E+009;1.542603969573975E-001;9.630426764488220E-002;-1.237780088558793E-003;2.792079234495759E-003;
2.401166666666667E+009;1.542083323001862E-001;9.352959692478180E-002;-1.188773545436561E-003;2.884780522435904E-003;
2.401333333333334E+009;1.542278379201889E-001;9.046114981174469E-002;-1.096238382160664E-003;2.829699078574777E-003;
2.401500000000000E+009;1.545850485563278E-001;8.734903484582901E-002;-1.053845742717385E-003;2.814576262608171E-003;
2.401666666666667E+009;1.544363349676132E-001;8.434414863586426E-002;-9.675483452156186E-004;2.966352039948106E-003;
2.401833333333334E+009;1.550209224224091E-001;8.151740580797195E-002;-8.722661295905709E-004;2.969322726130486E-003;
2.402000000000000E+009;1.555613428354263E-001;7.845868170261383E-002;-9.316985378973186E-004;3.047018311917782E-003;
2.402166666666667E+009;1.562747657299042E-001;7.573731243610382E-002;-8.845461998134852E-004;3.160811960697174E-003;
2.402333333333334E+009;1.570740491151810E-001;7.286177575588226E-002;-6.863074377179146E-004;3.170568030327559E-003;
2.402500000000000E+009;1.580803841352463E-001;6.999592483043671E-002;-5.540216807276011E-004;3.284946084022522E-003;
2.402666666666667E+009;1.592139601707459E-001;6.740589439868927E-002;-2.398004871793091E-004;3.218425437808037E-003;
2.402833333333334E+009;1.604098528623581E-001;6.472760438919067E-002;-8.334843732882291E-005;3.449501236900687E-003;
2.403000000000000E+009;1.618877798318863E-001;6.196239218115807E-002;2.710500266402960E-004;3.406424075365067E-003;
2.403166666666667E+009;1.634786725044251E-001;5.956851318478584E-002;5.530968774110079E-004;3.448163624852896E-003;
2.403333333333334E+009;1.650033593177795E-001;5.710868164896965E-002;6.621485808864236E-004;3.276872215792537E-003;
2.403500000000000E+009;1.667733341455460E-001;5.491517111659050E-002;8.612305391579866E-004;3.314174944534898E-003;
2.403666666666667E+009;1.684684753417969E-001;5.263272300362587E-002;1.187219051644206E-003;3.137735649943352E-003;
2.403833333333334E+009;1.701197922229767E-001;5.060068517923355E-002;1.430985517799854E-003;3.081991104409099E-003;
2.404000000000000E+009;1.717805713415146E-001;4.863088950514793E-002;1.504101790487766E-003;2.645655302330852E-003;
2.404166666666667E+009;1.738808155059815E-001;4.676229879260063E-002;1.635261927731335E-003;2.563468879088759E-003;
2.404333333333334E+009;1.755628138780594E-001;4.495448991656303E-002;1.660566660575569E-003;2.211724407970905E-003;
2.404500000000000E+009;1.773231178522110E-001;4.336994513869286E-002;1.882260316051543E-003;2.051311545073986E-003;
2.404666666666667E+009;1.791482716798782E-001;4.227752983570099E-002;1.784965628758073E-003;1.743149012327194E-003;
2.404833333333334E+009;1.810756474733353E-001;4.100142419338226E-002;1.837226562201977E-003;1.618861104361713E-003;
2.405000000000000E+009;1.826034039258957E-001;4.009893909096718E-002;1.782903564162552E-003;1.447020564228296E-003;
2.405166666666667E+009;1.842907816171646E-001;3.935100510716438E-002;1.915982691571116E-003;1.367513090372086E-003;
2.405333333333334E+009;1.859551221132278E-001;3.889237716794014E-002;1.686190022155643E-003;1.165255671367049E-003;
2.405500000000000E+009;1.876492500305176E-001;3.824070096015930E-002;1.552407164126635E-003;1.030144747346640E-003;
2.405666666666667E+009;1.889875978231430E-001;3.791060671210289E-002;1.605689525604248E-003;8.685596985742450E-004;
2.405833333333334E+009;1.904773861169815E-001;3.765624761581421E-002;1.374481944367290E-003;8.888160227797926E-004;
2.406000000000000E+009;1.918841153383255E-001;3.747295960783958E-002;1.450022449716926E-003;8.586528711020947E-004;
2.406166666666667E+009;1.931394487619400E-001;3.741457313299179E-002;1.224299194291234E-003;6.836246466264129E-004;
2.406333333333334E+009;1.942633837461472E-001;3.751322254538536E-002;1.067603006958962E-003;6.303336122073233E-004;
2.406500000000000E+009;1.953460723161697E-001;3.768482431769371E-002;9.320658282376826E-004;5.859723314642906E-004;
2.406666666666667E+009;1.962962150573731E-001;3.811447694897652E-002;9.967944351956248E-004;5.529453046619892E-004;
2.406833333333334E+009;1.970228701829910E-001;3.815415874123573E-002;7.489818381145597E-004;6.889277719892561E-004;
2.407000000000000E+009;1.975930482149124E-001;3.848936036229134E-002;9.227457339875400E-004;6.275345222093165E-004;
2.407166666666667E+009;1.981754153966904E-001;3.862208873033524E-002;6.611539283767343E-004;6.001440342515707E-004;
2.407333333333334E+009;1.984051764011383E-001;3.909042477607727E-002;6.019893335178495E-004;7.026350358501077E-004;
2.407500000000000E+009;1.986091583967209E-001;3.953462839126587E-002;5.512283532880247E-004;8.335811435244978E-004;
2.407666666666667E+009;1.988084912300110E-001;3.963912650942802E-002;4.170906322542578E-004;8.812407613731921E-004;
2.407833333333334E+009;1.984571665525436E-001;3.982548788189888E-002;4.852610582020134E-004;1.026071258820593E-003;
2.408000000000000E+009;1.984975486993790E-001;3.993220254778862E-002;4.549392324406654E-004;1.044493634253740E-003;
2.408166666666667E+009;1.980329304933548E-001;4.004786536097527E-002;3.219114441890270E-004;1.062297844327986E-003;
2.408333333333334E+009;1.976399272680283E-001;3.985909000039101E-002;3.939557354897261E-004;1.198445213958621E-003;
2.408500000000000E+009;1.971386522054672E-001;3.980927914381027E-002;3.088873345404863E-004;1.304961624555290E-003;
2.408666666666667E+009;1.964743435382843E-001;3.963105008006096E-002;3.378844703547657E-004;1.313265995122492E-003;
2.408833333333334E+009;1.957951933145523E-001;3.924524784088135E-002;2.561218861956149E-004;1.370849786326289E-003;
2.409000000000000E+009;1.947058141231537E-001;3.859556093811989E-002;5.698166205547750E-004;1.498620375059545E-003;
2.409166666666667E+009;1.938278079032898E-001;3.796853125095367E-002;5.506722955033183E-004;1.431539887562394E-003;
2.409333333333334E+009;1.927985250949860E-001;3.714560344815254E-002;5.700112087652087E-004;1.701724249869585E-003;
2.409500000000000E+009;1.916458457708359E-001;3.605739772319794E-002;6.239509675651789E-004;1.741326879709959E-003;
2.409666666666667E+009;1.905571222305298E-001;3.492690995335579E-002;7.437928579747677E-004;1.772056682966650E-003;
2.409833333333334E+009;1.892065554857254E-001;3.366149961948395E-002;6.878284621052444E-004;1.961031695827842E-003;
2.410000000000000E+009;1.880333423614502E-001;3.213638067245483E-002;1.013333210721612E-003;1.983698224648833E-003;
2.410166666666667E+009;1.868527382612228E-001;3.047695755958557E-002;8.942410931922495E-004;2.172427019104362E-003;
2.410333333333334E+009;1.856093555688858E-001;2.890845574438572E-002;9.826890891417861E-004;2.146517857909203E-003;
2.410500000000000E+009;1.843137741088867E-001;2.711257524788380E-002;1.270687440410256E-003;2.130106557160616E-003;
2.410666666666667E+009;1.831963509321213E-001;2.499511837959290E-002;1.292919158004224E-003;2.225324045866728E-003;
2.410833333333334E+009;1.823152601718903E-001;2.288600057363510E-002;1.258528442122042E-003;2.334337681531906E-003;
2.411000000000000E+009;1.812309473752976E-001;2.069634012877941E-002;1.601468189619482E-003;2.272557932883501E-003;
2.411166666666667E+009;1.803501844406128E-001;1.844812557101250E-002;1.717171631753445E-003;2.315515885129571E-003;
2.411333333333334E+009;1.795356720685959E-001;1.582250185310841E-002;1.718402723781765E-003;2.311628544703126E-003;
2.411500000000000E+009;1.788365989923477E-001;1.356352120637894E-002;2.021209802478552E-003;2.336297882720828E-003;
2.411666666666667E+009;1.785311996936798E-001;1.098013762384653E-002;2.214279258623719E-003;2.382791601121426E-003;
2.411833333333334E+009;1.780387163162231E-001;8.629677817225456E-003;2.372773131355643E-003;2.310392679646611E-003;
2.412000000000000E+009;1.779063194990158E-001;5.774351302534342E-003;2.391317160800099E-003;2.389908069744706E-003;
2.412166666666667E+009;1.778227686882019E-001;3.522595623508096E-003;2.574332989752293E-003;2.403844147920609E-003;
2.412333333333334E+009;1.778203845024109E-001;7.298932177945972E-004;2.783948322758079E-003;2.239928580820561E-003;
2.412500000000000E+009;1.782284975051880E-001;-1.993036130443215E-003;3.129041520878673E-003;2.244077855721116E-003;
2.412666666666667E+009;1.786646097898483E-001;-4.606459289789200E-003;3.318315837532282E-003;2.076893579214811E-003;
2.412833333333334E+009;1.791863590478897E-001;-7.270479574799538E-003;3.644617274403572E-003;1.946244854480028E-003;
2.413000000000000E+009;1.796983182430267E-001;-9.902569465339184E-003;3.718312131240964E-003;1.728928764350712E-003;
2.413166666666667E+009;1.804294735193253E-001;-1.236652489751577E-002;4.075961187481880E-003;1.693986356258392E-003;
2.413333333333334E+009;1.814675778150559E-001;-1.492198556661606E-002;4.350306466221809E-003;1.410868717357516E-003;
2.413500000000000E+009;1.821966469287872E-001;-1.753668859601021E-002;4.503632895648480E-003;1.203172025270760E-003;
2.413666666666667E+009;1.834199577569962E-001;-1.992223039269447E-002;4.621330182999373E-003;8.692367700859904E-004;
2.413833333333334E+009;1.846155226230621E-001;-2.217614278197289E-002;4.611533135175705E-003;6.096694269217551E-004;
2.414000000000000E+009;1.857123821973801E-001;-2.452493086457253E-002;4.888602532446384E-003;3.508417867124081E-004;
2.414166666666667E+009;1.871215254068375E-001;-2.661909908056259E-002;5.037013906985521E-003;-1.053419837262482E-004;
2.414333333333334E+009;1.883168965578079E-001;-2.867305092513561E-002;5.036545451730490E-003;-4.659222322516143E-004;
2.414500000000000E+009;1.896120607852936E-001;-3.039544075727463E-002;4.876657854765654E-003;-8.183885947801173E-004;
2.414666666666667E+009;1.910403519868851E-001;-3.226645290851593E-002;5.019180476665497E-003;-1.120746950618923E-003;
2.414833333333334E+009;1.922278404235840E-001;-3.386566415429115E-002;4.760860465466976E-003;-1.354184350930154E-003;
2.415000000000000E+009;1.936653852462769E-001;-3.520398959517479E-002;4.736987408250570E-003;-1.690152217634022E-003;
2.415166666666667E+009;1.950940638780594E-001;-3.660853952169418E-002;4.551629535853863E-003;-2.046932233497500E-003;
2.415333333333334E+009;1.965019553899765E-001;-3.763657435774803E-002;4.375763237476349E-003;-2.280649496242404E-003;
2.415500000000000E+009;1.978216767311096E-001;-3.856209665536881E-002;4.245359450578690E-003;-2.379172947257757E-003;
2.415666666666667E+009;1.990307271480560E-001;-3.953434154391289E-002;4.148491658270359E-003;-2.782976487651467E-003;
2.415833333333334E+009;2.001156508922577E-001;-4.012650996446610E-002;3.933239728212357E-003;-2.909667789936066E-003;
2.416000000000000E+009;2.012827098369598E-001;-4.090818390250206E-002;3.728153649717569E-003;-3.175587393343449E-003;
2.416166666666667E+009;2.022536247968674E-001;-4.148799180984497E-002;3.508525900542736E-003;-3.393806749954820E-003;
2.416333333333334E+009;2.030833661556244E-001;-4.182214662432671E-002;3.313277382403612E-003;-3.556911600753665E-003;
2.416500000000000E+009;2.038372904062271E-001;-4.200967028737068E-002;3.009282285347581E-003;-3.620938863605261E-003;
2.416666666666667E+009;2.044112533330917E-001;-4.228072613477707E-002;2.739011310040951E-003;-3.707922995090485E-003;
2.416833333333334E+009;2.050055712461472E-001;-4.228328540921211E-002;2.638044767081738E-003;-3.791890339925885E-003;
2.417000000000000E+009;2.053652256727219E-001;-4.228839650750160E-002;2.408099826425314E-003;-3.890700405463576E-003;
2.417166666666667E+009;2.052976340055466E-001;-4.219464957714081E-002;2.254961291328073E-003;-3.929965198040009E-003;
2.417333333333334E+009;2.053487002849579E-001;-4.186109080910683E-002;1.955040032044053E-003;-4.014261066913605E-003;
2.417500000000000E+009;2.053283601999283E-001;-4.179470241069794E-002;1.674372819252312E-003;-3.927088342607021E-003;
2.417666666666667E+009;2.050082236528397E-001;-4.143724218010902E-002;1.630233833566308E-003;-4.048070404678583E-003;
2.417833333333334E+009;2.048748284578323E-001;-4.100870713591576E-002;1.511243055574596E-003;-4.084185231477022E-003;
2.418000000000000E+009;2.044482678174973E-001;-4.055106639862061E-002;1.224288018420339E-003;-4.090351983904839E-003;
2.418166666666667E+009;2.038854956626892E-001;-4.037305340170860E-002;1.078607980161905E-003;-4.091516137123108E-003;
2.418333333333334E+009;2.029713094234467E-001;-4.002616927027702E-002;9.484926704317331E-004;-4.023900255560875E-003;
2.418500000000000E+009;2.021031081676483E-001;-3.979412466287613E-002;7.241942221298814E-004;-4.032631404697895E-003;
2.418666666666667E+009;2.011609822511673E-001;-3.947345167398453E-002;5.204502376727760E-004;-4.086269997060299E-003;
2.418833333333334E+009;2.000593841075897E-001;-3.948226571083069E-002;4.600872343871743E-004;-4.118571057915688E-003;
2.419000000000000E+009;1.987181603908539E-001;-3.946759551763535E-002;7.704029849264771E-005;-4.060379229485989E-003;
2.419166666666667E+009;1.975897699594498E-001;-3.950595110654831E-002;-3.304240090074018E-005;-4.190489184111357E-003;
2.419333333333334E+009;1.961186379194260E-001;-3.972788527607918E-002;-1.959186192834750E-004;-3.957578446716070E-003;
2.419500000000000E+009;1.946069300174713E-001;-4.010773822665215E-002;-3.498305450193584E-004;-3.985458984971046E-003;
2.419666666666667E+009;1.929139792919159E-001;-4.063554480671883E-002;-4.792974505107850E-004;-3.856641007587314E-003;
2.419833333333334E+009;1.913192123174667E-001;-4.111211001873016E-002;-6.325016147457063E-004;-3.710612189024687E-003;
2.420000000000000E+009;1.896773129701614E-001;-4.165698215365410E-002;-8.566447650082409E-004;-3.610530169680715E-003;
2.420166666666667E+009;1.877947449684143E-001;-4.240746423602104E-002;-9.834402007982135E-004;-3.480704501271248E-003;
2.420333333333334E+009;1.861056387424469E-001;-4.359804838895798E-002;-1.169627415947616E-003;-3.368103411048651E-003;
2.420500000000000E+009;1.842249780893326E-001;-4.480918496847153E-002;-1.256676274351776E-003;-3.257686272263527E-003;
2.420666666666667E+009;1.825214028358460E-001;-4.558067023754120E-002;-1.424516900442541E-003;-3.036205423995853E-003;
2.420833333333334E+009;1.805837601423264E-001;-4.720715060830116E-002;-1.360403723083437E-003;-3.062966978177428E-003;
2.421000000000000E+009;1.790126860141754E-001;-4.856088757514954E-002;-1.412744633853436E-003;-2.735331887379289E-003;
2.421166666666667E+009;1.773866266012192E-001;-5.028482899069786E-002;-1.532595138996840E-003;-2.696820301935077E-003;
2.421333333333334E+009;1.754355579614639E-001;-5.186604335904121E-002;-1.547824009321630E-003;-2.530057448893786E-003;
2.421500000000000E+009;1.739782989025116E-001;-5.382391810417175E-002;-1.545183244161308E-003;-2.464327495545149E-003;
2.421666666666667E+009;1.723812371492386E-001;-5.568841472268105E-002;-1.715600839816034E-003;-2.427311846986413E-003;
2.421833333333334E+009;1.711167693138123E-001;-5.761900171637535E-002;-1.529375789687038E-003;-2.297624945640564E-003;
2.422000000000000E+009;1.697897464036942E-001;-5.955895781517029E-002;-1.550811575725675E-003;-2.216281136497855E-003;
2.422166666666667E+009;1.686180680990219E-001;-6.188564747571945E-002;-1.623241463676095E-003;-2.112934133037925E-003;
2.422333333333334E+009;1.675001382827759E-001;-6.401844322681427E-002;-1.546647283248603E-003;-2.068844391033053E-003;
2.422500000000000E+009;1.666094511747360E-001;-6.614430248737335E-002;-1.498690573498607E-003;-1.937184017151594E-003;
2.422666666666667E+009;1.657482385635376E-001;-6.832112371921539E-002;-1.665805699303746E-003;-1.942758099175990E-003;
2.422833333333334E+009;1.648882776498795E-001;-7.073346525430679E-002;-1.535366405732930E-003;-1.888286205939949E-003;
2.423000000000000E+009;1.645431667566299E-001;-7.283727079629898E-002;-1.647603465244174E-003;-1.673792721703649E-003;
2.423166666666667E+009;1.640580147504807E-001;-7.512124627828598E-002;-1.575950765982270E-003;-1.781673519872129E-003;
2.423333333333334E+009;1.636796295642853E-001;-7.734399288892746E-002;-1.557448413223028E-003;-1.712676254101098E-003;
2.423500000000000E+009;1.634962260723114E-001;-7.940740883350372E-002;-1.447763876058161E-003;-1.598555245436728E-003;
2.423666666666667E+009;1.635371297597885E-001;-8.158294111490250E-002;-1.409513526596129E-003;-1.713185338303447E-003;
2.423833333333334E+009;1.633208841085434E-001;-8.372151106595993E-002;-1.459704479202628E-003;-1.545598846860230E-003;
2.424000000000000E+009;1.636010706424713E-001;-8.560143411159515E-002;-1.439999788999558E-003;-1.673496328294277E-003;
2.424166666666667E+009;1.636586189270020E-001;-8.755796402692795E-002;-1.664701499976218E-003;-1.588970771990717E-003;
2.424333333333334E+009;1.638719886541367E-001;-8.942256122827530E-002;-1.559822238050401E-003;-1.491006696596742E-003;
2.424500000000000E+009;1.642811894416809E-001;-9.143926203250885E-002;-1.487955101765692E-003;-1.570804626680911E-003;
2.424666666666667E+009;1.646244525909424E-001;-9.302659332752228E-002;-1.582793542183936E-003;-1.499872189015150E-003;
2.424833333333334E+009;1.653092503547669E-001;-9.443350136280060E-002;-1.621896750293672E-003;-1.455804216675460E-003;
2.425000000000000E+009;1.658099740743637E-001;-9.604391455650330E-002;-1.681859954260290E-003;-1.307229045778513E-003;
2.425166666666667E+009;1.662869900465012E-001;-9.725605696439743E-002;-1.563522149808705E-003;-1.447636866942048E-003;
2.425333333333334E+009;1.667521297931671E-001;-9.858527779579163E-002;-1.651042373850942E-003;-1.316483016125858E-003;
2.425500000000000E+009;1.673420816659927E-001;-9.967835992574692E-002;-1.657623448409140E-003;-1.450188807211816E-003;
2.425666666666667E+009;1.677833944559097E-001;-1.005604937672615E-001;-1.834564958699048E-003;-1.444641267880797E-003;
2.425833333333334E+009;1.683835387229919E-001;-1.015760079026222E-001;-1.807400025427342E-003;-1.468083471991122E-003;
2.426000000000000E+009;1.690355241298676E-001;-1.021353825926781E-001;-1.645742333494127E-003;-1.468584756366909E-003;
2.426166666666667E+009;1.697265654802322E-001;-1.028146371245384E-001;-1.751334057189524E-003;-1.530104083940387E-003;
2.426333333333334E+009;1.699500530958176E-001;-1.033983603119850E-001;-1.747028902173042E-003;-1.418531872332096E-003;
2.426500000000000E+009;1.706317216157913E-001;-1.037326529622078E-001;-1.874080975539982E-003;-1.411712612025440E-003;
2.426666666666667E+009;1.710137873888016E-001;-1.040964052081108E-001;-1.860923017375171E-003;-1.471557538025081E-003;
2.426833333333334E+009;1.715593039989471E-001;-1.044313237071037E-001;-1.949699944816530E-003;-1.399733475409448E-003;
2.427000000000000E+009;1.717243939638138E-001;-1.046218797564507E-001;-2.077874494716525E-003;-1.276417286135256E-003;
2.427166666666667E+009;1.720760464668274E-001;-1.047281995415688E-001;-2.253223909065127E-003;-1.347401179373264E-003;
2.427333333333334E+009;1.720975935459137E-001;-1.047900840640068E-001;-1.898052985779941E-003;-1.158858882263303E-003;
2.427500000000000E+009;1.721294969320297E-001;-1.050058752298355E-001;-2.331976778805256E-003;-1.384455244988203E-003;
2.427666666666667E+009;1.719313710927963E-001;-1.049747243523598E-001;-2.246429678052664E-003;-1.155800651758909E-003;
2.427833333333334E+009;1.717074811458588E-001;-1.049201935529709E-001;-2.322167856618762E-003;-1.234583090990782E-003;
