# Version 1.00
#
freq[Hz];re:Trc1_S11;im:Trc1_S11;re:Trc2_S21;im:Trc2_S21;
2.400000000000000E+009;1.563388556241989E-001;1.118459627032280E-001;-2.176509937271476E-003;2.652419265359640E-003;
2.400166666666667E+009;1.559382826089859E-001;1.096082404255867E-001;-2.085171407088637E-003;2.643198007717729E-003;
2.400333333333334E+009;1.556509733200073E-001;1.072021201252937E-001;-1.884136814624071E-003;2.738186391070485E-003;
2.400500000000000E+009;1.553601622581482E-001;1.045445501804352E-001;-1.681648893281817E-003;2.879419131204486E-003;
2.400666666666667E+009;1.550943553447723E-001;1.020981147885323E-001;-1.432981691323221E-003;2.774901455268264E-003;
2.400833333333334E+009;1.547388583421707E-001;9.914856404066086E-002;-1.459610764868558E-003;2.823649905622006E-003;
2.401000000000000E+009;1.547437757253647E-001;9.631630778312683E-002;-1.126444665715098E-003;3.007428022101522E-003;
2.401166666666667E+009;1.544871479272842E-001;9.343818575143814E-002;-1.144987647421658E-003;2.632971154525876E-003;
2.401333333333334E+009;1.546643674373627E-001;9.023320674896240E-002;-1.046242774464190E-003;2.707803389057517E-003;
2.401500000000000E+009;1.547336429357529E-001;8.747473359107971E-002;-1.000724034383893E-003;2.911163726821542E-003;
2.401666666666667E+009;1.548051536083221E-001;8.440788090229034E-002;-1.028009457513690E-003;2.813479630276561E-003;
2.401833333333334E+009;1.552037298679352E-001;8.139903843402863E-002;-7.997167995199561E-004;2.979416400194168E-003;
2.402000000000000E+009;1.557888090610504E-001;7.851248979568481E-002;-8.678874000906944E-004;3.167384304106236E-003;
2.402166666666667E+009;1.563444882631302E-001;7.571802288293839E-002;-7.833450217731297E-004;3.227864857763052E-003;
2.402333333333334E+009;1.573548763990402E-001;7.276379317045212E-002;-6.119958125054836E-004;3.236994845792651E-003;
2.402500000000000E+009;1.582011431455612E-001;7.011380791664124E-002;-4.677416291087866E-004;3.325298428535461E-003;
2.402666666666667E+009;1.592807322740555E-001;6.741738319396973E-002;-3.220385697204620E-004;3.281706012785435E-003;
2.402833333333334E+009;1.605237871408463E-001;6.472595781087875E-002;2.559758650022559E-005;3.274992806836963E-003;
2.403000000000000E+009;1.619741618633270E-001;6.197848543524742E-002;1.797122095013037E-004;3.309980966150761E-003;
2.403166666666667E+009;1.636732816696167E-001;5.948959290981293E-002;4.993134643882513E-004;3.304781625047326E-003;
2.403333333333334E+009;1.651864349842072E-001;5.711727961897850E-002;7.062624208629131E-004;3.312672954052687E-003;
2.403500000000000E+009;1.667941957712174E-001;5.471763014793396E-002;1.098002307116985E-003;3.236616495996714E-003;
2.403666666666667E+009;1.685965955257416E-001;5.256193876266480E-002;1.293186563998461E-003;3.016740083694458E-003;
2.403833333333334E+009;1.703013628721237E-001;5.060776695609093E-002;1.228155684657395E-003;2.952760783955455E-003;
2.404000000000000E+009;1.719621568918228E-001;4.836076870560646E-002;1.496492768637836E-003;2.555308863520622E-003;
2.404166666666667E+009;1.739071756601334E-001;4.670679941773415E-002;1.658853143453598E-003;2.543875016272068E-003;
2.404333333333334E+009;1.755871474742889E-001;4.516908153891563E-002;1.710827345959842E-003;2.262343419715762E-003;
2.404500000000000E+009;1.775565147399902E-001;4.355741292238236E-002;-4.276162944734097E-004;1.141240471042693E-003;
2.404666666666667E+009;1.791802942752838E-001;4.185174778103828E-002;3.376731881871820E-003;2.850262913852930E-003;
2.404833333333334E+009;1.811613738536835E-001;4.092819616198540E-002;8.636257261969149E-004;1.661403453908861E-003;
2.405000000000000E+009;1.827769577503204E-001;4.000122100114822E-002;2.088822191581130E-003;3.008736297488213E-003;
2.405166666666667E+009;1.846231967210770E-001;3.930314257740974E-002;4.804228665307164E-004;1.712750177830458E-003;
2.405333333333334E+009;1.861763447523117E-001;3.854079544544220E-002;2.021893393248320E-003;2.069308189675212E-003;
2.405500000000000E+009;1.879510432481766E-001;3.807444870471954E-002;1.563780941069126E-003;2.893353579565883E-003;
2.405666666666667E+009;1.892366260290146E-001;3.768055513501167E-002;1.587747712619603E-003;1.562876044772565E-003;
2.405833333333334E+009;1.905577182769775E-001;3.739520162343979E-002;2.839377149939537E-003;-3.376242821104825E-004;
2.406000000000000E+009;1.921312063932419E-001;3.740219026803970E-002;9.690313017927110E-004;1.206357846967876E-003;
2.406166666666667E+009;1.933400779962540E-001;3.732376918196678E-002;1.194994198158383E-003;7.478513289242983E-004;
2.406333333333334E+009;1.945380568504334E-001;3.746152296662331E-002;1.004552002996206E-003;7.099217618815601E-004;
2.406500000000000E+009;1.954832673072815E-001;3.753780201077461E-002;1.014317385852337E-003;7.191477925516665E-004;
2.406666666666667E+009;1.963502764701843E-001;3.781871870160103E-002;7.961420342326164E-004;7.455837912857533E-004;
2.406833333333334E+009;1.972345858812332E-001;3.801972791552544E-002;7.203483837656677E-004;6.183882360346615E-004;
2.407000000000000E+009;1.977478861808777E-001;3.837066143751144E-002;8.072489872574806E-004;6.546481163240969E-004;
2.407166666666667E+009;1.984025537967682E-001;3.849580883979797E-002;7.724936003796756E-004;7.337527931667864E-004;
2.407333333333334E+009;1.984534263610840E-001;3.873009979724884E-002;5.323934601619840E-004;8.049700991250575E-004;
2.407500000000000E+009;1.986453682184219E-001;3.917654231190682E-002;4.528303688857704E-004;7.053575827740133E-004;
2.407666666666667E+009;1.988271325826645E-001;3.923657536506653E-002;4.808174271602184E-004;7.294104434549809E-004;
2.407833333333334E+009;1.985240876674652E-001;3.955794498324394E-002;4.155822389293462E-004;1.092744409106672E-003;
2.408000000000000E+009;1.985187977552414E-001;3.973564878106117E-002;2.582300221547484E-004;1.113875885494053E-003;
2.408166666666667E+009;1.981158852577210E-001;3.961838036775589E-002;4.154177731834352E-004;1.188322901725769E-003;
2.408333333333334E+009;1.976982951164246E-001;3.951823711395264E-002;4.383021732792258E-004;1.174611621536315E-003;
2.408500000000000E+009;1.971674710512161E-001;3.938261792063713E-002;3.654041211120784E-004;1.409955671988428E-003;
2.408666666666667E+009;1.964941769838333E-001;3.936927393078804E-002;4.317948769312352E-004;1.515320967882872E-003;
2.408833333333334E+009;1.959014534950256E-001;3.893439099192619E-002;4.312023811507970E-004;1.533270697109401E-003;
2.409000000000000E+009;1.948796957731247E-001;3.819445893168449E-002;4.660414124373347E-004;1.519921468570828E-003;
2.409166666666667E+009;1.939011514186859E-001;3.761133179068565E-002;6.231054430827498E-004;1.638000016100705E-003;
2.409333333333334E+009;1.929222494363785E-001;3.690176457166672E-002;5.881230463273823E-004;1.621888484805822E-003;
2.409500000000000E+009;1.914780586957932E-001;3.583339601755142E-002;6.435188697651029E-004;1.861062948592007E-003;
2.409666666666667E+009;1.904302984476090E-001;3.469970822334290E-002;7.189959287643433E-004;1.873662578873336E-003;
2.409833333333334E+009;1.893693655729294E-001;3.349195420742035E-002;7.176570943556726E-004;1.816900097765029E-003;
2.410000000000000E+009;1.880490034818649E-001;3.195109218358994E-002;7.606873405165970E-004;2.079011639580131E-003;
2.410166666666667E+009;1.868887841701508E-001;3.022697381675243E-002;8.090729243122041E-004;1.985893351957202E-003;
2.410333333333334E+009;1.856386661529541E-001;2.867759391665459E-002;1.099332235753536E-003;2.026022644713521E-003;
2.410500000000000E+009;1.844493746757507E-001;2.686697244644165E-002;1.170979230664671E-003;2.188798505812883E-003;
2.410666666666667E+009;1.833143681287766E-001;2.470089122653008E-002;1.170592731796205E-003;2.047717338427901E-003;
2.410833333333334E+009;1.824768483638763E-001;2.267408929765225E-002;1.513036782853305E-003;2.353657037019730E-003;
2.411000000000000E+009;1.813651323318481E-001;2.038343250751495E-002;1.515823532827199E-003;2.223527757450938E-003;
2.411166666666667E+009;1.804660558700562E-001;1.825372129678726E-002;1.602952135726810E-003;2.247570082545281E-003;
2.411333333333334E+009;1.797800958156586E-001;1.572079770267010E-002;1.850174041464925E-003;2.453083638101816E-003;
2.411500000000000E+009;1.789878010749817E-001;1.339362096041441E-002;1.969924196600914E-003;2.292584627866745E-003;
2.411666666666667E+009;1.784944981336594E-001;1.088581699877977E-002;2.176335314288735E-003;2.333447337150574E-003;
2.411833333333334E+009;1.779946982860565E-001;8.389779366552830E-003;2.182440133765340E-003;2.421262441202998E-003;
2.412000000000000E+009;1.779659390449524E-001;5.709351506084204E-003;2.385823987424374E-003;2.323731081560254E-003;
2.412166666666667E+009;1.778006404638290E-001;3.276789328083396E-003;2.728365128859878E-003;2.251246012747288E-003;
2.412333333333334E+009;1.777062863111496E-001;3.592909488361329E-004;2.777958055958152E-003;2.279719104990363E-003;
2.412500000000000E+009;1.781572550535202E-001;-2.107041189447045E-003;3.037087386474013E-003;2.167892875149846E-003;
2.412666666666667E+009;1.784653514623642E-001;-4.950297065079212E-003;3.376328386366367E-003;2.037507481873035E-003;
2.412833333333334E+009;1.791348159313202E-001;-7.427334785461426E-003;3.634360851719976E-003;1.964796101674438E-003;
2.413000000000000E+009;1.797783076763153E-001;-9.992673993110657E-003;3.831442212685943E-003;1.811006339266896E-003;
2.413166666666667E+009;1.803455203771591E-001;-1.271241251379252E-002;3.982549067586660E-003;1.668256008997560E-003;
2.413333333333334E+009;1.813859492540360E-001;-1.511132717132568E-002;4.271080717444420E-003;1.520986668765545E-003;
2.413500000000000E+009;1.822361797094345E-001;-1.776677183806896E-002;4.369444679468870E-003;1.222813967615366E-003;
2.413666666666667E+009;1.834757626056671E-001;-2.021645195782185E-002;4.654002375900745E-003;8.208776125684381E-004;
2.413833333333334E+009;1.844309866428375E-001;-2.242743410170078E-002;4.792550113052130E-003;6.420239806175232E-004;
2.414000000000000E+009;1.857147514820099E-001;-2.450028248131275E-002;4.878130741417408E-003;4.149427986703813E-004;
2.414166666666667E+009;1.868702769279480E-001;-2.665616758167744E-002;5.117855500429869E-003;2.552469231886789E-005;
2.414333333333334E+009;1.882596760988236E-001;-2.889016270637512E-002;5.051728338003159E-003;-3.558409516699612E-004;
2.414500000000000E+009;1.894963085651398E-001;-3.070443309843540E-002;4.929610993713141E-003;-7.021666970103979E-004;
2.414666666666667E+009;1.909200847148895E-001;-3.224587067961693E-002;4.906313493847847E-003;-1.117013045586646E-003;
2.414833333333334E+009;1.919974088668823E-001;-3.402429074048996E-002;4.782394506037235E-003;-1.391974510625005E-003;
2.415000000000000E+009;1.935656517744064E-001;-3.547505289316177E-002;4.674758296459913E-003;-1.688345335423946E-003;
2.415166666666667E+009;1.948914080858231E-001;-3.668703138828278E-002;4.545743577182293E-003;-2.105706837028265E-003;
2.415333333333334E+009;1.963243782520294E-001;-3.770463541150093E-002;4.406304098665714E-003;-2.075422788038850E-003;
2.415500000000000E+009;1.975790858268738E-001;-3.861045837402344E-002;4.250253550708294E-003;-2.552328864112496E-003;
2.415666666666667E+009;1.989396959543228E-001;-3.957895934581757E-002;4.085464403033257E-003;-2.729465486481786E-003;
2.415833333333334E+009;2.001802623271942E-001;-4.026697948575020E-002;4.069873131811619E-003;-2.795871580019593E-003;
2.416000000000000E+009;2.010474950075150E-001;-4.096594825387001E-002;3.726528026163578E-003;-3.219029167667031E-003;
2.416166666666667E+009;2.021737843751907E-001;-4.148018360137940E-002;3.459432860836387E-003;-3.369277808815241E-003;
2.416333333333334E+009;2.030816972255707E-001;-4.178697615861893E-002;3.357971087098122E-003;-3.455633996054530E-003;
2.416500000000000E+009;2.037674933671951E-001;-4.208045825362206E-002;3.042704192921519E-003;-3.726865630596876E-003;
2.416666666666667E+009;2.043417692184448E-001;-4.232797399163246E-002;2.919281832873821E-003;-3.735223319381475E-003;
2.416833333333334E+009;2.047827541828156E-001;-4.241630807518959E-002;2.660495229065418E-003;-3.832950722426176E-003;
2.417000000000000E+009;2.051840275526047E-001;-4.250000044703484E-002;2.371137728914619E-003;-3.922970034182072E-003;
2.417166666666667E+009;2.052160799503326E-001;-4.229532182216644E-002;2.229245612397790E-003;-3.995957318693399E-003;
2.417333333333334E+009;2.052701860666275E-001;-4.201865941286087E-002;1.805589417926967E-003;-3.967016004025936E-003;
2.417500000000000E+009;2.051614224910736E-001;-4.184044897556305E-002;1.800962025299668E-003;-4.115205258131027E-003;
2.417666666666667E+009;2.049834579229355E-001;-4.146525636315346E-002;1.676696236245334E-003;-4.050306510180235E-003;
2.417833333333334E+009;2.047393471002579E-001;-4.115271940827370E-002;1.350421807728708E-003;-4.050182178616524E-003;
2.418000000000000E+009;2.042447775602341E-001;-4.075199738144875E-002;1.142882276326418E-003;-4.082641098648310E-003;
2.418166666666667E+009;2.034779787063599E-001;-4.050945863127708E-002;1.112753758206964E-003;-4.055678378790617E-003;
2.418333333333334E+009;2.029265463352203E-001;-4.017342627048492E-002;9.219662752002478E-004;-4.099531099200249E-003;
2.418500000000000E+009;2.018728703260422E-001;-4.001257196068764E-002;6.662292871624231E-004;-3.998667001724243E-003;
2.418666666666667E+009;2.011279165744782E-001;-3.960650786757469E-002;4.883434157818556E-004;-4.029413219541311E-003;
2.418833333333334E+009;1.999042630195618E-001;-3.950083255767822E-002;4.167684237472713E-004;-4.120090510696173E-003;
2.419000000000000E+009;1.986237615346909E-001;-3.959855064749718E-002;2.608968061394990E-004;-4.139969591051340E-003;
2.419166666666667E+009;1.974307596683502E-001;-3.964632749557495E-002;3.920080416719429E-005;-4.023399669677019E-003;
2.419333333333334E+009;1.960745453834534E-001;-3.975367173552513E-002;-1.964931434486061E-004;-3.969577606767416E-003;
2.419500000000000E+009;1.944030672311783E-001;-4.006307572126389E-002;-3.276951028965414E-004;-4.068808164447546E-003;
2.419666666666667E+009;1.927821487188339E-001;-4.059119895100594E-002;-4.578964726533741E-004;-3.986199386417866E-003;
2.419833333333334E+009;1.909147500991821E-001;-4.115957021713257E-002;-8.019282831810415E-004;-3.745672525838018E-003;
2.420000000000000E+009;1.894042342901230E-001;-4.179171845316887E-002;-9.958815062418580E-004;-3.682202426716685E-003;
2.420166666666667E+009;1.876816153526306E-001;-4.264999926090241E-002;-1.119650667533279E-003;-3.550410736352205E-003;
2.420333333333334E+009;1.857800483703613E-001;-4.362827166914940E-002;-1.102859620004892E-003;-3.384300507605076E-003;
2.420500000000000E+009;1.839802712202072E-001;-4.478340595960617E-002;-1.430113450624049E-003;-3.268994856625795E-003;
2.420666666666667E+009;1.822716742753983E-001;-4.583855718374252E-002;-1.392882782965899E-003;-3.012817353010178E-003;
2.420833333333334E+009;1.804925054311752E-001;-4.726052656769753E-002;-1.289790612645447E-003;-2.976624295115471E-003;
2.421000000000000E+009;1.787059009075165E-001;-4.871241748332977E-002;-1.466394518502057E-003;-2.738775219768286E-003;
2.421166666666667E+009;1.771528571844101E-001;-5.038177594542503E-002;-1.628906233236194E-003;-2.698611933737993E-003;
2.421333333333334E+009;1.753057092428207E-001;-5.188063159584999E-002;-1.557318726554513E-003;-2.492988249287009E-003;
2.421500000000000E+009;1.737715154886246E-001;-5.396239086985588E-002;-1.437831204384565E-003;-2.510598627850413E-003;
2.421666666666667E+009;1.722007989883423E-001;-5.564117804169655E-002;-1.488729612901807E-003;-2.490042475983501E-003;
2.421833333333334E+009;1.710210442543030E-001;-5.771677941083908E-002;-1.508584711700678E-003;-2.277632709592581E-003;
2.422000000000000E+009;1.696259826421738E-001;-5.955381691455841E-002;-1.535895629785955E-003;-2.126307925209403E-003;
2.422166666666667E+009;1.686245352029800E-001;-6.193701550364494E-002;-1.607965561561286E-003;-2.029446419328451E-003;
2.422333333333334E+009;1.672931760549545E-001;-6.399152427911758E-002;-1.604745746590197E-003;-2.136741764843464E-003;
2.422500000000000E+009;1.664898544549942E-001;-6.601918488740921E-002;-1.530245877802372E-003;-1.882526325061917E-003;
2.422666666666667E+009;1.654977500438690E-001;-6.840844452381134E-002;-1.495755743235350E-003;-2.093178452923894E-003;
2.422833333333334E+009;1.649440526962280E-001;-7.071094214916229E-002;-1.512513495981693E-003;-1.971068326383829E-003;
2.423000000000000E+009;1.643821001052856E-001;-7.289101183414459E-002;-1.559149008244276E-003;-1.906378543935716E-003;
2.423166666666667E+009;1.636778414249420E-001;-7.496503740549088E-002;-1.456053578294814E-003;-1.723482739180327E-003;
2.423333333333334E+009;1.635096818208695E-001;-7.730326801538467E-002;-1.515849842689931E-003;-1.744317356497049E-003;
2.423500000000000E+009;1.634277999401093E-001;-7.947817444801331E-002;-1.536379335448146E-003;-1.504913554526866E-003;
2.423666666666667E+009;1.633245497941971E-001;-8.153985440731049E-002;-1.515257637947798E-003;-1.640466391108930E-003;
2.423833333333334E+009;1.632703691720963E-001;-8.356920629739761E-002;-1.480947947129607E-003;-1.582920202054083E-003;
2.424000000000000E+009;1.634448766708374E-001;-8.566737174987793E-002;-1.438615028746426E-003;-1.592212123796344E-003;
2.424166666666667E+009;1.633931547403336E-001;-8.745687454938889E-002;-1.476607285439968E-003;-1.691434648819268E-003;
2.424333333333334E+009;1.638194471597672E-001;-8.922790735960007E-002;-1.599836628884077E-003;-1.626958255656064E-003;
2.424500000000000E+009;1.641284823417664E-001;-9.134053438901901E-002;-1.608860911801457E-003;-1.599657698534429E-003;
2.424666666666667E+009;1.645515263080597E-001;-9.297011792659760E-002;-1.496412558481097E-003;-1.493845600634813E-003;
2.424833333333334E+009;1.652773320674896E-001;-9.439698606729507E-002;-1.624029246158898E-003;-1.437484752386808E-003;
2.425000000000000E+009;1.657339185476303E-001;-9.592011570930481E-002;-1.600367133505642E-003;-1.557871699333191E-003;
2.425166666666667E+009;1.661879122257233E-001;-9.726401418447495E-002;-1.751529867760837E-003;-1.380527275614440E-003;
2.425333333333334E+009;1.666965484619141E-001;-9.838575869798660E-002;-1.721714390441775E-003;-1.445379224605858E-003;
2.425500000000000E+009;1.672554761171341E-001;-9.961904585361481E-002;-1.741606742143631E-003;-1.443372922949493E-003;
2.425666666666667E+009;1.678332537412643E-001;-1.004113703966141E-001;-1.702524838037789E-003;-1.468678237870336E-003;
2.425833333333334E+009;1.682397872209549E-001;-1.015086621046066E-001;-1.676962478086352E-003;-1.200565951876342E-003;
2.426000000000000E+009;1.689749956130981E-001;-1.020490750670433E-001;-1.688370830379427E-003;-1.588089857250452E-003;
2.426166666666667E+009;1.695285737514496E-001;-1.026433482766151E-001;-1.923099509440363E-003;-1.344522694125772E-003;
2.426333333333334E+009;1.699056476354599E-001;-1.032297015190125E-001;-1.950462465174496E-003;-1.389209763146937E-003;
2.426500000000000E+009;1.706024706363678E-001;-1.036256477236748E-001;-1.866307924501598E-003;-1.402854686602950E-003;
2.426666666666667E+009;1.710084527730942E-001;-1.039766073226929E-001;-2.065180335193873E-003;-1.321785151958466E-003;
2.426833333333334E+009;1.714335978031158E-001;-1.041872128844261E-001;-1.958967419341207E-003;-1.324745826423168E-003;
2.427000000000000E+009;1.715833991765976E-001;-1.044966205954552E-001;-1.943707698956132E-003;-1.287149614654481E-003;
2.427166666666667E+009;1.719583123922348E-001;-1.045037433505058E-001;-1.976175932213664E-003;-1.447982504032552E-003;
2.427333333333334E+009;1.720339506864548E-001;-1.047270148992539E-001;-2.223918214440346E-003;-1.263840589672327E-003;
2.427500000000000E+009;1.720429509878159E-001;-1.047943606972694E-001;-2.211081562563777E-003;-1.347015378996730E-003;
2.427666666666667E+009;1.718154102563858E-001;-1.046884432435036E-001;-2.247343538329005E-003;-1.197660807520151E-003;
2.427833333333334E+009;1.717437505722046E-001;-1.047388464212418E-001;-2.280712127685547E-003;-1.384970615617931E-003;
