# Version 1.00
#
freq[Hz];re:Trc1_S11;im:Trc1_S11;re:Trc2_S21;im:Trc2_S21;
2.400000000000000E+009;1.556195020675659E-001;1.070679798722267E-001;1.521968282759190E-003;-6.063084583729506E-003;
2.400166666666667E+009;1.551447212696075E-001;1.046597361564636E-001;1.397330430336297E-003;-6.025499198585749E-003;
2.400333333333334E+009;1.553111672401428E-001;1.025391817092896E-001;1.002339879050851E-003;-6.031756289303303E-003;
2.400500000000000E+009;1.553138494491577E-001;9.964602440595627E-002;9.486879571340978E-004;-5.919825285673142E-003;
2.400666666666667E+009;1.553037017583847E-001;9.697461873292923E-002;8.847903227433562E-004;-5.933541338890791E-003;
2.400833333333334E+009;1.551813781261444E-001;9.426309168338776E-002;7.783051114529371E-004;-5.782586522400379E-003;
2.401000000000000E+009;1.554337739944458E-001;9.134901314973831E-002;7.278933771885932E-004;-5.804229993373156E-003;
2.401166666666667E+009;1.554773300886154E-001;8.850223571062088E-002;4.658089310396463E-004;-5.646164994686842E-003;
2.401333333333334E+009;1.556937694549561E-001;8.556044846773148E-002;4.603436391334981E-004;-5.803227890282869E-003;
2.401500000000000E+009;1.562836766242981E-001;8.275280147790909E-002;3.185663954354823E-004;-5.865046288818121E-003;
2.401666666666667E+009;1.567065119743347E-001;7.988781481981278E-002;2.340828359592706E-004;-5.932382773607969E-003;
2.401833333333334E+009;1.570429950952530E-001;7.715986669063568E-002;9.641852375352755E-005;-5.929083097726107E-003;
2.402000000000000E+009;1.580550521612167E-001;7.436609268188477E-002;6.075736018829048E-005;-6.075985264033079E-003;
2.402166666666667E+009;1.587308794260025E-001;7.173766940832138E-002;-2.769825869108900E-006;-6.288068834692240E-003;
2.402333333333334E+009;1.598711162805557E-001;6.905417144298554E-002;-1.637495151953772E-004;-6.189512088894844E-003;
2.402500000000000E+009;1.608628481626511E-001;6.624963134527206E-002;-5.474842619150877E-004;-6.331155542284250E-003;
2.402666666666667E+009;1.620185524225235E-001;6.399994343519211E-002;-6.804243894293904E-004;-6.389124318957329E-003;
2.402833333333334E+009;1.634844839572907E-001;6.146853417158127E-002;-9.803811553865671E-004;-6.379404105246067E-003;
2.403000000000000E+009;1.649510860443115E-001;5.911573767662048E-002;-1.095653511583805E-003;-6.597667466849089E-003;
2.403166666666667E+009;1.665839105844498E-001;5.698762834072113E-002;-1.742688822560012E-003;-6.521224509924650E-003;
2.403333333333334E+009;1.679362952709198E-001;5.468494072556496E-002;-1.929623191244900E-003;-6.425382569432259E-003;
2.403500000000000E+009;1.697699576616287E-001;5.249322578310967E-002;-2.219540765509009E-003;-6.405575666576624E-003;
2.403666666666667E+009;1.715882569551468E-001;5.059228837490082E-002;-2.586808986961842E-003;-6.289182696491480E-003;
2.403833333333334E+009;1.733806431293488E-001;4.880529642105103E-002;-2.830588724464178E-003;-6.284599658101797E-003;
2.404000000000000E+009;1.746734827756882E-001;4.700858145952225E-002;-3.147054696455598E-003;-5.873680580407381E-003;
2.404166666666667E+009;1.765303462743759E-001;4.545027762651444E-002;-3.398168832063675E-003;-5.731021519750357E-003;
2.404333333333334E+009;1.779752820730209E-001;4.391646757721901E-002;-3.716991282999516E-003;-5.365905351936817E-003;
2.404500000000000E+009;1.797769814729691E-001;4.239211976528168E-002;-3.926890902221203E-003;-5.155287217348814E-003;
2.404666666666667E+009;1.814728230237961E-001;4.148999974131584E-002;-3.973039798438549E-003;-5.028993356972933E-003;
2.404833333333334E+009;1.830349266529083E-001;4.043249785900116E-002;-4.041129723191261E-003;-4.695365671068430E-003;
2.405000000000000E+009;1.843388080596924E-001;3.966990485787392E-002;-4.055524710565805E-003;-4.451506305485964E-003;
2.405166666666667E+009;1.858024150133133E-001;3.894378989934921E-002;-4.250883124768734E-003;-4.142207093536854E-003;
2.405333333333334E+009;1.873412579298019E-001;3.840874135494232E-002;-4.155640490353108E-003;-4.002643283456564E-003;
2.405500000000000E+009;1.886441260576248E-001;3.809478506445885E-002;-4.172000102698803E-003;-3.846319392323494E-003;
2.405666666666667E+009;1.900138854980469E-001;3.758228942751885E-002;-4.318966530263424E-003;-3.726202296093106E-003;
2.405833333333334E+009;1.913282573223114E-001;3.743088617920876E-002;-4.255271982401609E-003;-3.531730966642499E-003;
2.406000000000000E+009;1.922898739576340E-001;3.723195195198059E-002;-4.256277345120907E-003;-3.483071690425277E-003;
2.406166666666667E+009;1.932702660560608E-001;3.712705522775650E-002;-4.357432480901480E-003;-3.368851961567998E-003;
2.406333333333334E+009;1.940876394510269E-001;3.706745803356171E-002;-4.434799309819937E-003;-3.193641314283013E-003;
2.406500000000000E+009;1.949383914470673E-001;3.714441508054733E-002;-4.410689231008291E-003;-3.068135352805257E-003;
2.406666666666667E+009;1.955574303865433E-001;3.717481344938278E-002;-4.457437433302403E-003;-3.035043831914663E-003;
2.406833333333334E+009;1.960820108652115E-001;3.716703504323959E-002;-4.285087343305349E-003;-2.909166272729635E-003;
2.407000000000000E+009;1.963391751050949E-001;3.734311833977699E-002;-4.451258573681116E-003;-2.909466391429305E-003;
2.407166666666667E+009;1.967947632074356E-001;3.710415959358215E-002;-4.427880048751831E-003;-2.870067488402128E-003;
2.407333333333334E+009;1.965941339731216E-001;3.734159469604492E-002;-4.556787665933371E-003;-2.624425338581204E-003;
2.407500000000000E+009;1.965340822935104E-001;3.739855810999870E-002;-4.535835701972246E-003;-2.529745455831289E-003;
2.407666666666667E+009;1.964098066091538E-001;3.733396530151367E-002;-4.587235394865274E-003;-2.540068002417684E-003;
2.407833333333334E+009;1.959911733865738E-001;3.732858225703239E-002;-4.722704179584980E-003;-2.333412645384669E-003;
2.408000000000000E+009;1.959187686443329E-001;3.709174320101738E-002;-4.727843683212996E-003;-2.183223841711879E-003;
2.408166666666667E+009;1.951989680528641E-001;3.684186190366745E-002;-4.542042966932058E-003;-2.283045090734959E-003;
2.408333333333334E+009;1.947434991598129E-001;3.629412129521370E-002;-4.798874258995056E-003;-2.167611848562956E-003;
2.408500000000000E+009;1.938919425010681E-001;3.603839874267578E-002;-4.824909381568432E-003;-2.112596761435270E-003;
2.408666666666667E+009;1.931070834398270E-001;3.558465838432312E-002;-4.920458421111107E-003;-2.090816386044025E-003;
2.408833333333334E+009;1.924448311328888E-001;3.478612750768662E-002;-5.062409676611424E-003;-2.073937095701695E-003;
2.409000000000000E+009;1.913248896598816E-001;3.387029841542244E-002;-5.197036080062389E-003;-1.926743192598224E-003;
2.409166666666667E+009;1.903763264417648E-001;3.295907005667687E-002;-5.117265507578850E-003;-1.762662315741181E-003;
2.409333333333334E+009;1.894301474094391E-001;3.207571059465408E-002;-5.262761842459440E-003;-1.635601278394461E-003;
2.409500000000000E+009;1.881589293479919E-001;3.072074241936207E-002;-5.488407332450151E-003;-1.412540324963629E-003;
2.409666666666667E+009;1.872596293687820E-001;2.932080812752247E-002;-5.720333196222782E-003;-1.403660164214671E-003;
2.409833333333334E+009;1.862463504076004E-001;2.796059288084507E-002;-5.542592145502567E-003;-9.342356352135539E-004;
2.410000000000000E+009;1.850090920925140E-001;2.628121338784695E-002;-5.716580897569656E-003;-8.435684139840305E-004;
2.410166666666667E+009;1.841320693492889E-001;2.444993704557419E-002;-5.533338524401188E-003;-7.340282900258899E-004;
2.410333333333334E+009;1.830535680055618E-001;2.271653898060322E-002;-5.674399435520172E-003;-5.062935524620116E-004;
2.410500000000000E+009;1.818802207708359E-001;2.088616974651814E-002;-5.633015185594559E-003;-3.044956829398871E-004;
2.410666666666667E+009;1.811478286981583E-001;1.852067559957504E-002;-5.642778705805540E-003;-2.735209418460727E-004;
2.410833333333334E+009;1.804487109184265E-001;1.653572544455528E-002;-5.541517864912748E-003;-7.108067075023428E-005;
2.411000000000000E+009;1.797730028629303E-001;1.415752898901701E-002;-5.690249614417553E-003;7.715490937698633E-005;
2.411166666666667E+009;1.789053529500961E-001;1.203766651451588E-002;-5.497943609952927E-003;2.597982529550791E-004;
2.411333333333334E+009;1.786670088768005E-001;9.661480784416199E-003;-5.518875550478697E-003;3.686636628117412E-004;
2.411500000000000E+009;1.779605001211166E-001;7.210507057607174E-003;-5.413873586803675E-003;5.207071662880480E-004;
2.411666666666667E+009;1.777634024620056E-001;4.952493589371443E-003;-5.372852552682161E-003;6.312649347819388E-004;
2.411833333333334E+009;1.775016486644745E-001;2.561928471550345E-003;-5.383266136050224E-003;5.059335380792618E-004;
2.412000000000000E+009;1.776905655860901E-001;-1.927641460497398E-005;-5.293604917824268E-003;7.704675663262606E-004;
2.412166666666667E+009;1.777437031269074E-001;-2.273974940180779E-003;-5.119817331433296E-003;9.086229838430882E-004;
2.412333333333334E+009;1.778394132852554E-001;-4.889176227152348E-003;-5.351420491933823E-003;8.674426935613155E-004;
2.412500000000000E+009;1.783896535634995E-001;-7.282824255526066E-003;-5.292065441608429E-003;9.107424411922693E-004;
2.412666666666667E+009;1.788342297077179E-001;-9.740791283547878E-003;-5.248429719358683E-003;1.129376702010632E-003;
2.412833333333334E+009;1.794744729995728E-001;-1.214343030005693E-002;-5.354460328817368E-003;1.263303915038705E-003;
2.413000000000000E+009;1.803513467311859E-001;-1.442407164722681E-002;-5.456106271594763E-003;1.306154066696763E-003;
2.413166666666667E+009;1.812733262777329E-001;-1.662203669548035E-002;-5.398441571742296E-003;1.520815072581172E-003;
2.413333333333334E+009;1.821502149105072E-001;-1.901148073375225E-002;-5.568458698689938E-003;1.651833415962756E-003;
2.413500000000000E+009;1.830639243125916E-001;-2.118166349828243E-002;-5.493125412613154E-003;1.961718779057264E-003;
2.413666666666667E+009;1.842351704835892E-001;-2.349663153290749E-002;-5.683130584657192E-003;2.070302143692970E-003;
2.413833333333334E+009;1.853695809841156E-001;-2.540701813995838E-002;-5.584320984780788E-003;2.419471275061369E-003;
2.414000000000000E+009;1.864355355501175E-001;-2.727149985730648E-002;-5.588650703430176E-003;2.709623659029603E-003;
2.414166666666667E+009;1.878584772348404E-001;-2.901728264987469E-002;-5.524427630007267E-003;2.892686286941171E-003;
2.414333333333334E+009;1.888053268194199E-001;-3.103432618081570E-002;-5.370557308197022E-003;3.072007792070508E-003;
2.414500000000000E+009;1.901428401470184E-001;-3.246507421135902E-002;-5.444659385830164E-003;3.525647800415754E-003;
2.414666666666667E+009;1.914317458868027E-001;-3.399327024817467E-002;-5.264373496174812E-003;3.660032059997320E-003;
2.414833333333334E+009;1.926241368055344E-001;-3.520821779966354E-002;-5.275324452668428E-003;4.141654353588820E-003;
2.415000000000000E+009;1.937300413846970E-001;-3.650160506367683E-002;-4.940788727253676E-003;4.210637416690588E-003;
2.415166666666667E+009;1.948890089988709E-001;-3.754493221640587E-002;-4.932771902531385E-003;4.446597769856453E-003;
2.415333333333334E+009;1.962307542562485E-001;-3.846020251512528E-002;-4.576364066451788E-003;4.614586476236582E-003;
2.415500000000000E+009;1.972941309213638E-001;-3.907722979784012E-002;-4.293371457606554E-003;4.741118289530277E-003;
2.415666666666667E+009;1.983176767826080E-001;-3.991921991109848E-002;-4.027566872537136E-003;5.032537970691919E-003;
2.415833333333334E+009;1.992681026458740E-001;-4.049795493483543E-002;-4.000509623438120E-003;5.187727976590395E-003;
2.416000000000000E+009;2.000571191310883E-001;-4.108727723360062E-002;-3.706753021106124E-003;5.286616273224354E-003;
2.416166666666667E+009;2.008035480976105E-001;-4.158966243267059E-002;-3.342476207762957E-003;5.374071653932333E-003;
2.416333333333334E+009;2.015228420495987E-001;-4.185251519083977E-002;-3.192375879734755E-003;5.489089991897345E-003;
2.416500000000000E+009;2.020249515771866E-001;-4.212423786520958E-002;-3.122193738818169E-003;5.567602347582579E-003;
2.416666666666667E+009;2.023659050464630E-001;-4.247796162962914E-002;-2.765987068414688E-003;5.710639525204897E-003;
2.416833333333334E+009;2.024827599525452E-001;-4.235420003533363E-002;-2.510055666789413E-003;5.799277219921351E-003;
2.417000000000000E+009;2.027065604925156E-001;-4.258412122726440E-002;-2.247481141239405E-003;5.841347854584456E-003;
2.417166666666667E+009;2.025569677352905E-001;-4.247569292783737E-002;-2.034215489402413E-003;5.880918819457293E-003;
2.417333333333334E+009;2.022567242383957E-001;-4.218819737434387E-002;-1.673564896918833E-003;5.861694924533367E-003;
2.417500000000000E+009;2.019624710083008E-001;-4.224904626607895E-002;-1.521898549981415E-003;5.980786867439747E-003;
2.417666666666667E+009;2.014903873205185E-001;-4.202345013618469E-002;-1.263136393390596E-003;5.876041948795319E-003;
2.417833333333334E+009;2.010727673768997E-001;-4.182128235697746E-002;-9.560260805301368E-004;5.797942634671927E-003;
2.418000000000000E+009;2.004296183586121E-001;-4.154949262738228E-002;-8.017450454644859E-004;5.755837541073561E-003;
2.418166666666667E+009;1.996650844812393E-001;-4.143242537975311E-002;-4.688479821197689E-004;5.833598319441080E-003;
2.418333333333334E+009;1.987200975418091E-001;-4.124812409281731E-002;-3.236462653148919E-004;5.676347296684980E-003;
2.418500000000000E+009;1.976751387119293E-001;-4.142267629504204E-002;-1.062293595168740E-004;5.540758837014437E-003;
2.418666666666667E+009;1.968457698822022E-001;-4.128758981823921E-002;-9.320611752627883E-006;5.409166216850281E-003;
2.418833333333334E+009;1.955738216638565E-001;-4.142400249838829E-002;2.650909882504493E-004;5.257541313767433E-003;
2.419000000000000E+009;1.940977275371552E-001;-4.159574583172798E-002;5.205863271839917E-004;5.200172308832407E-003;
2.419166666666667E+009;1.930254846811295E-001;-4.181846231222153E-002;5.798869533464313E-004;5.153339821845293E-003;
2.419333333333334E+009;1.914882510900497E-001;-4.235944524407387E-002;6.097590085119009E-004;5.110994447022677E-003;
2.419500000000000E+009;1.900704056024551E-001;-4.284184798598290E-002;7.949626888148487E-004;4.819809459149838E-003;
2.419666666666667E+009;1.885686665773392E-001;-4.362747073173523E-002;8.016431238502264E-004;4.906647838652134E-003;
2.419833333333334E+009;1.868885457515717E-001;-4.429609328508377E-002;8.886661380529404E-004;4.750154446810484E-003;
2.420000000000000E+009;1.853841692209244E-001;-4.505965486168861E-002;9.534126729704440E-004;4.665002226829529E-003;
2.420166666666667E+009;1.836915612220764E-001;-4.615517705678940E-002;1.102763577364385E-003;4.478324204683304E-003;
2.420333333333334E+009;1.821511387825012E-001;-4.731703922152519E-002;1.086451113224030E-003;4.342629574239254E-003;
2.420500000000000E+009;1.804761290550232E-001;-4.867707192897797E-002;1.194237614981830E-003;4.344742745161057E-003;
2.420666666666667E+009;1.788736730813980E-001;-4.980257526040077E-002;1.385753857903183E-003;4.234099760651588E-003;
2.420833333333334E+009;1.773766875267029E-001;-5.137152224779129E-002;1.420172397047281E-003;4.034052602946758E-003;
2.421000000000000E+009;1.758552342653275E-001;-5.291143059730530E-002;1.328551443293691E-003;4.061904270201922E-003;
2.421166666666667E+009;1.743032634258270E-001;-5.474380403757095E-002;1.376032480038703E-003;3.846978070214391E-003;
2.421333333333334E+009;1.726768463850021E-001;-5.633461102843285E-002;1.345916418358684E-003;3.914826083928347E-003;
2.421500000000000E+009;1.713898926973343E-001;-5.819364264607430E-002;1.334809116087854E-003;3.774762619286776E-003;
2.421666666666667E+009;1.700759381055832E-001;-6.005673110485077E-002;1.469870912842453E-003;3.705093171447516E-003;
2.421833333333334E+009;1.691665202379227E-001;-6.186332926154137E-002;1.455031568184495E-003;3.768133232370019E-003;
2.422000000000000E+009;1.679342389106751E-001;-6.391844153404236E-002;1.525881350971758E-003;3.737747203558683E-003;
2.422166666666667E+009;1.672287732362747E-001;-6.603789329528809E-002;1.538207521662116E-003;3.550962079316378E-003;
2.422333333333334E+009;1.661066114902496E-001;-6.811772286891937E-002;1.444396213628352E-003;3.661548253148794E-003;
2.422500000000000E+009;1.652774959802628E-001;-7.005083560943604E-002;1.544025028124452E-003;3.713336307555437E-003;
2.422666666666667E+009;1.645796447992325E-001;-7.224336266517639E-002;1.563157187774777E-003;3.663614625111222E-003;
2.422833333333334E+009;1.642177551984787E-001;-7.433541119098663E-002;1.559840398840606E-003;3.676290158182383E-003;
2.423000000000000E+009;1.636493951082230E-001;-7.643920928239822E-002;1.808149274438620E-003;3.654888598248363E-003;
2.423166666666667E+009;1.632800549268723E-001;-7.836527377367020E-002;1.821568002924323E-003;3.604663535952568E-003;
2.423333333333334E+009;1.630821675062180E-001;-8.043070137500763E-002;1.876660389825702E-003;3.488838672637940E-003;
2.423500000000000E+009;1.629371643066406E-001;-8.216687291860580E-002;2.019389765337110E-003;3.472854848951101E-003;
2.423666666666667E+009;1.630624681711197E-001;-8.414781838655472E-002;2.043985528871417E-003;3.529584966599941E-003;
2.423833333333334E+009;1.627975106239319E-001;-8.599752187728882E-002;2.239000983536243E-003;3.406320931389928E-003;
2.424000000000000E+009;1.630001068115234E-001;-8.774125576019287E-002;2.116965828463435E-003;3.352717962116003E-003;
2.424166666666667E+009;1.631155461072922E-001;-8.931224048137665E-002;2.226671902462840E-003;3.249276196584106E-003;
2.424333333333334E+009;1.634360253810883E-001;-9.084124118089676E-002;2.286764560267329E-003;3.311420558020473E-003;
2.424500000000000E+009;1.636664122343063E-001;-9.260519593954086E-002;2.446450991556048E-003;3.319712821394205E-003;
2.424666666666667E+009;1.638457030057907E-001;-9.388058632612228E-002;2.233834471553564E-003;3.214158350601792E-003;
2.424833333333334E+009;1.645528376102448E-001;-9.520866721868515E-002;2.421618439257145E-003;3.261661157011986E-003;
2.425000000000000E+009;1.648622751235962E-001;-9.637468308210373E-002;2.451376523822546E-003;3.170818090438843E-003;
2.425166666666667E+009;1.651336699724197E-001;-9.744534641504288E-002;2.393073402345181E-003;3.396987449377775E-003;
2.425333333333334E+009;1.655393093824387E-001;-9.857855737209320E-002;2.637947443872690E-003;3.185264067724347E-003;
2.425500000000000E+009;1.660210341215134E-001;-9.940805286169052E-002;2.728038001805544E-003;3.302055411040783E-003;
2.425666666666667E+009;1.663872897624970E-001;-1.000549793243408E-001;2.962843049317598E-003;3.295821603387594E-003;
2.425833333333334E+009;1.668510735034943E-001;-1.009637862443924E-001;2.879181411117315E-003;3.220290411263704E-003;
2.426000000000000E+009;1.670620590448380E-001;-1.013089120388031E-001;3.108620177954435E-003;3.226071363314986E-003;
2.426166666666667E+009;1.674981564283371E-001;-1.018391326069832E-001;3.138422034680843E-003;3.136890009045601E-003;
2.426333333333334E+009;1.677078604698181E-001;-1.023828163743019E-001;3.235118929296732E-003;3.033428220078349E-003;
2.426500000000000E+009;1.680588424205780E-001;-1.025060787796974E-001;3.361970186233521E-003;3.073011059314013E-003;
2.426666666666667E+009;1.682325154542923E-001;-1.028845012187958E-001;3.659944981336594E-003;3.091928549110889E-003;
2.426833333333334E+009;1.685267090797424E-001;-1.032058969140053E-001;3.606952028349042E-003;2.958370139822364E-003;
2.427000000000000E+009;1.684157252311707E-001;-1.033440455794334E-001;3.680797060951591E-003;2.838276559486985E-003;
2.427166666666667E+009;1.684808582067490E-001;-1.034336313605309E-001;3.968147095292807E-003;2.805940108373761E-003;
2.427333333333334E+009;1.683146208524704E-001;-1.035667061805725E-001;4.118642769753933E-003;2.669726964086294E-003;
2.427500000000000E+009;1.680222451686859E-001;-1.037927269935608E-001;4.056358244270086E-003;2.494588727131486E-003;
2.427666666666667E+009;1.677870005369186E-001;-1.038519442081451E-001;4.224897827953100E-003;2.588042523711920E-003;
2.427833333333334E+009;1.673763990402222E-001;-1.038759946823120E-001;4.450700711458921E-003;2.320773433893919E-003;
