# Version 1.00
#
freq[Hz];re:Trc1_S11;im:Trc1_S11;re:Trc2_S21;im:Trc2_S21;
2.400000000000000E+009;1.552721560001373E-001;1.070530340075493E-001;1.543594873510301E-003;-6.054884754121304E-003;
2.400166666666667E+009;1.549564301967621E-001;1.046365052461624E-001;1.302105258218944E-003;-6.083583459258080E-003;
2.400333333333334E+009;1.551074683666229E-001;1.023357585072517E-001;1.267846673727036E-003;-6.011930759996176E-003;
2.400500000000000E+009;1.551001965999603E-001;9.958096593618393E-002;1.036175061017275E-003;-5.875257309526205E-003;
2.400666666666667E+009;1.551465094089508E-001;9.710080921649933E-002;9.173499420285225E-004;-5.757156293839216E-003;
2.400833333333334E+009;1.550308018922806E-001;9.414391219615936E-002;8.154567913152278E-004;-5.813501775264740E-003;
2.401000000000000E+009;1.552316695451737E-001;9.146425127983093E-002;6.846474716439843E-004;-5.684787873178721E-003;
2.401166666666667E+009;1.553441584110260E-001;8.860823512077332E-002;7.150031160563231E-004;-5.806422792375088E-003;
2.401333333333334E+009;1.557317674160004E-001;8.565364778041840E-002;5.772405420430005E-004;-5.801754072308540E-003;
2.401500000000000E+009;1.561576873064041E-001;8.275584131479263E-002;4.545419651549310E-004;-5.728358868509531E-003;
2.401666666666667E+009;1.564704179763794E-001;8.000189810991287E-002;3.561768098734319E-004;-5.908996798098087E-003;
2.401833333333334E+009;1.570639461278915E-001;7.726182788610458E-002;2.414865884929895E-004;-5.886374507099390E-003;
2.402000000000000E+009;1.579274833202362E-001;7.433128356933594E-002;1.766959467204288E-004;-6.019228138029575E-003;
2.402166666666667E+009;1.587129831314087E-001;7.198294252157211E-002;4.245738819008693E-005;-6.051825825124979E-003;
2.402333333333334E+009;1.596711724996567E-001;6.909339874982834E-002;-5.861260069650598E-005;-6.297894287854433E-003;
2.402500000000000E+009;1.608481705188751E-001;6.651521474123001E-002;-3.287314029876143E-004;-6.424684077501297E-003;
2.402666666666667E+009;1.619323641061783E-001;6.413065642118454E-002;-5.978283588774502E-004;-6.290076766163111E-003;
2.402833333333334E+009;1.633417010307312E-001;6.161708757281303E-002;-8.374437456950545E-004;-6.438254844397306E-003;
2.403000000000000E+009;1.647173315286636E-001;5.924350023269653E-002;-1.139391213655472E-003;-6.518070586025715E-003;
2.403166666666667E+009;1.665073484182358E-001;5.703316628932953E-002;-1.278870389796794E-003;-6.457091309130192E-003;
2.403333333333334E+009;1.679165363311768E-001;5.477451905608177E-002;-1.752203097566962E-003;-6.424087565392256E-003;
2.403500000000000E+009;1.696369498968124E-001;5.268413946032524E-002;-1.994754653424025E-003;-6.502226460725069E-003;
2.403666666666667E+009;1.715457290410996E-001;5.057884380221367E-002;-2.554031554609537E-003;-6.338216830044985E-003;
2.403833333333334E+009;1.730509847402573E-001;4.879961907863617E-002;-2.801888389512897E-003;-6.221551448106766E-003;
2.404000000000000E+009;1.746900826692581E-001;4.711272194981575E-002;-2.938234480097890E-003;-6.036392878741026E-003;
2.404166666666667E+009;1.764414906501770E-001;4.545790329575539E-002;-3.390715224668384E-003;-5.749475676566362E-003;
2.404333333333334E+009;1.781476736068726E-001;4.406696930527687E-002;-3.631055820733309E-003;-5.492260679602623E-003;
2.404500000000000E+009;1.796821355819702E-001;4.265384003520012E-002;-3.664218587800860E-003;-5.265781655907631E-003;
2.404666666666667E+009;1.813409179449081E-001;4.157200828194618E-002;-3.862241283059120E-003;-4.983251914381981E-003;
2.404833333333334E+009;1.830560117959976E-001;4.041230306029320E-002;-4.106371663510799E-003;-4.744792357087135E-003;
2.405000000000000E+009;1.844811439514160E-001;3.976145759224892E-002;-4.089892841875553E-003;-4.454920534044504E-003;
2.405166666666667E+009;1.858867406845093E-001;3.908804804086685E-002;-4.137014038860798E-003;-4.233993589878082E-003;
2.405333333333334E+009;1.872760802507401E-001;3.857370093464851E-002;-4.189395811408758E-003;-4.162701778113842E-003;
2.405500000000000E+009;1.888637244701386E-001;3.801878914237022E-002;-4.167013335973024E-003;-3.904271638020873E-003;
2.405666666666667E+009;1.900218427181244E-001;3.768084943294525E-002;-4.262351896613836E-003;-3.814274678006768E-003;
2.405833333333334E+009;1.911826431751251E-001;3.753903508186340E-002;-4.169138148427010E-003;-3.650701139122248E-003;
2.406000000000000E+009;1.922450810670853E-001;3.721655532717705E-002;-4.251911304891110E-003;-3.636398352682591E-003;
2.406166666666667E+009;1.931985020637512E-001;3.714947402477264E-002;-4.279164597392082E-003;-3.337111556902528E-003;
2.406333333333334E+009;1.941467225551605E-001;3.714992478489876E-002;-4.289665259420872E-003;-3.251463174819946E-003;
2.406500000000000E+009;1.950067579746246E-001;3.718593344092369E-002;-4.344209562987089E-003;-3.108927514404059E-003;
2.406666666666667E+009;1.956075876951218E-001;3.728858381509781E-002;-4.350594244897366E-003;-3.171157324686647E-003;
2.406833333333334E+009;1.960986107587814E-001;3.731722012162209E-002;-4.326124209910631E-003;-3.015435533598065E-003;
2.407000000000000E+009;1.964405179023743E-001;3.752729296684265E-002;-4.341523628681898E-003;-2.825642470270395E-003;
2.407166666666667E+009;1.966098695993424E-001;3.726420179009438E-002;-4.521409049630165E-003;-2.766474848613143E-003;
2.407333333333334E+009;1.965889483690262E-001;3.746163472533226E-002;-4.454383626580238E-003;-2.679679775610566E-003;
2.407500000000000E+009;1.965130269527435E-001;3.769360855221748E-002;-4.452470690011978E-003;-2.503938274458051E-003;
2.407666666666667E+009;1.965462565422058E-001;3.759180754423142E-002;-4.595492966473103E-003;-2.555138664320111E-003;
2.407833333333334E+009;1.959257721900940E-001;3.749773651361466E-002;-4.527566954493523E-003;-2.552531193941832E-003;
2.408000000000000E+009;1.958084106445313E-001;3.731273859739304E-002;-4.662639927119017E-003;-2.468149643391371E-003;
2.408166666666667E+009;1.950848549604416E-001;3.696851432323456E-002;-4.712749272584915E-003;-2.519288333132863E-003;
2.408333333333334E+009;1.946747004985809E-001;3.643295541405678E-002;-4.737194627523422E-003;-2.340508159250021E-003;
2.408500000000000E+009;1.939088553190231E-001;3.613203763961792E-002;-4.803235176950693E-003;-2.232181141152978E-003;
2.408666666666667E+009;1.931390762329102E-001;3.560618683695793E-002;-4.921870771795511E-003;-2.095893025398254E-003;
2.408833333333334E+009;1.925246119499207E-001;3.483818843960762E-002;-5.035483743995428E-003;-2.066214336082339E-003;
2.409000000000000E+009;1.914474964141846E-001;3.377113118767738E-002;-5.078501999378204E-003;-1.957048429176211E-003;
2.409166666666667E+009;1.903928369283676E-001;3.306828439235687E-002;-5.253890994936228E-003;-1.939934794791043E-003;
2.409333333333334E+009;1.894727647304535E-001;3.207134827971458E-002;-5.387329030781984E-003;-1.592125045135617E-003;
2.409500000000000E+009;1.882893294095993E-001;3.077570721507072E-002;-5.432501435279846E-003;-1.623428659513593E-003;
2.409666666666667E+009;1.872188299894333E-001;2.947269380092621E-002;-5.566679406911135E-003;-1.475840923376381E-003;
2.409833333333334E+009;1.861088424921036E-001;2.801964245736599E-002;-5.644928198307753E-003;-1.171162934042513E-003;
2.410000000000000E+009;1.851375997066498E-001;2.639556117355824E-002;-5.491747520864010E-003;-9.003048762679100E-004;
2.410166666666667E+009;1.839759647846222E-001;2.475657127797604E-002;-5.588765256106854E-003;-8.076006197370589E-004;
2.410333333333334E+009;1.830753982067108E-001;2.273966930806637E-002;-5.768244154751301E-003;-6.757145747542381E-004;
2.410500000000000E+009;1.820071786642075E-001;2.098093740642071E-002;-5.802171770483255E-003;-4.194159409962595E-004;
2.410666666666667E+009;1.812221109867096E-001;1.875004917383194E-002;-5.703606642782688E-003;-2.949737827293575E-004;
2.410833333333334E+009;1.802988201379776E-001;1.662006787955761E-002;-5.624323617666960E-003;-1.310299285250949E-005;
2.411000000000000E+009;1.799005120992661E-001;1.427483558654785E-002;-5.564969033002853E-003;1.389483659295365E-004;
2.411166666666667E+009;1.790441572666168E-001;1.224038470536470E-002;-5.516246426850557E-003;2.574698592070490E-004;
2.411333333333334E+009;1.786244511604309E-001;9.619759395718575E-003;-5.421563517302275E-003;4.072435549460352E-004;
2.411500000000000E+009;1.780789345502853E-001;7.335709873586893E-003;-5.433494225144386E-003;3.796503879129887E-004;
2.411666666666667E+009;1.778503060340881E-001;4.937022924423218E-003;-5.518915131688118E-003;6.088851951062679E-004;
2.411833333333334E+009;1.775132119655609E-001;2.606734167784452E-003;-5.607448983937502E-003;7.364039774984121E-004;
2.412000000000000E+009;1.777710020542145E-001;9.225305257132277E-005;-5.326800048351288E-003;8.478559320792556E-004;
2.412166666666667E+009;1.776664853096008E-001;-2.248013392090797E-003;-5.137687083333731E-003;8.251086110249162E-004;
2.412333333333334E+009;1.778876185417175E-001;-4.732315428555012E-003;-5.419472232460976E-003;1.020724419504404E-003;
2.412500000000000E+009;1.784003227949143E-001;-7.108788937330246E-003;-5.469541996717453E-003;1.276492723263800E-003;
2.412666666666667E+009;1.789262592792511E-001;-9.689149446785450E-003;-5.369630642235279E-003;1.106581068597734E-003;
2.412833333333334E+009;1.796166002750397E-001;-1.211594324558973E-002;-5.466148257255554E-003;1.295105437748134E-003;
2.413000000000000E+009;1.803374886512756E-001;-1.446712110191584E-002;-5.580050870776177E-003;1.444240566343069E-003;
2.413166666666667E+009;1.811782866716385E-001;-1.658123172819614E-002;-5.502359941601753E-003;1.536725321784616E-003;
2.413333333333334E+009;1.821413636207581E-001;-1.895219832658768E-002;-5.581174045801163E-003;1.675477717071772E-003;
2.413500000000000E+009;1.830871999263763E-001;-2.128722332417965E-002;-5.676849745213985E-003;1.805887906812131E-003;
2.413666666666667E+009;1.843723356723785E-001;-2.333209291100502E-002;-5.638689734041691E-003;2.017152495682240E-003;
2.413833333333334E+009;1.854545623064041E-001;-2.538886293768883E-002;-5.760278552770615E-003;2.348328242078424E-003;
2.414000000000000E+009;1.864734888076782E-001;-2.725923061370850E-002;-5.646732170134783E-003;2.714439528062940E-003;
2.414166666666667E+009;1.878203153610230E-001;-2.905862219631672E-002;-5.738441832363606E-003;2.830389887094498E-003;
2.414333333333334E+009;1.889193803071976E-001;-3.086856752634049E-002;-5.579614080488682E-003;3.183123422786593E-003;
2.414500000000000E+009;1.902927011251450E-001;-3.227271884679794E-002;-5.467658396810293E-003;3.510908223688602E-003;
2.414666666666667E+009;1.913930773735046E-001;-3.382913023233414E-002;-5.452965851873159E-003;3.634194610640407E-003;
2.414833333333334E+009;1.925477087497711E-001;-3.519110381603241E-002;-5.161087494343519E-003;3.994373604655266E-003;
2.415000000000000E+009;1.936479210853577E-001;-3.633845597505570E-002;-5.014466121792793E-003;4.269706550985575E-003;
2.415166666666667E+009;1.950727999210358E-001;-3.750377148389816E-002;-4.749401006847620E-003;4.532725084573031E-003;
2.415333333333334E+009;1.962100416421890E-001;-3.840209543704987E-002;-4.574225284159184E-003;4.733247216790915E-003;
2.415500000000000E+009;1.973439157009125E-001;-3.913946822285652E-002;-4.497519228607416E-003;4.925203509628773E-003;
2.415666666666667E+009;1.983937919139862E-001;-3.993864730000496E-002;-4.241772927343845E-003;4.989928565919399E-003;
2.415833333333334E+009;1.994153857231140E-001;-4.051715880632401E-002;-3.875735448673368E-003;5.144598428159952E-003;
2.416000000000000E+009;2.000789493322372E-001;-4.107613116502762E-002;-3.818315453827381E-003;5.218758713454008E-003;
2.416166666666667E+009;2.009639889001846E-001;-4.159110039472580E-002;-3.667311742901802E-003;5.437495186924934E-003;
2.416333333333334E+009;2.016238868236542E-001;-4.182703420519829E-002;-3.470516763627529E-003;5.605383310467005E-003;
2.416500000000000E+009;2.020942419767380E-001;-4.203017055988312E-002;-3.058715257793665E-003;5.590937100350857E-003;
2.416666666666667E+009;2.024299353361130E-001;-4.243601486086845E-002;-2.758490387350321E-003;5.624814424663782E-003;
2.416833333333334E+009;2.025829553604126E-001;-4.249266907572746E-002;-2.548017073422670E-003;5.774087272584438E-003;
2.417000000000000E+009;2.028949111700058E-001;-4.254756495356560E-002;-2.287401352077723E-003;5.885762162506580E-003;
2.417166666666667E+009;2.025141566991806E-001;-4.235156998038292E-002;-1.943654497154057E-003;5.977189633995295E-003;
2.417333333333334E+009;2.023903131484985E-001;-4.227790609002113E-002;-1.756802550517023E-003;5.831646267324686E-003;
2.417500000000000E+009;2.020685374736786E-001;-4.227653145790100E-002;-1.543340971693397E-003;5.914880428463221E-003;
2.417666666666667E+009;2.016105800867081E-001;-4.201517999172211E-002;-1.176723046228290E-003;5.994181614369154E-003;
2.417833333333334E+009;2.011035382747650E-001;-4.181832447648048E-002;-1.044279197230935E-003;5.915217567235231E-003;
2.418000000000000E+009;2.004693597555161E-001;-4.157530516386032E-002;-8.823216194286943E-004;5.744198337197304E-003;
2.418166666666667E+009;1.996780037879944E-001;-4.154133051633835E-002;-5.756796454079449E-004;5.667175631970167E-003;
2.418333333333334E+009;1.987306922674179E-001;-4.136738926172257E-002;-4.226380842737854E-004;5.693878978490830E-003;
2.418500000000000E+009;1.978264003992081E-001;-4.142790287733078E-002;-2.506383752916008E-004;5.550694651901722E-003;
2.418666666666667E+009;1.968495845794678E-001;-4.127087816596031E-002;1.323357719229534E-004;5.542111117392778E-003;
2.418833333333334E+009;1.955297589302063E-001;-4.147792235016823E-002;1.346874341834337E-004;5.426389630883932E-003;
2.419000000000000E+009;1.943166702985764E-001;-4.147062078118324E-002;2.622769388835877E-004;5.262220744043589E-003;
2.419166666666667E+009;1.930173039436340E-001;-4.190434888005257E-002;5.172472447156906E-004;5.088709760457277E-003;
2.419333333333334E+009;1.915869116783142E-001;-4.238299280405045E-002;5.665560020133853E-004;5.009447224438191E-003;
2.419500000000000E+009;1.900757998228073E-001;-4.284026846289635E-002;7.224275614134967E-004;4.853867460042238E-003;
2.419666666666667E+009;1.884835809469223E-001;-4.356262087821960E-002;7.650012266822159E-004;4.928511567413807E-003;
2.419833333333334E+009;1.870070099830627E-001;-4.431077837944031E-002;9.085515630431473E-004;4.714616108685732E-003;
2.420000000000000E+009;1.855013221502304E-001;-4.514076188206673E-002;9.837180841714144E-004;4.555684514343739E-003;
2.420166666666667E+009;1.839067637920380E-001;-4.597926139831543E-002;1.124872127547860E-003;4.526521079242230E-003;
2.420333333333334E+009;1.821011602878571E-001;-4.732721298933029E-002;1.226865337230265E-003;4.581281915307045E-003;
2.420500000000000E+009;1.803947091102600E-001;-4.863236844539642E-002;1.177525613456965E-003;4.351435229182243E-003;
2.420666666666667E+009;1.789543181657791E-001;-4.978524893522263E-002;1.220688107423484E-003;4.392003640532494E-003;
2.420833333333334E+009;1.772300899028778E-001;-5.139029026031494E-002;1.343007781542838E-003;4.270574543625116E-003;
2.421000000000000E+009;1.757745593786240E-001;-5.292485654354096E-002;1.317018875852227E-003;4.235886503010988E-003;
2.421166666666667E+009;1.744388490915299E-001;-5.467314645648003E-002;1.350638107396662E-003;4.109904635697603E-003;
2.421333333333334E+009;1.728234291076660E-001;-5.630533769726753E-002;1.450408948585391E-003;3.911180421710014E-003;
2.421500000000000E+009;1.714660674333572E-001;-5.826016142964363E-002;1.363150659017265E-003;3.863489022478461E-003;
2.421666666666667E+009;1.702964752912521E-001;-6.000134348869324E-002;1.442662789486349E-003;3.801197046414018E-003;
2.421833333333334E+009;1.691891252994537E-001;-6.204634159803391E-002;1.385267591103911E-003;3.884679637849331E-003;
2.422000000000000E+009;1.681294590234757E-001;-6.395274400711060E-002;1.572525710798800E-003;3.739146515727043E-003;
2.422166666666667E+009;1.673292815685272E-001;-6.606207042932510E-002;1.381905749440193E-003;3.914214670658112E-003;
2.422333333333334E+009;1.660849899053574E-001;-6.811411678791046E-002;1.573830377310515E-003;3.581253113225102E-003;
2.422500000000000E+009;1.654407829046249E-001;-7.002543658018112E-002;1.495128497481346E-003;3.860834287479520E-003;
2.422666666666667E+009;1.647316664457321E-001;-7.216905057430267E-002;1.629865379072726E-003;3.879545954987407E-003;
2.422833333333334E+009;1.641272753477097E-001;-7.436127960681915E-002;1.679091015830636E-003;3.701900132000446E-003;
2.423000000000000E+009;1.637980341911316E-001;-7.645887881517410E-002;1.637744484469295E-003;3.786878194659948E-003;
2.423166666666667E+009;1.634808927774429E-001;-7.851514220237732E-002;1.911774859763682E-003;3.638809779658914E-003;
2.423333333333334E+009;1.631187200546265E-001;-8.044683933258057E-002;1.957715954631567E-003;3.653364488855004E-003;
2.423500000000000E+009;1.631323844194412E-001;-8.224634826183319E-002;1.963727176189423E-003;3.678011009469628E-003;
2.423666666666667E+009;1.629788428544998E-001;-8.416103571653366E-002;2.162478398531675E-003;3.629521932452917E-003;
2.423833333333334E+009;1.630621552467346E-001;-8.593899756669998E-002;2.221197355538607E-003;3.566348692402244E-003;
2.424000000000000E+009;1.632124334573746E-001;-8.770588040351868E-002;2.176814479753375E-003;3.371035214513540E-003;
2.424166666666667E+009;1.632439792156220E-001;-8.936627209186554E-002;2.160033211112022E-003;3.452271455898881E-003;
2.424333333333334E+009;1.634091734886169E-001;-9.088718146085739E-002;2.220466732978821E-003;3.350010840222240E-003;
2.424500000000000E+009;1.638578772544861E-001;-9.265846759080887E-002;2.330763963982463E-003;3.399856388568878E-003;
2.424666666666667E+009;1.639935374259949E-001;-9.399505704641342E-002;2.386583946645260E-003;3.417610889300704E-003;
2.424833333333334E+009;1.646443754434586E-001;-9.529595822095871E-002;2.237944630905986E-003;3.232145914807916E-003;
2.425000000000000E+009;1.650278568267822E-001;-9.646110236644745E-002;2.540334826335311E-003;3.369798650965095E-003;
2.425166666666667E+009;1.652284115552902E-001;-9.749878942966461E-002;2.632335526868701E-003;3.216318553313613E-003;
2.425333333333334E+009;1.656327098608017E-001;-9.857071936130524E-002;2.655504737049341E-003;3.338837297633290E-003;
2.425500000000000E+009;1.661330163478851E-001;-9.937648475170136E-002;2.787921577692032E-003;3.216695273295045E-003;
2.425666666666667E+009;1.665072441101074E-001;-1.001570448279381E-001;3.068082267418504E-003;3.343031974509358E-003;
2.425833333333334E+009;1.667908132076263E-001;-1.010108068585396E-001;3.016110742464662E-003;3.398865927010775E-003;
2.426000000000000E+009;1.672104597091675E-001;-1.014050021767616E-001;3.093737410381436E-003;3.330220701172948E-003;
2.426166666666667E+009;1.676637232303619E-001;-1.018666326999664E-001;3.214742755517364E-003;3.290071152150631E-003;
2.426333333333334E+009;1.676857918500900E-001;-1.023981571197510E-001;3.304065903648734E-003;3.098914399743080E-003;
2.426500000000000E+009;1.683217585086823E-001;-1.026076674461365E-001;3.436869708821178E-003;3.035592846572399E-003;
2.426666666666667E+009;1.683606207370758E-001;-1.029684841632843E-001;3.610757645219564E-003;2.815481740981340E-003;
2.426833333333334E+009;1.686037629842758E-001;-1.032655388116837E-001;3.674786770716310E-003;2.977101132273674E-003;
2.427000000000000E+009;1.685995012521744E-001;-1.033941358327866E-001;3.840985009446740E-003;2.845383482053876E-003;
2.427166666666667E+009;1.685526818037033E-001;-1.034499630331993E-001;3.928247373551130E-003;2.846851944923401E-003;
2.427333333333334E+009;1.684033870697022E-001;-1.037378236651421E-001;4.120159894227982E-003;2.592366654425860E-003;
2.427500000000000E+009;1.681760400533676E-001;-1.038803383708000E-001;4.141181241720915E-003;2.616205485537648E-003;
2.427666666666667E+009;1.678012311458588E-001;-1.038871109485626E-001;4.375436808913946E-003;2.458909060806036E-003;
2.427833333333334E+009;1.674350947141647E-001;-1.039936766028404E-001;4.438507836312056E-003;2.461906056851149E-003;
