# Version 1.00
#
freq[Hz];re:Trc1_S11;im:Trc1_S11;re:Trc2_S21;im:Trc2_S21;
2.400000000000000E+009;1.551853120326996E-001;1.071289181709290E-001;1.438067294657230E-003;-6.146522238850594E-003;
2.400166666666667E+009;1.551544964313507E-001;1.056809201836586E-001;1.509023830294609E-003;-6.487387232482433E-003;
2.400333333333334E+009;1.556551307439804E-001;1.027899160981178E-001;1.009350526146591E-003;-6.197040900588036E-003;
2.400500000000000E+009;1.553586423397064E-001;1.003093272447586E-001;1.186423003673554E-003;-6.222226191312075E-003;
2.400666666666667E+009;1.551216542720795E-001;9.699490666389465E-002;8.242671028710902E-004;-5.980100017040968E-003;
2.400833333333334E+009;1.551204919815064E-001;9.412484616041184E-002;7.700467249378562E-004;-5.917185917496681E-003;
2.401000000000000E+009;1.548353284597397E-001;9.044875204563141E-002;5.851205205544829E-004;-5.560141522437334E-003;
2.401166666666667E+009;1.553991436958313E-001;8.860817551612854E-002;4.714439564850181E-004;-5.910338368266821E-003;
2.401333333333334E+009;1.557352542877197E-001;8.578240871429443E-002;4.638888058252633E-004;-5.919938907027245E-003;
2.401500000000000E+009;1.563000380992889E-001;8.286031335592270E-002;3.632953157648444E-004;-5.831065587699413E-003;
2.401666666666667E+009;1.564615517854691E-001;7.996403425931931E-002;2.705832303036004E-004;-5.960468668490648E-003;
2.401833333333334E+009;1.571166515350342E-001;7.720324397087097E-002;2.364053943892941E-004;-6.050472147762775E-003;
2.402000000000000E+009;1.580498814582825E-001;7.438877969980240E-002;9.251861047232524E-005;-6.110842339694500E-003;
2.402166666666667E+009;1.588201522827148E-001;7.176738977432251E-002;1.769292866811156E-004;-6.166008766740561E-003;
2.402333333333334E+009;1.598001122474670E-001;6.902075558900833E-002;-2.912560594268143E-004;-6.225523538887501E-003;
2.402500000000000E+009;1.609976589679718E-001;6.653018295764923E-002;-3.797227400355041E-004;-6.339512765407562E-003;
2.402666666666667E+009;1.622296869754791E-001;6.414458155632019E-002;-6.012941594235599E-004;-6.529276724904776E-003;
2.402833333333334E+009;1.635757386684418E-001;6.186164915561676E-002;-7.467627874575555E-004;-6.567115429788828E-003;
2.403000000000000E+009;1.648663729429245E-001;5.924585461616516E-002;-1.257118536159396E-003;-6.695881951600313E-003;
2.403166666666667E+009;1.666676104068756E-001;5.713228881359100E-002;-1.534278853796423E-003;-6.725978571921587E-003;
2.403333333333334E+009;1.679511517286301E-001;5.479444563388825E-002;-1.929433434270322E-003;-6.713268347084522E-003;
2.403500000000000E+009;1.697607487440109E-001;5.279687047004700E-002;-2.166326390579343E-003;-6.482778582721949E-003;
2.403666666666667E+009;1.714606583118439E-001;5.090265721082687E-002;-2.422053366899490E-003;-6.425318773835897E-003;
2.403833333333334E+009;1.731430739164352E-001;4.902495816349983E-002;-2.847624942660332E-003;-6.256764754652977E-003;
2.404000000000000E+009;1.745362281799316E-001;4.717147722840309E-002;-3.131711157038808E-003;-5.925556644797325E-003;
2.404166666666667E+009;1.764557659626007E-001;4.555149003863335E-002;-3.476643236353993E-003;-5.877214018255472E-003;
2.404333333333334E+009;1.780083924531937E-001;4.426028206944466E-002;-3.570846747606993E-003;-5.485005211085081E-003;
2.404500000000000E+009;1.796786189079285E-001;4.270704463124275E-002;-3.732594894245267E-003;-5.218423902988434E-003;
2.404666666666667E+009;1.813102662563324E-001;4.167643561959267E-002;-3.790709888562560E-003;-5.162544548511505E-003;
2.404833333333334E+009;1.830518692731857E-001;4.051051661372185E-002;-4.002339206635952E-003;-4.823730327188969E-003;
2.405000000000000E+009;1.843461096286774E-001;3.989535570144653E-002;-4.020591732114554E-003;-4.616092424839735E-003;
2.405166666666667E+009;1.858109086751938E-001;3.915636613965035E-002;-4.090145695954561E-003;-4.344213288277388E-003;
2.405333333333334E+009;1.871741861104965E-001;3.848954662680626E-002;-4.008744377642870E-003;-3.749664872884750E-003;
2.405500000000000E+009;1.889485716819763E-001;3.824352845549583E-002;-4.589626099914312E-003;-3.913798369467259E-003;
2.405666666666667E+009;1.901679039001465E-001;3.769787028431892E-002;-4.716577008366585E-003;-3.376635257154703E-003;
2.405833333333334E+009;1.911789327859879E-001;3.757693618535996E-002;-4.223927389830351E-003;-3.373076673597097E-003;
2.406000000000000E+009;1.922137141227722E-001;3.731838241219521E-002;-4.145143553614616E-003;-3.105619689449668E-003;
2.406166666666667E+009;1.932621151208878E-001;3.731229528784752E-002;-4.342693369835615E-003;-3.318213392049074E-003;
2.406333333333334E+009;1.941784769296646E-001;3.718385100364685E-002;-4.250295925885439E-003;-3.037113230675459E-003;
2.406500000000000E+009;1.949266791343689E-001;3.733729943633080E-002;-4.421145189553499E-003;-3.294047666713595E-003;
2.406666666666667E+009;1.956783384084702E-001;3.729931637644768E-002;-4.754194058477879E-003;-2.470615785568953E-003;
2.406833333333334E+009;1.960458904504776E-001;3.739248961210251E-002;-4.486343823373318E-003;-2.944242674857378E-003;
2.407000000000000E+009;1.964998394250870E-001;3.758297860622406E-002;-4.492351785302162E-003;-2.901186933740974E-003;
2.407166666666667E+009;1.966980248689652E-001;3.738446906208992E-002;-4.563828464597464E-003;-2.905069384723902E-003;
2.407333333333334E+009;1.965680718421936E-001;3.767165914177895E-002;-4.478588234633207E-003;-2.663146238774061E-003;
2.407500000000000E+009;1.966332644224167E-001;3.771575912833214E-002;-4.580914974212647E-003;-2.647947287186980E-003;
2.407666666666667E+009;1.965295523405075E-001;3.752431273460388E-002;-4.715887364000082E-003;-2.569877309724689E-003;
2.407833333333334E+009;1.961106508970261E-001;3.759425505995750E-002;-4.626558627933264E-003;-2.489239443093538E-003;
2.408000000000000E+009;1.958620101213455E-001;3.733717277646065E-002;-4.637731239199638E-003;-2.409703331068158E-003;
2.408166666666667E+009;1.952510327100754E-001;3.712116554379463E-002;-4.670128226280212E-003;-2.333167707547545E-003;
2.408333333333334E+009;1.947901993989945E-001;3.651660680770874E-002;-4.971219692379236E-003;-2.286478877067566E-003;
2.408500000000000E+009;1.940243244171143E-001;3.629766404628754E-002;-4.865874070674181E-003;-2.163929399102926E-003;
2.408666666666667E+009;1.933310776948929E-001;3.560252860188484E-002;-4.983751103281975E-003;-2.231069141998887E-003;
2.408833333333334E+009;1.926307976245880E-001;3.487427905201912E-002;-5.166803486645222E-003;-2.096795942634344E-003;
2.409000000000000E+009;1.915550678968430E-001;3.407243266701698E-002;-5.386200267821550E-003;-2.002842258661985E-003;
2.409166666666667E+009;1.905320286750794E-001;3.297065570950508E-002;-5.340256262570620E-003;-1.894349465146661E-003;
2.409333333333334E+009;1.896727085113525E-001;3.208701312541962E-002;-5.380004644393921E-003;-1.775563927367330E-003;
2.409500000000000E+009;1.883579343557358E-001;3.073587268590927E-002;-5.580482538789511E-003;-1.507740933448076E-003;
2.409666666666667E+009;1.872895658016205E-001;2.938001975417137E-002;-5.657783709466457E-003;-1.495127915404737E-003;
2.409833333333334E+009;1.861550807952881E-001;2.791100740432739E-002;-5.830946844071150E-003;-1.270841807126999E-003;
2.410000000000000E+009;1.852344423532486E-001;2.619361318647862E-002;-5.816411692649126E-003;-9.178168256767094E-004;
2.410166666666667E+009;1.841894984245300E-001;2.448061667382717E-002;-5.872307345271111E-003;-7.855101139284670E-004;
2.410333333333334E+009;1.830496191978455E-001;2.283754199743271E-002;-5.733119323849678E-003;-5.051965126767755E-004;
2.410500000000000E+009;1.820483207702637E-001;2.089275978505611E-002;-5.738055333495140E-003;-3.217862686142325E-004;
2.410666666666667E+009;1.813566088676453E-001;1.860094070434570E-002;-5.698801018297672E-003;-2.016386570176110E-004;
2.410833333333334E+009;1.805846095085144E-001;1.663856022059917E-002;-5.903485696762800E-003;5.036351285525598E-005;
2.411000000000000E+009;1.798587590456009E-001;1.444535143673420E-002;-5.607040598988533E-003;9.610924462322146E-005;
2.411166666666667E+009;1.789413988590241E-001;1.209395099431276E-002;-5.640587769448757E-003;2.993122616317123E-004;
2.411333333333334E+009;1.785887330770493E-001;9.555370546877384E-003;-5.639855284243822E-003;4.328251234255731E-004;
2.411500000000000E+009;1.781958788633347E-001;7.277499884366989E-003;-5.619183648377657E-003;6.090364186093211E-004;
2.411666666666667E+009;1.779004484415054E-001;4.982406739145517E-003;-5.365476943552494E-003;5.851400201208890E-004;
2.411833333333334E+009;1.776178777217865E-001;2.400047611445189E-003;-5.407908465713263E-003;6.210878491401672E-004;
2.412000000000000E+009;1.776965111494064E-001;9.692642197478563E-005;-5.452369339764118E-003;8.297043386846781E-004;
2.412166666666667E+009;1.778844892978668E-001;-2.338794525712729E-003;-5.398833658546209E-003;8.487214217893779E-004;
2.412333333333334E+009;1.779511421918869E-001;-4.855587612837553E-003;-5.503739230334759E-003;1.044042874127626E-003;
2.412500000000000E+009;1.786094903945923E-001;-7.251759991049767E-003;-5.377384833991528E-003;1.058000372722745E-003;
2.412666666666667E+009;1.790528893470764E-001;-9.699152782559395E-003;-5.296909250319004E-003;1.258877455256879E-003;
2.412833333333334E+009;1.795382350683212E-001;-1.214226149022579E-002;-5.534244701266289E-003;1.389189506880939E-003;
2.413000000000000E+009;1.803873628377914E-001;-1.453331857919693E-002;-5.503872875124216E-003;1.461168983951211E-003;
2.413166666666667E+009;1.809883713722229E-001;-1.673338003456593E-002;-5.428375676274300E-003;1.605363911949098E-003;
2.413333333333334E+009;1.822276562452316E-001;-1.906119287014008E-002;-5.562873557209969E-003;1.747575821354985E-003;
2.413500000000000E+009;1.831559836864471E-001;-2.132778987288475E-002;-5.507273599505425E-003;1.818906399421394E-003;
2.413666666666667E+009;1.843981593847275E-001;-2.340790443122387E-002;-5.850441288203001E-003;2.053563017398119E-003;
2.413833333333334E+009;1.855050027370453E-001;-2.529600076377392E-002;-5.679988302290440E-003;2.447214908897877E-003;
2.414000000000000E+009;1.865517348051071E-001;-2.727921307086945E-002;-5.713239312171936E-003;2.668371191248298E-003;
2.414166666666667E+009;1.878449916839600E-001;-2.910052612423897E-002;-5.539217963814735E-003;2.946759574115276E-003;
2.414333333333334E+009;1.889952719211578E-001;-3.108565509319305E-002;-5.677293986082077E-003;3.349508857354522E-003;
2.414500000000000E+009;1.902837455272675E-001;-3.255327045917511E-002;-5.546001717448235E-003;3.472243901342154E-003;
2.414666666666667E+009;1.914232224225998E-001;-3.381839022040367E-002;-5.299262702465057E-003;3.761878237128258E-003;
2.414833333333334E+009;1.927044987678528E-001;-3.527002781629562E-002;-5.286369472742081E-003;4.091792739927769E-003;
2.415000000000000E+009;1.937803626060486E-001;-3.651026636362076E-002;-4.996172618120909E-003;4.375227726995945E-003;
2.415166666666667E+009;1.950781196355820E-001;-3.762651607394218E-002;-4.950143862515688E-003;4.540181718766689E-003;
2.415333333333334E+009;1.961919367313385E-001;-3.837592899799347E-002;-4.617928527295589E-003;4.905202426016331E-003;
2.415500000000000E+009;1.973662078380585E-001;-3.926001489162445E-002;-4.521977622061968E-003;4.920108709484339E-003;
2.415666666666667E+009;1.983713954687119E-001;-3.997701779007912E-002;-4.272210411727428E-003;5.074407439678907E-003;
2.415833333333334E+009;1.993128508329392E-001;-4.059735685586929E-002;-3.910602070391178E-003;5.238721147179604E-003;
2.416000000000000E+009;2.002678066492081E-001;-4.118322953581810E-002;-3.751781769096851E-003;5.461812019348145E-003;
2.416166666666667E+009;2.009043544530869E-001;-4.151012375950813E-002;-3.606149461120367E-003;5.527912639081478E-003;
2.416333333333334E+009;2.016327232122421E-001;-4.193564131855965E-002;-3.371122526004911E-003;5.695206578820944E-003;
2.416500000000000E+009;2.021200060844421E-001;-4.217467829585075E-002;-2.958926372230053E-003;5.751650314778090E-003;
2.416666666666667E+009;2.023893743753433E-001;-4.243144020438194E-002;-2.709615742787719E-003;5.881065968424082E-003;
2.416833333333334E+009;2.025855332612991E-001;-4.240521788597107E-002;-2.397640375420451E-003;5.830308888107538E-003;
2.417000000000000E+009;2.027924805879593E-001;-4.262370616197586E-002;-2.334920689463615E-003;6.001886446028948E-003;
2.417166666666667E+009;2.025522142648697E-001;-4.251200333237648E-002;-2.044568071141839E-003;6.076999939978123E-003;
2.417333333333334E+009;2.023476064205170E-001;-4.227694869041443E-002;-1.819728640839458E-003;6.038694642484188E-003;
2.417500000000000E+009;2.021528780460358E-001;-4.223507270216942E-002;-1.511415699496865E-003;6.002798676490784E-003;
2.417666666666667E+009;2.016460448503494E-001;-4.212726280093193E-002;-1.188423484563828E-003;5.908546037971973E-003;
2.417833333333334E+009;2.011791318655014E-001;-4.188491776585579E-002;-9.950095554813743E-004;6.074716337025166E-003;
2.418000000000000E+009;2.003764510154724E-001;-4.169218987226486E-002;-5.669034435413778E-004;5.825153551995754E-003;
2.418166666666667E+009;1.995993107557297E-001;-4.156682267785072E-002;-5.123666487634182E-004;5.753997247666121E-003;
2.418333333333334E+009;1.986346691846848E-001;-4.144453629851341E-002;-3.714958147611469E-004;5.729374941438437E-003;
2.418500000000000E+009;1.977161914110184E-001;-4.134149849414825E-002;-1.201212944579311E-004;5.722132977098227E-003;
2.418666666666667E+009;1.967313587665558E-001;-4.134535044431686E-002;-1.669290759309661E-005;5.719223059713841E-003;
2.418833333333334E+009;1.955443024635315E-001;-4.153603687882423E-002;2.664228668436408E-004;5.295017734169960E-003;
2.419000000000000E+009;1.941651105880737E-001;-4.162757471203804E-002;4.464723169803619E-004;5.384671501815319E-003;
2.419166666666667E+009;1.928977668285370E-001;-4.191430285573006E-002;4.943577805534005E-004;5.206432193517685E-003;
2.419333333333334E+009;1.915393173694611E-001;-4.238399863243103E-002;6.249042344279587E-004;5.123314447700977E-003;
2.419500000000000E+009;1.901784390211105E-001;-4.284487292170525E-002;7.861708872951567E-004;4.992514383047819E-003;
2.419666666666667E+009;1.885951608419418E-001;-4.363417252898216E-002;7.781775202602148E-004;4.868536721915007E-003;
2.419833333333334E+009;1.868922114372253E-001;-4.435549676418304E-002;7.957726484164596E-004;4.857902415096760E-003;
2.420000000000000E+009;1.854462623596191E-001;-4.520143941044807E-002;1.036770292557776E-003;4.744555801153183E-003;
2.420166666666667E+009;1.836659908294678E-001;-4.611093178391457E-002;1.026097219437361E-003;4.639022983610630E-003;
2.420333333333334E+009;1.820916235446930E-001;-4.743475466966629E-002;1.119225868023932E-003;4.553812555968761E-003;
2.420500000000000E+009;1.804029345512390E-001;-4.873718693852425E-002;1.143281464464963E-003;4.397490527480841E-003;
2.420666666666667E+009;1.787876188755035E-001;-4.984780773520470E-002;1.326430123299360E-003;4.463315475732088E-003;
2.420833333333334E+009;1.772901266813278E-001;-5.142745375633240E-002;1.332950778305531E-003;4.274427890777588E-003;
2.421000000000000E+009;1.758050769567490E-001;-5.285719037055969E-002;1.488956855610013E-003;4.116641357541084E-003;
2.421166666666667E+009;1.742399930953980E-001;-5.471771955490112E-002;1.291859662160277E-003;4.137445706874132E-003;
2.421333333333334E+009;1.727049797773361E-001;-5.630261823534966E-002;1.397384796291590E-003;4.040208179503679E-003;
2.421500000000000E+009;1.715140789747238E-001;-5.829056352376938E-002;1.379345078021288E-003;4.020707216113806E-003;
2.421666666666667E+009;1.701586991548538E-001;-6.015026941895485E-002;1.444258028641343E-003;3.773452015593648E-003;
2.421833333333334E+009;1.690862178802490E-001;-6.211567670106888E-002;1.398441032506526E-003;3.957196604460478E-003;
2.422000000000000E+009;1.678532660007477E-001;-6.373231858015060E-002;1.453536562621594E-003;3.810807364061475E-003;
2.422166666666667E+009;1.670915335416794E-001;-6.607528775930405E-002;1.520939404144883E-003;3.822413040325046E-003;
2.422333333333334E+009;1.660661250352860E-001;-6.812198460102081E-002;1.618708600290120E-003;3.670687088742852E-003;
2.422500000000000E+009;1.654378473758698E-001;-7.013574987649918E-002;1.505586551502347E-003;3.656108863651753E-003;
2.422666666666667E+009;1.646538376808167E-001;-7.205740362405777E-002;1.836056122556329E-003;3.813271643593907E-003;
2.422833333333334E+009;1.642564237117767E-001;-7.419086247682571E-002;1.797352801077068E-003;3.857850795611739E-003;
2.423000000000000E+009;1.635095924139023E-001;-7.640345394611359E-002;1.857250113971531E-003;3.720137057825923E-003;
2.423166666666667E+009;1.632854491472244E-001;-7.839716225862503E-002;1.855129143223167E-003;3.734246827661991E-003;
2.423333333333334E+009;1.630550026893616E-001;-8.037877082824707E-002;2.005433663725853E-003;3.616920905187726E-003;
2.423500000000000E+009;1.631079614162445E-001;-8.223932236433029E-002;2.048306865617633E-003;3.512530121952295E-003;
2.423666666666667E+009;1.630853116512299E-001;-8.416822552680969E-002;2.151882741600275E-003;3.602139418944717E-003;
2.423833333333334E+009;1.629536300897598E-001;-8.597142249345779E-002;2.077004872262478E-003;3.413300262764096E-003;
2.424000000000000E+009;1.631672084331513E-001;-8.771020919084549E-002;2.198703587055206E-003;3.457351820543408E-003;
2.424166666666667E+009;1.631859540939331E-001;-8.924857527017593E-002;2.364971209317446E-003;3.449226496741176E-003;
2.424333333333334E+009;1.634094268083572E-001;-9.087185561656952E-002;2.165056066587567E-003;3.343333955854178E-003;
2.424500000000000E+009;1.638536155223846E-001;-9.261763095855713E-002;2.477150876075029E-003;3.320823656395078E-003;
2.424666666666667E+009;1.640976220369339E-001;-9.392686933279038E-002;2.364993793889880E-003;3.312010550871491E-003;
2.424833333333334E+009;1.645403206348419E-001;-9.517614543437958E-002;2.538812812417746E-003;3.218807745724917E-003;
2.425000000000000E+009;1.649276167154312E-001;-9.644191712141037E-002;2.631830517202616E-003;3.239257726818323E-003;
2.425166666666667E+009;1.652935147285461E-001;-9.759866446256638E-002;2.712713321670890E-003;3.277419367805123E-003;
2.425333333333334E+009;1.655447781085968E-001;-9.843565523624420E-002;2.693348331376910E-003;3.364398377016187E-003;
2.425500000000000E+009;1.660641431808472E-001;-9.932120889425278E-002;2.753988606855273E-003;3.359858179464936E-003;
2.425666666666667E+009;1.665161401033402E-001;-1.000771224498749E-001;2.867825096473098E-003;3.249203786253929E-003;
2.425833333333334E+009;1.668039113283157E-001;-1.008312404155731E-001;2.953840652480722E-003;3.233887255191803E-003;
2.426000000000000E+009;1.673064827919006E-001;-1.013623774051666E-001;3.170081647112966E-003;3.212616080418229E-003;
2.426166666666667E+009;1.676493585109711E-001;-1.018849834799767E-001;3.326088888570666E-003;3.108436241745949E-003;
2.426333333333334E+009;1.677292883396149E-001;-1.023904010653496E-001;3.352813655510545E-003;3.012089058756828E-003;
2.426500000000000E+009;1.682000309228897E-001;-1.026300638914108E-001;3.597853705286980E-003;3.035574220120907E-003;
2.426666666666667E+009;1.683104485273361E-001;-1.029376983642578E-001;3.700679633766413E-003;2.918643411248922E-003;
2.426833333333334E+009;1.686195284128189E-001;-1.031529158353806E-001;3.849016968160868E-003;3.024993930011988E-003;
2.427000000000000E+009;1.685022711753845E-001;-1.033734455704689E-001;3.912768326699734E-003;2.755222609266639E-003;
2.427166666666667E+009;1.686622053384781E-001;-1.034500151872635E-001;4.001089837402105E-003;2.733810571953654E-003;
2.427333333333334E+009;1.684507727622986E-001;-1.037472262978554E-001;4.030084703117609E-003;2.621056744828820E-003;
2.427500000000000E+009;1.682796776294708E-001;-1.039535030722618E-001;4.141122568398714E-003;2.612992888316512E-003;
2.427666666666667E+009;1.677970886230469E-001;-1.039281785488129E-001;4.363440442830324E-003;2.267970703542233E-003;
2.427833333333334E+009;1.674487143754959E-001;-1.039997413754463E-001;4.498134367167950E-003;2.252524485811591E-003;
