# Version 1.00
#
freq[Hz];re:Trc1_S11;im:Trc1_S11;re:Trc2_S21;im:Trc2_S21;
2.400000000000000E+009;1.553656309843063E-001;1.071042418479919E-001;1.504784682765603E-003;-6.041801534593105E-003;
2.400166666666667E+009;1.550324708223343E-001;1.046766191720963E-001;1.270196633413434E-003;-5.893983412533999E-003;
2.400333333333334E+009;1.551098227500916E-001;1.023678183555603E-001;1.084506162442267E-003;-6.019804626703262E-003;
2.400500000000000E+009;1.550898104906082E-001;9.958198666572571E-002;9.368960163556039E-004;-5.847034510225058E-003;
2.400666666666667E+009;1.551867425441742E-001;9.712778776884079E-002;8.306279778480530E-004;-5.629453342407942E-003;
2.400833333333334E+009;1.550006717443466E-001;9.412930905818939E-002;7.695266976952553E-004;-5.786398891359568E-003;
2.401000000000000E+009;1.552990078926086E-001;9.134251624345779E-002;5.720192566514015E-004;-5.687001626938582E-003;
2.401166666666667E+009;1.552323400974274E-001;8.859295397996903E-002;6.544152856804431E-004;-5.677463021129370E-003;
2.401333333333334E+009;1.557787209749222E-001;8.558731526136398E-002;5.289479158818722E-004;-5.769669078290463E-003;
2.401500000000000E+009;1.559894382953644E-001;8.261041343212128E-002;4.381657636258751E-004;-5.788047332316637E-003;
2.401666666666667E+009;1.566613316535950E-001;7.990385591983795E-002;4.148973966948688E-004;-5.891684442758560E-003;
2.401833333333334E+009;1.571237295866013E-001;7.712962478399277E-002;2.272597630508244E-004;-5.759986583143473E-003;
2.402000000000000E+009;1.577530652284622E-001;7.425639778375626E-002;1.141088614531327E-005;-5.945255979895592E-003;
2.402166666666667E+009;1.587824672460556E-001;7.188291102647781E-002;-7.695027306908742E-005;-6.039323285222054E-003;
2.402333333333334E+009;1.596423536539078E-001;6.896138191223145E-002;-2.093145594699308E-004;-6.156268063932657E-003;
2.402500000000000E+009;1.609855294227600E-001;6.635611504316330E-002;-3.789215988945216E-004;-6.274928338825703E-003;
2.402666666666667E+009;1.620488613843918E-001;6.393618881702423E-002;-5.647789221256971E-004;-6.394510623067617E-003;
2.402833333333334E+009;1.633102893829346E-001;6.154265627264977E-002;-9.164375951513648E-004;-6.365878041833639E-003;
2.403000000000000E+009;1.647736281156540E-001;5.929908528923988E-002;-1.188755268231034E-003;-6.491383537650108E-003;
2.403166666666667E+009;1.665805280208588E-001;5.694695562124252E-002;-1.684089307673276E-003;-6.463008932769299E-003;
2.403333333333334E+009;1.679685711860657E-001;5.475542694330216E-002;-1.906782854348421E-003;-6.403828039765358E-003;
2.403500000000000E+009;1.697407364845276E-001;5.263454839587212E-002;-2.135143149644136E-003;-6.294583901762962E-003;
2.403666666666667E+009;1.715770363807678E-001;5.066903680562973E-002;-2.448002807796001E-003;-6.328959949314594E-003;
2.403833333333334E+009;1.731801182031632E-001;4.865870624780655E-002;-2.991032553836703E-003;-6.083379965275526E-003;
2.404000000000000E+009;1.745652556419373E-001;4.711063951253891E-002;-3.185427980497479E-003;-6.006957497447729E-003;
2.404166666666667E+009;1.764861643314362E-001;4.550887644290924E-002;-3.308430314064026E-003;-5.659948568791151E-003;
2.404333333333334E+009;1.781362444162369E-001;4.393707960844040E-002;-3.663930576294661E-003;-5.417566280812025E-003;
2.404500000000000E+009;1.795890778303146E-001;4.258306324481964E-002;-3.742163768038154E-003;-5.410769488662481E-003;
2.404666666666667E+009;1.813947707414627E-001;4.148401319980621E-002;-3.983731847256422E-003;-4.933670163154602E-003;
2.404833333333334E+009;1.830359101295471E-001;4.032417386770248E-002;-3.780902130529285E-003;-4.721682984381914E-003;
2.405000000000000E+009;1.846161484718323E-001;3.965261206030846E-002;-4.129498731344938E-003;-4.450959153473377E-003;
2.405166666666667E+009;1.859724819660187E-001;3.908752277493477E-002;-4.112630151212215E-003;-4.285160917788744E-003;
2.405333333333334E+009;1.873000413179398E-001;3.859348595142365E-002;-4.037600476294756E-003;-4.028738941997290E-003;
2.405500000000000E+009;1.887882500886917E-001;3.810333833098412E-002;-4.096210468560457E-003;-3.947181161493063E-003;
2.405666666666667E+009;1.898053884506226E-001;3.765831515192986E-002;-4.261341411620379E-003;-3.670481964945793E-003;
2.405833333333334E+009;1.912012249231339E-001;3.752802312374115E-002;-4.384468309581280E-003;-3.640477545559406E-003;
2.406000000000000E+009;1.922439187765122E-001;3.728307411074638E-002;-4.205692559480667E-003;-3.431102959439158E-003;
2.406166666666667E+009;1.932647079229355E-001;3.720614314079285E-002;-4.146602470427752E-003;-3.255570307374001E-003;
2.406333333333334E+009;1.941810697317123E-001;3.715023025870323E-002;-4.291734658181667E-003;-3.158930921927095E-003;
2.406500000000000E+009;1.948679983615875E-001;3.731992095708847E-002;-4.345624707639217E-003;-3.081998322159052E-003;
2.406666666666667E+009;1.954535543918610E-001;3.722661733627319E-002;-4.392577335238457E-003;-2.882222644984722E-003;
2.406833333333334E+009;1.960394382476807E-001;3.742048516869545E-002;-4.334798548370600E-003;-2.943794708698988E-003;
2.407000000000000E+009;1.962449550628662E-001;3.761045634746552E-002;-4.224339965730906E-003;-2.730950014665723E-003;
2.407166666666667E+009;1.965479850769043E-001;3.728184476494789E-002;-4.389799665659666E-003;-2.540623303502798E-003;
2.407333333333334E+009;1.965122073888779E-001;3.744641318917275E-002;-4.322479013353586E-003;-2.679048804566264E-003;
2.407500000000000E+009;1.963813602924347E-001;3.763167932629585E-002;-4.373341798782349E-003;-2.700860379263759E-003;
2.407666666666667E+009;1.964539289474487E-001;3.750193119049072E-002;-4.411953501403332E-003;-2.514227060601115E-003;
2.407833333333334E+009;1.958727240562439E-001;3.733979538083077E-002;-4.405699204653502E-003;-2.358290133997798E-003;
2.408000000000000E+009;1.957777291536331E-001;3.726204112172127E-002;-4.596793558448553E-003;-2.285876078531146E-003;
2.408166666666667E+009;1.952083408832550E-001;3.694932907819748E-002;-4.649193026125431E-003;-2.250183839350939E-003;
2.408333333333334E+009;1.947039067745209E-001;3.658907115459442E-002;-4.749808460474014E-003;-2.245425246655941E-003;
2.408500000000000E+009;1.938574463129044E-001;3.613898903131485E-002;-4.862572066485882E-003;-2.193529391661286E-003;
2.408666666666667E+009;1.931837350130081E-001;3.567309677600861E-002;-4.755047615617514E-003;-2.235212596133351E-003;
2.408833333333334E+009;1.923922449350357E-001;3.498210012912750E-002;-5.057427566498518E-003;-1.939163077622652E-003;
2.409000000000000E+009;1.913036853075028E-001;3.407318517565727E-002;-5.116894841194153E-003;-1.893236301839352E-003;
2.409166666666667E+009;1.904371082782745E-001;3.302425518631935E-002;-5.218986887484789E-003;-1.799562596715987E-003;
2.409333333333334E+009;1.894170194864273E-001;3.208886459469795E-002;-5.303605459630489E-003;-1.808985718525946E-003;
2.409500000000000E+009;1.882304400205612E-001;3.087910637259483E-002;-5.375555250793695E-003;-1.449402072466910E-003;
2.409666666666667E+009;1.872026622295380E-001;2.941029332578182E-002;-5.569494329392910E-003;-1.348650082945824E-003;
2.409833333333334E+009;1.861686855554581E-001;2.805175259709358E-002;-5.510365590453148E-003;-1.163283013738692E-003;
2.410000000000000E+009;1.849826276302338E-001;2.634119614958763E-002;-5.657262634485960E-003;-8.835410699248314E-004;
2.410166666666667E+009;1.840237230062485E-001;2.454832941293716E-002;-5.560247227549553E-003;-6.829297053627670E-004;
2.410333333333334E+009;1.831686943769455E-001;2.299952134490013E-002;-5.608980078250170E-003;-5.959423142485321E-004;
2.410500000000000E+009;1.819368451833725E-001;2.093042060732842E-002;-5.566321779042482E-003;-4.427349776960909E-004;
2.410666666666667E+009;1.810942441225052E-001;1.864103786647320E-002;-5.755519960075617E-003;-2.514069201424718E-004;
2.410833333333334E+009;1.804440915584564E-001;1.654579117894173E-002;-5.577174481004477E-003;-4.685732346842997E-005;
2.411000000000000E+009;1.795986592769623E-001;1.443875674158335E-002;-5.620019976049662E-003;1.241368008777499E-004;
2.411166666666667E+009;1.789301037788391E-001;1.213135663419962E-002;-5.423859227448702E-003;2.559428394306451E-004;
2.411333333333334E+009;1.784881651401520E-001;9.695686399936676E-003;-5.494858603924513E-003;4.210892366245389E-004;
2.411500000000000E+009;1.781568974256516E-001;7.353878114372492E-003;-5.454262718558312E-003;5.288484389893711E-004;
2.411666666666667E+009;1.777312457561493E-001;4.868023097515106E-003;-5.401818081736565E-003;5.018707015551627E-004;
2.411833333333334E+009;1.774739623069763E-001;2.571500139310956E-003;-5.343049298971891E-003;6.949171656742692E-004;
2.412000000000000E+009;1.775667965412140E-001;-6.592182762688026E-005;-5.323793273419142E-003;8.529013139195740E-004;
2.412166666666667E+009;1.778253912925720E-001;-2.250086981803179E-003;-5.292377900332212E-003;8.594337850809097E-004;
2.412333333333334E+009;1.779182404279709E-001;-4.805343225598335E-003;-5.237664096057415E-003;9.271869785152376E-004;
2.412500000000000E+009;1.783311665058136E-001;-7.246667984873056E-003;-5.182606168091297E-003;1.044931588694453E-003;
2.412666666666667E+009;1.787974834442139E-001;-9.630068205296993E-003;-5.298040341585875E-003;1.041761133819819E-003;
2.412833333333334E+009;1.795876473188400E-001;-1.222291681915522E-002;-5.406767595559359E-003;1.206735847517848E-003;
2.413000000000000E+009;1.804223954677582E-001;-1.441701501607895E-002;-5.384908989071846E-003;1.427820068784058E-003;
2.413166666666667E+009;1.810677945613861E-001;-1.670962572097778E-002;-5.344997160136700E-003;1.432006713002920E-003;
2.413333333333334E+009;1.822241097688675E-001;-1.887023076415062E-002;-5.407932214438915E-003;1.685132621787489E-003;
2.413500000000000E+009;1.832042634487152E-001;-2.118521556258202E-002;-5.624009761959314E-003;1.833815360441804E-003;
2.413666666666667E+009;1.841912120580673E-001;-2.331838198006153E-002;-5.750108975917101E-003;2.093427348881960E-003;
2.413833333333334E+009;1.856508553028107E-001;-2.547539025545120E-002;-5.627029575407505E-003;2.324623987078667E-003;
2.414000000000000E+009;1.864592730998993E-001;-2.723159454762936E-002;-5.667462479323149E-003;2.520282054319978E-003;
2.414166666666667E+009;1.877895891666412E-001;-2.890442684292793E-002;-5.432131700217724E-003;2.824303461238742E-003;
2.414333333333334E+009;1.889861226081848E-001;-3.097657859325409E-002;-5.535207223147154E-003;3.089374862611294E-003;
2.414500000000000E+009;1.903169006109238E-001;-3.240975737571716E-002;-5.500427912920713E-003;3.512308932840824E-003;
2.414666666666667E+009;1.914846450090408E-001;-3.392985835671425E-002;-5.390759091824293E-003;3.728055860847235E-003;
2.414833333333334E+009;1.927034556865692E-001;-3.515892103314400E-002;-5.264171864837408E-003;3.993962425738573E-003;
2.415000000000000E+009;1.938215047121048E-001;-3.636894375085831E-002;-4.941956605762243E-003;4.290557932108641E-003;
2.415166666666667E+009;1.951683461666107E-001;-3.760546073317528E-002;-4.834661725908518E-003;4.462608136236668E-003;
2.415333333333334E+009;1.962556988000870E-001;-3.842167556285858E-002;-4.478566348552704E-003;4.642713349312544E-003;
2.415500000000000E+009;1.973202526569367E-001;-3.915026783943176E-002;-4.400319885462523E-003;4.895641002804041E-003;
2.415666666666667E+009;1.984729319810867E-001;-3.992709144949913E-002;-4.263165406882763E-003;5.019046366214752E-003;
2.415833333333334E+009;1.994334310293198E-001;-4.051787406206131E-002;-3.943969961255789E-003;5.034400615841150E-003;
2.416000000000000E+009;2.001714706420898E-001;-4.112599417567253E-002;-3.726301947608590E-003;5.167905706912279E-003;
2.416166666666667E+009;2.009296417236328E-001;-4.159189015626907E-002;-3.386780386790633E-003;5.391205195337534E-003;
2.416333333333334E+009;2.016477584838867E-001;-4.187149927020073E-002;-3.180236788466573E-003;5.636670626699925E-003;
2.416500000000000E+009;2.021662294864655E-001;-4.212398827075958E-002;-3.002211218699813E-003;5.589822772890329E-003;
2.416666666666667E+009;2.024788707494736E-001;-4.251314699649811E-002;-2.815969055518508E-003;5.721956491470337E-003;
2.416833333333334E+009;2.026043981313705E-001;-4.241660982370377E-002;-2.606227295473218E-003;5.907008424401283E-003;
2.417000000000000E+009;2.027787566184998E-001;-4.257758706808090E-002;-2.270549302920699E-003;5.711592268198729E-003;
2.417166666666667E+009;2.025121301412582E-001;-4.247433692216873E-002;-1.821047393605113E-003;5.740818101912737E-003;
2.417333333333334E+009;2.022993713617325E-001;-4.222682118415833E-002;-1.769138849340379E-003;5.881981458514929E-003;
2.417500000000000E+009;2.021179348230362E-001;-4.225284606218338E-002;-1.444387366063893E-003;5.988316610455513E-003;
2.417666666666667E+009;2.015304714441299E-001;-4.201035201549530E-002;-1.224210718646646E-003;5.779122933745384E-003;
2.417833333333334E+009;2.011106014251709E-001;-4.183702170848846E-002;-1.023501157760620E-003;5.835122894495726E-003;
2.418000000000000E+009;2.005243152379990E-001;-4.152334108948708E-002;-7.018189062364399E-004;5.775555502623320E-003;
2.418166666666667E+009;1.997625082731247E-001;-4.149518162012100E-002;-5.009901360608637E-004;5.749619100242853E-003;
2.418333333333334E+009;1.987618952989578E-001;-4.123624414205551E-002;-2.847977739293128E-004;5.519143305718899E-003;
2.418500000000000E+009;1.977761387825012E-001;-4.133830964565277E-002;-1.188277092296630E-004;5.361278075724840E-003;
2.418666666666667E+009;1.968214362859726E-001;-4.128596931695938E-002;1.175501165562309E-004;5.445000715553761E-003;
2.418833333333334E+009;1.955589801073074E-001;-4.136300086975098E-002;1.355029235128313E-004;5.320027936249971E-003;
2.419000000000000E+009;1.942500323057175E-001;-4.158640280365944E-002;4.328811774030328E-004;5.130738485604525E-003;
2.419166666666667E+009;1.930317878723145E-001;-4.194002225995064E-002;4.916507168672979E-004;5.014998372644186E-003;
2.419333333333334E+009;1.916486918926239E-001;-4.237472638487816E-002;7.946474943310022E-004;4.961903672665358E-003;
2.419500000000000E+009;1.900342702865601E-001;-4.282503947615624E-002;7.493145531043410E-004;4.962102510035038E-003;
2.419666666666667E+009;1.885444968938828E-001;-4.352600499987602E-002;9.139670291915536E-004;4.724501166492701E-003;
2.419833333333334E+009;1.869427114725113E-001;-4.422617331147194E-002;8.481801487505436E-004;4.709289409220219E-003;
2.420000000000000E+009;1.854400485754013E-001;-4.511051252484322E-002;1.005921745672822E-003;4.522944800555706E-003;
2.420166666666667E+009;1.837647855281830E-001;-4.601730778813362E-002;1.063478761352599E-003;4.459822550415993E-003;
2.420333333333334E+009;1.821458041667938E-001;-4.731794074177742E-002;1.257090596482158E-003;4.535139072686434E-003;
2.420500000000000E+009;1.805559545755386E-001;-4.881020262837410E-002;1.185750006698072E-003;4.278393462300301E-003;
2.420666666666667E+009;1.788726001977921E-001;-4.992541670799255E-002;1.321223448030651E-003;4.134432878345251E-003;
2.420833333333334E+009;1.773394197225571E-001;-5.138635635375977E-002;1.257015857845545E-003;3.983890172094107E-003;
2.421000000000000E+009;1.758767962455750E-001;-5.291754379868507E-002;1.442807842977345E-003;4.007022362202406E-003;
2.421166666666667E+009;1.745191365480423E-001;-5.477384850382805E-002;1.214904012158513E-003;3.865454578772187E-003;
2.421333333333334E+009;1.728297024965286E-001;-5.619568005204201E-002;1.349789556115866E-003;3.883449826389551E-003;
2.421500000000000E+009;1.714871972799301E-001;-5.806472152471542E-002;1.493618125095964E-003;3.827245673164725E-003;
2.421666666666667E+009;1.701882928609848E-001;-6.008775159716606E-002;1.337118446826935E-003;3.780604340136051E-003;
2.421833333333334E+009;1.692036539316177E-001;-6.193041428923607E-002;1.455010846257210E-003;3.734711790457368E-003;
2.422000000000000E+009;1.680427193641663E-001;-6.404040753841400E-002;1.380356028676033E-003;3.806252032518387E-003;
2.422166666666667E+009;1.670194715261459E-001;-6.602680683135986E-002;1.473279553465545E-003;3.705366281792522E-003;
2.422333333333334E+009;1.662214398384094E-001;-6.824871152639389E-002;1.470693619921804E-003;3.695213701575995E-003;
2.422500000000000E+009;1.654788255691528E-001;-7.005928456783295E-002;1.641665119677782E-003;3.686861833557487E-003;
2.422666666666667E+009;1.646870374679565E-001;-7.233107835054398E-002;1.706337789073587E-003;3.685592208057642E-003;
2.422833333333334E+009;1.642813831567764E-001;-7.439061254262924E-002;1.723310328088701E-003;3.683609422296286E-003;
2.423000000000000E+009;1.637533605098724E-001;-7.653091102838516E-002;1.751117524690926E-003;3.613820299506187E-003;
2.423166666666667E+009;1.633058339357376E-001;-7.839906960725784E-002;1.752849901095033E-003;3.623997792601585E-003;
2.423333333333334E+009;1.630592495203018E-001;-8.027160167694092E-002;2.005148213356733E-003;3.483744570985436E-003;
2.423500000000000E+009;1.631976664066315E-001;-8.211783319711685E-002;1.974319107830524E-003;3.562956349924207E-003;
2.423666666666667E+009;1.629524528980255E-001;-8.423902094364166E-002;1.986922230571508E-003;3.440433880314231E-003;
2.423833333333334E+009;1.629493236541748E-001;-8.583928644657135E-002;2.142638433724642E-003;3.355872584506869E-003;
2.424000000000000E+009;1.630536168813705E-001;-8.775568008422852E-002;2.118727192282677E-003;3.333386266604066E-003;
2.424166666666667E+009;1.632140278816223E-001;-8.941285312175751E-002;2.131920773535967E-003;3.410340286791325E-003;
2.424333333333334E+009;1.633977293968201E-001;-9.087762236595154E-002;2.296703401952982E-003;3.285120241343975E-003;
2.424500000000000E+009;1.638161689043045E-001;-9.254514425992966E-002;2.256687497720122E-003;3.285823855549097E-003;
2.424666666666667E+009;1.639972329139710E-001;-9.400030225515366E-002;2.281918656080961E-003;3.150900360196829E-003;
2.424833333333334E+009;1.645458936691284E-001;-9.513796865940094E-002;2.490465762093663E-003;3.235933370888233E-003;
2.425000000000000E+009;1.649803221225739E-001;-9.637542068958283E-002;2.295592799782753E-003;3.243827959522605E-003;
2.425166666666667E+009;1.651543378829956E-001;-9.752922505140305E-002;2.437889343127608E-003;3.300163429230452E-003;
2.425333333333334E+009;1.655018627643585E-001;-9.853278845548630E-002;2.678657649084926E-003;3.276183735579252E-003;
2.425500000000000E+009;1.660776138305664E-001;-9.939683228731155E-002;2.745533129200339E-003;3.336003283038735E-003;
2.425666666666667E+009;1.664557009935379E-001;-1.002369895577431E-001;2.859225496649742E-003;3.226269269362092E-003;
2.425833333333334E+009;1.668210923671722E-001;-1.009993478655815E-001;2.937221666797996E-003;3.284028964117169E-003;
2.426000000000000E+009;1.671078652143478E-001;-1.013892516493797E-001;3.010191954672337E-003;3.183409105986357E-003;
2.426166666666667E+009;1.675810515880585E-001;-1.018327325582504E-001;3.197453683242202E-003;3.087155986577272E-003;
2.426333333333334E+009;1.677027344703674E-001;-1.024567782878876E-001;3.192890901118517E-003;2.972326008602977E-003;
2.426500000000000E+009;1.681358963251114E-001;-1.026976034045219E-001;3.377113491296768E-003;2.926193410530686E-003;
2.426666666666667E+009;1.682888716459274E-001;-1.029647216200829E-001;3.594809677451849E-003;2.894932636991143E-003;
2.426833333333334E+009;1.685585230588913E-001;-1.031513288617134E-001;3.624117467552424E-003;2.934288699179888E-003;
2.427000000000000E+009;1.685101091861725E-001;-1.035598143935204E-001;3.681339556351304E-003;2.855016617104411E-003;
2.427166666666667E+009;1.685246825218201E-001;-1.034546270966530E-001;3.708288539201021E-003;2.871574601158500E-003;
2.427333333333334E+009;1.684183627367020E-001;-1.037044152617455E-001;4.014930222183466E-003;2.639384474605322E-003;
2.427500000000000E+009;1.681441962718964E-001;-1.037359386682510E-001;4.254414234310389E-003;2.585578244179487E-003;
2.427666666666667E+009;1.678356975317001E-001;-1.038004383444786E-001;4.260632209479809E-003;2.538562053814530E-003;
2.427833333333334E+009;1.673427522182465E-001;-1.038953512907028E-001;4.415217321366072E-003;2.448772080242634E-003;
