# Version 1.00
#
freq[Hz];re:Trc1_S11;im:Trc1_S11;re:Trc2_S21;im:Trc2_S21;
2.400000000000000E+009;1.632682532072067E-001;5.162279307842255E-002;6.200454081408680E-004;3.767484566196799E-003;
2.400166666666667E+009;1.631066054105759E-001;5.000401288270950E-002;6.574043654836714E-004;3.781239502131939E-003;
2.400333333333334E+009;1.630618274211884E-001;4.815576225519180E-002;6.763012497685850E-004;3.953399602323771E-003;
2.400500000000000E+009;1.629839688539505E-001;4.639610648155212E-002;7.905995007604361E-004;3.858671290799975E-003;
2.400666666666667E+009;1.629051715135574E-001;4.452389851212502E-002;9.075251291505992E-004;4.116013180464506E-003;
2.400833333333334E+009;1.631158590316773E-001;4.268955439329147E-002;1.182119711302221E-003;4.108703695237637E-003;
2.401000000000000E+009;1.630645990371704E-001;4.075248911976814E-002;1.207988825626671E-003;4.214846529066563E-003;
2.401166666666667E+009;1.630735248327255E-001;3.875410184264183E-002;1.226696535013616E-003;4.122102167457342E-003;
2.401333333333334E+009;1.631470918655396E-001;3.684822097420692E-002;1.732243108563125E-003;4.374548792839050E-003;
2.401500000000000E+009;1.634980291128159E-001;3.493401780724526E-002;1.878382405266166E-003;4.301295615732670E-003;
2.401666666666667E+009;1.635163724422455E-001;3.301100432872772E-002;1.969397999346256E-003;4.322703927755356E-003;
2.401833333333334E+009;1.639236211776733E-001;3.087923862040043E-002;2.068386878818274E-003;4.414157010614872E-003;
2.402000000000000E+009;1.641196757555008E-001;2.911376208066940E-002;2.512364182621241E-003;4.197487607598305E-003;
2.402166666666667E+009;1.645851284265518E-001;2.709499560296536E-002;2.837779698893428E-003;4.149516578763723E-003;
2.402333333333334E+009;1.647829711437225E-001;2.546185255050659E-002;3.002679673954845E-003;3.993796184659004E-003;
2.402500000000000E+009;1.655192971229553E-001;2.364672347903252E-002;3.369472688063979E-003;4.048067610710859E-003;
2.402666666666667E+009;1.660250425338745E-001;2.198196947574616E-002;3.573127323761582E-003;4.022841341793537E-003;
2.402833333333334E+009;1.665727049112320E-001;2.035661786794663E-002;3.840068820863962E-003;3.884466364979744E-003;
2.403000000000000E+009;1.672297418117523E-001;1.860621757805347E-002;4.103776533156633E-003;3.807140979915857E-003;
2.403166666666667E+009;1.679997593164444E-001;1.714058220386505E-002;4.411650821566582E-003;3.377912333235145E-003;
2.403333333333334E+009;1.685822308063507E-001;1.570104807615280E-002;4.821978509426117E-003;3.359506838023663E-003;
2.403500000000000E+009;1.691542863845825E-001;1.428274903446436E-002;5.028021056205034E-003;3.065789584070444E-003;
2.403666666666667E+009;1.699434965848923E-001;1.290466450154781E-002;5.259436555206776E-003;2.679679309949279E-003;
2.403833333333334E+009;1.707731485366821E-001;1.150608714669943E-002;5.433898419141769E-003;2.614083001390100E-003;
2.404000000000000E+009;1.715208590030670E-001;1.044817175716162E-002;5.482257809489965E-003;2.150854095816612E-003;
2.404166666666667E+009;1.722718328237534E-001;9.100858122110367E-003;5.655799061059952E-003;1.886231126263738E-003;
2.404333333333334E+009;1.729146093130112E-001;8.149203844368458E-003;5.762812681496143E-003;1.396906678564847E-003;
2.404500000000000E+009;1.735013872385025E-001;7.033916190266609E-003;5.855464842170477E-003;1.195698510855436E-003;
2.404666666666667E+009;1.745280325412750E-001;6.194802001118660E-003;5.842459853738546E-003;7.119876099750400E-004;
2.404833333333334E+009;1.750988960266113E-001;5.393794272094965E-003;5.949296057224274E-003;3.585499944165349E-004;
2.405000000000000E+009;1.758167892694473E-001;4.540867637842894E-003;5.911976564675570E-003;2.640188358782325E-005;
2.405166666666667E+009;1.765089780092239E-001;3.801606595516205E-003;5.980250891298056E-003;-3.445049806032330E-004;
2.405333333333334E+009;1.771337389945984E-001;2.939278259873390E-003;5.779220722615719E-003;-6.958269514143467E-004;
2.405500000000000E+009;1.777882277965546E-001;2.619035309180617E-003;5.740223918110132E-003;-8.492675260640681E-004;
2.405666666666667E+009;1.782424002885819E-001;2.144753234460950E-003;5.597097799181938E-003;-1.124372705817223E-003;
2.405833333333334E+009;1.785245239734650E-001;1.738300663419068E-003;5.404804367572069E-003;-1.533842063508928E-003;
2.406000000000000E+009;1.791097819805145E-001;1.145912450738251E-003;5.114335566759110E-003;-1.762553118169308E-003;
2.406166666666667E+009;1.793404072523117E-001;8.888797601684928E-004;5.038698669523001E-003;-2.071252558380365E-003;
2.406333333333334E+009;1.798733621835709E-001;5.305018275976181E-004;4.921975079923868E-003;-2.213619416579604E-003;
2.406500000000000E+009;1.800862103700638E-001;2.371618611505255E-004;4.758315160870552E-003;-2.508689416572452E-003;
2.406666666666667E+009;1.800000220537186E-001;-1.929862919496372E-004;4.664723761379719E-003;-2.489050850272179E-003;
2.406833333333334E+009;1.802716851234436E-001;-5.100581329315901E-004;4.327294416725636E-003;-2.794813597574830E-003;
2.407000000000000E+009;1.802861690521240E-001;-7.761222659610212E-004;4.170525353401899E-003;-2.845618408173323E-003;
2.407166666666667E+009;1.803587228059769E-001;-1.199185266159475E-003;4.048282280564308E-003;-3.118743421509862E-003;
2.407333333333334E+009;1.802174299955368E-001;-1.734386547468603E-003;3.776769386604428E-003;-3.279461991041899E-003;
2.407500000000000E+009;1.800328344106674E-001;-2.126713981851935E-003;3.603350603953004E-003;-3.363692201673985E-003;
2.407666666666667E+009;1.797520667314529E-001;-2.441298682242632E-003;3.407265525311232E-003;-3.468195907771587E-003;
2.407833333333334E+009;1.792867034673691E-001;-3.018003422766924E-003;3.188254311680794E-003;-3.716330975294113E-003;
2.408000000000000E+009;1.789999902248383E-001;-3.746891627088189E-003;3.013550303876400E-003;-3.702404676005244E-003;
2.408166666666667E+009;1.785596758127213E-001;-4.164722282439470E-003;2.749574370682240E-003;-3.800610546022654E-003;
2.408333333333334E+009;1.782973855733872E-001;-4.923892673105001E-003;2.577756065875292E-003;-3.817904740571976E-003;
2.408500000000000E+009;1.775872558355331E-001;-5.754521582275629E-003;2.320536412298679E-003;-3.933371976017952E-003;
2.408666666666667E+009;1.771057397127152E-001;-6.584099493920803E-003;2.126097446307540E-003;-3.903494914993644E-003;
2.408833333333334E+009;1.763281077146530E-001;-7.430334575474262E-003;1.870249747298658E-003;-3.848612075671554E-003;
2.409000000000000E+009;1.756712049245834E-001;-8.470596745610237E-003;1.629245933145285E-003;-3.880327800288796E-003;
2.409166666666667E+009;1.750206202268601E-001;-9.509246796369553E-003;1.572238281369209E-003;-3.828893881291151E-003;
2.409333333333334E+009;1.744246035814285E-001;-1.064038276672363E-002;1.239398261532188E-003;-3.899930976331234E-003;
2.409500000000000E+009;1.737167984247208E-001;-1.207890640944243E-002;1.144950394518673E-003;-3.845439059659839E-003;
2.409666666666667E+009;1.728238314390183E-001;-1.327038928866386E-002;9.235852048732340E-004;-3.750182688236237E-003;
2.409833333333334E+009;1.721340119838715E-001;-1.454746630042791E-002;8.094740915112197E-004;-3.725769929587841E-003;
2.410000000000000E+009;1.715295910835266E-001;-1.580563187599182E-002;6.565339863300324E-004;-3.613244276493788E-003;
2.410166666666667E+009;1.708696633577347E-001;-1.734454743564129E-002;4.346624191384763E-004;-3.605284029617906E-003;
2.410333333333334E+009;1.702590435743332E-001;-1.891937293112278E-002;4.976109485141933E-004;-3.419592510908842E-003;
2.410500000000000E+009;1.696045398712158E-001;-2.080332860350609E-002;2.606759953778237E-004;-3.499771468341351E-003;
2.410666666666667E+009;1.689191013574600E-001;-2.245054580271244E-002;2.418149524601176E-004;-3.244760911911726E-003;
2.410833333333334E+009;1.685593426227570E-001;-2.405828982591629E-002;6.959871097933501E-005;-3.144452814012766E-003;
2.411000000000000E+009;1.680479943752289E-001;-2.580875344574451E-002;1.553678157506511E-004;-3.293665358796716E-003;
2.411166666666667E+009;1.676339805126190E-001;-2.790846303105354E-002;-1.344644715572940E-005;-3.299932926893234E-003;
2.411333333333334E+009;1.672942638397217E-001;-2.955193817615509E-002;-1.105413102777675E-004;-3.096966771408916E-003;
2.411500000000000E+009;1.668124645948410E-001;-3.143819049000740E-002;-2.097761025652289E-004;-2.868547337129712E-003;
2.411666666666667E+009;1.668706685304642E-001;-3.332004323601723E-002;-3.578059258870781E-004;-2.985214348882437E-003;
2.411833333333334E+009;1.666039377450943E-001;-3.512714803218842E-002;-2.277435269206762E-004;-3.052643500268459E-003;
2.412000000000000E+009;1.664776206016541E-001;-3.716652467846870E-002;-4.378466110210866E-004;-3.002715995535255E-003;
2.412166666666667E+009;1.662507504224777E-001;-3.916648775339127E-002;-4.770088416989893E-004;-2.952905837446451E-003;
2.412333333333334E+009;1.664295047521591E-001;-4.102491214871407E-002;-6.081311730667949E-004;-2.990924986079335E-003;
2.412500000000000E+009;1.664277613162994E-001;-4.287405312061310E-002;-4.408217791933566E-004;-2.941856626421213E-003;
2.412666666666667E+009;1.666622310876846E-001;-4.484544694423676E-002;-7.950784056447446E-004;-2.973694121465087E-003;
2.412833333333334E+009;1.667766869068146E-001;-4.684454202651978E-002;-7.980041555128992E-004;-2.858615247532725E-003;
2.413000000000000E+009;1.669741719961166E-001;-4.858915507793427E-002;-9.767879964783788E-004;-2.938432386144996E-003;
2.413166666666667E+009;1.672535389661789E-001;-5.011985823512077E-002;-9.570681722834706E-004;-2.689429093152285E-003;
2.413333333333334E+009;1.675569564104080E-001;-5.190636590123177E-002;-1.078728586435318E-003;-2.708846004679799E-003;
2.413500000000000E+009;1.679717600345612E-001;-5.366929620504379E-002;-1.167826005257666E-003;-2.754020038992167E-003;
2.413666666666667E+009;1.682575941085815E-001;-5.520812049508095E-002;-1.448362134397030E-003;-2.688780659809709E-003;
2.413833333333334E+009;1.685730814933777E-001;-5.650068074464798E-002;-1.450125477276743E-003;-2.549192402511835E-003;
2.414000000000000E+009;1.689479947090149E-001;-5.804114416241646E-002;-1.477839308790863E-003;-2.603271510452032E-003;
2.414166666666667E+009;1.695181429386139E-001;-5.932684615254402E-002;-1.641753478907049E-003;-2.482106676325202E-003;
2.414333333333334E+009;1.698380112648010E-001;-6.064458563923836E-002;-1.835293136537075E-003;-2.362061059102416E-003;
2.414500000000000E+009;1.705209612846375E-001;-6.161488220095635E-002;-1.848176121711731E-003;-2.386246807873249E-003;
2.414666666666667E+009;1.707339584827423E-001;-6.275534629821777E-002;-2.001937711611390E-003;-2.201140625402331E-003;
2.414833333333334E+009;1.712358593940735E-001;-6.383579969406128E-002;-2.102274913340807E-003;-2.039860468357801E-003;
2.415000000000000E+009;1.716401875019074E-001;-6.468818336725235E-002;-2.217611530795693E-003;-1.988216303288937E-003;
2.415166666666667E+009;1.720181852579117E-001;-6.542921066284180E-002;-2.160568255931139E-003;-1.886761514469981E-003;
2.415333333333334E+009;1.723339259624481E-001;-6.622970849275589E-002;-2.357749966904521E-003;-1.657655113376677E-003;
2.415500000000000E+009;1.725513488054276E-001;-6.686019897460938E-002;-2.342296764254570E-003;-1.525992993265390E-003;
2.415666666666667E+009;1.729064136743546E-001;-6.738238781690598E-002;-2.439778996631503E-003;-1.516262884251773E-003;
2.415833333333334E+009;1.730582863092423E-001;-6.796662509441376E-002;-2.530244411900640E-003;-1.270633540116251E-003;
2.416000000000000E+009;1.730949431657791E-001;-6.835505366325378E-002;-2.392417984083295E-003;-1.092684105969966E-003;
2.416166666666667E+009;1.733195930719376E-001;-6.883073598146439E-002;-2.490998711436987E-003;-9.744222625158727E-004;
2.416333333333334E+009;1.732857674360275E-001;-6.911016255617142E-002;-2.494898624718189E-003;-8.366989204660058E-004;
2.416500000000000E+009;1.731321662664414E-001;-6.956019997596741E-002;-2.518968423828483E-003;-6.047388305887580E-004;
2.416666666666667E+009;1.730006635189056E-001;-6.960868090391159E-002;-2.466718666255474E-003;-4.566871793940663E-004;
2.416833333333334E+009;1.728258132934570E-001;-7.002425938844681E-002;-2.386209554970264E-003;-2.915956720244139E-004;
2.417000000000000E+009;1.723823249340057E-001;-7.020599395036697E-002;-2.370234346017242E-003;-2.353308664169163E-004;
2.417166666666667E+009;1.719377040863037E-001;-7.040826976299286E-002;-2.356895478442311E-003;-5.585420149145648E-005;
2.417333333333334E+009;1.714011132717133E-001;-7.047417014837265E-002;-2.163997851312161E-003;-5.158469866728410E-005;
2.417500000000000E+009;1.709207445383072E-001;-7.101404666900635E-002;-2.206386532634497E-003;3.664880932774395E-004;
2.417666666666667E+009;1.702834367752075E-001;-7.096149772405624E-002;-2.105973893776536E-003;2.514106745366007E-004;
2.417833333333334E+009;1.695213168859482E-001;-7.111667096614838E-002;-1.832555164583027E-003;3.563082427717745E-004;
2.418000000000000E+009;1.686459928750992E-001;-7.160643488168716E-002;-1.813924987800419E-003;4.785839992109686E-004;
2.418166666666667E+009;1.676641404628754E-001;-7.159393280744553E-002;-1.721210777759552E-003;5.515828961506486E-004;
2.418333333333334E+009;1.670635342597961E-001;-7.208772748708725E-002;-1.642088056541979E-003;5.553312366828322E-004;
2.418500000000000E+009;1.658743321895599E-001;-7.229803502559662E-002;-1.498653204180300E-003;5.684283678419888E-004;
2.418666666666667E+009;1.650151163339615E-001;-7.289683073759079E-002;-1.397025887854397E-003;5.893064080737531E-004;
2.418833333333334E+009;1.635907590389252E-001;-7.329855114221573E-002;-1.349663012661040E-003;6.943406187929213E-004;
2.419000000000000E+009;1.622942537069321E-001;-7.370947301387787E-002;-1.239551580511034E-003;6.274231127463281E-004;
2.419166666666667E+009;1.612859219312668E-001;-7.435690611600876E-002;-1.076017273589969E-003;7.855487638153136E-004;
2.419333333333334E+009;1.601043194532394E-001;-7.484109699726105E-002;-1.010365085676312E-003;7.011655252426863E-004;
2.419500000000000E+009;1.588586568832398E-001;-7.574209570884705E-002;-9.966864017769694E-004;7.014311267994344E-004;
2.419666666666667E+009;1.576716154813767E-001;-7.650074362754822E-002;-7.889193948358297E-004;7.605918799526990E-004;
2.419833333333334E+009;1.563117057085037E-001;-7.733961939811707E-002;-6.395527161657810E-004;6.685812841169536E-004;
2.420000000000000E+009;1.551288217306137E-001;-7.832208275794983E-002;-7.162809488363564E-004;5.506836459971964E-004;
2.420166666666667E+009;1.540818661451340E-001;-7.938957959413528E-002;-6.821034476161003E-004;5.320574855431914E-004;
2.420333333333334E+009;1.529839038848877E-001;-8.039907366037369E-002;-4.883024375885725E-004;6.257128552533686E-004;
2.420500000000000E+009;1.518172770738602E-001;-8.164833486080170E-002;-5.368658457882702E-004;6.225214456208050E-004;
2.420666666666667E+009;1.507450193166733E-001;-8.268021792173386E-002;-2.943640283774585E-004;5.868216394446790E-004;
2.420833333333334E+009;1.497847735881805E-001;-8.409710973501205E-002;-2.972595393657684E-004;4.962310777045786E-004;
2.421000000000000E+009;1.486548632383347E-001;-8.550202101469040E-002;-2.281812339788303E-004;4.780544550158083E-004;
2.421166666666667E+009;1.478752940893173E-001;-8.692689239978790E-002;-3.255510237067938E-004;5.500236293300986E-004;
2.421333333333334E+009;1.470668613910675E-001;-8.864647895097733E-002;-1.520156511105597E-004;5.614850670099258E-004;
2.421500000000000E+009;1.461751312017441E-001;-8.992367237806320E-002;-2.308935509063304E-004;5.120140849612653E-004;
2.421666666666667E+009;1.456762105226517E-001;-9.172678738832474E-002;-3.719722008099780E-005;3.006317419931293E-004;
2.421833333333334E+009;1.451563090085983E-001;-9.334985166788101E-002;-2.033302735071629E-004;2.730526030063629E-004;
2.422000000000000E+009;1.444943249225617E-001;-9.489814192056656E-002;-1.047808764269576E-004;2.545057504903525E-004;
2.422166666666667E+009;1.440226882696152E-001;-9.697951376438141E-002;-2.967862019431777E-005;2.839708758983761E-004;
2.422333333333334E+009;1.437829285860062E-001;-9.850706160068512E-002;2.467605736455880E-005;8.411677117692307E-005;
2.422500000000000E+009;1.434254795312882E-001;-1.000103130936623E-001;-3.591981112549547E-006;1.060845315805636E-004;
2.422666666666667E+009;1.432769447565079E-001;-1.018504723906517E-001;7.971973536768928E-005;-1.444818099116674E-005;
2.422833333333334E+009;1.432242542505264E-001;-1.035764142870903E-001;1.005740268738009E-004;-4.529832222033292E-005;
2.423000000000000E+009;1.430421620607376E-001;-1.052397489547730E-001;2.202022151323035E-004;-1.275071263080463E-004;
2.423166666666667E+009;1.431547701358795E-001;-1.070686131715775E-001;1.756863275659271E-005;-2.045238652499393E-004;
2.423333333333334E+009;1.433399915695190E-001;-1.084410548210144E-001;3.299315721960738E-005;-2.035640645772219E-004;
2.423500000000000E+009;1.434604376554489E-001;-1.100556254386902E-001;-1.993210571527015E-005;-4.135465715080500E-004;
2.423666666666667E+009;1.435385942459106E-001;-1.118653416633606E-001;-9.529079397907481E-005;-4.239946138113737E-004;
2.423833333333334E+009;1.438788622617722E-001;-1.134144663810730E-001;-7.688658661209047E-005;-4.122441168874502E-004;
2.424000000000000E+009;1.441189795732498E-001;-1.147129088640213E-001;-1.290648651774973E-004;-4.854526487179101E-004;
2.424166666666667E+009;1.444230675697327E-001;-1.161311566829681E-001;-2.777110494207591E-004;-5.181325250305235E-004;
2.424333333333334E+009;1.449029892683029E-001;-1.173094213008881E-001;-2.854511258192360E-004;-6.684922846034169E-004;
2.424500000000000E+009;1.451430618762970E-001;-1.186074838042259E-001;-2.774661697912961E-004;-5.669533275067806E-004;
2.424666666666667E+009;1.457102745771408E-001;-1.195474416017532E-001;-1.976741914404556E-004;-6.543542840518057E-004;
2.424833333333334E+009;1.458566933870316E-001;-1.207189261913300E-001;-3.997598832938820E-004;-5.835953634232283E-004;
2.425000000000000E+009;1.463307589292526E-001;-1.217657774686813E-001;-4.880899796262384E-004;-8.141666185110807E-004;
2.425166666666667E+009;1.464685797691345E-001;-1.225806549191475E-001;-5.147739429958165E-004;-6.847555050626397E-004;
2.425333333333334E+009;1.468209624290466E-001;-1.234825029969215E-001;-5.029235617257655E-004;-7.904648082330823E-004;
2.425500000000000E+009;1.472942978143692E-001;-1.242623552680016E-001;-6.302431575022638E-004;-5.852386821061373E-004;
2.425666666666667E+009;1.472055017948151E-001;-1.248760744929314E-001;-6.308935116976500E-004;-7.033516885712743E-004;
2.425833333333334E+009;1.477010399103165E-001;-1.253636479377747E-001;-7.093880558386445E-004;-7.606046274304390E-004;
2.426000000000000E+009;1.478135585784912E-001;-1.258821934461594E-001;-6.427947082556784E-004;-8.179794531315565E-004;
2.426166666666667E+009;1.480260342359543E-001;-1.262778788805008E-001;-8.458051015622914E-004;-6.218313938006759E-004;
2.426333333333334E+009;1.478856801986694E-001;-1.265679150819778E-001;-7.922546355985105E-004;-8.090584306046367E-004;
2.426500000000000E+009;1.479637771844864E-001;-1.266911774873734E-001;-9.300200035795569E-004;-6.949724629521370E-004;
2.426666666666667E+009;1.480382680892944E-001;-1.267465502023697E-001;-1.025941339321435E-003;-7.642881828360260E-004;
2.426833333333334E+009;1.478213965892792E-001;-1.269442141056061E-001;-8.630934171378613E-004;-5.251346738077700E-004;
2.427000000000000E+009;1.474971175193787E-001;-1.270538270473480E-001;-9.423564770258963E-004;-7.443579961545765E-004;
2.427166666666667E+009;1.471074372529984E-001;-1.269578635692596E-001;-1.008784747682512E-003;-7.739211432635784E-004;
2.427333333333334E+009;1.466307342052460E-001;-1.269280910491943E-001;-1.009520841762424E-003;-6.119951722212136E-004;
2.427500000000000E+009;1.462748944759369E-001;-1.268942058086395E-001;-1.129320939071477E-003;-4.944946267642081E-004;
2.427666666666667E+009;1.455653607845306E-001;-1.269714832305908E-001;-1.211492693983018E-003;-5.008818698115647E-004;
