# Version 1.00
#
freq[Hz];re:Trc1_S11;im:Trc1_S11;re:Trc2_S21;im:Trc2_S21;
2.400000000000000E+009;1.632158011198044E-001;5.149389803409576E-002;6.069262744858861E-004;3.699006512761116E-003;
2.400166666666667E+009;1.631507873535156E-001;4.997103661298752E-002;6.620471249334514E-004;3.773891367018223E-003;
2.400333333333334E+009;1.631275266408920E-001;4.812650755047798E-002;6.247502751648426E-004;3.706742078065872E-003;
2.400500000000000E+009;1.629143953323364E-001;4.632505774497986E-002;8.912938064895570E-004;3.951297141611576E-003;
2.400666666666667E+009;1.627817302942276E-001;4.456413164734840E-002;9.129371028393507E-004;4.007418639957905E-003;
2.400833333333334E+009;1.631454080343247E-001;4.263659194111824E-002;1.143753062933683E-003;4.091799724847078E-003;
2.401000000000000E+009;1.630375832319260E-001;4.089519754052162E-002;1.075709820725024E-003;4.087081644684076E-003;
2.401166666666667E+009;1.630290895700455E-001;3.870392963290215E-002;1.500300131738186E-003;4.049309995025396E-003;
2.401333333333334E+009;1.631656438112259E-001;3.693839907646179E-002;1.608529011718929E-003;4.382479935884476E-003;
2.401500000000000E+009;1.634253412485123E-001;3.487138077616692E-002;1.867857761681080E-003;4.295560996979475E-003;
2.401666666666667E+009;1.636716276407242E-001;3.311862051486969E-002;1.907646539621055E-003;4.272774327546358E-003;
2.401833333333334E+009;1.639300286769867E-001;3.098185546696186E-002;2.247518161311746E-003;4.362658597528935E-003;
2.402000000000000E+009;1.640427559614182E-001;2.930547483265400E-002;2.607037546113133E-003;4.224390722811222E-003;
2.402166666666667E+009;1.644274145364761E-001;2.716461010277271E-002;2.922508865594864E-003;4.272248130291700E-003;
2.402333333333334E+009;1.647640317678452E-001;2.535704150795937E-002;3.068737452849746E-003;4.157610703259707E-003;
2.402500000000000E+009;1.654317677021027E-001;2.353631891310215E-002;3.169974545016885E-003;4.243462812155485E-003;
2.402666666666667E+009;1.660502701997757E-001;2.209664881229401E-002;3.625155193731189E-003;3.958331421017647E-003;
2.402833333333334E+009;1.665504723787308E-001;2.040516026318073E-002;3.895900445058942E-003;3.927331417798996E-003;
2.403000000000000E+009;1.672567278146744E-001;1.870981417596340E-002;4.071663599461317E-003;3.719895379617810E-003;
2.403166666666667E+009;1.679662168025971E-001;1.707670092582703E-002;4.338282626122236E-003;3.436193568632007E-003;
2.403333333333334E+009;1.685548275709152E-001;1.580618694424629E-002;4.805078264325857E-003;3.208582056686282E-003;
2.403500000000000E+009;1.691864728927612E-001;1.435194909572601E-002;4.928060807287693E-003;3.063787939026952E-003;
2.403666666666667E+009;1.699167639017105E-001;1.286197081208229E-002;5.014503840357065E-003;2.849169075489044E-003;
2.403833333333334E+009;1.709287464618683E-001;1.160810980945826E-002;5.332459695637226E-003;2.489320002496243E-003;
2.404000000000000E+009;1.715726405382156E-001;1.047477778047323E-002;5.489510018378496E-003;2.123371232300997E-003;
2.404166666666667E+009;1.721296161413193E-001;9.281864389777184E-003;5.679449532181025E-003;1.922969706356525E-003;
2.404333333333334E+009;1.731066852807999E-001;8.265574462711811E-003;5.766528192907572E-003;1.360030262731016E-003;
2.404500000000000E+009;1.737879961729050E-001;7.102262694388628E-003;5.908598657697439E-003;1.228977111168206E-003;
2.404666666666667E+009;1.745812296867371E-001;6.227992009371519E-003;5.794453900307417E-003;9.304960840381682E-004;
2.404833333333334E+009;1.752186715602875E-001;5.265211686491966E-003;5.854862276464701E-003;3.282622201368213E-004;
2.405000000000000E+009;1.759587079286575E-001;4.622567445039749E-003;5.880391225218773E-003;1.942850794875994E-004;
2.405166666666667E+009;1.765528023242950E-001;3.855164628475905E-003;5.844335537403822E-003;-3.277552314102650E-004;
2.405333333333334E+009;1.772819161415100E-001;3.114989725872874E-003;5.696935113519430E-003;-5.717299063690007E-004;
2.405500000000000E+009;1.778456568717957E-001;2.664353000000119E-003;5.757731851190329E-003;-8.960581035353243E-004;
2.405666666666667E+009;1.782627850770950E-001;2.101864200085402E-003;5.758337210863829E-003;-1.100432593375444E-003;
2.405833333333334E+009;1.786514520645142E-001;1.783966552466154E-003;5.436211824417114E-003;-1.575504196807742E-003;
2.406000000000000E+009;1.791784018278122E-001;1.179827959276736E-003;5.296237301081419E-003;-1.619309186935425E-003;
2.406166666666667E+009;1.793629676103592E-001;1.015493995510042E-003;5.238957703113556E-003;-1.862495322711766E-003;
2.406333333333334E+009;1.798275560140610E-001;5.178497522138059E-004;4.966489039361477E-003;-2.218847861513495E-003;
2.406500000000000E+009;1.799774318933487E-001;1.195291770272888E-004;4.816820379346609E-003;-2.433995949104428E-003;
2.406666666666667E+009;1.800216138362885E-001;-6.077337820897810E-005;4.731517285108566E-003;-2.679327270016074E-003;
2.406833333333334E+009;1.802089214324951E-001;-5.448513547889888E-004;4.584412556141615E-003;-2.863592002540827E-003;
2.407000000000000E+009;1.804313361644745E-001;-9.387233876623213E-004;4.163347184658051E-003;-3.040657145902515E-003;
2.407166666666667E+009;1.803885847330093E-001;-1.231773057952523E-003;3.918041940778494E-003;-3.296394133940339E-003;
2.407333333333334E+009;1.801456958055496E-001;-1.722083776257932E-003;3.692080965265632E-003;-3.341671079397202E-003;
2.407500000000000E+009;1.800232529640198E-001;-2.096295589581132E-003;3.567037405446172E-003;-3.372499486431480E-003;
2.407666666666667E+009;1.796980351209641E-001;-2.475830493494868E-003;3.346702316775918E-003;-3.558261319994927E-003;
2.407833333333334E+009;1.793752610683441E-001;-3.220975864678621E-003;3.135944716632366E-003;-3.658470232039690E-003;
2.408000000000000E+009;1.790549904108048E-001;-3.708212636411190E-003;2.894267905503511E-003;-3.750402480363846E-003;
2.408166666666667E+009;1.785292327404022E-001;-4.280284512788057E-003;2.769353566691279E-003;-3.733705496415496E-003;
2.408333333333334E+009;1.782600581645966E-001;-4.967611748725176E-003;2.388337859883905E-003;-3.768342314288020E-003;
2.408500000000000E+009;1.775661259889603E-001;-5.769464187324047E-003;2.282878383994103E-003;-3.896242706105113E-003;
2.408666666666667E+009;1.771695166826248E-001;-6.460151169449091E-003;2.079603727906942E-003;-3.869777312502265E-003;
2.408833333333334E+009;1.762798428535461E-001;-7.491881027817726E-003;1.893396372906864E-003;-3.913079854100943E-003;
2.409000000000000E+009;1.755722761154175E-001;-8.368090726435185E-003;1.675048028118908E-003;-3.907173406332731E-003;
2.409166666666667E+009;1.751451045274735E-001;-9.413588792085648E-003;1.364754512906075E-003;-3.902198048308492E-003;
2.409333333333334E+009;1.743932515382767E-001;-1.061177719384432E-002;1.361755887046456E-003;-3.891956759616733E-003;
2.409500000000000E+009;1.736558973789215E-001;-1.177528593689203E-002;1.032226020470262E-003;-3.802633611485362E-003;
2.409666666666667E+009;1.729312837123871E-001;-1.321658585220575E-002;9.497876744717360E-004;-3.706057788804174E-003;
2.409833333333334E+009;1.722691357135773E-001;-1.434676814824343E-002;7.046423270367086E-004;-3.726164111867547E-003;
2.410000000000000E+009;1.716713309288025E-001;-1.578976400196552E-002;6.727879517711699E-004;-3.607358550652862E-003;
2.410166666666667E+009;1.710828095674515E-001;-1.740776374936104E-002;3.856215626001358E-004;-3.504914930090308E-003;
2.410333333333334E+009;1.701731979846954E-001;-1.908151060342789E-002;2.866114955395460E-004;-3.372990060597658E-003;
2.410500000000000E+009;1.697340160608292E-001;-2.049000561237335E-002;3.294527705293149E-004;-3.368645207956433E-003;
2.410666666666667E+009;1.690839231014252E-001;-2.249066159129143E-002;7.417236338369548E-005;-3.264047205448151E-003;
2.410833333333334E+009;1.686865240335465E-001;-2.403442747890949E-002;1.231360947713256E-004;-3.281306708231568E-003;
2.411000000000000E+009;1.681409180164337E-001;-2.578474208712578E-002;-5.342300210031681E-005;-3.161365864798427E-003;
2.411166666666667E+009;1.675321012735367E-001;-2.767813578248024E-002;-9.569414396537468E-005;-3.209245856851339E-003;
2.411333333333334E+009;1.674176305532455E-001;-2.951031737029553E-002;-1.012187476590043E-005;-3.244187682867050E-003;
2.411500000000000E+009;1.669373959302902E-001;-3.154601529240608E-002;-1.132520628743805E-004;-2.870557131245732E-003;
2.411666666666667E+009;1.669107228517532E-001;-3.333770856261253E-002;-3.602338547352701E-004;-2.976389136165381E-003;
2.411833333333334E+009;1.665901839733124E-001;-3.512071073055267E-002;-2.538640110287815E-004;-3.024268662557006E-003;
2.412000000000000E+009;1.666949093341827E-001;-3.724050894379616E-002;-4.332764656282961E-004;-2.948166104033589E-003;
2.412166666666667E+009;1.663371622562408E-001;-3.917616978287697E-002;-4.087018023710698E-004;-2.927545923739672E-003;
2.412333333333334E+009;1.666538417339325E-001;-4.081105440855026E-002;-5.375705659389496E-004;-3.050537314265966E-003;
2.412500000000000E+009;1.664756387472153E-001;-4.284270480275154E-002;-5.202013999223709E-004;-2.897619735449553E-003;
2.412666666666667E+009;1.667988747358322E-001;-4.480371624231339E-002;-8.053751662373543E-004;-2.810803009197116E-003;
2.412833333333334E+009;1.669064313173294E-001;-4.660066589713097E-002;-8.077040547505021E-004;-2.935311058536172E-003;
2.413000000000000E+009;1.670040637254715E-001;-4.833066835999489E-002;-8.887149160727859E-004;-3.029161831364036E-003;
2.413166666666667E+009;1.673572212457657E-001;-5.020381510257721E-002;-1.072158920578659E-003;-2.790039638057351E-003;
2.413333333333334E+009;1.675382256507874E-001;-5.198011174798012E-002;-1.001683529466391E-003;-2.834772225469351E-003;
2.413500000000000E+009;1.679435819387436E-001;-5.359325930476189E-002;-1.158282859250903E-003;-2.828182652592659E-003;
2.413666666666667E+009;1.685022264719009E-001;-5.508144572377205E-002;-1.321241492405534E-003;-2.632720628753305E-003;
2.413833333333334E+009;1.685330122709274E-001;-5.654552206397057E-002;-1.385710085742176E-003;-2.549204044044018E-003;
2.414000000000000E+009;1.689534783363342E-001;-5.801742523908615E-002;-1.616185531020165E-003;-2.668497618287802E-003;
2.414166666666667E+009;1.695074290037155E-001;-5.932870134711266E-002;-1.673929975368083E-003;-2.491499297320843E-003;
2.414333333333334E+009;1.699916571378708E-001;-6.059733405709267E-002;-1.719397259876132E-003;-2.319297054782510E-003;
2.414500000000000E+009;1.705278009176254E-001;-6.179338321089745E-002;-2.003974979743362E-003;-2.259507076814771E-003;
2.414666666666667E+009;1.708983778953552E-001;-6.266422569751740E-002;-1.960588619112968E-003;-2.209692494943738E-003;
2.414833333333334E+009;1.711520999670029E-001;-6.381486356258392E-002;-1.946268719621003E-003;-2.155399648472667E-003;
2.415000000000000E+009;1.715933233499527E-001;-6.472691893577576E-002;-2.186697674915195E-003;-2.058687619864941E-003;
2.415166666666667E+009;1.719540953636169E-001;-6.545502692461014E-002;-2.190047409385443E-003;-1.927214558236301E-003;
2.415333333333334E+009;1.724656224250794E-001;-6.628468632698059E-002;-2.355452626943588E-003;-1.607960322871804E-003;
2.415500000000000E+009;1.726776957511902E-001;-6.689511239528656E-002;-2.415983937680721E-003;-1.500683953054249E-003;
2.415666666666667E+009;1.728403270244598E-001;-6.734790652990341E-002;-2.465805271640420E-003;-1.440029474906623E-003;
2.415833333333334E+009;1.730023324489594E-001;-6.791248172521591E-002;-2.518651541322470E-003;-1.149812713265419E-003;
2.416000000000000E+009;1.729702204465866E-001;-6.844943761825562E-002;-2.452354878187180E-003;-1.091588521376252E-003;
2.416166666666667E+009;1.732935160398483E-001;-6.876784563064575E-002;-2.559230197221041E-003;-1.026844489388168E-003;
2.416333333333334E+009;1.733082234859467E-001;-6.915761530399323E-002;-2.482986077666283E-003;-8.102700812742114E-004;
2.416500000000000E+009;1.731298565864563E-001;-6.941547989845276E-002;-2.422542776912451E-003;-5.742860375903547E-004;
2.416666666666667E+009;1.729830652475357E-001;-6.962772458791733E-002;-2.573353471234441E-003;-4.541193484328687E-004;
2.416833333333334E+009;1.727882623672485E-001;-6.995550543069840E-002;-2.446439582854509E-003;-3.520405152812600E-004;
2.417000000000000E+009;1.723686009645462E-001;-7.035412639379501E-002;-2.409017644822598E-003;-1.884465309558436E-004;
2.417166666666667E+009;1.718057692050934E-001;-7.031065225601196E-002;-2.312318887561560E-003;6.435668910853565E-005;
2.417333333333334E+009;1.713824868202210E-001;-7.057090848684311E-002;-2.132203662768006E-003;1.194323049276136E-004;
2.417500000000000E+009;1.708519160747528E-001;-7.081806659698486E-002;-2.058796817436814E-003;1.935368345584720E-004;
2.417666666666667E+009;1.702045351266861E-001;-7.089182734489441E-002;-2.167561091482639E-003;3.069809463340789E-004;
2.417833333333334E+009;1.693451702594757E-001;-7.107755541801453E-002;-1.873570610769093E-003;4.228205361869186E-004;
2.418000000000000E+009;1.685220152139664E-001;-7.148516178131104E-002;-1.895733294077218E-003;3.777124220505357E-004;
2.418166666666667E+009;1.676863431930542E-001;-7.166261225938797E-002;-1.831000670790672E-003;5.282349884510040E-004;
2.418333333333334E+009;1.669190376996994E-001;-7.206575572490692E-002;-1.689277007244527E-003;6.290387245826423E-004;
2.418500000000000E+009;1.658627539873123E-001;-7.234416902065277E-002;-1.500606304034591E-003;8.011498721316457E-004;
2.418666666666667E+009;1.649428009986877E-001;-7.277350872755051E-002;-1.510742353275418E-003;6.105222855694592E-004;
2.418833333333334E+009;1.635909378528595E-001;-7.321472465991974E-002;-1.167762791737914E-003;7.163778063841164E-004;
2.419000000000000E+009;1.624241769313812E-001;-7.371949404478073E-002;-1.136923441663384E-003;7.618967792950571E-004;
2.419166666666667E+009;1.613439619541168E-001;-7.421250641345978E-002;-1.105923904106021E-003;6.617688341066241E-004;
2.419333333333334E+009;1.599577218294144E-001;-7.467515021562576E-002;-1.097563654184341E-003;7.127837161533535E-004;
2.419500000000000E+009;1.589055210351944E-001;-7.573916018009186E-002;-8.778001065365970E-004;6.916664424352348E-004;
2.419666666666667E+009;1.578676998615265E-001;-7.645102590322495E-002;-9.558878955431283E-004;7.680673734284937E-004;
2.419833333333334E+009;1.564924418926239E-001;-7.740474492311478E-002;-7.890299311839044E-004;6.560693727806211E-004;
2.420000000000000E+009;1.552556306123734E-001;-7.824134826660156E-002;-7.145769777707756E-004;7.225777953863144E-004;
2.420166666666667E+009;1.540290713310242E-001;-7.933796197175980E-002;-6.932229152880609E-004;6.821592687629163E-004;
2.420333333333334E+009;1.530144661664963E-001;-8.044122904539108E-002;-6.154787843115628E-004;7.052567088976502E-004;
2.420500000000000E+009;1.520001888275147E-001;-8.141200244426727E-002;-4.930425202473998E-004;6.230243016034365E-004;
2.420666666666667E+009;1.507851183414459E-001;-8.270995318889618E-002;-5.575293325819075E-004;5.898853414691985E-004;
2.420833333333334E+009;1.499098390340805E-001;-8.412184566259384E-002;-3.679155197460204E-004;5.450691678561270E-004;
2.421000000000000E+009;1.487964093685150E-001;-8.562849462032318E-002;-3.059327718801796E-004;5.106220487505198E-004;
2.421166666666667E+009;1.479292362928391E-001;-8.695541322231293E-002;-3.408819320611656E-004;4.498162015806884E-004;
2.421333333333334E+009;1.472742408514023E-001;-8.851878345012665E-002;-3.396089596208185E-004;4.874697187915444E-004;
2.421500000000000E+009;1.463415622711182E-001;-9.002719819545746E-002;-1.367234654026106E-004;4.598041123244911E-004;
2.421666666666667E+009;1.457587480545044E-001;-9.162612259387970E-002;-1.426663075108081E-004;4.646237066481262E-004;
2.421833333333334E+009;1.451839059591293E-001;-9.323327988386154E-002;6.109324021963403E-005;4.077486228197813E-004;
2.422000000000000E+009;1.446598023176193E-001;-9.499479085206986E-002;-5.524817970581353E-005;4.154304333496839E-004;
2.422166666666667E+009;1.441485881805420E-001;-9.681841731071472E-002;-5.658889858750626E-005;3.235053736716509E-004;
2.422333333333334E+009;1.438324153423309E-001;-9.839230030775070E-002;-9.883461461868137E-005;3.392022044863552E-004;
2.422500000000000E+009;1.434265822172165E-001;-1.000998914241791E-001;-1.204161380883306E-004;9.527591464575380E-005;
2.422666666666667E+009;1.432356536388397E-001;-1.018033847212791E-001;7.908028237579856E-006;3.233457391615957E-005;
2.422833333333334E+009;1.432907730340958E-001;-1.037222445011139E-001;1.983016554731876E-004;-1.457187900086865E-004;
2.423000000000000E+009;1.431315094232559E-001;-1.052254736423492E-001;1.250631758011878E-004;-9.360120748169720E-005;
2.423166666666667E+009;1.432158797979355E-001;-1.069686561822891E-001;5.387907731346786E-005;-2.840118540916592E-004;
2.423333333333334E+009;1.433302015066147E-001;-1.084147319197655E-001;-1.095180050469935E-004;-1.996004139073193E-004;
2.423500000000000E+009;1.434750109910965E-001;-1.101385802030563E-001;-1.234260125784203E-004;-3.737251099664718E-004;
2.423666666666667E+009;1.435982137918472E-001;-1.117922514677048E-001;-1.862077479017898E-004;-2.443964185658842E-004;
2.423833333333334E+009;1.440190672874451E-001;-1.133376210927963E-001;-1.133897021645680E-004;-3.846995241474360E-004;
2.424000000000000E+009;1.440871357917786E-001;-1.145329847931862E-001;-1.950807345565409E-004;-5.584062309935689E-004;
2.424166666666667E+009;1.442782133817673E-001;-1.159329563379288E-001;-2.710731641855091E-004;-5.543254665099084E-004;
2.424333333333334E+009;1.448247879743576E-001;-1.172970458865166E-001;-1.794030686141923E-004;-6.402005674317479E-004;
2.424500000000000E+009;1.452667564153671E-001;-1.185696795582771E-001;-3.022816672455519E-004;-6.323451525531709E-004;
2.424666666666667E+009;1.456138938665390E-001;-1.195125356316567E-001;-2.646503562573344E-004;-4.784995981026441E-004;
2.424833333333334E+009;1.458113044500351E-001;-1.206347271800041E-001;-4.850389959756285E-004;-5.122170550748706E-004;
2.425000000000000E+009;1.462575197219849E-001;-1.217055693268776E-001;-6.408988847397268E-004;-7.048467523418367E-004;
2.425166666666667E+009;1.464492231607437E-001;-1.224548444151878E-001;-5.061585688963532E-004;-7.128722500056028E-004;
2.425333333333334E+009;1.468837857246399E-001;-1.233205497264862E-001;-5.714601720683277E-004;-6.945834611542523E-004;
2.425500000000000E+009;1.473152488470078E-001;-1.240264773368835E-001;-5.821681697852910E-004;-6.178991170600057E-004;
2.425666666666667E+009;1.474071741104126E-001;-1.247459724545479E-001;-7.946037221699953E-004;-6.768960156477988E-004;
2.425833333333334E+009;1.476342678070068E-001;-1.252098530530930E-001;-8.959305123426020E-004;-6.559637840837240E-004;
2.426000000000000E+009;1.476695090532303E-001;-1.257144808769226E-001;-9.148322278633714E-004;-5.117318360134959E-004;
2.426166666666667E+009;1.481476277112961E-001;-1.260916143655777E-001;-8.244918426498771E-004;-6.796915549784899E-004;
2.426333333333334E+009;1.479471325874329E-001;-1.263797581195831E-001;-8.383644744753838E-004;-4.378321464173496E-004;
2.426500000000000E+009;1.479347944259644E-001;-1.266547292470932E-001;-8.238031296059489E-004;-5.247135413810611E-004;
2.426666666666667E+009;1.480752080678940E-001;-1.266040354967117E-001;-7.659320253878832E-004;-3.768152091652155E-004;
2.426833333333334E+009;1.478499770164490E-001;-1.267659515142441E-001;-1.058611203916371E-003;-5.575375398620963E-004;
2.427000000000000E+009;1.474741250276566E-001;-1.269311159849167E-001;-8.831594022922218E-004;-5.160737200640142E-004;
2.427166666666667E+009;1.472068130970001E-001;-1.268953382968903E-001;-1.139623927883804E-003;-6.250134319998324E-004;
2.427333333333334E+009;1.466147750616074E-001;-1.269235014915466E-001;-1.057399553246796E-003;-4.705264582298696E-004;
2.427500000000000E+009;1.462596803903580E-001;-1.269270628690720E-001;-9.880841244012117E-004;-4.450582782737911E-004;
2.427666666666667E+009;1.456357836723328E-001;-1.268858611583710E-001;-1.042947755195200E-003;-4.844041541218758E-004;
