# Version 1.00
#
freq[Hz];re:Trc1_S11;im:Trc1_S11;re:Trc2_S21;im:Trc2_S21;
2.400000000000000E+009;1.561782211065292E-001;1.108053326606751E-001;-6.078218109905720E-003;4.461640957742930E-003;
2.400166666666667E+009;1.554559916257858E-001;1.083281189203262E-001;-5.885553080588579E-003;4.640747327357531E-003;
2.400333333333334E+009;1.553010493516922E-001;1.062259748578072E-001;-5.783368367701769E-003;4.690867383033037E-003;
2.400500000000000E+009;1.548547744750977E-001;1.034415736794472E-001;-5.813226569443941E-003;4.648622591048479E-003;
2.400666666666667E+009;1.546580642461777E-001;1.011141315102577E-001;-5.929911974817514E-003;5.019029136747122E-003;
2.400833333333334E+009;1.541744768619537E-001;9.823431074619293E-002;-5.824010819196701E-003;5.108684767037630E-003;
2.401000000000000E+009;1.541984528303146E-001;9.522721171379089E-002;-5.783951375633478E-003;5.328326486051083E-003;
2.401166666666667E+009;1.539760977029800E-001;9.231921285390854E-002;-5.526514258235693E-003;5.570249632000923E-003;
2.401333333333334E+009;1.542619317770004E-001;8.962878584861755E-002;-5.400710739195347E-003;5.915172863751650E-003;
2.401500000000000E+009;1.543950587511063E-001;8.647378534078598E-002;-5.529382266104221E-003;6.184957921504974E-003;
2.401666666666667E+009;1.545462608337402E-001;8.341074734926224E-002;-5.195065401494503E-003;6.632481701672077E-003;
2.401833333333334E+009;1.547033935785294E-001;8.043938875198364E-002;-4.915662575513125E-003;6.837912835180759E-003;
2.402000000000000E+009;1.555185317993164E-001;7.759451121091843E-002;-4.594044759869576E-003;7.043854333460331E-003;
2.402166666666667E+009;1.560389995574951E-001;7.490556687116623E-002;-4.234036430716515E-003;7.422276306897402E-003;
2.402333333333334E+009;1.569196730852127E-001;7.166612148284912E-002;-3.948736935853958E-003;7.705611642450094E-003;
2.402500000000000E+009;1.580641418695450E-001;6.915402412414551E-002;-3.603324992582202E-003;7.845523767173290E-003;
2.402666666666667E+009;1.588900536298752E-001;6.629538536071777E-002;-3.124547889456153E-003;8.046799339354038E-003;
2.402833333333334E+009;1.601235419511795E-001;6.368505209684372E-002;-2.684821374714375E-003;8.264822885394096E-003;
2.403000000000000E+009;1.614990979433060E-001;6.092864274978638E-002;-2.129425760358572E-003;8.251973427832127E-003;
2.403166666666667E+009;1.630483269691467E-001;5.844140425324440E-002;-1.775067183189094E-003;8.321373723447323E-003;
2.403333333333334E+009;1.645777523517609E-001;5.605071410536766E-002;-1.372088561765850E-003;8.228162303566933E-003;
2.403500000000000E+009;1.664796322584152E-001;5.381577834486961E-002;-8.212524116970599E-004;8.322135545313358E-003;
2.403666666666667E+009;1.681594699621201E-001;5.148278549313545E-002;-3.193428565282375E-004;7.923638448119164E-003;
2.403833333333334E+009;1.697509884834290E-001;4.935497790575028E-002;9.426516771782190E-005;7.784108165651560E-003;
2.404000000000000E+009;1.713688969612122E-001;4.734713956713677E-002;2.489510516170412E-004;7.542411796748638E-003;
2.404166666666667E+009;1.734025180339813E-001;4.579597711563110E-002;5.212242831476033E-004;7.359572220593691E-003;
2.404333333333334E+009;1.750209927558899E-001;4.408651217818260E-002;7.513258024118841E-004;7.155110128223896E-003;
2.404500000000000E+009;1.768505126237869E-001;4.241841286420822E-002;8.168735075742006E-004;6.902983877807856E-003;
2.404666666666667E+009;1.786051243543625E-001;4.126573726534843E-002;1.105697243474424E-003;6.704580504447222E-003;
2.404833333333334E+009;1.803298294544220E-001;4.004365205764771E-002;1.215218449942768E-003;6.674129515886307E-003;
2.405000000000000E+009;1.820027232170105E-001;3.936092555522919E-002;1.406345632858574E-003;6.417193450033665E-003;
2.405166666666667E+009;1.838027387857437E-001;3.850634396076202E-002;1.448594848625362E-003;6.394418887794018E-003;
2.405333333333334E+009;1.855085492134094E-001;3.793705627322197E-002;1.701450324617326E-003;6.243592593818903E-003;
2.405500000000000E+009;1.870213299989700E-001;3.743054717779160E-002;1.540051656775177E-003;6.214792374521494E-003;
2.405666666666667E+009;1.886462420225143E-001;3.708206117153168E-002;1.848883111961186E-003;6.029102485626936E-003;
2.405833333333334E+009;1.899700462818146E-001;3.684788197278976E-002;1.967822434380651E-003;6.041607819497585E-003;
2.406000000000000E+009;1.913105696439743E-001;3.663748502731323E-002;1.902539981529117E-003;5.980654619634152E-003;
2.406166666666667E+009;1.926372945308685E-001;3.671275451779366E-002;2.344930078834295E-003;5.838619079440832E-003;
2.406333333333334E+009;1.938078403472900E-001;3.679082542657852E-002;2.383989049121738E-003;5.591819528490305E-003;
2.406500000000000E+009;1.948615610599518E-001;3.690117970108986E-002;2.473815344274044E-003;5.709894467145205E-003;
2.406666666666667E+009;1.956907957792282E-001;3.717504814267159E-002;2.747995080426335E-003;5.670302547514439E-003;
2.406833333333334E+009;1.964357793331146E-001;3.737943992018700E-002;2.593760145828128E-003;5.340757779777050E-003;
2.407000000000000E+009;1.968826353549957E-001;3.783680126070976E-002;2.889584517106414E-003;5.144637543708086E-003;
2.407166666666667E+009;1.974737644195557E-001;3.782644122838974E-002;2.990433480590582E-003;5.232731811702251E-003;
2.407333333333334E+009;1.976095736026764E-001;3.824221715331078E-002;3.151878016069531E-003;5.094037856906653E-003;
2.407500000000000E+009;1.977465748786926E-001;3.865042701363564E-002;3.024741308763623E-003;5.160416476428509E-003;
2.407666666666667E+009;1.979136914014816E-001;3.891254216432571E-002;3.093663603067398E-003;4.928756970912218E-003;
2.407833333333334E+009;1.975009292364121E-001;3.914324194192886E-002;3.258878132328391E-003;4.697342868894339E-003;
2.408000000000000E+009;1.976082921028137E-001;3.933923318982124E-002;3.188240109011531E-003;4.820610862225294E-003;
2.408166666666667E+009;1.970830708742142E-001;3.935186937451363E-002;3.243291517719626E-003;4.770342260599136E-003;
2.408333333333334E+009;1.966447681188583E-001;3.920189663767815E-002;3.426028881222010E-003;4.607117734849453E-003;
2.408500000000000E+009;1.960311830043793E-001;3.939890488982201E-002;3.550236811861396E-003;4.634280223399401E-003;
2.408666666666667E+009;1.952461451292038E-001;3.917011618614197E-002;3.572570392861962E-003;4.651267547160387E-003;
2.408833333333334E+009;1.945617645978928E-001;3.886276856064796E-002;3.543404862284660E-003;4.589666612446308E-003;
2.409000000000000E+009;1.937157362699509E-001;3.822879120707512E-002;3.679745364934206E-003;4.387163091450930E-003;
2.409166666666667E+009;1.925778388977051E-001;3.763988241553307E-002;3.882160643115640E-003;4.541198257356882E-003;
2.409333333333334E+009;1.916151791810989E-001;3.683795407414436E-002;3.984217066317797E-003;4.408151842653751E-003;
2.409500000000000E+009;1.903667300939560E-001;3.595932945609093E-002;4.213457461446524E-003;4.338152240961790E-003;
2.409666666666667E+009;1.892695277929306E-001;3.483910113573074E-002;4.302715416997671E-003;4.285755567252636E-003;
2.409833333333334E+009;1.880516111850739E-001;3.359124064445496E-002;4.532465245574713E-003;4.283092450350523E-003;
2.410000000000000E+009;1.869458556175232E-001;3.222811594605446E-002;4.553391598165035E-003;4.111172165721655E-003;
2.410166666666667E+009;1.855860352516174E-001;3.056411445140839E-002;4.759390372782946E-003;3.985639661550522E-003;
2.410333333333334E+009;1.845155209302902E-001;2.908813022077084E-002;4.855415318161249E-003;4.030195996165276E-003;
2.410500000000000E+009;1.832046061754227E-001;2.727727964520454E-002;4.862772766500711E-003;3.873113775625825E-003;
2.410666666666667E+009;1.822718828916550E-001;2.509372681379318E-002;5.227913148701191E-003;3.887264989316464E-003;
2.410833333333334E+009;1.813452392816544E-001;2.312439121305943E-002;5.169245880097151E-003;3.780427854508162E-003;
2.411000000000000E+009;1.804145276546478E-001;2.082594111561775E-002;5.370959639549255E-003;3.730627009645104E-003;
2.411166666666667E+009;1.795426756143570E-001;1.880259439349175E-002;5.506810732185841E-003;3.479582490399480E-003;
2.411333333333334E+009;1.788767576217651E-001;1.622709445655346E-002;5.605899263173342E-003;3.346047829836607E-003;
2.411500000000000E+009;1.781753003597260E-001;1.378749683499336E-002;5.803391803056002E-003;3.256597789004445E-003;
2.411666666666667E+009;1.776410788297653E-001;1.138934586197138E-002;5.906091537326574E-003;3.135763807222247E-003;
2.411833333333334E+009;1.770990788936615E-001;8.821179158985615E-003;6.197736598551273E-003;3.248238237574697E-003;
2.412000000000000E+009;1.772754043340683E-001;6.126878783106804E-003;6.319623440504074E-003;3.158309729769826E-003;
2.412166666666667E+009;1.771307885646820E-001;3.796154167503119E-003;6.534711457788944E-003;2.871674485504627E-003;
2.412333333333334E+009;1.771474331617355E-001;1.022589742206037E-003;6.596850231289864E-003;2.811996033415198E-003;
2.412500000000000E+009;1.773984134197235E-001;-1.689047319814563E-003;6.919681094586849E-003;2.617224585264921E-003;
2.412666666666667E+009;1.776454597711563E-001;-4.366139415651560E-003;7.057682145386934E-003;2.300564199686050E-003;
2.412833333333334E+009;1.783984303474426E-001;-7.066333200782538E-003;7.326741237193346E-003;1.959502231329680E-003;
2.413000000000000E+009;1.790769547224045E-001;-9.476004168391228E-003;7.710543926805258E-003;1.788205699995160E-003;
2.413166666666667E+009;1.797002255916596E-001;-1.198673713952303E-002;7.780278101563454E-003;1.429816358722746E-003;
2.413333333333334E+009;1.807166785001755E-001;-1.446017809212208E-002;8.038443513214588E-003;1.039420254528523E-003;
2.413500000000000E+009;1.816783398389816E-001;-1.721963100135326E-002;8.194953203201294E-003;6.448939093388617E-004;
2.413666666666667E+009;1.830292791128159E-001;-1.953502744436264E-002;8.193663321435452E-003;2.821649541147053E-004;
2.413833333333334E+009;1.840569823980331E-001;-2.169336751103401E-002;8.411296643316746E-003;-2.747947582975030E-004;
2.414000000000000E+009;1.853883266448975E-001;-2.400119230151177E-002;8.394908159971237E-003;-6.194186862558126E-004;
2.414166666666667E+009;1.865331530570984E-001;-2.605250291526318E-002;8.435887284576893E-003;-1.063911360688508E-003;
2.414333333333334E+009;1.879643052816391E-001;-2.812237292528153E-002;8.377684280276299E-003;-1.454197918064892E-003;
2.414500000000000E+009;1.893193721771240E-001;-2.994859963655472E-002;8.292327634990215E-003;-2.178987953811884E-003;
2.414666666666667E+009;1.907658278942108E-001;-3.161881864070892E-002;8.035604842007160E-003;-2.529028570279479E-003;
2.414833333333334E+009;1.920439302921295E-001;-3.310480341315270E-002;7.785685826092959E-003;-2.907236339524388E-003;
2.415000000000000E+009;1.934086680412293E-001;-3.474565222859383E-002;7.549627684056759E-003;-3.254118841141462E-003;
2.415166666666667E+009;1.949786245822907E-001;-3.595149517059326E-002;7.375398650765419E-003;-3.614926943555474E-003;
2.415333333333334E+009;1.962426602840424E-001;-3.701187297701836E-002;7.128900848329067E-003;-3.858428914099932E-003;
2.415500000000000E+009;1.978291273117065E-001;-3.788125887513161E-002;6.875733844935894E-003;-4.274629987776279E-003;
2.415666666666667E+009;1.990695744752884E-001;-3.883383795619011E-002;6.723647937178612E-003;-4.473900422453880E-003;
2.415833333333334E+009;2.002826482057571E-001;-3.965104743838310E-002;6.251538638025522E-003;-4.755469039082527E-003;
2.416000000000000E+009;2.012146413326263E-001;-4.039274156093597E-002;6.024090573191643E-003;-5.000002216547728E-003;
2.416166666666667E+009;2.024711221456528E-001;-4.092155024409294E-002;5.740405526012182E-003;-5.174615420401096E-003;
2.416333333333334E+009;2.033020555973053E-001;-4.120428860187531E-002;5.389754660427570E-003;-5.492204800248146E-003;
2.416500000000000E+009;2.040917426347733E-001;-4.157466441392899E-002;5.131731741130352E-003;-5.566675681620836E-003;
2.416666666666667E+009;2.046897113323212E-001;-4.199752584099770E-002;5.036415532231331E-003;-5.766470916569233E-003;
2.416833333333334E+009;2.050618231296539E-001;-4.199291765689850E-002;4.504355136305094E-003;-5.899463314563036E-003;
2.417000000000000E+009;2.055522054433823E-001;-4.202781617641449E-002;4.256167449057102E-003;-6.038731429725885E-003;
2.417166666666667E+009;2.055975198745728E-001;-4.200817272067070E-002;3.920954652130604E-003;-6.170533597469330E-003;
2.417333333333334E+009;2.055904567241669E-001;-4.159228503704071E-002;3.523406106978655E-003;-6.274139508605003E-003;
2.417500000000000E+009;2.055141478776932E-001;-4.152570664882660E-002;3.082382259890437E-003;-6.192496512085199E-003;
2.417666666666667E+009;2.052948921918869E-001;-4.118004068732262E-002;2.906464040279388E-003;-6.232733838260174E-003;
2.417833333333334E+009;2.050305157899857E-001;-4.095184430480003E-002;2.648352878168225E-003;-6.276816129684448E-003;
2.418000000000000E+009;2.046269923448563E-001;-4.053376987576485E-002;2.314657904207707E-003;-6.250376813113689E-003;
2.418166666666667E+009;2.039708197116852E-001;-4.029135033488274E-002;2.077999059110880E-003;-6.123306695371866E-003;
2.418333333333334E+009;2.032478004693985E-001;-3.991129249334335E-002;1.738184946589172E-003;-6.079290062189102E-003;
2.418500000000000E+009;2.022172957658768E-001;-3.985487297177315E-002;1.633238513022661E-003;-6.159238982945681E-003;
2.418666666666667E+009;2.015417963266373E-001;-3.945547342300415E-002;1.211192575283349E-003;-5.854743998497725E-003;
2.418833333333334E+009;2.003080695867539E-001;-3.946342691779137E-002;1.160643296316266E-003;-5.787478759884834E-003;
2.419000000000000E+009;1.990596055984497E-001;-3.948211297392845E-002;9.232772281393409E-004;-5.668832920491695E-003;
2.419166666666667E+009;1.977936774492264E-001;-3.960907459259033E-002;8.375777979381383E-004;-5.567599553614855E-003;
2.419333333333334E+009;1.963472813367844E-001;-3.984984755516052E-002;4.736534901894629E-004;-5.445537157356739E-003;
2.419500000000000E+009;1.947922259569168E-001;-4.015499725937843E-002;5.070781917311251E-004;-5.273457150906324E-003;
2.419666666666667E+009;1.931547373533249E-001;-4.079214856028557E-002;2.267653326271102E-004;-5.271439440548420E-003;
2.419833333333334E+009;1.914290636777878E-001;-4.128869995474815E-002;3.697853535413742E-004;-5.089788697659969E-003;
2.420000000000000E+009;1.898656785488129E-001;-4.190402105450630E-002;1.723592722555623E-004;-4.932559095323086E-003;
2.420166666666667E+009;1.880128234624863E-001;-4.279245063662529E-002;2.220470341853797E-004;-4.855183884501457E-003;
2.420333333333334E+009;1.860302686691284E-001;-4.374067112803459E-002;1.452093129046261E-004;-4.794096108525991E-003;
2.420500000000000E+009;1.843895614147186E-001;-4.510021954774857E-002;1.441822241758928E-004;-4.651453811675310E-003;
2.420666666666667E+009;1.825166195631027E-001;-4.613633826375008E-002;2.443961420794949E-005;-4.684075713157654E-003;
2.420833333333334E+009;1.807116717100143E-001;-4.745549708604813E-002;1.404693321092054E-004;-4.553844686597586E-003;
2.421000000000000E+009;1.789674460887909E-001;-4.901688918471336E-002;-5.939035327173770E-005;-4.552103113383055E-003;
2.421166666666667E+009;1.772780865430832E-001;-5.073934420943260E-002;9.324806160293520E-005;-4.535695072263479E-003;
2.421333333333334E+009;1.753555983304977E-001;-5.224938690662384E-002;-2.623495163334155E-007;-4.548919387161732E-003;
2.421500000000000E+009;1.738514602184296E-001;-5.426751077175140E-002;-7.131811435101554E-005;-4.702674224972725E-003;
2.421666666666667E+009;1.725554615259171E-001;-5.601887404918671E-002;-8.522611460648477E-005;-4.621723201125860E-003;
2.421833333333334E+009;1.709949225187302E-001;-5.797100439667702E-002;-2.314080047653988E-004;-4.635111894458532E-003;
2.422000000000000E+009;1.695197075605393E-001;-5.994771048426628E-002;-2.444090787321329E-004;-4.713785834610462E-003;
2.422166666666667E+009;1.684682667255402E-001;-6.227622553706169E-002;-3.867547202389687E-004;-4.785160068422556E-003;
2.422333333333334E+009;1.671247780323029E-001;-6.450353562831879E-002;-3.155361919198185E-004;-4.766093567013741E-003;
2.422500000000000E+009;1.662791222333908E-001;-6.648650765419006E-002;-5.742468638345599E-004;-4.823083057999611E-003;
2.422666666666667E+009;1.652974635362625E-001;-6.879474967718124E-002;-7.442577043548226E-004;-4.899275954812765E-003;
2.422833333333334E+009;1.647301316261292E-001;-7.094334065914154E-002;-8.243708289228380E-004;-4.762213677167893E-003;
2.423000000000000E+009;1.640360355377197E-001;-7.340247929096222E-002;-8.674438577145338E-004;-4.763707518577576E-003;
2.423166666666667E+009;1.635475754737854E-001;-7.553432881832123E-002;-1.154252910055220E-003;-4.751553758978844E-003;
2.423333333333334E+009;1.630572378635407E-001;-7.757217437028885E-002;-1.387684256769717E-003;-4.794392734766007E-003;
2.423500000000000E+009;1.629552096128464E-001;-7.970151305198669E-002;-1.335947192274034E-003;-4.769096150994301E-003;
2.423666666666667E+009;1.629550904035568E-001;-8.183054625988007E-002;-1.504564657807350E-003;-4.580018110573292E-003;
2.423833333333334E+009;1.627782881259918E-001;-8.379906415939331E-002;-1.631574006751180E-003;-4.548607394099236E-003;
2.424000000000000E+009;1.629601716995239E-001;-8.595602214336395E-002;-1.487451954744756E-003;-4.561033099889755E-003;
2.424166666666667E+009;1.630281656980515E-001;-8.771941065788269E-002;-1.757791498675942E-003;-4.491571802645922E-003;
2.424333333333334E+009;1.633653640747070E-001;-8.943589776754379E-002;-1.701972098089755E-003;-4.515064880251885E-003;
2.424500000000000E+009;1.637635082006455E-001;-9.149605780839920E-002;-1.885682810097933E-003;-4.359615501016378E-003;
2.424666666666667E+009;1.641652286052704E-001;-9.309232980012894E-002;-2.073801122605801E-003;-4.384941887110472E-003;
2.424833333333334E+009;1.647640764713287E-001;-9.464445710182190E-002;-2.004424575716257E-003;-4.468181170523167E-003;
2.425000000000000E+009;1.652319431304932E-001;-9.603570401668549E-002;-2.198473783209920E-003;-4.429806023836136E-003;
2.425166666666667E+009;1.656964272260666E-001;-9.734015166759491E-002;-2.189947059378028E-003;-4.592194221913815E-003;
2.425333333333334E+009;1.662791371345520E-001;-9.850747883319855E-002;-2.475395798683167E-003;-4.508214537054300E-003;
2.425500000000000E+009;1.668135076761246E-001;-9.966113418340683E-002;-2.659478457644582E-003;-4.567037802189589E-003;
2.425666666666667E+009;1.674637943506241E-001;-1.004534810781479E-001;-2.668925793841481E-003;-4.436441697180271E-003;
2.425833333333334E+009;1.680483222007752E-001;-1.014019474387169E-001;-2.927875379100442E-003;-4.559302236884832E-003;
2.426000000000000E+009;1.685520261526108E-001;-1.019455417990685E-001;-3.112474922090769E-003;-4.491352941840887E-003;
2.426166666666667E+009;1.691156923770905E-001;-1.025914847850800E-001;-3.169926814734936E-003;-4.403947852551937E-003;
2.426333333333334E+009;1.694046854972839E-001;-1.031576544046402E-001;-3.482078434899449E-003;-4.391456954181194E-003;
2.426500000000000E+009;1.701324880123138E-001;-1.034535020589829E-001;-3.645173739641905E-003;-4.140189383178949E-003;
2.426666666666667E+009;1.706686913967133E-001;-1.038369685411453E-001;-3.868208732455969E-003;-4.091792739927769E-003;
2.426833333333334E+009;1.712045520544052E-001;-1.040594503283501E-001;-4.095580428838730E-003;-4.049710463732481E-003;
2.427000000000000E+009;1.713817566633225E-001;-1.042764484882355E-001;-4.246151540428400E-003;-3.924893680959940E-003;
2.427166666666667E+009;1.716558337211609E-001;-1.043006703257561E-001;-4.425967112183571E-003;-3.690309356898069E-003;
2.427333333333334E+009;1.717500835657120E-001;-1.044912189245224E-001;-4.609849769622088E-003;-3.578466130420566E-003;
2.427500000000000E+009;1.717781573534012E-001;-1.046373471617699E-001;-4.600618500262499E-003;-3.479407401755452E-003;
2.427666666666667E+009;1.716937869787216E-001;-1.043544709682465E-001;-4.851545672863722E-003;-3.288017353042960E-003;
2.427833333333334E+009;1.714920550584793E-001;-1.045141220092773E-001;-4.954072646796703E-003;-3.269884269684553E-003;
