# Version 1.00
#
freq[Hz];re:Trc1_S11;im:Trc1_S11;re:Trc2_S21;im:Trc2_S21;
2.400000000000000E+009;1.560634970664978E-001;1.108277440071106E-001;-5.954983178526163E-003;4.400669597089291E-003;
2.400166666666667E+009;1.557013541460037E-001;1.085458993911743E-001;-6.061946041882038E-003;4.602002445608378E-003;
2.400333333333334E+009;1.553659886121750E-001;1.065017655491829E-001;-5.928418133407831E-003;4.432741552591324E-003;
2.400500000000000E+009;1.549371182918549E-001;1.037221178412437E-001;-5.980879999697208E-003;4.626743495464325E-003;
2.400666666666667E+009;1.548132449388504E-001;1.011933758854866E-001;-5.778579041361809E-003;4.837026819586754E-003;
2.400833333333334E+009;1.543297618627548E-001;9.838171303272247E-002;-5.901922937482595E-003;4.956300836056471E-003;
2.401000000000000E+009;1.543337106704712E-001;9.547375142574310E-002;-5.859799217432737E-003;5.476335529237986E-003;
2.401166666666667E+009;1.542504727840424E-001;9.256061166524887E-002;-5.681051407009363E-003;5.707057192921639E-003;
2.401333333333334E+009;1.543360054492950E-001;8.954669535160065E-002;-5.563134327530861E-003;6.047070957720280E-003;
2.401500000000000E+009;1.545615196228027E-001;8.658922463655472E-002;-5.338635761290789E-003;6.096461322158575E-003;
2.401666666666667E+009;1.545831412076950E-001;8.360346406698227E-002;-5.299567244946957E-003;6.566154304891825E-003;
2.401833333333334E+009;1.549739688634872E-001;8.070677518844605E-002;-5.053963046520948E-003;6.848115939646959E-003;
2.402000000000000E+009;1.556577384471893E-001;7.764349877834320E-002;-4.637071862816811E-003;7.204203866422176E-003;
2.402166666666667E+009;1.563064754009247E-001;7.487608492374420E-002;-4.270828329026699E-003;7.323404308408499E-003;
2.402333333333334E+009;1.570822149515152E-001;7.192742824554443E-002;-4.014377482235432E-003;7.611645851284266E-003;
2.402500000000000E+009;1.581974178552628E-001;6.914869695901871E-002;-3.629084210842848E-003;7.875751703977585E-003;
2.402666666666667E+009;1.590289920568466E-001;6.656040251255035E-002;-3.163116984069347E-003;8.039628155529499E-003;
2.402833333333334E+009;1.603316068649292E-001;6.368396431207657E-002;-2.811683109030128E-003;8.147921413183212E-003;
2.403000000000000E+009;1.617738157510757E-001;6.130352243781090E-002;-2.439260482788086E-003;8.173726499080658E-003;
2.403166666666667E+009;1.633650809526444E-001;5.852953717112541E-002;-1.823981408961117E-003;8.243482559919357E-003;
2.403333333333334E+009;1.648191958665848E-001;5.610427632927895E-002;-1.325955963693559E-003;8.217450231313705E-003;
2.403500000000000E+009;1.666202992200851E-001;5.382318422198296E-002;-7.505040266551077E-004;8.105174638330936E-003;
2.403666666666667E+009;1.683089435100555E-001;5.150672048330307E-002;-6.687471759505570E-004;7.877802476286888E-003;
2.403833333333334E+009;1.701129525899887E-001;4.955159127712250E-002;-2.521715068724006E-004;7.925451733171940E-003;
2.404000000000000E+009;1.715225726366043E-001;4.766517505049706E-002;3.595916787162423E-004;7.555628195405006E-003;
2.404166666666667E+009;1.735422760248184E-001;4.573624581098557E-002;5.126217147335410E-004;7.390273269265890E-003;
2.404333333333334E+009;1.753128618001938E-001;4.423908516764641E-002;7.568463333882392E-004;7.070106919854879E-003;
2.404500000000000E+009;1.769974678754807E-001;4.257197678089142E-002;9.777055820450187E-004;7.067353464663029E-003;
2.404666666666667E+009;1.790145784616470E-001;4.131957888603210E-002;9.423617157153785E-004;6.860113237053156E-003;
2.404833333333334E+009;1.808524727821350E-001;4.019211232662201E-002;1.147961593233049E-003;6.606941111385822E-003;
2.405000000000000E+009;1.822287589311600E-001;3.924463316798210E-002;1.275942078791559E-003;6.470380350947380E-003;
2.405166666666667E+009;1.839570701122284E-001;3.853706642985344E-002;1.508277258835733E-003;6.400068756192923E-003;
2.405333333333334E+009;1.854911893606186E-001;3.773593530058861E-002;1.384170260280371E-003;6.074165925383568E-003;
2.405500000000000E+009;1.871791481971741E-001;3.744599595665932E-002;1.564817619509995E-003;6.219945382326841E-003;
2.405666666666667E+009;1.888612657785416E-001;3.702942281961441E-002;1.735091558657587E-003;6.010537501424551E-003;
2.405833333333334E+009;1.902683526277542E-001;3.671044856309891E-002;1.800647238269448E-003;6.090399343520403E-003;
2.406000000000000E+009;1.915619373321533E-001;3.670862317085266E-002;2.071929397061467E-003;5.976615939289331E-003;
2.406166666666667E+009;1.929832249879837E-001;3.676115348935127E-002;2.055682241916657E-003;5.908926017582417E-003;
2.406333333333334E+009;1.940577030181885E-001;3.681636974215508E-002;2.290094736963511E-003;5.703363567590714E-003;
2.406500000000000E+009;1.950098425149918E-001;3.707071766257286E-002;2.392486203461886E-003;5.551959853619337E-003;
2.406666666666667E+009;1.959734410047531E-001;3.718762472271919E-002;2.624270739033818E-003;5.528075154870749E-003;
2.406833333333334E+009;1.965518146753311E-001;3.735859692096710E-002;2.797465305775404E-003;5.488794296979904E-003;
2.407000000000000E+009;1.972974240779877E-001;3.780266270041466E-002;2.703428501263261E-003;5.306728184223175E-003;
2.407166666666667E+009;1.977969706058502E-001;3.789919614791870E-002;2.816247055307031E-003;5.202127154916525E-003;
2.407333333333334E+009;1.979457139968872E-001;3.823543339967728E-002;3.015488851815462E-003;5.091871600598097E-003;
2.407500000000000E+009;1.980489939451218E-001;3.867654129862785E-002;3.261885372921825E-003;5.211767274886370E-003;
2.407666666666667E+009;1.981994211673737E-001;3.882922604680061E-002;3.168265335261822E-003;4.964637104421854E-003;
2.407833333333334E+009;1.978063136339188E-001;3.911143168807030E-002;3.189777489751577E-003;4.768903367221355E-003;
2.408000000000000E+009;1.977554410696030E-001;3.937135636806488E-002;3.163568442687392E-003;4.846462048590183E-003;
2.408166666666667E+009;1.973446607589722E-001;3.945382311940193E-002;3.225737949833274E-003;4.719682969152927E-003;
2.408333333333334E+009;1.969444304704666E-001;3.910311684012413E-002;3.393928287550807E-003;4.655393771827221E-003;
2.408500000000000E+009;1.962447613477707E-001;3.935478627681732E-002;3.256187308579683E-003;4.719224292784929E-003;
2.408666666666667E+009;1.956029236316681E-001;3.910974785685539E-002;3.386213909834623E-003;4.615671467036009E-003;
2.408833333333334E+009;1.948533058166504E-001;3.876689448952675E-002;3.614785848185420E-003;4.704962950199843E-003;
2.409000000000000E+009;1.938987821340561E-001;3.812765702605248E-002;3.631038591265678E-003;4.492380190640688E-003;
2.409166666666667E+009;1.927727758884430E-001;3.754996880888939E-002;3.848196007311344E-003;4.533841274678707E-003;
2.409333333333334E+009;1.917608827352524E-001;3.684181720018387E-002;4.023592919111252E-003;4.550072830170393E-003;
2.409500000000000E+009;1.905046105384827E-001;3.580223396420479E-002;4.124815110117197E-003;4.425526596605778E-003;
2.409666666666667E+009;1.895059496164322E-001;3.468607366085053E-002;4.213732201606035E-003;4.479775670915842E-003;
2.409833333333334E+009;1.882076114416122E-001;3.341821208596230E-002;4.444351419806480E-003;4.101203754544258E-003;
2.410000000000000E+009;1.870778948068619E-001;3.213720023632050E-002;4.396175965666771E-003;4.167463630437851E-003;
2.410166666666667E+009;1.858483403921127E-001;3.054944239556789E-002;4.601940978318453E-003;4.248267970979214E-003;
2.410333333333334E+009;1.846565157175064E-001;2.894387580454350E-002;4.672056995332241E-003;4.166553728282452E-003;
2.410500000000000E+009;1.834282279014587E-001;2.716187387704849E-002;4.773941356688738E-003;3.941534552723169E-003;
2.410666666666667E+009;1.823779344558716E-001;2.508274838328362E-002;5.019146017730236E-003;3.883595345541835E-003;
2.410833333333334E+009;1.816209107637405E-001;2.288812026381493E-002;5.107280332595110E-003;3.841980127617717E-003;
2.411000000000000E+009;1.806112527847290E-001;2.060632780194283E-002;5.213751457631588E-003;3.825562773272395E-003;
2.411166666666667E+009;1.796423047780991E-001;1.851934194564819E-002;5.402065813541412E-003;3.645604476332665E-003;
2.411333333333334E+009;1.790387183427811E-001;1.597423851490021E-002;5.507793743163347E-003;3.601094475015998E-003;
2.411500000000000E+009;1.781995296478272E-001;1.363861374557018E-002;5.704096518456936E-003;3.631910076364875E-003;
2.411666666666667E+009;1.779200881719589E-001;1.122272387146950E-002;6.020203698426485E-003;3.303383244201541E-003;
2.411833333333334E+009;1.774353533983231E-001;8.725468069314957E-003;6.103432737290859E-003;3.253031289204955E-003;
2.412000000000000E+009;1.774351149797440E-001;5.934202112257481E-003;6.268100813031197E-003;3.074771026149392E-003;
2.412166666666667E+009;1.772776544094086E-001;3.493503434583545E-003;6.536668632179499E-003;2.999131800606847E-003;
2.412333333333334E+009;1.771356761455536E-001;7.372217951342464E-004;6.770482752472162E-003;2.797667169943452E-003;
2.412500000000000E+009;1.776531338691711E-001;-1.706291688606143E-003;6.953571923077107E-003;2.702481346204877E-003;
2.412666666666667E+009;1.779747605323792E-001;-4.640680272132158E-003;7.190468721091747E-003;2.347229514271021E-003;
2.412833333333334E+009;1.784961521625519E-001;-7.340536452829838E-003;7.304513361304998E-003;2.178461058065295E-003;
2.413000000000000E+009;1.792577952146530E-001;-9.796864353120327E-003;7.677235174924135E-003;1.720486558042467E-003;
2.413166666666667E+009;1.797808110713959E-001;-1.222643442451954E-002;7.618897128850222E-003;1.594947068952024E-003;
2.413333333333334E+009;1.808985918760300E-001;-1.491096615791321E-002;8.105177432298660E-003;1.236637472175062E-003;
2.413500000000000E+009;1.817564368247986E-001;-1.729958690702915E-002;8.217849768698216E-003;7.114105392247438E-004;
2.413666666666667E+009;1.831355392932892E-001;-1.973240450024605E-002;8.319849148392677E-003;2.304449153598398E-004;
2.413833333333334E+009;1.840917319059372E-001;-2.196210809051991E-002;8.442430756986141E-003;1.593963679624721E-005;
2.414000000000000E+009;1.853420287370682E-001;-2.422527037560940E-002;8.386150933802128E-003;-5.017166840843856E-004;
2.414166666666667E+009;1.866721808910370E-001;-2.615400031208992E-002;8.431727066636086E-003;-1.040907693095505E-003;
2.414333333333334E+009;1.879627555608749E-001;-2.846485748887062E-002;8.360740728676319E-003;-1.450713025406003E-003;
2.414500000000000E+009;1.892793476581574E-001;-3.021669201552868E-002;8.320764638483524E-003;-2.009445335716009E-003;
2.414666666666667E+009;1.906582564115524E-001;-3.185963630676270E-002;8.005926385521889E-003;-2.416509902104735E-003;
2.414833333333334E+009;1.921036392450333E-001;-3.349294885993004E-002;7.861223071813583E-003;-2.724605146795511E-003;
2.415000000000000E+009;1.933593004941940E-001;-3.496620431542397E-002;7.609854452311993E-003;-3.211946925148368E-003;
2.415166666666667E+009;1.950788944959641E-001;-3.626837208867073E-002;7.543755695223808E-003;-3.521386301144958E-003;
2.415333333333334E+009;1.963822990655899E-001;-3.733508661389351E-002;7.102453149855137E-003;-3.850349225103855E-003;
2.415500000000000E+009;1.977808475494385E-001;-3.818318247795105E-002;7.113220170140266E-003;-4.023184534162283E-003;
2.415666666666667E+009;1.989793330430985E-001;-3.927946090698242E-002;6.732061970978975E-003;-4.546583630144596E-003;
2.415833333333334E+009;2.002947181463242E-001;-3.989946097135544E-002;6.265188101679087E-003;-4.627704620361328E-003;
2.416000000000000E+009;2.012513577938080E-001;-4.062695428729057E-002;6.247329525649548E-003;-4.926755558699369E-003;
2.416166666666667E+009;2.022824138402939E-001;-4.129327461123467E-002;5.912251304835081E-003;-5.126994568854570E-003;
2.416333333333334E+009;2.033057957887650E-001;-4.161153361201286E-002;5.679786205291748E-003;-5.430133081972599E-003;
2.416500000000000E+009;2.040814608335495E-001;-4.193730652332306E-002;5.206242203712463E-003;-5.535864271223545E-003;
2.416666666666667E+009;2.046385109424591E-001;-4.232176765799522E-002;4.979766905307770E-003;-5.736792460083962E-003;
2.416833333333334E+009;2.050155550241470E-001;-4.222388565540314E-002;4.620505496859551E-003;-5.867231171578169E-003;
2.417000000000000E+009;2.054691612720490E-001;-4.238079115748406E-002;4.336201120167971E-003;-5.992937367409468E-003;
2.417166666666667E+009;2.055594325065613E-001;-4.221894964575768E-002;3.958255518227816E-003;-6.081870757043362E-003;
2.417333333333334E+009;2.055549174547195E-001;-4.197020456194878E-002;3.724176203832030E-003;-6.053581368178129E-003;
2.417500000000000E+009;2.055136710405350E-001;-4.191533476114273E-002;3.363729221746326E-003;-6.224360782653093E-003;
2.417666666666667E+009;2.052718847990036E-001;-4.137810692191124E-002;3.112660488113761E-003;-6.195141468197107E-003;
2.417833333333334E+009;2.050288319587708E-001;-4.119411483407021E-002;2.641166327521205E-003;-6.204931996762753E-003;
2.418000000000000E+009;2.045699656009674E-001;-4.070482030510902E-002;2.404565690085292E-003;-6.166905630379915E-003;
2.418166666666667E+009;2.039631605148315E-001;-4.056209325790405E-002;2.136672614142299E-003;-6.061670836061239E-003;
2.418333333333334E+009;2.031089067459106E-001;-4.017717391252518E-002;1.999342348426580E-003;-6.019982509315014E-003;
2.418500000000000E+009;2.022045254707336E-001;-3.998634964227676E-002;1.642597257159650E-003;-5.931900348514319E-003;
2.418666666666667E+009;2.013310194015503E-001;-3.966969996690750E-002;1.471678842790425E-003;-5.931235849857330E-003;
2.418833333333334E+009;2.001353502273560E-001;-3.974692523479462E-002;1.273150672204793E-003;-5.810856819152832E-003;
2.419000000000000E+009;1.989295333623886E-001;-3.968518972396851E-002;8.975562523119152E-004;-5.689089652150869E-003;
2.419166666666667E+009;1.976658403873444E-001;-3.976814076304436E-002;9.514928678981960E-004;-5.512170027941465E-003;
2.419333333333334E+009;1.962385028600693E-001;-4.014602676033974E-002;7.960830116644502E-004;-5.322363693267107E-003;
2.419500000000000E+009;1.947723478078842E-001;-4.033227264881134E-002;5.339587805792689E-004;-5.326124373823404E-003;
2.419666666666667E+009;1.930017322301865E-001;-4.095273837447166E-002;4.778869915753603E-004;-5.139598622918129E-003;
2.419833333333334E+009;1.912983506917954E-001;-4.144493862986565E-002;5.081024719402194E-004;-5.125320050865412E-003;
2.420000000000000E+009;1.895962655544281E-001;-4.219701886177063E-002;2.392189926467836E-004;-4.906723741441965E-003;
2.420166666666667E+009;1.878744214773178E-001;-4.286656156182289E-002;3.943553019780666E-004;-4.884469788521528E-003;
2.420333333333334E+009;1.860480010509491E-001;-4.399099573493004E-002;2.752487489487976E-004;-4.733683541417122E-003;
2.420500000000000E+009;1.841157972812653E-001;-4.524520784616470E-002;2.918664831668139E-004;-4.764314740896225E-003;
2.420666666666667E+009;1.824036538600922E-001;-4.628645256161690E-002;1.101637608371675E-004;-4.652464762330055E-003;
2.420833333333334E+009;1.804560571908951E-001;-4.763670265674591E-002;1.766390050761402E-004;-4.709084518253803E-003;
2.421000000000000E+009;1.787634044885635E-001;-4.914527386426926E-002;1.650615304242820E-004;-4.661084152758122E-003;
2.421166666666667E+009;1.771541833877564E-001;-5.095312744379044E-002;8.948204776970670E-005;-4.577630665153265E-003;
2.421333333333334E+009;1.752348393201828E-001;-5.236058682203293E-002;2.605140252853744E-005;-4.623037762939930E-003;
2.421500000000000E+009;1.736416369676590E-001;-5.432411655783653E-002;-3.515578282531351E-005;-4.731463734060526E-003;
2.421666666666667E+009;1.723029166460037E-001;-5.618214979767799E-002;-7.918052142485976E-005;-4.653438460081816E-003;
2.421833333333334E+009;1.708087325096130E-001;-5.819192156195641E-002;-9.152971324510872E-005;-4.648818168789148E-003;
2.422000000000000E+009;1.694840341806412E-001;-6.023123115301132E-002;-2.114866219926626E-004;-4.830732010304928E-003;
2.422166666666667E+009;1.681645065546036E-001;-6.257572770118713E-002;-3.054855333175510E-004;-4.765695892274380E-003;
2.422333333333334E+009;1.669985800981522E-001;-6.470752507448196E-002;-3.629488055594266E-004;-4.806561861187220E-003;
2.422500000000000E+009;1.659558415412903E-001;-6.668836623430252E-002;-4.666045133490115E-004;-4.808113910257816E-003;
2.422666666666667E+009;1.649897247552872E-001;-6.896743923425674E-002;-5.643926560878754E-004;-4.707964137196541E-003;
2.422833333333334E+009;1.646048724651337E-001;-7.107082754373550E-002;-6.470707012340426E-004;-4.929601680487394E-003;
2.423000000000000E+009;1.638156324625015E-001;-7.338153570890427E-002;-9.113983251154423E-004;-4.834661260247231E-003;
2.423166666666667E+009;1.633236408233643E-001;-7.561227679252625E-002;-1.051359460689127E-003;-4.770778585225344E-003;
2.423333333333334E+009;1.630264371633530E-001;-7.772258669137955E-002;-1.152593758888543E-003;-4.850837867707014E-003;
2.423500000000000E+009;1.628394424915314E-001;-7.975748181343079E-002;-1.194984186440706E-003;-4.721463657915592E-003;
2.423666666666667E+009;1.627859324216843E-001;-8.197443932294846E-002;-1.292649074457586E-003;-4.636120516806841E-003;
2.423833333333334E+009;1.626457870006561E-001;-8.399067074060440E-002;-1.625498291105032E-003;-4.614315927028656E-003;
2.424000000000000E+009;1.628301590681076E-001;-8.603198081254959E-002;-1.573774847202003E-003;-4.478891380131245E-003;
2.424166666666667E+009;1.627563685178757E-001;-8.767990767955780E-002;-1.579317264258862E-003;-4.493041895329952E-003;
2.424333333333334E+009;1.632409542798996E-001;-8.950546383857727E-002;-1.518557197414339E-003;-4.519214387983084E-003;
2.424500000000000E+009;1.635876595973969E-001;-9.160575270652771E-002;-1.831521512940526E-003;-4.413123708218336E-003;
2.424666666666667E+009;1.639475673437119E-001;-9.302075207233429E-002;-1.817173906601965E-003;-4.604112356901169E-003;
2.424833333333334E+009;1.646096706390381E-001;-9.454716742038727E-002;-1.965287374332547E-003;-4.549851175397635E-003;
2.425000000000000E+009;1.650688052177429E-001;-9.592851996421814E-002;-2.115783048793674E-003;-4.559837281703949E-003;
2.425166666666667E+009;1.653744429349899E-001;-9.729380160570145E-002;-2.099244156852365E-003;-4.620745778083801E-003;
2.425333333333334E+009;1.660042107105255E-001;-9.839609265327454E-002;-2.394592622295022E-003;-4.480205010622740E-003;
2.425500000000000E+009;1.666912734508514E-001;-9.960331767797470E-002;-2.537953434512019E-003;-4.440788645297289E-003;
2.425666666666667E+009;1.671659797430039E-001;-1.003481596708298E-001;-2.554119098931551E-003;-4.798043984919787E-003;
2.425833333333334E+009;1.677049547433853E-001;-1.013867110013962E-001;-2.839436288923025E-003;-4.518446512520313E-003;
2.426000000000000E+009;1.683412045240402E-001;-1.019051447510719E-001;-2.851868048310280E-003;-4.406155552715063E-003;
2.426166666666667E+009;1.689915657043457E-001;-1.024253666400909E-001;-3.380005247890949E-003;-4.548373166471720E-003;
2.426333333333334E+009;1.694198399782181E-001;-1.031890138983727E-001;-3.412201534956694E-003;-4.323720000684261E-003;
2.426500000000000E+009;1.699921637773514E-001;-1.034718528389931E-001;-3.543189959600568E-003;-4.263970535248518E-003;
2.426666666666667E+009;1.704745143651962E-001;-1.037144139409065E-001;-3.816893324255943E-003;-4.080787301063538E-003;
2.426833333333334E+009;1.709264665842056E-001;-1.039843931794167E-001;-4.017242696136236E-003;-4.216964822262526E-003;
2.427000000000000E+009;1.711308062076569E-001;-1.042318344116211E-001;-4.078705329447985E-003;-4.021089524030685E-003;
2.427166666666667E+009;1.714515686035156E-001;-1.042688339948654E-001;-4.370262846350670E-003;-3.805598942562938E-003;
2.427333333333334E+009;1.716230064630508E-001;-1.043884754180908E-001;-4.494603723287582E-003;-3.772501368075609E-003;
2.427500000000000E+009;1.716446131467819E-001;-1.044843196868897E-001;-4.676845856010914E-003;-3.724305424839258E-003;
2.427666666666667E+009;1.714976131916046E-001;-1.044488549232483E-001;-4.776494577527046E-003;-3.329496365040541E-003;
2.427833333333334E+009;1.713085323572159E-001;-1.044265329837799E-001;-4.943660926073790E-003;-3.291778033599258E-003;
