# Version 1.00
#
freq[Hz];re:Trc1_S11;im:Trc1_S11;re:Trc2_S21;im:Trc2_S21;
2.400000000000000E+009;1.553062200546265E-001;1.091703176498413E-001;-2.193252323195338E-003;-3.027013968676329E-003;
2.400166666666667E+009;1.549740582704544E-001;1.067205518484116E-001;-2.510919235646725E-003;-2.984601305797696E-003;
2.400333333333334E+009;1.550042927265167E-001;1.043979376554489E-001;-2.562548033893108E-003;-2.891725394874811E-003;
2.400500000000000E+009;1.550433486700058E-001;1.015084907412529E-001;-2.818264532834292E-003;-2.738446928560734E-003;
2.400666666666667E+009;1.548901498317719E-001;9.913233667612076E-002;-2.918487181887031E-003;-2.419233787804842E-003;
2.400833333333334E+009;1.549036800861359E-001;9.617158025503159E-002;-3.200704930350184E-003;-2.348434645682573E-003;
2.401000000000000E+009;1.551589071750641E-001;9.325519204139710E-002;-3.208779264241457E-003;-2.261526649817824E-003;
2.401166666666667E+009;1.550697833299637E-001;9.062571078538895E-002;-3.216298995539546E-003;-2.165041631087661E-003;
2.401333333333334E+009;1.554477214813232E-001;8.775278925895691E-002;-3.369294339790940E-003;-1.926711178384721E-003;
2.401500000000000E+009;1.557629257440567E-001;8.466647565364838E-002;-3.315111389383674E-003;-1.554191927425563E-003;
2.401666666666667E+009;1.561735272407532E-001;8.179423213005066E-002;-3.416466526687145E-003;-1.638926216401160E-003;
2.401833333333334E+009;1.565013527870178E-001;7.895775884389877E-002;-3.399488283321261E-003;-1.399298198521137E-003;
2.402000000000000E+009;1.574796587228775E-001;7.608368992805481E-002;-3.426806302741170E-003;-1.347159384749830E-003;
2.402166666666667E+009;1.581454128026962E-001;7.350880652666092E-002;-3.499999409541488E-003;-1.313020242378116E-003;
2.402333333333334E+009;1.592197567224503E-001;7.068635523319244E-002;-3.424688475206494E-003;-1.257236232049763E-003;
2.402500000000000E+009;1.603053510189056E-001;6.795929372310638E-002;-3.486153436824679E-003;-1.064294134266675E-003;
2.402666666666667E+009;1.614675819873810E-001;6.561027467250824E-002;-3.492422169074416E-003;-8.319106418639422E-004;
2.402833333333334E+009;1.628666371107101E-001;6.311281770467758E-002;-3.745684865862131E-003;-8.092364878393710E-004;
2.403000000000000E+009;1.641463935375214E-001;6.084878742694855E-002;-3.642110852524638E-003;-6.926765781827271E-004;
2.403166666666667E+009;1.660532653331757E-001;5.854070186614990E-002;-3.812710987403989E-003;-5.694397259503603E-004;
2.403333333333334E+009;1.674032807350159E-001;5.618451535701752E-002;-3.803947474807501E-003;-3.876519622281194E-004;
2.403500000000000E+009;1.690667569637299E-001;5.397593975067139E-002;-3.941487055271864E-003;-1.895506429718807E-004;
2.403666666666667E+009;1.710043847560883E-001;5.206355825066567E-002;-4.062510095536709E-003;-1.141337415901944E-004;
2.403833333333334E+009;1.726772785186768E-001;5.003514885902405E-002;-3.994267433881760E-003;2.068586763925850E-004;
2.404000000000000E+009;1.745927929878235E-001;4.829787090420723E-002;-4.036039579659700E-003;3.840011486317962E-004;
2.404166666666667E+009;1.761560440063477E-001;4.665010049939156E-002;-3.845166647806764E-003;6.108841043896973E-004;
2.404333333333334E+009;1.777964532375336E-001;4.523357003927231E-002;-3.749130992218852E-003;9.317831718362868E-004;
2.404500000000000E+009;1.795745193958283E-001;4.360892623662949E-002;-3.671235870569944E-003;1.058611203916371E-003;
2.404666666666667E+009;1.813933253288269E-001;4.262471571564674E-002;-3.550937399268150E-003;1.210139715112746E-003;
2.404833333333334E+009;1.831315606832504E-001;4.131287336349487E-002;-3.244452876970172E-003;1.421462511643767E-003;
2.405000000000000E+009;1.844694465398789E-001;4.071760550141335E-002;-3.285952378064394E-003;1.573243760503829E-003;
2.405166666666667E+009;1.860561072826386E-001;3.996812552213669E-002;-3.173664910718799E-003;1.723486813716590E-003;
2.405333333333334E+009;1.874248534440994E-001;3.948770090937614E-002;-2.962488681077957E-003;1.614360953681171E-003;
2.405500000000000E+009;1.889406144618988E-001;3.889939934015274E-002;-2.920340513810515E-003;1.957454718649387E-003;
2.405666666666667E+009;1.902758032083511E-001;3.857462853193283E-002;-2.768574748188257E-003;2.002182183787227E-003;
2.405833333333334E+009;1.915827840566635E-001;3.820732608437538E-002;-2.575028222054243E-003;1.915714936330915E-003;
2.406000000000000E+009;1.926258504390717E-001;3.816353529691696E-002;-2.547725569456816E-003;2.076831879094243E-003;
2.406166666666667E+009;1.936360001564026E-001;3.808612003922463E-002;-2.210520673543215E-003;2.141803968697786E-003;
2.406333333333334E+009;1.947087943553925E-001;3.820564597845078E-002;-2.012856770306826E-003;2.147818449884653E-003;
2.406500000000000E+009;1.955174803733826E-001;3.827019035816193E-002;-1.897278823889792E-003;1.851370092481375E-003;
2.406666666666667E+009;1.961690336465836E-001;3.837492689490318E-002;-1.635446446016431E-003;2.087178174406290E-003;
2.406833333333334E+009;1.968044489622116E-001;3.848978877067566E-002;-1.615952001884580E-003;2.034189179539681E-003;
2.407000000000000E+009;1.971451491117477E-001;3.881730511784554E-002;-1.560421194881201E-003;2.024890854954720E-003;
2.407166666666667E+009;1.974899619817734E-001;3.883337974548340E-002;-1.355026033706963E-003;2.109801163896918E-003;
2.407333333333334E+009;1.975659281015396E-001;3.903904929757118E-002;-1.175257610157132E-003;1.816728385165334E-003;
2.407500000000000E+009;1.975394189357758E-001;3.934884443879128E-002;-1.106489566154778E-003;1.915666623972356E-003;
2.407666666666667E+009;1.976657360792160E-001;3.936924040317535E-002;-1.159750507213175E-003;1.788984402082861E-003;
2.407833333333334E+009;1.971243172883987E-001;3.934841230511665E-002;-1.065474003553391E-003;1.647659810259938E-003;
2.408000000000000E+009;1.971247494220734E-001;3.936374187469482E-002;-9.521170868538320E-004;1.521218917332590E-003;
2.408166666666667E+009;1.965465843677521E-001;3.910033777356148E-002;-8.826493285596371E-004;1.474447548389435E-003;
2.408333333333334E+009;1.960806548595429E-001;3.872871026396751E-002;-8.406373090110719E-004;1.321741961874068E-003;
2.408500000000000E+009;1.955274790525436E-001;3.853712230920792E-002;-8.291583508253098E-004;1.255212002433837E-003;
2.408666666666667E+009;1.948954612016678E-001;3.813784569501877E-002;-9.564519859850407E-004;1.154542202129960E-003;
2.408833333333334E+009;1.940975636243820E-001;3.748127445578575E-002;-9.159966721199453E-004;9.998914320021868E-004;
2.409000000000000E+009;1.931684315204620E-001;3.673143312335014E-002;-1.085481606423855E-003;1.079624867998064E-003;
2.409166666666667E+009;1.921483129262924E-001;3.579904511570931E-002;-1.110626268200576E-003;8.457571966573596E-004;
2.409333333333334E+009;1.912946552038193E-001;3.474174812436104E-002;-1.084936549887061E-003;9.388830512762070E-004;
2.409500000000000E+009;1.900053471326828E-001;3.365604579448700E-002;-1.230478985235095E-003;9.493198012933135E-004;
2.409666666666667E+009;1.890502572059631E-001;3.231534361839294E-002;-1.308189355768263E-003;6.934995763003826E-004;
2.409833333333334E+009;1.880573034286499E-001;3.090710751712322E-002;-1.396134262904525E-003;8.451703470200300E-004;
2.410000000000000E+009;1.870576888322830E-001;2.926328033208847E-002;-1.334662432782352E-003;9.238290367648006E-004;
2.410166666666667E+009;1.858402490615845E-001;2.743552438914776E-002;-1.519370125606656E-003;8.228152873925865E-004;
2.410333333333334E+009;1.850770413875580E-001;2.567090466618538E-002;-1.588921761140227E-003;8.737032185308635E-004;
2.410500000000000E+009;1.838287115097046E-001;2.375640161335468E-002;-1.623795717023313E-003;9.431822109036148E-004;
2.410666666666667E+009;1.831374168395996E-001;2.148273214697838E-002;-1.671319594606757E-003;1.029214006848633E-003;
2.410833333333334E+009;1.822402179241180E-001;1.949324458837509E-002;-1.760245184414089E-003;1.037106150761247E-003;
2.411000000000000E+009;1.813992559909821E-001;1.725377514958382E-002;-1.847792183980346E-003;1.213959418237209E-003;
2.411166666666667E+009;1.806979924440384E-001;1.499711535871029E-002;-1.850741915404797E-003;1.277722534723580E-003;
2.411333333333334E+009;1.803487092256546E-001;1.227729301899672E-002;-1.774407341144979E-003;1.209542737342417E-003;
2.411500000000000E+009;1.797829866409302E-001;1.003019604831934E-002;-1.830570981837809E-003;1.264137797988951E-003;
2.411666666666667E+009;1.796114593744278E-001;7.572519127279520E-003;-1.882671378552914E-003;1.219172729179263E-003;
2.411833333333334E+009;1.791489869356155E-001;5.220115184783936E-003;-1.895908382721245E-003;1.253824448212981E-003;
2.412000000000000E+009;1.792526394128799E-001;2.451039617881179E-003;-1.979179447516799E-003;1.321358955465257E-003;
2.412166666666667E+009;1.793554425239563E-001;-3.315894900879357E-006;-2.072975737974048E-003;1.402172027155757E-003;
2.412333333333334E+009;1.795153170824051E-001;-2.631939249113202E-003;-2.063543302938342E-003;1.583239878527820E-003;
2.412500000000000E+009;1.800589263439179E-001;-5.019796080887318E-003;-2.215224318206310E-003;1.511446549557149E-003;
2.412666666666667E+009;1.805133223533630E-001;-7.650175131857395E-003;-2.107215113937855E-003;1.609260099940002E-003;
2.412833333333334E+009;1.812710464000702E-001;-1.021498721092939E-002;-2.336848527193070E-003;1.769661088474095E-003;
2.413000000000000E+009;1.819721460342407E-001;-1.274063158780336E-002;-2.358968602493405E-003;1.908067613840103E-003;
2.413166666666667E+009;1.826694756746292E-001;-1.495919376611710E-002;-2.379283308982849E-003;2.088542561978102E-003;
2.413333333333334E+009;1.838120967149735E-001;-1.735873334109783E-002;-2.469827421009541E-003;2.245983807370067E-003;
2.413500000000000E+009;1.847068369388580E-001;-1.972652040421963E-002;-2.411101246252656E-003;2.365831518545747E-003;
2.413666666666667E+009;1.857903599739075E-001;-2.187592349946499E-002;-2.507900120690465E-003;2.741983858868480E-003;
2.413833333333334E+009;1.870098859071732E-001;-2.411293610930443E-002;-2.402179408818483E-003;2.890453906729817E-003;
2.414000000000000E+009;1.881867200136185E-001;-2.605724334716797E-002;-2.375242533162236E-003;3.037675516679883E-003;
2.414166666666667E+009;1.895502507686615E-001;-2.802382968366146E-002;-2.331510651856661E-003;3.336366033181548E-003;
2.414333333333334E+009;1.905589252710342E-001;-3.003727830946446E-002;-2.204792108386755E-003;3.521499224007130E-003;
2.414500000000000E+009;1.920864433050156E-001;-3.153308480978012E-002;-1.959762768819928E-003;3.796662902459502E-003;
2.414666666666667E+009;1.931958049535751E-001;-3.310194239020348E-002;-1.693837810307741E-003;3.947067074477673E-003;
2.414833333333334E+009;1.944409757852554E-001;-3.453293815255165E-002;-1.730621908791363E-003;4.084635991603136E-003;
2.415000000000000E+009;1.956520974636078E-001;-3.589706495404244E-002;-1.474178279750049E-003;4.356522578746080E-003;
2.415166666666667E+009;1.969894468784332E-001;-3.700974956154823E-002;-1.071071485057473E-003;4.373061005026102E-003;
2.415333333333334E+009;1.982635110616684E-001;-3.806780278682709E-002;-9.857906261458993E-004;4.578906577080488E-003;
2.415500000000000E+009;1.993608772754669E-001;-3.873272240161896E-002;-7.491040742024779E-004;4.511943086981773E-003;
2.415666666666667E+009;2.005444616079330E-001;-3.964833170175552E-002;-5.701130139641464E-004;4.635335877537727E-003;
2.415833333333334E+009;2.013017237186432E-001;-4.038213193416596E-002;-2.792620216496289E-004;4.715702496469021E-003;
2.416000000000000E+009;2.022212743759155E-001;-4.092790558934212E-002;-1.143828121712431E-004;4.865871276706457E-003;
2.416166666666667E+009;2.029884755611420E-001;-4.150872677564621E-002;2.588371862657368E-004;4.770562052726746E-003;
2.416333333333334E+009;2.037598192691803E-001;-4.193864390254021E-002;4.865828377660364E-004;4.846875555813313E-003;
2.416500000000000E+009;2.042119652032852E-001;-4.207240045070648E-002;6.554460851475596E-004;4.888758528977633E-003;
2.416666666666667E+009;2.046874463558197E-001;-4.250146448612213E-002;9.768351446837187E-004;4.751202650368214E-003;
2.416833333333334E+009;2.047623544931412E-001;-4.240241646766663E-002;1.232313574291766E-003;4.720984026789665E-003;
2.417000000000000E+009;2.049243897199631E-001;-4.253990203142166E-002;1.603690674528480E-003;4.556168336421251E-003;
2.417166666666667E+009;2.047750055789948E-001;-4.233550280332565E-002;1.737368060275912E-003;4.599782172590494E-003;
2.417333333333334E+009;2.044807523488998E-001;-4.225016012787819E-002;1.900590606965125E-003;4.714537877589464E-003;
2.417500000000000E+009;2.042475640773773E-001;-4.220587015151978E-002;2.213602885603905E-003;4.321133717894554E-003;
2.417666666666667E+009;2.036914080381393E-001;-4.189728572964668E-002;2.247792435809970E-003;4.107544664293528E-003;
2.417833333333334E+009;2.033046931028366E-001;-4.167202860116959E-002;2.490457380190492E-003;3.895261790603399E-003;
2.418000000000000E+009;2.025943398475647E-001;-4.137955605983734E-002;2.579513704404235E-003;3.884525969624519E-003;
2.418166666666667E+009;2.019148468971252E-001;-4.127529636025429E-002;2.802068134769797E-003;3.824474988505244E-003;
2.418333333333334E+009;2.009533494710922E-001;-4.102874547243118E-002;2.926686313003302E-003;3.740378888323903E-003;
2.418500000000000E+009;1.998454928398132E-001;-4.100445285439491E-002;3.033979097381234E-003;3.546200925484300E-003;
2.418666666666667E+009;1.989163458347321E-001;-4.090299457311630E-002;3.074931213632226E-003;3.375029424205422E-003;
2.418833333333334E+009;1.976040005683899E-001;-4.111193120479584E-002;3.240437246859074E-003;3.233761759474874E-003;
2.419000000000000E+009;1.962199211120606E-001;-4.107201471924782E-002;3.342998214066029E-003;3.108288627117872E-003;
2.419166666666667E+009;1.949063390493393E-001;-4.134031012654305E-002;3.424597438424826E-003;2.953036222606897E-003;
2.419333333333334E+009;1.934361010789871E-001;-4.180333390831947E-002;3.467085538432002E-003;2.876683371141553E-003;
2.419500000000000E+009;1.917926520109177E-001;-4.210332036018372E-002;3.592923050746322E-003;2.780638867989183E-003;
2.419666666666667E+009;1.902724206447601E-001;-4.301295056939125E-002;3.722491674125195E-003;2.614644123241305E-003;
2.419833333333334E+009;1.884764730930328E-001;-4.347888752818108E-002;3.821246791630983E-003;2.468238817527890E-003;
2.420000000000000E+009;1.868290454149246E-001;-4.435481503605843E-002;3.780527040362358E-003;2.186461118981242E-003;
2.420166666666667E+009;1.850869506597519E-001;-4.546456038951874E-002;3.852432826533914E-003;2.204116433858872E-003;
2.420333333333334E+009;1.834863871335983E-001;-4.647263884544373E-002;3.903730073943734E-003;1.892268075607717E-003;
2.420500000000000E+009;1.816149950027466E-001;-4.788242280483246E-002;3.791895927861333E-003;1.704975380562246E-003;
2.420666666666667E+009;1.799331605434418E-001;-4.877538979053497E-002;3.940898925065994E-003;1.533742295578122E-003;
2.420833333333334E+009;1.782922297716141E-001;-5.049974098801613E-002;4.068258684128523E-003;1.499201753176749E-003;
2.421000000000000E+009;1.766988188028336E-001;-5.203747004270554E-002;4.024969879537821E-003;1.269001397304237E-003;
2.421166666666667E+009;1.752159148454666E-001;-5.381314456462860E-002;3.992662299424410E-003;1.180568360723555E-003;
2.421333333333334E+009;1.734824776649475E-001;-5.531769618391991E-002;3.931445069611073E-003;9.574234136380255E-004;
2.421500000000000E+009;1.720025986433029E-001;-5.746502429246903E-002;4.020755179226399E-003;9.235236793756485E-004;
2.421666666666667E+009;1.706885099411011E-001;-5.928818508982658E-002;3.850649576634169E-003;6.028073839843273E-004;
2.421833333333334E+009;1.695784181356430E-001;-6.103872880339623E-002;3.799255704507232E-003;4.504996177274734E-004;
2.422000000000000E+009;1.683169007301331E-001;-6.324583292007446E-002;3.790648654103279E-003;4.185722209513187E-004;
2.422166666666667E+009;1.675096452236176E-001;-6.540635228157044E-002;3.661973401904106E-003;2.654267591424286E-004;
2.422333333333334E+009;1.664148271083832E-001;-6.732340157032013E-002;3.746325382962823E-003;1.544536062283441E-004;
2.422500000000000E+009;1.656700670719147E-001;-6.945550441741943E-002;3.626369405537844E-003;1.641648668737616E-005;
2.422666666666667E+009;1.648484766483307E-001;-7.141570746898651E-002;3.481836291030049E-003;-1.508239220129326E-004;
2.422833333333334E+009;1.644012033939362E-001;-7.369794696569443E-002;3.503161016851664E-003;-1.449118281016126E-004;
2.423000000000000E+009;1.638157814741135E-001;-7.580066472291946E-002;3.397346707060933E-003;-2.251613186672330E-004;
2.423166666666667E+009;1.636219918727875E-001;-7.797069102525711E-002;3.403455018997192E-003;-3.029472718480974E-004;
2.423333333333334E+009;1.633208394050598E-001;-8.013954758644104E-002;3.285517683252692E-003;-3.536884032655507E-004;
2.423500000000000E+009;1.632587313652039E-001;-8.192691951990128E-002;3.167130984365940E-003;-3.952636616304517E-004;
2.423666666666667E+009;1.633922010660172E-001;-8.379941433668137E-002;3.103349125012755E-003;-4.110239096917212E-004;
2.423833333333334E+009;1.632059812545776E-001;-8.580520004034042E-002;3.131979145109654E-003;-4.860512854065746E-004;
2.424000000000000E+009;1.635643690824509E-001;-8.771272003650665E-002;3.047402948141098E-003;-4.646807210519910E-004;
2.424166666666667E+009;1.635727733373642E-001;-8.935356885194778E-002;3.037975402548909E-003;-6.588308024220169E-004;
2.424333333333334E+009;1.639692038297653E-001;-9.105153381824493E-002;2.930984599515796E-003;-5.385205731727183E-004;
2.424500000000000E+009;1.643539965152741E-001;-9.275181591510773E-002;2.869715215638280E-003;-6.475246627815068E-004;
2.424666666666667E+009;1.646327525377274E-001;-9.433730691671372E-002;2.971919020637870E-003;-5.623371107503772E-004;
2.424833333333334E+009;1.653631478548050E-001;-9.565889835357666E-002;2.847741590812802E-003;-5.692353588528931E-004;
2.425000000000000E+009;1.657703667879105E-001;-9.690663218498230E-002;2.996481256559491E-003;-6.211447762325406E-004;
2.425166666666667E+009;1.660936921834946E-001;-9.807719290256500E-002;3.012764267623425E-003;-6.082714535295963E-004;
2.425333333333334E+009;1.665886044502258E-001;-9.917451441287994E-002;2.906853333115578E-003;-7.224879227578640E-004;
2.425500000000000E+009;1.670832037925720E-001;-1.001877859234810E-001;2.852877369150519E-003;-7.458817563019693E-004;
2.425666666666667E+009;1.676277518272400E-001;-1.009606048464775E-001;2.994063077494502E-003;-9.048018837347627E-004;
2.425833333333334E+009;1.680567711591721E-001;-1.017994582653046E-001;3.009678330272436E-003;-7.889706757850945E-004;
2.426000000000000E+009;1.684856116771698E-001;-1.022395715117455E-001;2.807511249557138E-003;-1.051362487487495E-003;
2.426166666666667E+009;1.689897775650024E-001;-1.027882546186447E-001;2.971287816762924E-003;-9.806767338886857E-004;
2.426333333333334E+009;1.691094338893890E-001;-1.032147184014320E-001;2.900277031585574E-003;-1.049899845384061E-003;
2.426500000000000E+009;1.696134358644486E-001;-1.034715771675110E-001;2.874831436201930E-003;-1.212042290717363E-003;
2.426666666666667E+009;1.700789630413055E-001;-1.039000377058983E-001;2.902610460296273E-003;-1.252167858183384E-003;
2.426833333333334E+009;1.704358160495758E-001;-1.041101664304733E-001;3.023197874426842E-003;-1.060534617863596E-003;
2.427000000000000E+009;1.704511493444443E-001;-1.042840853333473E-001;2.886130940169096E-003;-1.473668380640447E-003;
2.427166666666667E+009;1.705647557973862E-001;-1.043649837374687E-001;2.931351307779551E-003;-1.485594548285008E-003;
2.427333333333334E+009;1.705877929925919E-001;-1.045252680778503E-001;2.787330420687795E-003;-1.534083625301719E-003;
2.427500000000000E+009;1.703640967607498E-001;-1.046139150857925E-001;2.818858483806253E-003;-1.633952488191426E-003;
2.427666666666667E+009;1.700844764709473E-001;-1.045385375618935E-001;2.854526741430163E-003;-1.651177415624261E-003;
2.427833333333334E+009;1.698678433895111E-001;-1.046881526708603E-001;2.780014416202903E-003;-1.719053951092064E-003;
