# Version 1.00
#
freq[Hz];re:Trc1_S11;im:Trc1_S11;re:Trc2_S21;im:Trc2_S21;
2.400000000000000E+009;1.553518176078796E-001;1.092126667499542E-001;-2.074386924505234E-003;-3.090688493102789E-003;
2.400166666666667E+009;1.550453156232834E-001;1.066480875015259E-001;-2.223406452685595E-003;-3.037443384528160E-003;
2.400333333333334E+009;1.551914364099503E-001;1.043010875582695E-001;-2.531730104237795E-003;-2.927199471741915E-003;
2.400500000000000E+009;1.550773978233337E-001;1.016192212700844E-001;-2.588146599009633E-003;-2.857747254893184E-003;
2.400666666666667E+009;1.549051702022553E-001;9.923774749040604E-002;-2.822843845933676E-003;-2.668410306796432E-003;
2.400833333333334E+009;1.548603177070618E-001;9.613616764545441E-002;-2.916399855166674E-003;-2.522788476198912E-003;
2.401000000000000E+009;1.550972312688828E-001;9.335477650165558E-002;-3.091565100476146E-003;-2.299961168318987E-003;
2.401166666666667E+009;1.549326777458191E-001;9.054172039031982E-002;-3.143725218251348E-003;-2.151528839021921E-003;
2.401333333333334E+009;1.554737091064453E-001;8.782307803630829E-002;-3.259335644543171E-003;-1.938135013915598E-003;
2.401500000000000E+009;1.558389812707901E-001;8.478068560361862E-002;-3.305134130641818E-003;-1.785197411663830E-003;
2.401666666666667E+009;1.560616642236710E-001;8.182222396135330E-002;-3.140281187370420E-003;-1.530400360934436E-003;
2.401833333333334E+009;1.565005332231522E-001;7.898151874542236E-002;-3.304853336885572E-003;-1.605308265425265E-003;
2.402000000000000E+009;1.573432087898254E-001;7.622770965099335E-002;-3.129341639578342E-003;-1.442684442736208E-003;
2.402166666666667E+009;1.580307185649872E-001;7.359800487756729E-002;-3.286847844719887E-003;-1.233356189914048E-003;
2.402333333333334E+009;1.590348929166794E-001;7.066318392753601E-002;-3.285879502072930E-003;-1.180665683932602E-003;
2.402500000000000E+009;1.601880639791489E-001;6.812608242034912E-002;-3.359374357387424E-003;-1.113767386414111E-003;
2.402666666666667E+009;1.612838208675385E-001;6.571134179830551E-002;-3.481230000033975E-003;-9.541505714878440E-004;
2.402833333333334E+009;1.626297831535339E-001;6.313343346118927E-002;-3.531081601977348E-003;-9.103860356844962E-004;
2.403000000000000E+009;1.642419844865799E-001;6.087611243128777E-002;-3.640041453763843E-003;-8.771274005994201E-004;
2.403166666666667E+009;1.657943874597549E-001;5.848740786314011E-002;-3.634363412857056E-003;-7.117199711501598E-004;
2.403333333333334E+009;1.672617495059967E-001;5.626222118735313E-002;-3.815992968156934E-003;-5.118288099765778E-004;
2.403500000000000E+009;1.691636145114899E-001;5.413991957902908E-002;-3.893432440236211E-003;-4.591760225594044E-004;
2.403666666666667E+009;1.709037423133850E-001;5.207772180438042E-002;-3.873848589137197E-003;-3.051022067666054E-004;
2.403833333333334E+009;1.726018488407135E-001;4.996860027313232E-002;-3.935282584279776E-003;1.437862083548680E-004;
2.404000000000000E+009;1.741570681333542E-001;4.833677038550377E-002;-3.703509923070669E-003;3.502060426399112E-004;
2.404166666666667E+009;1.759814023971558E-001;4.675459116697311E-002;-3.640689188614488E-003;4.178433155175299E-004;
2.404333333333334E+009;1.778467744588852E-001;4.539230838418007E-002;-3.746057394891977E-003;7.228862959891558E-004;
2.404500000000000E+009;1.793963909149170E-001;4.370544850826263E-002;-3.458219813182950E-003;8.162222220562398E-004;
2.404666666666667E+009;1.811781674623489E-001;4.263436794281006E-002;-3.590366337448359E-003;1.152497599832714E-003;
2.404833333333334E+009;1.829827427864075E-001;4.138633608818054E-002;-3.462972817942500E-003;1.202822313643992E-003;
2.405000000000000E+009;1.843580454587936E-001;4.085705056786537E-002;-3.285472514107823E-003;1.337285502813757E-003;
2.405166666666667E+009;1.859764456748962E-001;3.991664946079254E-002;-3.036776790395379E-003;1.645203097723424E-003;
2.405333333333334E+009;1.874833106994629E-001;3.943267092108727E-002;-2.900907769799233E-003;1.356658991426230E-003;
2.405500000000000E+009;1.888398826122284E-001;3.900736942887306E-002;-2.891574986279011E-003;1.645269687287509E-003;
2.405666666666667E+009;1.901600062847138E-001;3.870303928852081E-002;-2.725517144426704E-003;1.742731430567801E-003;
2.405833333333334E+009;1.914988309144974E-001;3.840760141611099E-002;-2.613921882584691E-003;1.794559997506440E-003;
2.406000000000000E+009;1.924640387296677E-001;3.836150839924812E-002;-2.428714418783784E-003;1.899516792036593E-003;
2.406166666666667E+009;1.936196982860565E-001;3.817382827401161E-002;-2.144853118807077E-003;1.929365098476410E-003;
2.406333333333334E+009;1.945936679840088E-001;3.828927129507065E-002;-1.978138228878379E-003;1.975952181965113E-003;
2.406500000000000E+009;1.954375654459000E-001;3.849766030907631E-002;-1.863547251559794E-003;2.013037446886301E-003;
2.406666666666667E+009;1.960101574659348E-001;3.854765743017197E-002;-1.833230140618980E-003;1.988471485674381E-003;
2.406833333333334E+009;1.966322809457779E-001;3.868829831480980E-002;-1.621974515728653E-003;1.948254532180727E-003;
2.407000000000000E+009;1.970787495374680E-001;3.892881795763969E-002;-1.583133125677705E-003;1.797816250473261E-003;
2.407166666666667E+009;1.974178105592728E-001;3.876968845725060E-002;-1.363487914204598E-003;1.951858750544488E-003;
2.407333333333334E+009;1.975519359111786E-001;3.917613998055458E-002;-1.236582756973803E-003;1.683592912741005E-003;
2.407500000000000E+009;1.974761039018631E-001;3.936452791094780E-002;-1.194580923765898E-003;1.652546226978302E-003;
2.407666666666667E+009;1.974870860576630E-001;3.929566219449043E-002;-1.065215328708291E-003;1.525710802525282E-003;
2.407833333333334E+009;1.970600783824921E-001;3.927965089678764E-002;-1.006065285764635E-003;1.479448284953833E-003;
2.408000000000000E+009;1.970515400171280E-001;3.924196213483810E-002;-1.113887177780271E-003;1.444735797122121E-003;
2.408166666666667E+009;1.965110599994659E-001;3.913312405347824E-002;-1.008867868222296E-003;1.279737800359726E-003;
2.408333333333334E+009;1.960068047046661E-001;3.864648565649986E-002;-9.430407080799341E-004;1.313905231654644E-003;
2.408500000000000E+009;1.953435093164444E-001;3.846544772386551E-002;-8.481027325615287E-004;1.066315686330199E-003;
2.408666666666667E+009;1.945952773094177E-001;3.800038620829582E-002;-9.322079713456333E-004;1.107612974010408E-003;
2.408833333333334E+009;1.939655095338821E-001;3.737916052341461E-002;-9.874237002804875E-004;9.757088846527040E-004;
2.409000000000000E+009;1.930952817201614E-001;3.666153922677040E-002;-9.777277009561658E-004;1.064813113771379E-003;
2.409166666666667E+009;1.920669972896576E-001;3.575515002012253E-002;-1.102499780245125E-003;7.767642382532358E-004;
2.409333333333334E+009;1.911062598228455E-001;3.493974730372429E-002;-1.267969724722207E-003;8.032146724872291E-004;
2.409500000000000E+009;1.899523288011551E-001;3.360132500529289E-002;-1.288468600250781E-003;7.925644167698920E-004;
2.409666666666667E+009;1.890074312686920E-001;3.212660178542137E-002;-1.228085020557046E-003;8.101593703031540E-004;
2.409833333333334E+009;1.879336684942246E-001;3.100394271314144E-002;-1.475474797189236E-003;6.165339145809412E-004;
2.410000000000000E+009;1.869135499000549E-001;2.937623858451843E-002;-1.588320708833635E-003;7.553846808150411E-004;
2.410166666666667E+009;1.858283579349518E-001;2.755277976393700E-002;-1.467380905523896E-003;7.638255483470857E-004;
2.410333333333334E+009;1.847445517778397E-001;2.586296387016773E-002;-1.702485489659011E-003;7.470328127965331E-004;
2.410500000000000E+009;1.838128715753555E-001;2.391562983393669E-002;-1.645972603000701E-003;8.052400080487132E-004;
2.410666666666667E+009;1.828893423080444E-001;2.171389013528824E-002;-1.773548196069896E-003;8.563779992982745E-004;
2.410833333333334E+009;1.821654886007309E-001;1.952975988388062E-002;-1.704066060483456E-003;9.687421261332929E-004;
2.411000000000000E+009;1.814370751380920E-001;1.726703345775604E-002;-1.929137622937560E-003;9.412706131115556E-004;
2.411166666666667E+009;1.807016581296921E-001;1.495113503187895E-002;-1.803708262741566E-003;1.105842995457351E-003;
2.411333333333334E+009;1.802130788564682E-001;1.245177723467350E-002;-1.943669631145895E-003;1.041590468958020E-003;
2.411500000000000E+009;1.796769499778748E-001;1.011090539395809E-002;-1.886468729935587E-003;1.156532787717879E-003;
2.411666666666667E+009;1.795427203178406E-001;7.631225045770407E-003;-2.112156478688121E-003;1.120799337513745E-003;
2.411833333333334E+009;1.790983974933624E-001;5.133358296006918E-003;-2.028034999966621E-003;1.189764123409987E-003;
2.412000000000000E+009;1.791360527276993E-001;2.601790940389037E-003;-2.016156213358045E-003;1.242950093001127E-003;
2.412166666666667E+009;1.794685870409012E-001;1.967174757737666E-004;-2.229405567049980E-003;1.271613407880068E-003;
2.412333333333334E+009;1.795553267002106E-001;-2.468413906171918E-003;-2.223760122433305E-003;1.376921543851495E-003;
2.412500000000000E+009;1.800773441791534E-001;-5.011014174669981E-003;-2.339885337278247E-003;1.409907476045191E-003;
2.412666666666667E+009;1.805512309074402E-001;-7.471786346286535E-003;-2.306773094460368E-003;1.616281340830028E-003;
2.412833333333334E+009;1.812476217746735E-001;-1.002311706542969E-002;-2.354381838813424E-003;1.590640516951680E-003;
2.413000000000000E+009;1.818453520536423E-001;-1.241720281541348E-002;-2.532614395022392E-003;1.847144565545023E-003;
2.413166666666667E+009;1.826881170272827E-001;-1.483156159520149E-002;-2.575477818027139E-003;2.115028211846948E-003;
2.413333333333334E+009;1.838579177856445E-001;-1.715051941573620E-002;-2.590232295915484E-003;2.080398611724377E-003;
2.413500000000000E+009;1.848486214876175E-001;-1.962731964886189E-002;-2.515906235203147E-003;2.412631642073393E-003;
2.413666666666667E+009;1.859551370143890E-001;-2.173510380089283E-002;-2.632931340485811E-003;2.659675898030400E-003;
2.413833333333334E+009;1.870564818382263E-001;-2.390774153172970E-002;-2.567418385297060E-003;2.894799690693617E-003;
2.414000000000000E+009;1.882394999265671E-001;-2.595086395740509E-002;-2.531608799472451E-003;2.963389502838254E-003;
2.414166666666667E+009;1.897421628236771E-001;-2.783860452473164E-002;-2.380181103944778E-003;3.283084603026509E-003;
2.414333333333334E+009;1.908375620841980E-001;-2.985684946179390E-002;-2.269352320581675E-003;3.513383679091930E-003;
2.414500000000000E+009;1.919732391834259E-001;-3.140537440776825E-002;-2.182475058361888E-003;3.754836507141590E-003;
2.414666666666667E+009;1.933481097221375E-001;-3.300540149211884E-002;-1.982658868655562E-003;3.816014388576150E-003;
2.414833333333334E+009;1.944042295217514E-001;-3.439437597990036E-002;-1.804502913728356E-003;4.172460641711950E-003;
2.415000000000000E+009;1.956062912940979E-001;-3.578387573361397E-002;-1.530215726234019E-003;4.250887781381607E-003;
2.415166666666667E+009;1.969427615404129E-001;-3.694725781679153E-002;-1.342940144240856E-003;4.444492049515247E-003;
2.415333333333334E+009;1.982471644878388E-001;-3.789410740137100E-002;-1.229385496117175E-003;4.594093654304743E-003;
2.415500000000000E+009;1.994086354970932E-001;-3.872575983405113E-002;-8.852362516336143E-004;4.753092769533396E-003;
2.415666666666667E+009;2.006498277187347E-001;-3.969847038388252E-002;-5.784425884485245E-004;4.837467800825834E-003;
2.415833333333334E+009;2.015328556299210E-001;-4.023460671305656E-002;-5.146961193531752E-004;4.964318126440048E-003;
2.416000000000000E+009;2.023747414350510E-001;-4.074851423501968E-002;-3.208043926861137E-005;4.892798140645027E-003;
2.416166666666667E+009;2.031151801347733E-001;-4.135818779468536E-002;4.540576628642157E-005;4.905676469206810E-003;
2.416333333333334E+009;2.038298398256302E-001;-4.171952605247498E-002;4.666636232286692E-004;4.867012146860361E-003;
2.416500000000000E+009;2.043239921331406E-001;-4.199867695569992E-002;7.222741260193288E-004;4.869967699050903E-003;
2.416666666666667E+009;2.046927213668823E-001;-4.232206568121910E-002;8.954138029366732E-004;5.154322367161512E-003;
2.416833333333334E+009;2.049219012260437E-001;-4.233974218368530E-002;1.258110045455396E-003;4.798448644578457E-003;
2.417000000000000E+009;2.051260620355606E-001;-4.243984445929527E-002;1.459515304304659E-003;4.826387390494347E-003;
2.417166666666667E+009;2.047580927610397E-001;-4.229250922799110E-002;1.788334455341101E-003;4.568732343614101E-003;
2.417333333333334E+009;2.046159952878952E-001;-4.207981750369072E-002;1.872262568213046E-003;4.641935694962740E-003;
2.417500000000000E+009;2.044042348861694E-001;-4.214229434728622E-002;2.073739655315876E-003;4.450057633221149E-003;
2.417666666666667E+009;2.038475573062897E-001;-4.183856770396233E-002;2.178283175453544E-003;4.412870388478041E-003;
2.417833333333334E+009;2.035017013549805E-001;-4.157795011997223E-002;2.400705358013511E-003;4.143879748880863E-003;
2.418000000000000E+009;2.026887387037277E-001;-4.117638245224953E-002;2.549045253545046E-003;4.062775988131762E-003;
2.418166666666667E+009;2.019519656896591E-001;-4.112989455461502E-002;2.635951619595289E-003;3.817427204921842E-003;
2.418333333333334E+009;2.010439783334732E-001;-4.092789068818092E-002;2.725200029090047E-003;3.649761201813817E-003;
2.418500000000000E+009;1.999629139900208E-001;-4.092655330896378E-002;2.822919283062220E-003;3.537649055942893E-003;
2.418666666666667E+009;1.989938169717789E-001;-4.089310020208359E-002;2.951036673039198E-003;3.480584826320410E-003;
2.418833333333334E+009;1.976661086082459E-001;-4.083033278584480E-002;3.150024916976690E-003;3.187911817803979E-003;
2.419000000000000E+009;1.964189112186432E-001;-4.091836512088776E-002;3.320313058793545E-003;3.160023596137762E-003;
2.419166666666667E+009;1.951353102922440E-001;-4.127721115946770E-002;3.329680534079671E-003;3.088626777753234E-003;
2.419333333333334E+009;1.936737447977066E-001;-4.176621511578560E-002;3.374807536602020E-003;2.853091806173325E-003;
2.419500000000000E+009;1.919857859611511E-001;-4.201543703675270E-002;3.490493632853031E-003;2.890207339078188E-003;
2.419666666666667E+009;1.902943849563599E-001;-4.281458258628845E-002;3.585574449971318E-003;2.625793218612671E-003;
2.419833333333334E+009;1.886049956083298E-001;-4.352819174528122E-002;3.648835932835937E-003;2.454971196129918E-003;
2.420000000000000E+009;1.869376003742218E-001;-4.433038085699081E-002;3.789631417021155E-003;2.274053869768977E-003;
2.420166666666667E+009;1.853879839181900E-001;-4.533538967370987E-002;3.764709457755089E-003;2.113463589921594E-003;
2.420333333333334E+009;1.835960894823074E-001;-4.644935578107834E-002;3.995951730757952E-003;2.052900381386280E-003;
2.420500000000000E+009;1.818478852510452E-001;-4.785045981407166E-002;3.867122577503324E-003;1.915069064125419E-003;
2.420666666666667E+009;1.801564097404480E-001;-4.880284518003464E-002;3.940940834581852E-003;1.736732083372772E-003;
2.420833333333334E+009;1.784039288759232E-001;-5.037355422973633E-002;3.984734881669283E-003;1.469128183089197E-003;
2.421000000000000E+009;1.769250035285950E-001;-5.213540792465210E-002;3.904139390215278E-003;1.485632499679923E-003;
2.421166666666667E+009;1.752990633249283E-001;-5.382888764142990E-002;3.974576015025377E-003;1.177732483483851E-003;
2.421333333333334E+009;1.736357957124710E-001;-5.524900555610657E-002;3.873819718137384E-003;1.010058913379908E-003;
2.421500000000000E+009;1.721535325050354E-001;-5.731703713536263E-002;3.786801127716899E-003;9.080567979253829E-004;
2.421666666666667E+009;1.708990037441254E-001;-5.914950743317604E-002;3.877070965245366E-003;8.827732526697218E-004;
2.421833333333334E+009;1.698042154312134E-001;-6.103589013218880E-002;3.831710200756788E-003;5.587535561062396E-004;
2.422000000000000E+009;1.686067134141922E-001;-6.311266869306564E-002;3.890355350449681E-003;5.811754381284118E-004;
2.422166666666667E+009;1.677380353212357E-001;-6.532778590917587E-002;3.710211487486959E-003;3.254884795751423E-004;
2.422333333333334E+009;1.665481626987457E-001;-6.748607754707336E-002;3.692633239552379E-003;1.751536765368655E-004;
2.422500000000000E+009;1.659533083438873E-001;-6.945633143186569E-002;3.671884071081877E-003;5.956755194347352E-005;
2.422666666666667E+009;1.651396900415421E-001;-7.160773873329163E-002;3.690581535920501E-003;8.593648817623034E-005;
2.422833333333334E+009;1.647789329290390E-001;-7.371491938829422E-002;3.423311281949282E-003;-1.000497650238685E-005;
2.423000000000000E+009;1.639345884323120E-001;-7.589405775070190E-002;3.265823004767299E-003;-9.785123256733641E-005;
2.423166666666667E+009;1.636738777160645E-001;-7.787115126848221E-002;3.366545541211963E-003;-1.888848782982677E-004;
2.423333333333334E+009;1.634946316480637E-001;-8.018627017736435E-002;3.170588519424200E-003;-3.133000573143363E-004;
2.423500000000000E+009;1.634400039911270E-001;-8.199506253004074E-002;3.300069365650415E-003;-2.574879617895931E-004;
2.423666666666667E+009;1.633803397417069E-001;-8.405046164989471E-002;3.029732499271631E-003;-2.476765366736800E-004;
2.423833333333334E+009;1.633836925029755E-001;-8.586379140615463E-002;3.027092898264527E-003;-2.328889240743592E-004;
2.424000000000000E+009;1.635941416025162E-001;-8.784062415361404E-002;3.007730236276984E-003;-4.015286394860596E-004;
2.424166666666667E+009;1.636160612106323E-001;-8.942959457635880E-002;2.942966762930155E-003;-3.274825576227158E-004;
2.424333333333334E+009;1.639637500047684E-001;-9.114912897348404E-002;3.007555380463600E-003;-4.033732984680682E-004;
2.424500000000000E+009;1.643530875444412E-001;-9.299854934215546E-002;3.006663639098406E-003;-5.275072180666030E-004;
2.424666666666667E+009;1.645623296499252E-001;-9.452914446592331E-002;3.063405165448785E-003;-3.194628225173801E-004;
2.424833333333334E+009;1.652997583150864E-001;-9.591186046600342E-002;2.927545225247741E-003;-4.700033168774098E-004;
2.425000000000000E+009;1.656330227851868E-001;-9.707035869359970E-002;2.914852695539594E-003;-5.212253308854997E-004;
2.425166666666667E+009;1.660940200090408E-001;-9.824522584676743E-002;3.006822895258665E-003;-5.904264980927110E-004;
2.425333333333334E+009;1.665547788143158E-001;-9.930677711963654E-002;3.055298700928688E-003;-7.116750930435956E-004;
2.425500000000000E+009;1.670613139867783E-001;-1.003469303250313E-001;3.015078371390700E-003;-7.117594941519201E-004;
2.425666666666667E+009;1.676140427589417E-001;-1.010132059454918E-001;2.952932845801115E-003;-7.734305108897388E-004;
2.425833333333334E+009;1.679837852716446E-001;-1.019437611103058E-001;3.127325326204300E-003;-7.931131403893232E-004;
2.426000000000000E+009;1.684978902339935E-001;-1.023120656609535E-001;3.094671992585063E-003;-8.637674618512392E-004;
2.426166666666667E+009;1.690083146095276E-001;-1.028677895665169E-001;2.943782368674874E-003;-8.941697305999696E-004;
2.426333333333334E+009;1.693039238452911E-001;-1.033317893743515E-001;3.110721474513412E-003;-1.016516122035682E-003;
2.426500000000000E+009;1.696399599313736E-001;-1.036732643842697E-001;2.946026623249054E-003;-1.090182457119227E-003;
2.426666666666667E+009;1.700603663921356E-001;-1.040135696530342E-001;2.976284362375736E-003;-9.967160876840353E-004;
2.426833333333334E+009;1.703064441680908E-001;-1.041642054915428E-001;3.080110764130950E-003;-1.338666654191911E-003;
2.427000000000000E+009;1.704381108283997E-001;-1.043473333120346E-001;3.006828948855400E-003;-1.268980209715664E-003;
2.427166666666667E+009;1.706136167049408E-001;-1.043732091784477E-001;2.965583233162761E-003;-1.338043133728206E-003;
2.427333333333334E+009;1.705911755561829E-001;-1.045585423707962E-001;3.187465015798807E-003;-1.366585143841803E-003;
2.427500000000000E+009;1.703474074602127E-001;-1.046673208475113E-001;3.048293525353074E-003;-1.574152731336653E-003;
2.427666666666667E+009;1.701453030109406E-001;-1.046092957258225E-001;2.815126441419125E-003;-1.713688601739705E-003;
2.427833333333334E+009;1.698484867811203E-001;-1.046935692429543E-001;2.917560050264001E-003;-1.714347163215280E-003;
