# Version 1.00
#
freq[Hz];re:Trc1_S11;im:Trc1_S11;re:Trc2_S21;im:Trc2_S21;
2.400000000000000E+009;1.550941020250320E-001;1.089628562331200E-001;-1.891707303002477E-003;-3.083022311329842E-003;
2.400166666666667E+009;1.548646092414856E-001;1.064860299229622E-001;-2.200521295890212E-003;-3.130210563540459E-003;
2.400333333333334E+009;1.547757536172867E-001;1.040119230747223E-001;-2.423728350549936E-003;-3.036374691873789E-003;
2.400500000000000E+009;1.548217684030533E-001;1.013676300644875E-001;-2.660930622369051E-003;-2.742155687883496E-003;
2.400666666666667E+009;1.549150198698044E-001;9.883616119623184E-002;-2.834201091900468E-003;-2.631432609632611E-003;
2.400833333333334E+009;1.546626687049866E-001;9.591334313154221E-002;-2.945070853456855E-003;-2.586627146229148E-003;
2.401000000000000E+009;1.547863036394119E-001;9.316689521074295E-002;-3.040588693693280E-003;-2.281554741784930E-003;
2.401166666666667E+009;1.549058854579926E-001;9.021461009979248E-002;-3.221321618184447E-003;-2.064605941995978E-003;
2.401333333333334E+009;1.552017033100128E-001;8.736295253038406E-002;-3.183766733855009E-003;-1.883480697870255E-003;
2.401500000000000E+009;1.554829031229019E-001;8.453230559825897E-002;-3.296481911092997E-003;-1.654859865084291E-003;
2.401666666666667E+009;1.558996886014938E-001;8.156811445951462E-002;-3.347991965711117E-003;-1.705763163045049E-003;
2.401833333333334E+009;1.563428044319153E-001;7.876112312078476E-002;-3.317722585052252E-003;-1.460265018977225E-003;
2.402000000000000E+009;1.571824103593826E-001;7.584819942712784E-002;-3.464485518634319E-003;-1.384606002829969E-003;
2.402166666666667E+009;1.579281538724899E-001;7.328366488218308E-002;-3.239830723032355E-003;-1.373417791910470E-003;
2.402333333333334E+009;1.589345335960388E-001;7.052364200353622E-002;-3.479119390249252E-003;-1.224996056407690E-003;
2.402500000000000E+009;1.599370837211609E-001;6.810025870800018E-002;-3.384954528883100E-003;-1.259752898477018E-003;
2.402666666666667E+009;1.611721068620682E-001;6.538168340921402E-002;-3.530823858454824E-003;-1.000847783870995E-003;
2.402833333333334E+009;1.623179316520691E-001;6.286912411451340E-002;-3.559539094567299E-003;-8.008597069419920E-004;
2.403000000000000E+009;1.638130992650986E-001;6.056197360157967E-002;-3.491464769467711E-003;-9.271059534512460E-004;
2.403166666666667E+009;1.656612157821655E-001;5.833390355110169E-002;-3.699187189340591E-003;-7.714546518400312E-004;
2.403333333333334E+009;1.669117957353592E-001;5.601314082741737E-002;-3.774546552449465E-003;-5.154313403181732E-004;
2.403500000000000E+009;1.688376069068909E-001;5.397215113043785E-002;-3.814720548689365E-003;-3.517925215419382E-004;
2.403666666666667E+009;1.706001907587051E-001;5.192705988883972E-002;-3.874302608892322E-003;1.108005471905926E-005;
2.403833333333334E+009;1.722749024629593E-001;4.997032880783081E-002;-3.985240124166012E-003;-1.092731690732762E-004;
2.404000000000000E+009;1.739007532596588E-001;4.833957552909851E-002;-3.711216384544969E-003;2.033808123087511E-004;
2.404166666666667E+009;1.757426857948303E-001;4.651802033185959E-002;-3.835609648376703E-003;3.921845927834511E-004;
2.404333333333334E+009;1.773600429296494E-001;4.515382274985313E-002;-3.735950915142894E-003;7.148196455091238E-004;
2.404500000000000E+009;1.790369451045990E-001;4.365992173552513E-002;-3.644340904429555E-003;1.075806212611496E-003;
2.404666666666667E+009;1.807998269796372E-001;4.252794384956360E-002;-3.515633288770914E-003;1.071866601705551E-003;
2.404833333333334E+009;1.825415790081024E-001;4.142849519848824E-002;-3.280363045632839E-003;1.261926139704883E-003;
2.405000000000000E+009;1.840535551309586E-001;4.077741131186485E-002;-3.175486112013459E-003;1.429613446816802E-003;
2.405166666666667E+009;1.855755299329758E-001;3.997884318232536E-002;-3.236226271837950E-003;1.479641883634031E-003;
2.405333333333334E+009;1.871338188648224E-001;3.953370451927185E-002;-2.955366391688585E-003;1.740004168823361E-003;
2.405500000000000E+009;1.885450631380081E-001;3.904553875327110E-002;-2.885111840441823E-003;1.763188280165196E-003;
2.405666666666667E+009;1.897941976785660E-001;3.872325271368027E-002;-2.885099733248353E-003;1.787693123333156E-003;
2.405833333333334E+009;1.910791993141174E-001;3.845071792602539E-002;-2.615385688841343E-003;1.750463503412902E-003;
2.406000000000000E+009;1.922281533479691E-001;3.838825598359108E-002;-2.488522324711084E-003;1.957570435479283E-003;
2.406166666666667E+009;1.932500898838043E-001;3.823663294315338E-002;-2.223688876256347E-003;1.943303272128105E-003;
2.406333333333334E+009;1.942325383424759E-001;3.838568553328514E-002;-2.146519953384996E-003;2.036305610090494E-003;
2.406500000000000E+009;1.951128542423248E-001;3.845450654625893E-002;-1.867029350250959E-003;2.054289914667606E-003;
2.406666666666667E+009;1.957617402076721E-001;3.845937177538872E-002;-1.821389887481928E-003;2.143891993910074E-003;
2.406833333333334E+009;1.963529586791992E-001;3.865696489810944E-002;-1.563180470839143E-003;2.075756667181850E-003;
2.407000000000000E+009;1.966245174407959E-001;3.895418345928192E-002;-1.546705490909517E-003;1.887847087346017E-003;
2.407166666666667E+009;1.971158683300018E-001;3.889676928520203E-002;-1.397685846313834E-003;1.887792954221368E-003;
2.407333333333334E+009;1.971068084239960E-001;3.922153636813164E-002;-1.222491730004549E-003;1.939375652000308E-003;
2.407500000000000E+009;1.970076709985733E-001;3.937492519617081E-002;-1.096609514206648E-003;1.605233061127365E-003;
2.407666666666667E+009;1.971747726202011E-001;3.942257538437843E-002;-9.357333183288574E-004;1.720226253382862E-003;
2.407833333333334E+009;1.967306137084961E-001;3.944225609302521E-002;-1.123618101701140E-003;1.546392333693802E-003;
2.408000000000000E+009;1.967137008905411E-001;3.938211500644684E-002;-8.511276682838798E-004;1.464365632273257E-003;
2.408166666666667E+009;1.961271762847900E-001;3.922824189066887E-002;-1.082829898223281E-003;1.312176347710192E-003;
2.408333333333334E+009;1.956207007169724E-001;3.882695361971855E-002;-9.606152889318764E-004;1.257968717254698E-003;
2.408500000000000E+009;1.948864161968231E-001;3.866017237305641E-002;-8.402118110097945E-004;1.175687182694674E-003;
2.408666666666667E+009;1.943549960851669E-001;3.819947317242622E-002;-9.760136017575860E-004;1.154129742644727E-003;
2.408833333333334E+009;1.937307715415955E-001;3.744262456893921E-002;-9.821937419474125E-004;1.090002129785717E-003;
2.409000000000000E+009;1.927073150873184E-001;3.678730502724648E-002;-9.497141581960022E-004;9.410984930582345E-004;
2.409166666666667E+009;1.916592121124268E-001;3.590844944119453E-002;-1.183470827527344E-003;9.408788173459470E-004;
2.409333333333334E+009;1.908131837844849E-001;3.514647483825684E-002;-1.158957718871534E-003;8.126468746922910E-004;
2.409500000000000E+009;1.897297054529190E-001;3.376119211316109E-002;-1.176481484435499E-003;7.803607149980962E-004;
2.409666666666667E+009;1.887059807777405E-001;3.254736214876175E-002;-1.339820330031216E-003;8.001787937246263E-004;
2.409833333333334E+009;1.876312792301178E-001;3.110871650278568E-002;-1.365181989967823E-003;7.586207939311862E-004;
2.410000000000000E+009;1.865722984075546E-001;2.956362627446652E-002;-1.379100722260773E-003;6.930473027750850E-004;
2.410166666666667E+009;1.856666803359985E-001;2.771054208278656E-002;-1.472155330702663E-003;8.682907791808248E-004;
2.410333333333334E+009;1.845729351043701E-001;2.591766603291035E-002;-1.643644296564162E-003;6.837400724180043E-004;
2.410500000000000E+009;1.835490763187408E-001;2.422296628355980E-002;-1.738914172165096E-003;9.397578542120755E-004;
2.410666666666667E+009;1.826131641864777E-001;2.188010327517986E-002;-1.682100701145828E-003;8.901984547264874E-004;
2.410833333333334E+009;1.820368021726608E-001;1.978773437440395E-002;-1.737778075039387E-003;1.019063172861934E-003;
2.411000000000000E+009;1.811365485191345E-001;1.751007512211800E-002;-1.770372153259814E-003;8.041245164349675E-004;
2.411166666666667E+009;1.805510967969894E-001;1.534303557127714E-002;-1.776605029590428E-003;9.693609317764640E-004;
2.411333333333334E+009;1.798836439847946E-001;1.283318456262350E-002;-1.903530443087220E-003;1.096542691811919E-003;
2.411500000000000E+009;1.793651431798935E-001;1.048678625375032E-002;-1.848702435381711E-003;1.069649588316679E-003;
2.411666666666667E+009;1.793637871742249E-001;7.775166071951389E-003;-2.062963088974357E-003;1.188096706755459E-003;
2.411833333333334E+009;1.788962930440903E-001;5.459182895720005E-003;-1.957356464117765E-003;1.151207718066871E-003;
2.412000000000000E+009;1.790186762809753E-001;2.984615508466959E-003;-1.956733642145991E-003;1.371974823996425E-003;
2.412166666666667E+009;1.790699660778046E-001;5.099949194118381E-004;-2.163310535252094E-003;1.350375823676586E-003;
2.412333333333334E+009;1.792214661836624E-001;-2.037708880379796E-003;-2.095479518175125E-003;1.413270831108093E-003;
2.412500000000000E+009;1.799267381429672E-001;-4.571507219225168E-003;-2.302552107721567E-003;1.565256039611995E-003;
2.412666666666667E+009;1.803103983402252E-001;-7.137434091418982E-003;-2.267173724249005E-003;1.774585805833340E-003;
2.412833333333334E+009;1.810553222894669E-001;-9.669032879173756E-003;-2.507983008399606E-003;1.686701318249106E-003;
2.413000000000000E+009;1.816866695880890E-001;-1.206965558230877E-002;-2.443454694002867E-003;1.748846145346761E-003;
2.413166666666667E+009;1.825877577066422E-001;-1.447953004390001E-002;-2.370128640905023E-003;2.025212161242962E-003;
2.413333333333334E+009;1.836981624364853E-001;-1.666769944131374E-002;-2.679061843082309E-003;2.178045921027660E-003;
2.413500000000000E+009;1.845609992742539E-001;-1.919350028038025E-002;-2.683338243514299E-003;2.385788597166538E-003;
2.413666666666667E+009;1.859121471643448E-001;-2.151588723063469E-002;-2.526300959289074E-003;2.627774607390165E-003;
2.413833333333334E+009;1.869044452905655E-001;-2.359171397984028E-002;-2.502489369362593E-003;2.927587600424886E-003;
2.414000000000000E+009;1.880377978086472E-001;-2.555508352816105E-002;-2.451817737892270E-003;3.102849470451474E-003;
2.414166666666667E+009;1.894488185644150E-001;-2.737540937960148E-002;-2.368298592045903E-003;3.310272004455328E-003;
2.414333333333334E+009;1.905986368656158E-001;-2.955481596291065E-002;-2.236206782981753E-003;3.593331901356578E-003;
2.414500000000000E+009;1.918522417545319E-001;-3.106081485748291E-002;-2.176866866648197E-003;3.754355711862445E-003;
2.414666666666667E+009;1.932547390460968E-001;-3.273837640881538E-002;-1.820978010073304E-003;4.008574876934290E-003;
2.414833333333334E+009;1.944436132907867E-001;-3.406142815947533E-002;-1.649818732403219E-003;3.946578595787287E-003;
2.415000000000000E+009;1.956237107515335E-001;-3.530245646834374E-002;-1.542623969726265E-003;4.318174440413714E-003;
2.415166666666667E+009;1.970058083534241E-001;-3.647309169173241E-002;-1.282892888411880E-003;4.358183126896620E-003;
2.415333333333334E+009;1.982552409172058E-001;-3.756912425160408E-002;-1.200687373057008E-003;4.530144389718771E-003;
2.415500000000000E+009;1.993871629238129E-001;-3.834994509816170E-002;-9.484351030550897E-004;4.630955867469311E-003;
2.415666666666667E+009;2.004880905151367E-001;-3.925806283950806E-002;-6.784099969081581E-004;4.676142707467079E-003;
2.415833333333334E+009;2.014618217945099E-001;-3.991701453924179E-002;-3.821655700448901E-004;4.720977973192930E-003;
2.416000000000000E+009;2.024560570716858E-001;-4.052009806036949E-002;-1.858833711594343E-004;4.916554782539606E-003;
2.416166666666667E+009;2.031086236238480E-001;-4.114458337426186E-002;4.921242725686170E-005;4.893240518867970E-003;
2.416333333333334E+009;2.038610726594925E-001;-4.138184338808060E-002;3.694831684697419E-004;4.983831662684679E-003;
2.416500000000000E+009;2.043770253658295E-001;-4.170634970068932E-002;6.792822387069464E-004;5.062833894044161E-003;
2.416666666666667E+009;2.047268301248550E-001;-4.200343787670136E-002;1.034342916682363E-003;4.893029108643532E-003;
2.416833333333334E+009;2.049624174833298E-001;-4.185272008180618E-002;1.107344171032310E-003;4.767947830259800E-003;
2.417000000000000E+009;2.051319628953934E-001;-4.205473512411118E-002;1.431194716133177E-003;4.768617451190949E-003;
2.417166666666667E+009;2.048853188753128E-001;-4.193520173430443E-002;1.817568787373602E-003;4.675659351050854E-003;
2.417333333333334E+009;2.047154754400253E-001;-4.180688783526421E-002;2.008303534239531E-003;4.567192401736975E-003;
2.417500000000000E+009;2.045357823371887E-001;-4.171139746904373E-002;2.105474704876542E-003;4.490762483328581E-003;
2.417666666666667E+009;2.038869410753250E-001;-4.144058004021645E-002;2.369078574702144E-003;4.233574960380793E-003;
2.417833333333334E+009;2.035405039787293E-001;-4.130091890692711E-002;2.435004571452737E-003;3.993744961917400E-003;
2.418000000000000E+009;2.029256373643875E-001;-4.088860005140305E-002;2.658732002601028E-003;3.962250426411629E-003;
2.418166666666667E+009;2.020019143819809E-001;-4.071803390979767E-002;2.670160960406065E-003;3.844740334898233E-003;
2.418333333333334E+009;2.011270076036453E-001;-4.061513766646385E-002;2.771263942122459E-003;3.617846639826894E-003;
2.418500000000000E+009;2.001409083604813E-001;-4.061863943934441E-002;2.947033150121570E-003;3.623135387897492E-003;
2.418666666666667E+009;1.991442888975143E-001;-4.040736332535744E-002;3.024701727554202E-003;3.475690260529518E-003;
2.418833333333334E+009;1.978759467601776E-001;-4.061933979392052E-002;3.148725023493171E-003;3.263236954808235E-003;
2.419000000000000E+009;1.964832544326782E-001;-4.067768529057503E-002;3.136216662824154E-003;3.185171168297529E-003;
2.419166666666667E+009;1.952437013387680E-001;-4.096054658293724E-002;3.296038135886192E-003;3.013541223481298E-003;
2.419333333333334E+009;1.936621069908142E-001;-4.154468327760696E-002;3.368115285411477E-003;2.886467147618532E-003;
2.419500000000000E+009;1.921241879463196E-001;-4.165252670645714E-002;3.490126924589276E-003;2.857309533283114E-003;
2.419666666666667E+009;1.904301196336746E-001;-4.264249280095100E-002;3.652411047369242E-003;2.584948204457760E-003;
2.419833333333334E+009;1.887456327676773E-001;-4.311830177903175E-002;3.510584356263280E-003;2.555252285674214E-003;
2.420000000000000E+009;1.872482597827911E-001;-4.402187839150429E-002;3.701148089021444E-003;2.323111053556204E-003;
2.420166666666667E+009;1.854511052370071E-001;-4.490707442164421E-002;3.826029598712921E-003;2.209715545177460E-003;
2.420333333333334E+009;1.837633997201920E-001;-4.615327715873718E-002;3.774545388296247E-003;1.844434649683535E-003;
2.420500000000000E+009;1.820469796657562E-001;-4.752458259463310E-002;3.818619763478637E-003;1.796120661310852E-003;
2.420666666666667E+009;1.804317086935043E-001;-4.855345189571381E-002;3.877032082527876E-003;1.550758024677634E-003;
2.420833333333334E+009;1.785201132297516E-001;-5.024681612849236E-002;3.852072171866894E-003;1.584219047799707E-003;
2.421000000000000E+009;1.770647168159485E-001;-5.176452174782753E-002;3.971533849835396E-003;1.424511661753058E-003;
2.421166666666667E+009;1.756182760000229E-001;-5.335128679871559E-002;3.875289810821414E-003;1.172793679870665E-003;
2.421333333333334E+009;1.739911884069443E-001;-5.505683273077011E-002;3.924041055142880E-003;1.074429368600249E-003;
2.421500000000000E+009;1.725211143493652E-001;-5.702935531735420E-002;3.971888218075037E-003;9.230643045157194E-004;
2.421666666666667E+009;1.713207364082336E-001;-5.890190228819847E-002;3.835651790723205E-003;8.862694376148284E-004;
2.421833333333334E+009;1.699642986059189E-001;-6.083280593156815E-002;3.832702292129397E-003;5.736767197959125E-004;
2.422000000000000E+009;1.687681376934052E-001;-6.280319392681122E-002;3.779123071581125E-003;5.399515503086150E-004;
2.422166666666667E+009;1.679842621088028E-001;-6.514989584684372E-002;3.780161263421178E-003;5.515894736163318E-004;
2.422333333333334E+009;1.668377518653870E-001;-6.718929857015610E-002;3.681609639897943E-003;3.235905314795673E-004;
2.422500000000000E+009;1.661609560251236E-001;-6.923287361860275E-002;3.637739690020680E-003;7.281165744643658E-005;
2.422666666666667E+009;1.653398573398590E-001;-7.141177356243134E-002;3.490104107186198E-003;5.254634743323550E-006;
2.422833333333334E+009;1.648947894573212E-001;-7.348804175853729E-002;3.262848826125264E-003;-6.418144766939804E-005;
2.423000000000000E+009;1.643867045640945E-001;-7.581371068954468E-002;3.305905032902956E-003;-1.046209363266826E-004;
2.423166666666667E+009;1.639017015695572E-001;-7.789192348718643E-002;3.331705462187529E-003;-2.859115775208920E-004;
2.423333333333334E+009;1.638192981481552E-001;-8.004358410835266E-002;3.289581276476383E-003;-1.187547386507504E-004;
2.423500000000000E+009;1.636566817760468E-001;-8.188600838184357E-002;3.160730935633183E-003;-3.167024988215417E-004;
2.423666666666667E+009;1.635999828577042E-001;-8.394557982683182E-002;3.097992623224855E-003;-3.739740059245378E-004;
2.423833333333334E+009;1.636254638433456E-001;-8.591026067733765E-002;3.073009662330151E-003;-4.633246280718595E-004;
2.424000000000000E+009;1.638282388448715E-001;-8.774670213460922E-002;2.993086585775018E-003;-2.189201768487692E-004;
2.424166666666667E+009;1.639977544546127E-001;-8.932103216648102E-002;2.992332214489579E-003;-5.184655892662704E-004;
2.424333333333334E+009;1.643157154321671E-001;-9.101146459579468E-002;2.982816658914089E-003;-3.266778076067567E-004;
2.424500000000000E+009;1.645871549844742E-001;-9.288992732763290E-002;2.960613230243325E-003;-4.349496157374233E-004;
2.424666666666667E+009;1.650210469961166E-001;-9.434927254915237E-002;3.104474628344178E-003;-5.243419436737895E-004;
2.424833333333334E+009;1.656551659107208E-001;-9.575531631708145E-002;2.988982945680618E-003;-4.487665137276053E-004;
2.425000000000000E+009;1.661743074655533E-001;-9.705054759979248E-002;3.032278968021274E-003;-5.548299523070455E-004;
2.425166666666667E+009;1.664071828126907E-001;-9.822498261928558E-002;2.926720539107919E-003;-4.255719250068069E-004;
2.425333333333334E+009;1.669970452785492E-001;-9.923030436038971E-002;3.041650867089629E-003;-6.851950311101973E-004;
2.425500000000000E+009;1.673698723316193E-001;-1.001996025443077E-001;2.892775693908334E-003;-7.517626509070396E-004;
2.425666666666667E+009;1.679137200117111E-001;-1.009992957115173E-001;2.985086059197784E-003;-7.305906037800014E-004;
2.425833333333334E+009;1.683206111192703E-001;-1.018818616867065E-001;2.983406651765108E-003;-8.038248633965850E-004;
2.426000000000000E+009;1.687513440847397E-001;-1.024186611175537E-001;2.960233483463526E-003;-8.685475331731141E-004;
2.426166666666667E+009;1.693437397480011E-001;-1.028521806001663E-001;3.152306890115142E-003;-9.059573640115559E-004;
2.426333333333334E+009;1.694828569889069E-001;-1.033878922462463E-001;2.966224681586027E-003;-9.091188549064100E-004;
2.426500000000000E+009;1.699639558792114E-001;-1.035793870687485E-001;3.032781882211566E-003;-9.492509998381138E-004;
2.426666666666667E+009;1.703759282827377E-001;-1.039677187800407E-001;2.912157448008657E-003;-1.170040806755424E-003;
2.426833333333334E+009;1.707114577293396E-001;-1.042254120111466E-001;3.161045722663403E-003;-1.243522623553872E-003;
2.427000000000000E+009;1.707641631364822E-001;-1.042996495962143E-001;3.007669467478991E-003;-1.307131256908178E-003;
2.427166666666667E+009;1.708931624889374E-001;-1.044546365737915E-001;3.038516268134117E-003;-1.420536078512669E-003;
2.427333333333334E+009;1.708218902349472E-001;-1.045878306031227E-001;3.007648978382349E-003;-1.437756814993918E-003;
2.427500000000000E+009;1.707677096128464E-001;-1.046502068638802E-001;2.859084634110332E-003;-1.712629455141723E-003;
2.427666666666667E+009;1.704232394695282E-001;-1.047256514430046E-001;2.968910615891218E-003;-1.602955861017108E-003;
2.427833333333334E+009;1.701781451702118E-001;-1.046983525156975E-001;2.867782488465309E-003;-1.666019554249942E-003;
