# Version 1.00
#
freq[Hz];re:Trc1_S11;im:Trc1_S11;re:Trc2_S21;im:Trc2_S21;
2.400000000000000E+009;1.552647352218628E-001;1.090428382158279E-001;-1.959306420758367E-003;-2.901421394199133E-003;
2.400166666666667E+009;1.549825668334961E-001;1.067291572690010E-001;-2.288572024554014E-003;-3.034465480595827E-003;
2.400333333333334E+009;1.548995822668076E-001;1.044142916798592E-001;-2.461559139192104E-003;-3.035471774637699E-003;
2.400500000000000E+009;1.546957939863205E-001;1.017209514975548E-001;-2.623914042487741E-003;-2.655656309798360E-003;
2.400666666666667E+009;1.547475904226303E-001;9.921277314424515E-002;-2.839701017364860E-003;-2.644833177328110E-003;
2.400833333333334E+009;1.549408584833145E-001;9.608948230743408E-002;-2.960081910714507E-003;-2.419278258457780E-003;
2.401000000000000E+009;1.550070792436600E-001;9.325663000345230E-002;-3.203875618055463E-003;-2.264603739604354E-003;
2.401166666666667E+009;1.548110544681549E-001;9.062685817480087E-002;-3.175712656229734E-003;-2.007697941735387E-003;
2.401333333333334E+009;1.552486121654511E-001;8.765216171741486E-002;-3.193178214132786E-003;-1.801258767955005E-003;
2.401500000000000E+009;1.556405127048492E-001;8.458477258682251E-002;-3.128063865005970E-003;-1.809621928259730E-003;
2.401666666666667E+009;1.558991074562073E-001;8.190360665321350E-002;-3.160238964483142E-003;-1.623165211640298E-003;
2.401833333333334E+009;1.564882397651672E-001;7.891121506690979E-002;-3.283562371507287E-003;-1.462006941437721E-003;
2.402000000000000E+009;1.571296006441116E-001;7.627381384372711E-002;-3.270171349868178E-003;-1.341609400697053E-003;
2.402166666666667E+009;1.581168919801712E-001;7.376960664987564E-002;-3.282882273197174E-003;-1.309727202169597E-003;
2.402333333333334E+009;1.590921282768250E-001;7.064805179834366E-002;-3.505958011373878E-003;-1.136816805228591E-003;
2.402500000000000E+009;1.605014950037003E-001;6.793771684169769E-002;-3.047197591513395E-003;-1.440579188056290E-003;
2.402666666666667E+009;1.611098200082779E-001;6.549359112977982E-002;-3.309362335130572E-003;-9.104725322686136E-004;
2.402833333333334E+009;1.626013517379761E-001;6.322956830263138E-002;-3.466178197413683E-003;-8.414468029513955E-004;
2.403000000000000E+009;1.639245897531509E-001;6.053276360034943E-002;-3.464565612375736E-003;-1.167100970633328E-003;
2.403166666666667E+009;1.659450829029083E-001;5.797246471047401E-002;-3.192479722201824E-003;-7.610409520566464E-004;
2.403333333333334E+009;1.667728722095490E-001;5.586484074592590E-002;-3.625485580414534E-003;-1.224918290972710E-003;
2.403500000000000E+009;1.688783466815949E-001;5.383867397904396E-002;-3.908403217792511E-003;-6.468500941991806E-004;
2.403666666666667E+009;1.711510568857193E-001;5.276209115982056E-002;-4.344209562987089E-003;5.538826808333397E-004;
2.403833333333334E+009;1.725677400827408E-001;4.992187768220902E-002;-3.818816039711237E-003;-1.686221658019349E-004;
2.404000000000000E+009;1.740637570619583E-001;4.815965890884399E-002;-3.863779595121741E-003;1.440038176951930E-004;
2.404166666666667E+009;1.760870665311813E-001;4.676996544003487E-002;-3.922497387975454E-003;6.458996213041246E-004;
2.404333333333334E+009;1.777609735727310E-001;4.525061696767807E-002;-3.864911152049899E-003;7.203210843726993E-004;
2.404500000000000E+009;1.795342564582825E-001;4.363133385777473E-002;-3.598307259380817E-003;1.011205837130547E-003;
2.404666666666667E+009;1.814777255058289E-001;4.233173280954361E-002;-3.400955814868212E-003;1.233313349075615E-003;
2.404833333333334E+009;1.829360723495483E-001;4.150626808404923E-002;-3.602376906201243E-003;1.304489444009960E-003;
2.405000000000000E+009;1.843701601028442E-001;4.085436463356018E-002;-3.394293133169413E-003;1.335059758275747E-003;
2.405166666666667E+009;1.859120726585388E-001;3.999467939138413E-002;-3.220622660592198E-003;1.455593970604241E-003;
2.405333333333334E+009;1.874305605888367E-001;3.959108516573906E-002;-3.089633537456393E-003;1.458847895264626E-003;
2.405500000000000E+009;1.888640671968460E-001;3.894342109560967E-002;-2.976443152874708E-003;1.752768759615719E-003;
2.405666666666667E+009;1.902265995740891E-001;3.860812261700630E-002;-2.732536988332868E-003;1.712295925244689E-003;
2.405833333333334E+009;1.915679126977921E-001;3.831732273101807E-002;-2.492303960025311E-003;1.897106296382844E-003;
2.406000000000000E+009;1.925657838582993E-001;3.841440752148628E-002;-2.401774050667882E-003;1.996122766286135E-003;
2.406166666666667E+009;1.935972422361374E-001;3.810624778270721E-002;-2.214997075498104E-003;2.059438964352012E-003;
2.406333333333334E+009;1.945945322513580E-001;3.823718801140785E-002;-2.045761328190565E-003;1.935773063451052E-003;
2.406500000000000E+009;1.953523010015488E-001;3.825595974922180E-002;-1.859176205471158E-003;1.998971216380596E-003;
2.406666666666667E+009;1.962026059627533E-001;3.848907351493835E-002;-1.697510713711381E-003;2.043209038674831E-003;
2.406833333333334E+009;1.966106295585632E-001;3.858937695622444E-002;-1.725953537970781E-003;2.020829822868109E-003;
2.407000000000000E+009;1.969516873359680E-001;3.879844397306442E-002;-1.454152050428093E-003;1.950775855220854E-003;
2.407166666666667E+009;1.974885314702988E-001;3.882174193859100E-002;-1.304093631915748E-003;1.917624147608876E-003;
2.407333333333334E+009;1.975421011447907E-001;3.905790299177170E-002;-1.234215684235096E-003;1.804488012567163E-003;
2.407500000000000E+009;1.974605321884155E-001;3.933998569846153E-002;-1.111560501158238E-003;1.726972404867411E-003;
2.407666666666667E+009;1.974985152482987E-001;3.934068977832794E-002;-9.440663852728903E-004;1.551131252199411E-003;
2.407833333333334E+009;1.970168948173523E-001;3.934827446937561E-002;-9.442269220016897E-004;1.476849662140012E-003;
2.408000000000000E+009;1.970244944095612E-001;3.932221978902817E-002;-9.671615553088486E-004;1.408727956004441E-003;
2.408166666666667E+009;1.964842081069946E-001;3.913389891386032E-002;-9.331323090009391E-004;1.366993994452059E-003;
2.408333333333334E+009;1.960791349411011E-001;3.873297572135925E-002;-8.434283081442118E-004;1.154577243141830E-003;
2.408500000000000E+009;1.953409463167191E-001;3.858397156000137E-002;-8.124894811771810E-004;1.166553935036063E-003;
2.408666666666667E+009;1.947748363018036E-001;3.817344084382057E-002;-9.039075812324882E-004;9.894438553601503E-004;
2.408833333333334E+009;1.939738392829895E-001;3.769416362047195E-002;-1.007478917017579E-003;8.743120124563575E-004;
2.409000000000000E+009;1.931206732988358E-001;3.659888356924057E-002;-1.167205395177007E-003;7.909554988145828E-004;
2.409166666666667E+009;1.921359598636627E-001;3.582603484392166E-002;-1.122628687880933E-003;9.023328311741352E-004;
2.409333333333334E+009;1.911751925945282E-001;3.497247770428658E-002;-1.303773024119437E-003;8.756806491874158E-004;
2.409500000000000E+009;1.901684552431107E-001;3.362097963690758E-002;-1.242671860381961E-003;6.353905773721635E-004;
2.409666666666667E+009;1.890848577022553E-001;3.234509378671646E-002;-1.286325627006590E-003;6.135845324024558E-004;
2.409833333333334E+009;1.879814416170120E-001;3.096449188888073E-002;-1.265993574634194E-003;7.800727616995573E-004;
2.410000000000000E+009;1.869084984064102E-001;2.936307899653912E-002;-1.458372920751572E-003;7.858151220716536E-004;
2.410166666666667E+009;1.857771277427673E-001;2.752196788787842E-002;-1.534074777737260E-003;8.013407932594419E-004;
2.410333333333334E+009;1.847901493310928E-001;2.576581388711929E-002;-1.567255472764373E-003;6.712757167406380E-004;
2.410500000000000E+009;1.838320344686508E-001;2.384951896965504E-002;-1.517766504548490E-003;8.257078588940203E-004;
2.410666666666667E+009;1.829871833324432E-001;2.165812253952026E-002;-1.674692612141371E-003;8.966383757069707E-004;
2.410833333333334E+009;1.822983771562576E-001;1.951949298381805E-002;-1.847968203946948E-003;8.990070782601833E-004;
2.411000000000000E+009;1.813571006059647E-001;1.727447472512722E-002;-1.792854163795710E-003;1.002757227979600E-003;
2.411166666666667E+009;1.807896941900253E-001;1.504771038889885E-002;-1.746405498124659E-003;9.602280333638191E-004;
2.411333333333334E+009;1.802227199077606E-001;1.239905878901482E-002;-1.894785207696259E-003;1.072880113497376E-003;
2.411500000000000E+009;1.796074211597443E-001;1.010967325419188E-002;-1.816555624827743E-003;1.031167688779533E-003;
2.411666666666667E+009;1.795365512371063E-001;7.637639064341784E-003;-1.875407760962844E-003;1.012303982861340E-003;
2.411833333333334E+009;1.792033910751343E-001;5.274197552353144E-003;-1.942985458299518E-003;1.168210059404373E-003;
2.412000000000000E+009;1.793603450059891E-001;2.682893769815564E-003;-1.979328924790025E-003;1.213092938996851E-003;
2.412166666666667E+009;1.793479770421982E-001;1.172014672192745E-004;-2.055358607321978E-003;1.113578327931464E-003;
2.412333333333334E+009;1.795793473720551E-001;-2.271790290251374E-003;-2.421040320768952E-003;1.390950405038893E-003;
2.412500000000000E+009;1.799944490194321E-001;-4.787988495081663E-003;-2.269401215016842E-003;1.394484541378915E-003;
2.412666666666667E+009;1.805149018764496E-001;-7.386882323771715E-003;-2.322675427421928E-003;1.690660370513797E-003;
2.412833333333334E+009;1.811026632785797E-001;-9.999417699873447E-003;-2.437304006889463E-003;1.646148040890694E-003;
2.413000000000000E+009;1.818949878215790E-001;-1.256608124822378E-002;-2.264766255393624E-003;1.705181319266558E-003;
2.413166666666667E+009;1.828147321939468E-001;-1.475534122437239E-002;-2.354025607928634E-003;1.890442799776793E-003;
2.413333333333334E+009;1.837611943483353E-001;-1.714434474706650E-002;-2.567259827628732E-003;2.286303322762251E-003;
2.413500000000000E+009;1.848166733980179E-001;-1.960950158536434E-002;-2.618571510538459E-003;2.534295432269573E-003;
2.413666666666667E+009;1.858813315629959E-001;-2.177097648382187E-002;-2.667246619239450E-003;2.633952302858234E-003;
2.413833333333334E+009;1.870707571506500E-001;-2.384991757571697E-002;-2.611239440739155E-003;2.706340514123440E-003;
2.414000000000000E+009;1.880357712507248E-001;-2.600164152681828E-002;-2.491140505298972E-003;3.129531629383564E-003;
2.414166666666667E+009;1.894361078739166E-001;-2.770280838012695E-002;-2.362892497330904E-003;3.398238681256771E-003;
2.414333333333334E+009;1.906471997499466E-001;-2.991917915642262E-002;-2.290359465405345E-003;3.470022697001696E-003;
2.414500000000000E+009;1.919938623905182E-001;-3.153943270444870E-002;-2.030625706538558E-003;3.597642527893186E-003;
2.414666666666667E+009;1.933488696813583E-001;-3.290373459458351E-002;-2.053279196843505E-003;3.977255430072546E-003;
2.414833333333334E+009;1.945180296897888E-001;-3.444541618227959E-002;-1.749083632603288E-003;4.087758250534535E-003;
2.415000000000000E+009;1.957341283559799E-001;-3.572026640176773E-002;-1.568217994645238E-003;4.282763693481684E-003;
2.415166666666667E+009;1.971330493688583E-001;-3.691250085830689E-002;-1.418649684637785E-003;4.375045653432608E-003;
2.415333333333334E+009;1.983309239149094E-001;-3.800765424966812E-002;-1.095476909540594E-003;4.610500764101744E-003;
2.415500000000000E+009;1.994124203920364E-001;-3.879047557711601E-002;-9.011393995024264E-004;4.707458894699812E-003;
2.415666666666667E+009;2.005170285701752E-001;-3.956353664398193E-002;-6.827681791037321E-004;4.706456325948238E-003;
2.415833333333334E+009;2.014081925153732E-001;-4.026407375931740E-002;-4.813934501726180E-004;4.887423943728209E-003;
2.416000000000000E+009;2.023585736751556E-001;-4.082652181386948E-002;-8.289637480629608E-005;5.024431273341179E-003;
2.416166666666667E+009;2.031509727239609E-001;-4.130526632070541E-002;1.306278136326000E-004;5.043995101004839E-003;
2.416333333333334E+009;2.037539184093475E-001;-4.161043465137482E-002;5.065100849606097E-004;4.883847665041685E-003;
2.416500000000000E+009;2.043314725160599E-001;-4.202194884419441E-002;6.598524050787091E-004;4.921262618154287E-003;
2.416666666666667E+009;2.048015892505646E-001;-4.234351962804794E-002;9.960010647773743E-004;4.844646900892258E-003;
2.416833333333334E+009;2.049648314714432E-001;-4.233166202902794E-002;1.134085236117244E-003;4.817137494683266E-003;
2.417000000000000E+009;2.050981670618057E-001;-4.238791018724442E-002;1.434906967915595E-003;4.722555167973042E-003;
2.417166666666667E+009;2.047808170318604E-001;-4.234129935503006E-002;1.590371830388904E-003;4.703702870756388E-003;
2.417333333333334E+009;2.046004235744476E-001;-4.202282428741455E-002;1.913373358547688E-003;4.632089752703905E-003;
2.417500000000000E+009;2.044012099504471E-001;-4.213468357920647E-002;1.986201154068112E-003;4.421913530677557E-003;
2.417666666666667E+009;2.039013653993607E-001;-4.183725640177727E-002;2.194538014009595E-003;4.217757843434811E-003;
2.417833333333334E+009;2.034836113452911E-001;-4.158545285463333E-002;2.396469004452229E-003;4.135819151997566E-003;
2.418000000000000E+009;2.027961313724518E-001;-4.125910997390747E-002;2.693617483600974E-003;4.013066180050373E-003;
2.418166666666667E+009;2.019513100385666E-001;-4.108831286430359E-002;2.809232799336314E-003;3.852011635899544E-003;
2.418333333333334E+009;2.010434567928314E-001;-4.093328490853310E-002;2.816685941070318E-003;3.674526466056705E-003;
2.418500000000000E+009;1.999972462654114E-001;-4.100077599287033E-002;2.893395954743028E-003;3.641549730673432E-003;
2.418666666666667E+009;1.990405321121216E-001;-4.082495719194412E-002;3.099787747487426E-003;3.501972649246454E-003;
2.418833333333334E+009;1.976459175348282E-001;-4.091950505971909E-002;3.214548807591200E-003;3.223297884687781E-003;
2.419000000000000E+009;1.963934898376465E-001;-4.102897271513939E-002;3.122821683064103E-003;3.313741181045771E-003;
2.419166666666667E+009;1.950815618038178E-001;-4.136717319488525E-002;3.301664721220732E-003;3.086957614868879E-003;
2.419333333333334E+009;1.937008649110794E-001;-4.179561510682106E-002;3.505521686747670E-003;2.842842135578394E-003;
2.419500000000000E+009;1.919727474451065E-001;-4.205324500799179E-002;3.554770955815911E-003;2.689012093469501E-003;
2.419666666666667E+009;1.901887059211731E-001;-4.285885021090508E-002;3.571996465325356E-003;2.592392731457949E-003;
2.419833333333334E+009;1.886679232120514E-001;-4.352184012532234E-002;3.692132188007236E-003;2.592117292806506E-003;
2.420000000000000E+009;1.870749890804291E-001;-4.430381953716278E-002;3.680412890389562E-003;2.352555980905891E-003;
2.420166666666667E+009;1.852965354919434E-001;-4.518476501107216E-002;3.751897253096104E-003;2.268210984766483E-003;
2.420333333333334E+009;1.835882812738419E-001;-4.646652191877365E-002;3.817222081124783E-003;1.933494699187577E-003;
2.420500000000000E+009;1.817086189985275E-001;-4.773755371570587E-002;3.925791010260582E-003;1.800447818823159E-003;
2.420666666666667E+009;1.801699101924896E-001;-4.891944676637650E-002;3.981979098170996E-003;1.593666733242571E-003;
2.420833333333334E+009;1.783957332372665E-001;-5.036512017250061E-002;3.940012771636248E-003;1.727840513922274E-003;
2.421000000000000E+009;1.768830716609955E-001;-5.196730419993401E-002;3.956634551286697E-003;1.302838907577097E-003;
2.421166666666667E+009;1.753412336111069E-001;-5.362882465124130E-002;3.826242871582508E-003;1.269875676371157E-003;
2.421333333333334E+009;1.736030429601669E-001;-5.539227277040482E-002;3.958628047257662E-003;9.352705092169344E-004;
2.421500000000000E+009;1.723122894763947E-001;-5.739469081163406E-002;3.855196060612798E-003;9.239120408892632E-004;
2.421666666666667E+009;1.709542423486710E-001;-5.925853922963142E-002;3.795639378950000E-003;9.031632216647267E-004;
2.421833333333334E+009;1.697044372558594E-001;-6.104192510247231E-002;3.746317466720939E-003;5.939024849794805E-004;
2.422000000000000E+009;1.685083061456680E-001;-6.297731399536133E-002;3.777504898607731E-003;3.472960088402033E-004;
2.422166666666667E+009;1.677024960517883E-001;-6.521308422088623E-002;3.751593874767423E-003;4.253569350112230E-004;
2.422333333333334E+009;1.667085886001587E-001;-6.734108179807663E-002;3.648868296295404E-003;2.117896074196324E-004;
2.422500000000000E+009;1.658508628606796E-001;-6.948528438806534E-002;3.738596336916089E-003;8.751118730287999E-005;
2.422666666666667E+009;1.651197224855423E-001;-7.155723869800568E-002;3.584099002182484E-003;1.152749973698519E-004;
2.422833333333334E+009;1.646616905927658E-001;-7.384389638900757E-002;3.450609510764480E-003;-3.553441638359800E-005;
2.423000000000000E+009;1.638743132352829E-001;-7.586126029491425E-002;3.443094668909907E-003;1.965364208444953E-005;
2.423166666666667E+009;1.636416912078857E-001;-7.797280699014664E-002;3.316801041364670E-003;-1.990165910683572E-004;
2.423333333333334E+009;1.635171175003052E-001;-8.012433350086212E-002;3.240315243601799E-003;-3.610516141634435E-004;
2.423500000000000E+009;1.632855832576752E-001;-8.200760930776596E-002;3.115188563242555E-003;-2.930096525233239E-004;
2.423666666666667E+009;1.634225100278854E-001;-8.398300409317017E-002;3.196549601852894E-003;-4.615345969796181E-004;
2.423833333333334E+009;1.633759588003159E-001;-8.581130951642990E-002;3.071795217692852E-003;-3.331514890305698E-004;
2.424000000000000E+009;1.636733710765839E-001;-8.787374943494797E-002;3.099829191341996E-003;-4.120157391298562E-004;
2.424166666666667E+009;1.637245714664459E-001;-8.955071121454239E-002;3.127768170088530E-003;-4.969380097463727E-004;
2.424333333333334E+009;1.640126109123230E-001;-9.113610535860062E-002;3.129507414996624E-003;-5.229481612332165E-004;
2.424500000000000E+009;1.643449813127518E-001;-9.297424554824829E-002;2.907115267589688E-003;-3.016658010892570E-004;
2.424666666666667E+009;1.647653430700302E-001;-9.437896311283112E-002;3.003393299877644E-003;-4.954405594617128E-004;
2.424833333333334E+009;1.653512567281723E-001;-9.581231325864792E-002;2.873644465580583E-003;-5.891827167943120E-004;
2.425000000000000E+009;1.658370345830917E-001;-9.707136452198029E-002;2.891600131988525E-003;-4.186451260466129E-004;
2.425166666666667E+009;1.662147194147110E-001;-9.815056622028351E-002;2.919921185821295E-003;-6.126051302999258E-004;
2.425333333333334E+009;1.665640920400620E-001;-9.928091615438461E-002;2.917540259659290E-003;-6.324743735603988E-004;
2.425500000000000E+009;1.671997010707855E-001;-1.002577468752861E-001;3.039574483409524E-003;-5.924623692408204E-004;
2.425666666666667E+009;1.676419377326965E-001;-1.010119467973709E-001;2.984429476782680E-003;-8.218121365644038E-004;
2.425833333333334E+009;1.680708527565002E-001;-1.018669605255127E-001;2.890066709369421E-003;-9.267853456549346E-004;
2.426000000000000E+009;1.685414165258408E-001;-1.022825390100479E-001;2.912316704168916E-003;-8.499046671204269E-004;
2.426166666666667E+009;1.689542084932327E-001;-1.027899235486984E-001;2.988985273987055E-003;-9.011821239255369E-004;
2.426333333333334E+009;1.691669225692749E-001;-1.034293249249458E-001;3.007685532793403E-003;-9.842157596722245E-004;
2.426500000000000E+009;1.696605533361435E-001;-1.035583615303040E-001;3.041475778445602E-003;-8.824754040688276E-004;
2.426666666666667E+009;1.699597239494324E-001;-1.039548218250275E-001;3.096438944339752E-003;-1.055620377883315E-003;
2.426833333333334E+009;1.703058481216431E-001;-1.042087972164154E-001;3.123158589005470E-003;-1.198828103952110E-003;
2.427000000000000E+009;1.704409122467041E-001;-1.042746379971504E-001;3.012605709955096E-003;-1.367260352708399E-003;
2.427166666666667E+009;1.705939173698425E-001;-1.043862253427506E-001;2.938098972663283E-003;-1.459981664083898E-003;
2.427333333333334E+009;1.705749928951263E-001;-1.045204773545265E-001;2.897055353969336E-003;-1.387335592880845E-003;
2.427500000000000E+009;1.704145073890686E-001;-1.046145483851433E-001;2.996129449456930E-003;-1.508765271864831E-003;
2.427666666666667E+009;1.702678352594376E-001;-1.046793907880783E-001;2.830353798344731E-003;-1.596725196577609E-003;
2.427833333333334E+009;1.698407381772995E-001;-1.046454533934593E-001;2.903759246692061E-003;-1.718648360110819E-003;
