# Version 1.00
#
freq[Hz];re:Trc1_S11;im:Trc1_S11;re:Trc2_S21;im:Trc2_S21;
2.400000000000000E+009;1.582027226686478E-001;6.270442157983780E-002;-9.550355753162876E-005;3.613537410274148E-003;
2.400166666666667E+009;1.580203324556351E-001;6.103564426302910E-002;-2.153186942450702E-004;3.476909594610333E-003;
2.400333333333334E+009;1.579123437404633E-001;5.906883999705315E-002;-3.243951505282894E-005;3.530365880578756E-003;
2.400500000000000E+009;1.578036248683929E-001;5.735066533088684E-002;2.271450102853123E-005;3.600236261263490E-003;
2.400666666666667E+009;1.577114611864090E-001;5.530917271971703E-002;2.391165617154911E-004;3.464690642431378E-003;
2.400833333333334E+009;1.577134132385254E-001;5.345425382256508E-002;3.627962432801724E-004;3.569640684872866E-003;
2.401000000000000E+009;1.578727066516876E-001;5.132001265883446E-002;4.963715909980238E-004;3.393365070223808E-003;
2.401166666666667E+009;1.581503599882126E-001;4.907191544771195E-002;4.129757580813021E-004;3.496941411867738E-003;
2.401333333333334E+009;1.580210030078888E-001;4.704799130558968E-002;5.694167339242995E-004;3.398262662813067E-003;
2.401500000000000E+009;1.584832072257996E-001;4.489734768867493E-002;6.894111866131425E-004;3.418993437662721E-003;
2.401666666666667E+009;1.587885469198227E-001;4.307644814252853E-002;6.781248375773430E-004;3.521575126796961E-003;
2.401833333333334E+009;1.590395420789719E-001;4.084296151995659E-002;8.123511215671897E-004;3.313491120934486E-003;
2.402000000000000E+009;1.593059599399567E-001;3.892911598086357E-002;8.644924382679164E-004;3.345911856740713E-003;
2.402166666666667E+009;1.598680317401886E-001;3.678728267550468E-002;1.111501711420715E-003;3.294198075309396E-003;
2.402333333333334E+009;1.606181263923645E-001;3.506719321012497E-002;1.004791469313204E-003;3.237539902329445E-003;
2.402500000000000E+009;1.614808142185211E-001;3.320636227726936E-002;1.227633678354323E-003;3.283610101789236E-003;
2.402666666666667E+009;1.619172245264053E-001;3.133962675929070E-002;1.339087844826281E-003;3.051253966987133E-003;
2.402833333333334E+009;1.626090556383133E-001;2.974138781428337E-002;1.422896049916744E-003;3.256689757108688E-003;
2.403000000000000E+009;1.634252816438675E-001;2.805230394005776E-002;1.478803111240268E-003;3.248482942581177E-003;
2.403166666666667E+009;1.643446534872055E-001;2.633167803287506E-002;1.487292931415141E-003;3.223269945010543E-003;
2.403333333333334E+009;1.653318703174591E-001;2.491703815758228E-002;1.568907871842384E-003;3.074392909184098E-003;
2.403500000000000E+009;1.660083532333374E-001;2.338452264666557E-002;1.673873164691031E-003;2.892429474741221E-003;
2.403666666666667E+009;1.670724898576737E-001;2.196771278977394E-002;1.843692734837532E-003;2.961785299703479E-003;
2.403833333333334E+009;1.681332439184189E-001;2.087344788014889E-002;1.981000415980816E-003;2.978105563670397E-003;
2.404000000000000E+009;1.692429631948471E-001;1.967128366231918E-002;2.192345447838306E-003;2.917971462011337E-003;
2.404166666666667E+009;1.702217459678650E-001;1.845628768205643E-002;2.219795715063810E-003;2.809370169416070E-003;
2.404333333333334E+009;1.711096763610840E-001;1.743829809129238E-002;2.320145489647985E-003;2.725230762735009E-003;
2.404500000000000E+009;1.719997972249985E-001;1.632214896380901E-002;2.351796720176935E-003;2.706231316551566E-003;
2.404666666666667E+009;1.730455011129379E-001;1.575952209532261E-002;2.409589709714055E-003;2.747376449406147E-003;
2.404833333333334E+009;1.739684194326401E-001;1.484711561352015E-002;2.418186981230974E-003;2.511388855054975E-003;
2.405000000000000E+009;1.748696565628052E-001;1.406844425946474E-002;2.644337946549058E-003;2.519541652873159E-003;
2.405166666666667E+009;1.755702048540115E-001;1.358466129750013E-002;2.693760208785534E-003;2.538724336773157E-003;
2.405333333333334E+009;1.763871014118195E-001;1.270223595201969E-002;2.928588772192597E-003;2.189058344811201E-003;
2.405500000000000E+009;1.772370934486389E-001;1.241733226925135E-002;2.957766177132726E-003;2.164095640182495E-003;
2.405666666666667E+009;1.779303103685379E-001;1.183617394417524E-002;2.895707031711936E-003;2.138286596164107E-003;
2.405833333333334E+009;1.784155517816544E-001;1.158446352928877E-002;3.182174637913704E-003;2.182348631322384E-003;
2.406000000000000E+009;1.791328787803650E-001;1.116920448839665E-002;3.098295768722892E-003;2.128900960087776E-003;
2.406166666666667E+009;1.794660240411758E-001;1.078206766396761E-002;3.328579245135188E-003;1.909493003040552E-003;
2.406333333333334E+009;1.801337003707886E-001;1.059240195900202E-002;3.347673919051886E-003;1.880271476693451E-003;
2.406500000000000E+009;1.802811473608017E-001;1.013747602701187E-002;3.491497831419110E-003;1.621776376850903E-003;
2.406666666666667E+009;1.805195659399033E-001;1.007462106645107E-002;3.452895442023873E-003;1.550400280393660E-003;
2.406833333333334E+009;1.807169020175934E-001;9.624529629945755E-003;3.686374286189675E-003;1.357718603685498E-003;
2.407000000000000E+009;1.808977425098419E-001;9.291557595133781E-003;3.550104564055800E-003;1.338588306680322E-003;
2.407166666666667E+009;1.810066550970078E-001;9.049125947058201E-003;3.702251706272364E-003;1.333111082203686E-003;
2.407333333333334E+009;1.807584613561630E-001;8.471332490444183E-003;3.831538371741772E-003;1.005306490696967E-003;
2.407500000000000E+009;1.807223707437515E-001;8.180003613233566E-003;3.707945812493563E-003;1.015683519653976E-003;
2.407666666666667E+009;1.804560124874115E-001;7.852677255868912E-003;3.884682664647698E-003;8.346486720256507E-004;
2.407833333333334E+009;1.801524907350540E-001;7.201690226793289E-003;3.761128988116980E-003;4.881131171714515E-004;
2.408000000000000E+009;1.798153966665268E-001;6.519969552755356E-003;3.828727407380939E-003;3.125848597846925E-004;
2.408166666666667E+009;1.792263984680176E-001;6.045502144843340E-003;3.836536779999733E-003;2.031345647992566E-004;
2.408333333333334E+009;1.789897382259369E-001;5.328674335032702E-003;3.890484571456909E-003;1.412253623129800E-004;
2.408500000000000E+009;1.783152967691422E-001;4.515793174505234E-003;3.990590106695890E-003;-2.282717832713388E-005;
2.408666666666667E+009;1.777270436286926E-001;3.675997024402022E-003;3.958441782742739E-003;-1.605292782187462E-004;
2.408833333333334E+009;1.771043092012405E-001;2.670983551070094E-003;3.937367349863052E-003;-3.582515055313706E-004;
2.409000000000000E+009;1.764682084321976E-001;1.728616072796285E-003;3.861661767587066E-003;-3.690127050504088E-004;
2.409166666666667E+009;1.756609082221985E-001;6.606731330975890E-004;3.904171055182815E-003;-6.513650878332555E-004;
2.409333333333334E+009;1.751453131437302E-001;-6.888580392114818E-004;3.847854211926460E-003;-7.975180633366108E-004;
2.409500000000000E+009;1.742640584707260E-001;-2.096651354804635E-003;3.882944816723466E-003;-9.951347019523382E-004;
2.409666666666667E+009;1.737542450428009E-001;-3.351652994751930E-003;3.771600546315312E-003;-9.950773091986775E-004;
2.409833333333334E+009;1.727786064147949E-001;-4.714597016572952E-003;3.522567683830857E-003;-1.148985116742551E-003;
2.410000000000000E+009;1.724880039691925E-001;-6.365724839270115E-003;3.554035210981965E-003;-1.235788804478943E-003;
2.410166666666667E+009;1.717071831226349E-001;-7.797316182404757E-003;3.575529670342803E-003;-1.307269907556474E-003;
2.410333333333334E+009;1.710470914840698E-001;-9.540839120745659E-003;3.515021409839392E-003;-1.676788902841508E-003;
2.410500000000000E+009;1.704065352678299E-001;-1.119634974747896E-002;3.370126942172647E-003;-1.682052505202591E-003;
2.410666666666667E+009;1.698692888021469E-001;-1.307371538132429E-002;3.219113918021321E-003;-1.846372033469379E-003;
2.410833333333334E+009;1.694463193416596E-001;-1.465165149420500E-002;3.194406162947416E-003;-1.973490230739117E-003;
2.411000000000000E+009;1.689673811197281E-001;-1.665524020791054E-002;3.044964745640755E-003;-2.126948907971382E-003;
2.411166666666667E+009;1.685624867677689E-001;-1.860437169671059E-002;3.070850390940905E-003;-2.110437722876668E-003;
2.411333333333334E+009;1.684150695800781E-001;-2.048428915441036E-002;2.882598433643580E-003;-2.376735210418701E-003;
2.411500000000000E+009;1.680666208267212E-001;-2.241951785981655E-002;2.779880305752158E-003;-2.362482016906142E-003;
2.411666666666667E+009;1.679825484752655E-001;-2.441665157675743E-002;2.629900118336082E-003;-2.487173071131110E-003;
2.411833333333334E+009;1.677987426519394E-001;-2.631957270205021E-002;2.582325832918286E-003;-2.546067349612713E-003;
2.412000000000000E+009;1.680357754230499E-001;-2.834539487957954E-002;2.444491488859057E-003;-2.574225189164281E-003;
2.412166666666667E+009;1.678984314203262E-001;-3.038218989968300E-002;2.382787643000484E-003;-2.686745487153530E-003;
2.412333333333334E+009;1.683422327041626E-001;-3.215016797184944E-002;2.152345143258572E-003;-2.593477955088019E-003;
2.412500000000000E+009;1.683902144432068E-001;-3.402863070368767E-002;2.076727803796530E-003;-2.969535067677498E-003;
2.412666666666667E+009;1.687358170747757E-001;-3.600466251373291E-002;1.849992666393518E-003;-2.835892606526613E-003;
2.412833333333334E+009;1.690160632133484E-001;-3.777074813842773E-002;1.776718185283244E-003;-2.897438826039434E-003;
2.413000000000000E+009;1.693647652864456E-001;-3.966487199068070E-002;1.521806232631207E-003;-2.969301538541913E-003;
2.413166666666667E+009;1.697870790958405E-001;-4.130430519580841E-002;1.587939215824008E-003;-2.946815686300397E-003;
2.413333333333334E+009;1.702131479978561E-001;-4.304547235369682E-002;1.361388014629483E-003;-2.944764913991094E-003;
2.413500000000000E+009;1.707707643508911E-001;-4.463204741477966E-002;1.361955190077424E-003;-3.137090243399143E-003;
2.413666666666667E+009;1.711874306201935E-001;-4.640248417854309E-002;1.191491261124611E-003;-3.109576646238565E-003;
2.413833333333334E+009;1.718181073665619E-001;-4.768179729580879E-002;1.026194076985121E-003;-3.115412546321750E-003;
2.414000000000000E+009;1.723609119653702E-001;-4.930224642157555E-002;8.204909972846508E-004;-3.051531501114368E-003;
2.414166666666667E+009;1.729768216609955E-001;-5.052774399518967E-002;8.765558595769107E-004;-3.075123997405171E-003;
2.414333333333334E+009;1.734428554773331E-001;-5.195394903421402E-002;6.632096483372152E-004;-3.130700904875994E-003;
2.414500000000000E+009;1.740884035825729E-001;-5.278829857707024E-002;3.793877840507776E-004;-3.151219571009278E-003;
2.414666666666667E+009;1.747293323278427E-001;-5.391601473093033E-002;3.611719293985516E-004;-3.093994921073318E-003;
2.414833333333334E+009;1.750702261924744E-001;-5.490121990442276E-002;3.237182390876114E-004;-3.173621138557792E-003;
2.415000000000000E+009;1.753920912742615E-001;-5.577013269066811E-002;1.512892195023596E-004;-3.056320361793041E-003;
2.415166666666667E+009;1.759857535362244E-001;-5.654402822256088E-002;6.402566941687837E-005;-3.135587554425001E-003;
2.415333333333334E+009;1.764311939477921E-001;-5.724242702126503E-002;-1.262782170670107E-004;-2.985688159242272E-003;
2.415500000000000E+009;1.767126172780991E-001;-5.786768347024918E-002;-3.288736625108868E-004;-3.005779813975096E-003;
2.415666666666667E+009;1.769686937332153E-001;-5.844463780522347E-002;-3.838792617898434E-004;-2.938233781605959E-003;
2.415833333333334E+009;1.773247420787811E-001;-5.889752879738808E-002;-3.909646184183657E-004;-2.903783926740289E-003;
2.416000000000000E+009;1.772695034742355E-001;-5.929685384035111E-002;-5.214542034082115E-004;-2.919711405411363E-003;
2.416166666666667E+009;1.775965988636017E-001;-5.971348658204079E-002;-6.737986113876104E-004;-2.671091817319393E-003;
2.416333333333334E+009;1.775583773851395E-001;-5.996229499578476E-002;-6.961818435229361E-004;-2.615320729091764E-003;
2.416500000000000E+009;1.774026304483414E-001;-6.033825874328613E-002;-7.976368651725352E-004;-2.508091740310192E-003;
2.416666666666667E+009;1.772432178258896E-001;-6.048533320426941E-002;-8.511919877491891E-004;-2.644713968038559E-003;
2.416833333333334E+009;1.770731210708618E-001;-6.083429604768753E-002;-8.706385269761086E-004;-2.514107851311564E-003;
2.417000000000000E+009;1.765552461147308E-001;-6.110937520861626E-002;-9.548927773721516E-004;-2.362523693591356E-003;
2.417166666666667E+009;1.762332022190094E-001;-6.116250902414322E-002;-1.152863376773894E-003;-2.324991161003709E-003;
2.417333333333334E+009;1.757303178310394E-001;-6.136089190840721E-002;-1.075415988452733E-003;-2.293727360665798E-003;
2.417500000000000E+009;1.750138998031616E-001;-6.171022355556488E-002;-1.192654832266271E-003;-2.215977990999818E-003;
2.417666666666667E+009;1.744814515113831E-001;-6.183695793151856E-002;-1.240534242242575E-003;-2.140590222552419E-003;
2.417833333333334E+009;1.736469715833664E-001;-6.204134970903397E-002;-1.209767418913543E-003;-2.013696124777198E-003;
2.418000000000000E+009;1.727031022310257E-001;-6.238869950175285E-002;-1.379045774228871E-003;-1.944540068507195E-003;
2.418166666666667E+009;1.717336475849152E-001;-6.257168203592300E-002;-1.345593016594648E-003;-2.039327751845121E-003;
2.418333333333334E+009;1.711024791002274E-001;-6.301595270633698E-002;-1.341787050478160E-003;-1.817819895222783E-003;
2.418500000000000E+009;1.699726283550263E-001;-6.338022649288178E-002;-1.285215723328292E-003;-1.899882336147130E-003;
2.418666666666667E+009;1.689591109752655E-001;-6.401334702968597E-002;-1.498416881076992E-003;-1.786941080354154E-003;
2.418833333333334E+009;1.677649468183518E-001;-6.452488899230957E-002;-1.575049245730043E-003;-1.629512989893556E-003;
2.419000000000000E+009;1.665541976690292E-001;-6.496492773294449E-002;-1.461435924284160E-003;-1.467428286559880E-003;
2.419166666666667E+009;1.653575599193573E-001;-6.571839749813080E-002;-1.571200788021088E-003;-1.430470496416092E-003;
2.419333333333334E+009;1.640171855688095E-001;-6.628750264644623E-002;-1.647860975936055E-003;-1.486552180722356E-003;
2.419500000000000E+009;1.629047095775604E-001;-6.722435355186462E-002;-1.695918152108789E-003;-1.421106397174299E-003;
2.419666666666667E+009;1.616535931825638E-001;-6.814406812191010E-002;-1.554269110783935E-003;-1.267180079594255E-003;
2.419833333333334E+009;1.605620831251144E-001;-6.900356709957123E-002;-1.719047315418720E-003;-1.241870806552470E-003;
2.420000000000000E+009;1.594916582107544E-001;-7.010579854249954E-002;-1.627719029784203E-003;-1.233715680427849E-003;
2.420166666666667E+009;1.582843512296677E-001;-7.112907618284226E-002;-1.688951510004699E-003;-1.076308893971145E-003;
2.420333333333334E+009;1.571944206953049E-001;-7.223992794752121E-002;-1.557209761813283E-003;-1.038399175740778E-003;
2.420500000000000E+009;1.562393009662628E-001;-7.335000485181809E-002;-1.689141034148634E-003;-9.717035572975874E-004;
2.420666666666667E+009;1.553524136543274E-001;-7.483714073896408E-002;-1.873050350695849E-003;-8.470483589917421E-004;
2.420833333333334E+009;1.543107479810715E-001;-7.628864794969559E-002;-1.672677695751190E-003;-6.226660334505141E-004;
2.421000000000000E+009;1.533872187137604E-001;-7.771908491849899E-002;-1.771579147316515E-003;-6.736533832736313E-004;
2.421166666666667E+009;1.527021676301956E-001;-7.913710922002792E-002;-1.787520945072174E-003;-6.654323660768569E-004;
2.421333333333334E+009;1.521444618701935E-001;-8.090698719024658E-002;-1.652415841817856E-003;-5.111037171445787E-004;
2.421500000000000E+009;1.514234989881516E-001;-8.239332586526871E-002;-1.697938423603773E-003;-5.820816149935126E-004;
2.421666666666667E+009;1.508863568305969E-001;-8.399293571710587E-002;-1.781507511623204E-003;-3.945848438888788E-004;
2.421833333333334E+009;1.504727602005005E-001;-8.558050543069840E-002;-1.770298578776419E-003;-3.825290768872947E-004;
2.422000000000000E+009;1.500903517007828E-001;-8.737039566040039E-002;-1.572143286466599E-003;-2.259923494420946E-004;
2.422166666666667E+009;1.498645991086960E-001;-8.925887942314148E-002;-1.585617777891457E-003;-1.550593879073858E-004;
2.422333333333334E+009;1.496975868940353E-001;-9.086782485246658E-002;-1.744824810884893E-003;-2.980058707180433E-005;
2.422500000000000E+009;1.494066566228867E-001;-9.242410212755203E-002;-1.445222180336714E-003;-6.443497113650665E-005;
2.422666666666667E+009;1.492674201726914E-001;-9.433747082948685E-002;-1.608488033525646E-003;1.224681036546826E-004;
2.422833333333334E+009;1.494633108377457E-001;-9.604730457067490E-002;-1.427789917215705E-003;1.402342377332388E-006;
2.423000000000000E+009;1.495763510465622E-001;-9.767640382051468E-002;-1.411697710864246E-003;1.493765739724040E-004;
2.423166666666667E+009;1.499193757772446E-001;-9.948720782995224E-002;-1.319737057201564E-003;2.447309670969844E-004;
2.423333333333334E+009;1.502877026796341E-001;-1.007559448480606E-001;-1.262258039787412E-003;2.965130843222141E-004;
2.423500000000000E+009;1.504923999309540E-001;-1.022851988673210E-001;-1.345722936093807E-003;2.713261637836695E-004;
2.423666666666667E+009;1.506865769624710E-001;-1.041263863444328E-001;-1.279276330024004E-003;3.038981230929494E-004;
2.423833333333334E+009;1.512944698333740E-001;-1.054114475846291E-001;-1.133910496719182E-003;3.192264703102410E-004;
2.424000000000000E+009;1.515178829431534E-001;-1.067005619406700E-001;-1.113950624130666E-003;3.733245248440653E-004;
2.424166666666667E+009;1.519652158021927E-001;-1.081077978014946E-001;-8.199751609936357E-004;2.868860901799053E-004;
2.424333333333334E+009;1.525519490242004E-001;-1.092904210090637E-001;-9.643394732847810E-004;4.293339443393052E-004;
2.424500000000000E+009;1.531020402908325E-001;-1.106775552034378E-001;-8.723926730453968E-004;4.351739189587534E-004;
2.424666666666667E+009;1.536480039358139E-001;-1.115762516856194E-001;-7.592960610054433E-004;3.562671772670001E-004;
2.424833333333334E+009;1.540465801954269E-001;-1.126023009419441E-001;-7.315562106668949E-004;4.852623096667230E-004;
2.425000000000000E+009;1.544796079397202E-001;-1.135785579681397E-001;-6.917672581039369E-004;4.645375884138048E-004;
2.425166666666667E+009;1.547333747148514E-001;-1.144585162401199E-001;-5.545164458453655E-004;3.981182817369700E-004;
2.425333333333334E+009;1.553333699703217E-001;-1.152316331863403E-001;-4.883138462901115E-004;3.851888177450746E-004;
2.425500000000000E+009;1.558325737714768E-001;-1.159424483776093E-001;-5.678388988599181E-004;3.124309878330678E-004;
2.425666666666667E+009;1.559282690286636E-001;-1.165651306509972E-001;-4.730692016892135E-004;2.062322600977495E-004;
2.425833333333334E+009;1.561229676008225E-001;-1.171270683407784E-001;-3.912099928129464E-004;2.626249333843589E-004;
2.426000000000000E+009;1.563274711370468E-001;-1.177164912223816E-001;-3.872188099194318E-004;3.244200197514147E-004;
2.426166666666667E+009;1.566619873046875E-001;-1.180221661925316E-001;-3.047190257348120E-004;2.724713413044810E-004;
2.426333333333334E+009;1.565545648336411E-001;-1.183548569679260E-001;-3.257867647334933E-004;2.441213000565767E-004;
2.426500000000000E+009;1.565999388694763E-001;-1.186489015817642E-001;-3.121329064015299E-004;1.706099428702146E-004;
2.426666666666667E+009;1.565794497728348E-001;-1.186207979917526E-001;-3.612714644987136E-004;9.637173207011074E-005;
2.426833333333334E+009;1.564682424068451E-001;-1.189239397644997E-001;-2.063042775262147E-004;5.976001921226271E-005;
2.427000000000000E+009;1.559876352548599E-001;-1.191509589552879E-001;-2.932234783656895E-004;1.723763707559556E-004;
2.427166666666667E+009;1.556339114904404E-001;-1.191280484199524E-001;-2.582774322945625E-004;-9.351566404802725E-005;
2.427333333333334E+009;1.550594419240952E-001;-1.193103566765785E-001;-1.887965918285772E-004;-5.712191705242731E-005;
2.427500000000000E+009;1.546373963356018E-001;-1.193431541323662E-001;-2.671968832146376E-004;-1.843512873165309E-004;
2.427666666666667E+009;1.538739800453186E-001;-1.194114089012146E-001;-2.652146795298904E-004;-8.753749716561288E-005;
