# Version 1.00
#
freq[Hz];re:Trc1_S11;im:Trc1_S11;re:Trc2_S21;im:Trc2_S21;
2.400000000000000E+009;1.582123190164566E-001;6.278655678033829E-002;-2.020092506427318E-004;3.343738149851561E-003;
2.400166666666667E+009;1.580529808998108E-001;6.109251081943512E-002;-7.301443838514388E-005;3.275922266766429E-003;
2.400333333333334E+009;1.578042656183243E-001;5.919330567121506E-002;1.136307764681988E-004;3.246468491852284E-003;
2.400500000000000E+009;1.578910201787949E-001;5.704564228653908E-002;1.941888913279399E-004;3.345092525705695E-003;
2.400666666666667E+009;1.577723771333695E-001;5.509449914097786E-002;3.199073253199458E-004;3.296670271083713E-003;
2.400833333333334E+009;1.578393727540970E-001;5.336748808622360E-002;3.358468238729984E-004;3.370893653482199E-003;
2.401000000000000E+009;1.580078005790710E-001;5.128575861454010E-002;3.341023693792522E-004;3.298272611573339E-003;
2.401166666666667E+009;1.580508202314377E-001;4.902925342321396E-002;5.251920665614307E-004;3.350486513227224E-003;
2.401333333333334E+009;1.581003814935684E-001;4.693710803985596E-002;5.084498552605510E-004;3.196706762537360E-003;
2.401500000000000E+009;1.586062908172607E-001;4.478121921420097E-002;7.138238870538771E-004;3.292853012681007E-003;
2.401666666666667E+009;1.586084514856339E-001;4.309423267841339E-002;6.914957193657756E-004;3.183878026902676E-003;
2.401833333333334E+009;1.590918302536011E-001;4.079578071832657E-002;7.826866931281984E-004;3.058373928070068E-003;
2.402000000000000E+009;1.594272702932358E-001;3.885270655155182E-002;9.639479685574770E-004;3.096370492130518E-003;
2.402166666666667E+009;1.601239591836929E-001;3.669055178761482E-002;1.020856783725321E-003;3.223533509299159E-003;
2.402333333333334E+009;1.604634821414948E-001;3.484983369708061E-002;1.060029957443476E-003;3.125446615740657E-003;
2.402500000000000E+009;1.612829118967056E-001;3.311741724610329E-002;1.043510274030268E-003;3.059396287426353E-003;
2.402666666666667E+009;1.619425863027573E-001;3.129459917545319E-002;1.270687556825578E-003;2.951113041490316E-003;
2.402833333333334E+009;1.626858413219452E-001;2.966382354497910E-002;1.288541941903532E-003;3.090598853304982E-003;
2.403000000000000E+009;1.634675860404968E-001;2.787410840392113E-002;1.418074127286673E-003;3.077737521380186E-003;
2.403166666666667E+009;1.642315983772278E-001;2.638911642134190E-002;1.533332513645291E-003;2.836616942659020E-003;
2.403333333333334E+009;1.653422862291336E-001;2.489104121923447E-002;1.694227103143930E-003;2.889180788770318E-003;
2.403500000000000E+009;1.660987585783005E-001;2.338230423629284E-002;1.740832929499447E-003;2.818837761878967E-003;
2.403666666666667E+009;1.671111434698105E-001;2.189955487847328E-002;1.878552953712642E-003;2.672212431207299E-003;
2.403833333333334E+009;1.680831909179688E-001;2.048745006322861E-002;2.073749201372266E-003;2.752932254225016E-003;
2.404000000000000E+009;1.690370291471481E-001;1.944975368678570E-002;2.036178717389703E-003;2.644037129357457E-003;
2.404166666666667E+009;1.700581312179565E-001;1.838005520403385E-002;1.951679703779519E-003;2.702530007809401E-003;
2.404333333333334E+009;1.710352003574371E-001;1.751065999269486E-002;2.257191343232989E-003;2.694559050723910E-003;
2.404500000000000E+009;1.719601005315781E-001;1.638016290962696E-002;2.169886603951454E-003;2.580164000391960E-003;
2.404666666666667E+009;1.728257685899735E-001;1.562906056642532E-002;2.243314404040575E-003;2.441127784550190E-003;
2.404833333333334E+009;1.738785356283188E-001;1.478626951575279E-002;2.452850807458162E-003;2.364545594900847E-003;
2.405000000000000E+009;1.747372746467590E-001;1.400673482567072E-002;2.483418677002192E-003;2.377403201535344E-003;
2.405166666666667E+009;1.756691485643387E-001;1.339662913233042E-002;2.603656612336636E-003;2.448744839057326E-003;
2.405333333333334E+009;1.764825284481049E-001;1.270677335560322E-002;2.686458406969905E-003;2.398640615865588E-003;
2.405500000000000E+009;1.772726625204086E-001;1.228043623268604E-002;2.689019544050098E-003;2.300561172887683E-003;
2.405666666666667E+009;1.778578311204910E-001;1.197392959147692E-002;2.831584773957729E-003;2.264772541821003E-003;
2.405833333333334E+009;1.784124821424484E-001;1.153549551963806E-002;2.825282746925950E-003;2.163902623578906E-003;
2.406000000000000E+009;1.790140122175217E-001;1.111516728997231E-002;3.026962047442794E-003;2.177106449380517E-003;
2.406166666666667E+009;1.792910993099213E-001;1.077479496598244E-002;3.137184539809823E-003;1.863682875409722E-003;
2.406333333333334E+009;1.800843328237534E-001;1.055063121020794E-002;3.246425185352564E-003;1.731478609144688E-003;
2.406500000000000E+009;1.802242100238800E-001;1.017400901764631E-002;3.559872042387724E-003;1.744646462611854E-003;
2.406666666666667E+009;1.805083900690079E-001;9.856065735220909E-003;3.328460035845637E-003;1.504729501903057E-003;
2.406833333333334E+009;1.806513369083405E-001;9.629425592720509E-003;3.464845474809408E-003;1.374569255858660E-003;
2.407000000000000E+009;1.807449162006378E-001;9.113936685025692E-003;3.356222063302994E-003;1.448430237360299E-003;
2.407166666666667E+009;1.809149980545044E-001;9.137081913650036E-003;3.430918557569385E-003;1.225652638822794E-003;
2.407333333333334E+009;1.808972209692001E-001;8.515369147062302E-003;3.658785950392485E-003;1.025589299388230E-003;
2.407500000000000E+009;1.805614531040192E-001;8.227751590311527E-003;3.662783419713378E-003;1.027013640850782E-003;
2.407666666666667E+009;1.803840249776840E-001;7.848312146961689E-003;3.768167691305280E-003;7.462152279913425E-004;
2.407833333333334E+009;1.801234781742096E-001;7.148925680667162E-003;3.786806017160416E-003;6.394859519787133E-004;
2.408000000000000E+009;1.797367036342621E-001;6.623879540711641E-003;3.767248708754778E-003;5.055568180978298E-004;
2.408166666666667E+009;1.791564226150513E-001;6.117699202150106E-003;3.819130826741457E-003;3.742562548723072E-004;
2.408333333333334E+009;1.788161844015122E-001;5.418944172561169E-003;3.828271524980664E-003;1.758479775162414E-004;
2.408500000000000E+009;1.783564090728760E-001;4.580593202263117E-003;3.840020392090082E-003;8.154955139616504E-005;
2.408666666666667E+009;1.776089817285538E-001;3.518872661516070E-003;3.943017683923245E-003;-1.722032466204837E-004;
2.408833333333334E+009;1.768960654735565E-001;2.723513869568706E-003;3.894499503076077E-003;-2.953445073217154E-004;
2.409000000000000E+009;1.763461679220200E-001;1.710312324576080E-003;3.746308153495193E-003;-4.418314492795616E-004;
2.409166666666667E+009;1.757025718688965E-001;5.990798817947507E-004;3.903246950358152E-003;-5.283735808916390E-004;
2.409333333333334E+009;1.752681434154511E-001;-7.021904457360506E-004;3.649380756542087E-003;-6.790984771214426E-004;
2.409500000000000E+009;1.745572984218597E-001;-1.866154838353396E-003;3.755482146516442E-003;-7.806171779520810E-004;
2.409666666666667E+009;1.736509501934052E-001;-3.283588448539376E-003;3.698462154716253E-003;-1.032684347592294E-003;
2.409833333333334E+009;1.729216277599335E-001;-4.608828574419022E-003;3.622221061959863E-003;-1.168440096080303E-003;
2.410000000000000E+009;1.724417805671692E-001;-6.137228105217218E-003;3.524591214954853E-003;-1.107411924749613E-003;
2.410166666666667E+009;1.717045158147812E-001;-7.668506354093552E-003;3.539202036336064E-003;-1.355936517938972E-003;
2.410333333333334E+009;1.710461825132370E-001;-9.527429938316345E-003;3.392400685697794E-003;-1.521541620604694E-003;
2.410500000000000E+009;1.704752147197723E-001;-1.121751684695482E-002;3.409291617572308E-003;-1.689599594101310E-003;
2.410666666666667E+009;1.699336469173431E-001;-1.298292540013790E-002;3.167491871863604E-003;-1.773318392224610E-003;
2.410833333333334E+009;1.694550663232803E-001;-1.479660719633102E-002;3.147558076307178E-003;-1.853424008004367E-003;
2.411000000000000E+009;1.690096557140350E-001;-1.669708639383316E-002;3.074668347835541E-003;-1.953563652932644E-003;
2.411166666666667E+009;1.686010211706162E-001;-1.857811771333218E-002;3.022940130904317E-003;-1.970177050679922E-003;
2.411333333333334E+009;1.685025840997696E-001;-2.038753218948841E-002;2.885357709601522E-003;-2.228773664683104E-003;
2.411500000000000E+009;1.679712235927582E-001;-2.249235659837723E-002;2.816502936184406E-003;-2.225075149908662E-003;
2.411666666666667E+009;1.680364459753037E-001;-2.442058548331261E-002;2.714776201173663E-003;-2.390950452536345E-003;
2.411833333333334E+009;1.681203246116638E-001;-2.638347074389458E-002;2.606404479593039E-003;-2.533111721277237E-003;
2.412000000000000E+009;1.681898236274719E-001;-2.842636778950691E-002;2.347082830965519E-003;-2.514237305149436E-003;
2.412166666666667E+009;1.680510491132736E-001;-3.028651326894760E-002;2.326531102880836E-003;-2.662862651050091E-003;
2.412333333333334E+009;1.685125380754471E-001;-3.218539059162140E-002;2.043071202933788E-003;-2.787187695503235E-003;
2.412500000000000E+009;1.683970838785172E-001;-3.411350399255753E-002;2.002277178689838E-003;-2.755746943876147E-003;
2.412666666666667E+009;1.686744540929794E-001;-3.598170354962349E-002;1.911999075673521E-003;-2.823075512424111E-003;
2.412833333333334E+009;1.692491918802261E-001;-3.786792606115341E-002;1.753671909682453E-003;-2.812854945659638E-003;
2.413000000000000E+009;1.693064570426941E-001;-3.967844322323799E-002;1.822720281779766E-003;-2.827094169333577E-003;
2.413166666666667E+009;1.697802096605301E-001;-4.136394336819649E-002;1.570137566886842E-003;-2.967166248708963E-003;
2.413333333333334E+009;1.703325659036636E-001;-4.313565045595169E-002;1.364246010780335E-003;-2.961186924949288E-003;
2.413500000000000E+009;1.708343029022217E-001;-4.478909820318222E-002;1.319108996540308E-003;-3.044454613700509E-003;
2.413666666666667E+009;1.713662445545197E-001;-4.642426595091820E-002;1.073617837391794E-003;-3.113849321380258E-003;
2.413833333333334E+009;1.717454642057419E-001;-4.782242700457573E-002;9.891253430396318E-004;-2.994849579408765E-003;
2.414000000000000E+009;1.722917854785919E-001;-4.929311200976372E-002;9.057773859240115E-004;-3.170265350490809E-003;
2.414166666666667E+009;1.729739755392075E-001;-5.060974135994911E-002;7.050860440358520E-004;-3.046965459361672E-003;
2.414333333333334E+009;1.734530925750732E-001;-5.173582956194878E-002;6.787857855670154E-004;-3.048237180337310E-003;
2.414500000000000E+009;1.740251183509827E-001;-5.288538336753845E-002;5.202968022786081E-004;-3.036499721929431E-003;
2.414666666666667E+009;1.745760738849640E-001;-5.392631143331528E-002;4.432954592630267E-004;-2.899799030274153E-003;
2.414833333333334E+009;1.750513911247253E-001;-5.500009283423424E-002;3.336404333822429E-004;-3.079958492890000E-003;
2.415000000000000E+009;1.754810065031052E-001;-5.583440884947777E-002;1.123300680774264E-004;-2.935152966529131E-003;
2.415166666666667E+009;1.759233176708221E-001;-5.657525360584259E-002;1.805211504688487E-004;-2.909811446443200E-003;
2.415333333333334E+009;1.764540374279022E-001;-5.739568173885346E-002;1.194481137645198E-005;-3.089758567512035E-003;
2.415500000000000E+009;1.768215447664261E-001;-5.788306519389153E-002;-2.512460050638765E-004;-2.986781299114227E-003;
2.415666666666667E+009;1.769624799489975E-001;-5.848885700106621E-002;-4.230530466884375E-004;-2.828154014423490E-003;
2.415833333333334E+009;1.773326098918915E-001;-5.893285199999809E-002;-2.760514034889638E-004;-2.908712020143867E-003;
2.416000000000000E+009;1.773667931556702E-001;-5.940164998173714E-002;-3.750743344426155E-004;-2.822428476065397E-003;
2.416166666666667E+009;1.775694936513901E-001;-5.972220003604889E-002;-5.212127580307424E-004;-2.703375415876508E-003;
2.416333333333334E+009;1.774467825889587E-001;-6.003580614924431E-002;-6.518247537314892E-004;-2.678691176697612E-003;
2.416500000000000E+009;1.774582713842392E-001;-6.036435812711716E-002;-7.788640214130282E-004;-2.649915870279074E-003;
2.416666666666667E+009;1.771905720233917E-001;-6.060691177845001E-002;-7.820690516382456E-004;-2.564956201240420E-003;
2.416833333333334E+009;1.771285384893417E-001;-6.097222492098808E-002;-8.938286337070167E-004;-2.507690340280533E-003;
2.417000000000000E+009;1.765333116054535E-001;-6.112311035394669E-002;-1.049538841471076E-003;-2.571819117292762E-003;
2.417166666666667E+009;1.762884408235550E-001;-6.123310327529907E-002;-1.069123740307987E-003;-2.400545636191964E-003;
2.417333333333334E+009;1.756754517555237E-001;-6.126340106129646E-002;-1.080964226275682E-003;-2.291478216648102E-003;
2.417500000000000E+009;1.751170456409454E-001;-6.176715716719627E-002;-1.156850485131145E-003;-2.183583797886968E-003;
2.417666666666667E+009;1.744348406791687E-001;-6.191615015268326E-002;-1.225542509928346E-003;-2.184150274842978E-003;
2.417833333333334E+009;1.736500263214111E-001;-6.204341724514961E-002;-1.243598177097738E-003;-2.135115675628185E-003;
2.418000000000000E+009;1.727584451436997E-001;-6.246225163340569E-002;-1.206118031404913E-003;-2.100973390042782E-003;
2.418166666666667E+009;1.718834936618805E-001;-6.270755082368851E-002;-1.362638315185905E-003;-2.035546349361539E-003;
2.418333333333334E+009;1.710956245660782E-001;-6.312584877014160E-002;-1.273131114430726E-003;-1.975262537598610E-003;
2.418500000000000E+009;1.699442863464356E-001;-6.345994025468826E-002;-1.595826586708427E-003;-1.749615301378071E-003;
2.418666666666667E+009;1.689737290143967E-001;-6.412281095981598E-002;-1.469360431656241E-003;-1.783922314643860E-003;
2.418833333333334E+009;1.677077114582062E-001;-6.448884308338165E-002;-1.508364453911781E-003;-1.644057920202613E-003;
2.419000000000000E+009;1.663135886192322E-001;-6.500355899333954E-002;-1.483081839978695E-003;-1.740154344588518E-003;
2.419166666666667E+009;1.653840094804764E-001;-6.566453725099564E-002;-1.472601084969938E-003;-1.482526538893580E-003;
2.419333333333334E+009;1.640149801969528E-001;-6.626379489898682E-002;-1.715734251774848E-003;-1.528553199023008E-003;
2.419500000000000E+009;1.628081947565079E-001;-6.726740300655365E-002;-1.558710471726954E-003;-1.519170356914401E-003;
2.419666666666667E+009;1.616542488336563E-001;-6.804487854242325E-002;-1.709769945591688E-003;-1.335205743089318E-003;
2.419833333333334E+009;1.604162305593491E-001;-6.908710300922394E-002;-1.839407836087048E-003;-1.331514795310795E-003;
2.420000000000000E+009;1.593965739011765E-001;-7.007541507482529E-002;-1.750598545186222E-003;-1.217079581692815E-003;
2.420166666666667E+009;1.582236886024475E-001;-7.124537229537964E-002;-1.792129594832659E-003;-1.187303569167852E-003;
2.420333333333334E+009;1.571009606122971E-001;-7.229676842689514E-002;-1.896537025459111E-003;-1.108372234739363E-003;
2.420500000000000E+009;1.561985313892365E-001;-7.354862242937088E-002;-1.812742324545980E-003;-9.787057060748339E-004;
2.420666666666667E+009;1.550701111555100E-001;-7.482602447271347E-002;-1.764926011674106E-003;-9.114631684496999E-004;
2.420833333333334E+009;1.543399542570114E-001;-7.639124989509583E-002;-1.810598652809858E-003;-8.559225825592876E-004;
2.421000000000000E+009;1.532883048057556E-001;-7.779167592525482E-002;-1.766394940204918E-003;-7.253888761624694E-004;
2.421166666666667E+009;1.526781767606735E-001;-7.931754738092423E-002;-1.769803464412689E-003;-6.205160752870143E-004;
2.421333333333334E+009;1.520001739263535E-001;-8.088966459035873E-002;-1.882015960291028E-003;-4.547038988675922E-004;
2.421500000000000E+009;1.512586176395416E-001;-8.234155178070068E-002;-1.787687884643674E-003;-4.278511041775346E-004;
2.421666666666667E+009;1.507517844438553E-001;-8.404844999313355E-002;-1.758466591127217E-003;-3.573100257199258E-004;
2.421833333333334E+009;1.504084169864655E-001;-8.567607402801514E-002;-1.685196184553206E-003;-3.473384713288397E-004;
2.422000000000000E+009;1.499860584735870E-001;-8.735184371471405E-002;-1.796923810616136E-003;-1.792251568986103E-004;
2.422166666666667E+009;1.496784538030624E-001;-8.920638263225555E-002;-1.683114445768297E-003;-9.822109859669581E-005;
2.422333333333334E+009;1.497308164834976E-001;-9.073504805564880E-002;-1.609863713383675E-003;-5.672332918038592E-005;
2.422500000000000E+009;1.494444161653519E-001;-9.227302670478821E-002;-1.630142098292708E-003;-2.629757545946632E-005;
2.422666666666667E+009;1.492200344800949E-001;-9.413899481296539E-002;-1.550609478726983E-003;4.961268496117555E-005;
2.422833333333334E+009;1.495403647422791E-001;-9.589602053165436E-002;-1.431902521289885E-003;4.249443372827955E-005;
2.423000000000000E+009;1.495686620473862E-001;-9.748595207929611E-002;-1.527108135633171E-003;3.398568078409880E-004;
2.423166666666667E+009;1.497772037982941E-001;-9.928482770919800E-002;-1.393401646055281E-003;2.677108277566731E-004;
2.423333333333334E+009;1.500778347253799E-001;-1.007740572094917E-001;-1.248031388968229E-003;3.543029597494751E-004;
2.423500000000000E+009;1.504062563180924E-001;-1.024544760584831E-001;-1.267258543521166E-003;3.579032490961254E-004;
2.423666666666667E+009;1.507037729024887E-001;-1.038979291915894E-001;-1.107759191654623E-003;3.741889377124608E-004;
2.423833333333334E+009;1.513405740261078E-001;-1.053325012326241E-001;-1.118684187531471E-003;3.850766806863248E-004;
2.424000000000000E+009;1.516446620225906E-001;-1.067210435867310E-001;-1.306707737967372E-003;4.499598871916533E-004;
2.424166666666667E+009;1.519331783056259E-001;-1.081570237874985E-001;-8.927135495468974E-004;5.527051398530603E-004;
2.424333333333334E+009;1.526705920696259E-001;-1.092851459980011E-001;-9.684471879154444E-004;3.100953472312540E-004;
2.424500000000000E+009;1.530524194240570E-001;-1.105243638157845E-001;-9.193630539812148E-004;5.356553592719138E-004;
2.424666666666667E+009;1.536334455013275E-001;-1.114273145794869E-001;-8.923499844968319E-004;4.969341680407524E-004;
2.424833333333334E+009;1.538964658975601E-001;-1.126177385449410E-001;-7.098306668922305E-004;4.725469625554979E-004;
2.425000000000000E+009;1.545665860176086E-001;-1.136236563324928E-001;-6.952841067686677E-004;4.792756226379424E-004;
2.425166666666667E+009;1.547697484493256E-001;-1.145041882991791E-001;-5.042331758886576E-004;4.186458827462047E-004;
2.425333333333334E+009;1.552654802799225E-001;-1.151401549577713E-001;-5.368416896089912E-004;4.031251592095941E-004;
2.425500000000000E+009;1.557070016860962E-001;-1.159386485815048E-001;-5.676421569660306E-004;3.091330581810325E-004;
2.425666666666667E+009;1.557758748531342E-001;-1.164795383810997E-001;-6.072778487578034E-004;3.600612399168313E-004;
2.425833333333334E+009;1.561911255121231E-001;-1.170218363404274E-001;-4.609554307535291E-004;5.288279498927295E-004;
2.426000000000000E+009;1.563240736722946E-001;-1.175871491432190E-001;-2.659420133568347E-004;3.354092186782509E-004;
2.426166666666667E+009;1.565601676702499E-001;-1.179733946919441E-001;-4.073352029081434E-004;1.835489674704149E-004;
2.426333333333334E+009;1.565464437007904E-001;-1.183879896998406E-001;-3.479492443148047E-004;1.759935985319316E-004;
2.426500000000000E+009;1.566348075866699E-001;-1.185187473893166E-001;-3.431777877267450E-004;2.449462481308729E-004;
2.426666666666667E+009;1.566770672798157E-001;-1.187158375978470E-001;-2.183561009587720E-004;1.978162035811693E-004;
2.426833333333334E+009;1.563599258661270E-001;-1.188632324337959E-001;-3.339214599691331E-004;3.838590782834217E-005;
2.427000000000000E+009;1.560487300157547E-001;-1.190876662731171E-001;-2.901408879552037E-004;1.032762666000053E-004;
2.427166666666667E+009;1.556103080511093E-001;-1.191271468997002E-001;-2.149295032722876E-004;6.380287959473208E-005;
2.427333333333334E+009;1.551188230514526E-001;-1.192387640476227E-001;-2.441169199300930E-004;-6.490617670351639E-005;
2.427500000000000E+009;1.547277122735977E-001;-1.193923205137253E-001;-4.090320435352624E-004;9.986495570046827E-005;
2.427666666666667E+009;1.539642214775085E-001;-1.195001974701881E-001;-2.760978823062033E-004;5.089318437967449E-005;
