# Version 1.00
#
freq[Hz];re:Trc1_S11;im:Trc1_S11;re:Trc2_S21;im:Trc2_S21;
2.400000000000000E+009;1.580210775136948E-001;6.271597743034363E-002;-2.015343925449997E-004;3.512651193886995E-003;
2.400166666666667E+009;1.580108255147934E-001;6.118469685316086E-002;-2.241429901914671E-004;3.284370293840766E-003;
2.400333333333334E+009;1.577058583498001E-001;5.915896221995354E-002;5.358167254598811E-005;3.316683229058981E-003;
2.400500000000000E+009;1.577790826559067E-001;5.733045190572739E-002;1.318391150562093E-004;3.514420939609408E-003;
2.400666666666667E+009;1.574946492910385E-001;5.543178319931030E-002;1.735164260026068E-004;3.424897091463208E-003;
2.400833333333334E+009;1.576948761940002E-001;5.357051640748978E-002;1.918120542541146E-004;3.343583084642887E-003;
2.401000000000000E+009;1.578948497772217E-001;5.137143656611443E-002;3.959382302127779E-004;3.345834556967020E-003;
2.401166666666667E+009;1.579923927783966E-001;4.937983304262161E-002;3.728440788108856E-004;3.378938883543015E-003;
2.401333333333334E+009;1.579921245574951E-001;4.703718423843384E-002;5.864254781045020E-004;3.312305081635714E-003;
2.401500000000000E+009;1.583587974309921E-001;4.495395347476006E-002;4.765034536831081E-004;3.347484860569239E-003;
2.401666666666667E+009;1.587437242269516E-001;4.300430044531822E-002;5.350119317881763E-004;3.205142682418227E-003;
2.401833333333334E+009;1.591380238533020E-001;4.080751910805702E-002;6.420035497285426E-004;3.141811816021800E-003;
2.402000000000000E+009;1.595425307750702E-001;3.889006376266480E-002;1.026654848828912E-003;3.156543476507068E-003;
2.402166666666667E+009;1.598792821168900E-001;3.672919049859047E-002;9.589408291503787E-004;3.081265836954117E-003;
2.402333333333334E+009;1.604478210210800E-001;3.500554710626602E-002;1.038723508827388E-003;3.169155679643154E-003;
2.402500000000000E+009;1.613083481788635E-001;3.332367539405823E-002;1.058044843375683E-003;3.069282742217183E-003;
2.402666666666667E+009;1.619575470685959E-001;3.143938630819321E-002;1.176788005977869E-003;3.247512038797140E-003;
2.402833333333334E+009;1.625828146934509E-001;2.974624745547772E-002;1.521232305094600E-003;2.995185786858201E-003;
2.403000000000000E+009;1.633763313293457E-001;2.813340164721012E-002;1.335186301730573E-003;2.998694311827421E-003;
2.403166666666667E+009;1.645640730857849E-001;2.620818838477135E-002;1.446576206944883E-003;2.959728939458728E-003;
2.403333333333334E+009;1.652360558509827E-001;2.499962225556374E-002;1.696931896731257E-003;3.080174559727311E-003;
2.403500000000000E+009;1.661562025547028E-001;2.346513047814369E-002;1.661943504586816E-003;2.992422552779317E-003;
2.403666666666667E+009;1.671344786882401E-001;2.204177714884281E-002;1.818350283429027E-003;2.800735412165523E-003;
2.403833333333334E+009;1.681807339191437E-001;2.068958431482315E-002;1.917147310450673E-003;2.786906203255057E-003;
2.404000000000000E+009;1.691383272409439E-001;1.953028701245785E-002;1.911796978674829E-003;3.053650492802262E-003;
2.404166666666667E+009;1.700938493013382E-001;1.838092319667339E-002;1.988030504435301E-003;2.723115263506770E-003;
2.404333333333334E+009;1.710802018642426E-001;1.763319224119186E-002;2.115532755851746E-003;2.731389598920941E-003;
2.404500000000000E+009;1.720259487628937E-001;1.641996018588543E-002;2.263603266328573E-003;2.653385745361447E-003;
2.404666666666667E+009;1.729062348604202E-001;1.572301611304283E-002;2.426929771900177E-003;2.480061957612634E-003;
2.404833333333334E+009;1.737920939922333E-001;1.482734270393848E-002;2.300221240147948E-003;2.443198114633560E-003;
2.405000000000000E+009;1.747262626886368E-001;1.413407642394304E-002;2.561005996540189E-003;2.447607461363077E-003;
2.405166666666667E+009;1.757256835699081E-001;1.352758239954710E-002;2.687463071197271E-003;2.471129409968853E-003;
2.405333333333334E+009;1.765464842319489E-001;1.274234987795353E-002;2.548760501667857E-003;2.388930879533291E-003;
2.405500000000000E+009;1.771422177553177E-001;1.245894562453032E-002;2.676853677257896E-003;2.161344978958368E-003;
2.405666666666667E+009;1.779648363590241E-001;1.185381039977074E-002;2.897078869864345E-003;2.314441837370396E-003;
2.405833333333334E+009;1.784984618425369E-001;1.155530009418726E-002;2.863256726413965E-003;2.053350675851107E-003;
2.406000000000000E+009;1.790691018104553E-001;1.107658538967371E-002;2.988971071317792E-003;2.111866837367415E-003;
2.406166666666667E+009;1.794539690017700E-001;1.090263854712248E-002;3.173971315845847E-003;1.935757696628571E-003;
2.406333333333334E+009;1.800941675901413E-001;1.054232474416494E-002;3.210587659850717E-003;1.930117374286056E-003;
2.406500000000000E+009;1.803655326366425E-001;1.025067828595638E-002;3.249228000640869E-003;1.671831938438118E-003;
2.406666666666667E+009;1.804845631122589E-001;9.984584525227547E-003;3.385637188330293E-003;1.683612237684429E-003;
2.406833333333334E+009;1.807339787483215E-001;9.617394767701626E-003;3.594904206693173E-003;1.458892715163529E-003;
2.407000000000000E+009;1.808478385210037E-001;9.208318777382374E-003;3.619844559580088E-003;1.364703522995114E-003;
2.407166666666667E+009;1.809764802455902E-001;9.018031880259514E-003;3.586992155760527E-003;1.245301798917353E-003;
2.407333333333334E+009;1.808628588914871E-001;8.502345532178879E-003;3.688030643388629E-003;1.127333729527891E-003;
2.407500000000000E+009;1.806845963001251E-001;8.232011459767819E-003;3.849654458463192E-003;7.750847144052386E-004;
2.407666666666667E+009;1.804545223712921E-001;7.869839668273926E-003;3.653095802292228E-003;7.400854374282062E-004;
2.407833333333334E+009;1.800337731838226E-001;7.187457755208015E-003;3.915041219443083E-003;5.577359697781503E-004;
2.408000000000000E+009;1.797447055578232E-001;6.593331228941679E-003;3.908441867679358E-003;5.439756787382066E-004;
2.408166666666667E+009;1.791892051696777E-001;6.173461675643921E-003;3.945379983633757E-003;4.126791027374566E-004;
2.408333333333334E+009;1.790008842945099E-001;5.369008053094149E-003;3.977986518293619E-003;4.955577605869621E-005;
2.408500000000000E+009;1.782853603363037E-001;4.500196315348148E-003;3.914769273251295E-003;6.947079964447767E-005;
2.408666666666667E+009;1.778357923030853E-001;3.653625724837184E-003;3.905876306816936E-003;-1.308589562540874E-004;
2.408833333333334E+009;1.770587712526321E-001;2.738923998549581E-003;3.890765598043799E-003;-3.460345033090562E-004;
2.409000000000000E+009;1.765250712633133E-001;1.796633820049465E-003;3.807086031883955E-003;-3.224908432457596E-004;
2.409166666666667E+009;1.756694167852402E-001;5.307737737894058E-004;3.863280406221747E-003;-5.644850898534060E-004;
2.409333333333334E+009;1.751116812229157E-001;-6.234021275304258E-004;3.844535676762462E-003;-7.107681594789028E-004;
2.409500000000000E+009;1.745085120201111E-001;-2.039249287918210E-003;3.657547524198890E-003;-9.341225959360600E-004;
2.409666666666667E+009;1.736657172441483E-001;-3.298523603007197E-003;3.679748624563217E-003;-1.055958564393222E-003;
2.409833333333334E+009;1.729143857955933E-001;-4.790457896888256E-003;3.817412303760648E-003;-1.166894566267729E-003;
2.410000000000000E+009;1.722513586282730E-001;-6.224122829735279E-003;3.541133133694530E-003;-1.272826688364148E-003;
2.410166666666667E+009;1.716830730438232E-001;-7.802743464708328E-003;3.527604276314378E-003;-1.324465265497565E-003;
2.410333333333334E+009;1.710522770881653E-001;-9.340597316622734E-003;3.462925320491195E-003;-1.308095292188227E-003;
2.410500000000000E+009;1.705231070518494E-001;-1.113446988165379E-002;3.525995882228017E-003;-1.647036406211555E-003;
2.410666666666667E+009;1.699085235595703E-001;-1.300253160297871E-002;3.400912741199136E-003;-1.684857881627977E-003;
2.410833333333334E+009;1.696348786354065E-001;-1.468463521450758E-002;3.164166817441583E-003;-1.745435758493841E-003;
2.411000000000000E+009;1.691288799047470E-001;-1.652747020125389E-002;3.197180340066552E-003;-1.946817850694060E-003;
2.411166666666667E+009;1.687742024660111E-001;-1.864689029753208E-002;3.000973723828793E-003;-2.064810134470463E-003;
2.411333333333334E+009;1.683581769466400E-001;-2.036663517355919E-002;2.961358521133661E-003;-2.162330085411668E-003;
2.411500000000000E+009;1.683063805103302E-001;-2.245402336120606E-002;2.739054849371314E-003;-2.365662017837167E-003;
2.411666666666667E+009;1.683049201965332E-001;-2.440314553678036E-002;2.817246597260237E-003;-2.464258112013340E-003;
2.411833333333334E+009;1.680132746696472E-001;-2.624851278960705E-002;2.749213483184576E-003;-2.499000169336796E-003;
2.412000000000000E+009;1.681193709373474E-001;-2.824093960225582E-002;2.607155358418822E-003;-2.597592072561383E-003;
2.412166666666667E+009;1.681389510631561E-001;-3.034012764692307E-002;2.351764822378755E-003;-2.701345831155777E-003;
2.412333333333334E+009;1.684603840112686E-001;-3.202323615550995E-002;2.348053501918912E-003;-2.819260349497199E-003;
2.412500000000000E+009;1.684319972991943E-001;-3.411181643605232E-002;2.203715266659856E-003;-2.797563793137670E-003;
2.412666666666667E+009;1.687836796045303E-001;-3.615904226899147E-002;2.146001672372222E-003;-2.862197812646627E-003;
2.412833333333334E+009;1.692165881395340E-001;-3.804401308298111E-002;1.913536456413567E-003;-2.911335555836558E-003;
2.413000000000000E+009;1.697432696819305E-001;-3.967517241835594E-002;1.784498803317547E-003;-2.900674240663648E-003;
2.413166666666667E+009;1.699627935886383E-001;-4.156590998172760E-002;1.536712981760502E-003;-3.022917080670595E-003;
2.413333333333334E+009;1.702713519334793E-001;-4.315454140305519E-002;1.568558975122869E-003;-3.074981737881899E-003;
2.413500000000000E+009;1.706929951906204E-001;-4.497173801064491E-002;1.302568358369172E-003;-3.193495329469442E-003;
2.413666666666667E+009;1.712732017040253E-001;-4.650842770934105E-002;1.351315178908408E-003;-3.150738077238202E-003;
2.413833333333334E+009;1.717799007892609E-001;-4.787176474928856E-002;1.053204876370728E-003;-3.183468244969845E-003;
2.414000000000000E+009;1.723416447639465E-001;-4.925127327442169E-002;1.005587051622570E-003;-3.223114879801869E-003;
2.414166666666667E+009;1.729134321212769E-001;-5.051397159695625E-002;7.773301331326366E-004;-3.195760538801551E-003;
2.414333333333334E+009;1.734013706445694E-001;-5.189723894000053E-002;6.747512961737812E-004;-3.148869844153523E-003;
2.414500000000000E+009;1.742534786462784E-001;-5.282561853528023E-002;5.367368576116860E-004;-3.181989537551999E-003;
2.414666666666667E+009;1.745510399341583E-001;-5.403296276926994E-002;4.467436519917101E-004;-3.189783776178956E-003;
2.414833333333334E+009;1.750841289758682E-001;-5.500948429107666E-002;3.038982104044408E-004;-2.948941895738244E-003;
2.415000000000000E+009;1.755334585905075E-001;-5.575022473931313E-002;3.602993965614587E-004;-3.029798856005073E-003;
2.415166666666667E+009;1.758233308792114E-001;-5.666602030396462E-002;1.239328139490681E-005;-3.061028430238366E-003;
2.415333333333334E+009;1.763475984334946E-001;-5.716490745544434E-002;-1.441169297322631E-004;-2.867663046345115E-003;
2.415500000000000E+009;1.768098026514053E-001;-5.782410502433777E-002;-2.549994969740510E-004;-2.956234151497483E-003;
2.415666666666667E+009;1.769745498895645E-001;-5.841310694813728E-002;-3.245297702960670E-004;-2.869399264454842E-003;
2.415833333333334E+009;1.772862374782562E-001;-5.891840532422066E-002;-3.976073348894715E-004;-2.735472051426768E-003;
2.416000000000000E+009;1.773355007171631E-001;-5.913060531020165E-002;-3.705136186908931E-004;-2.832672093063593E-003;
2.416166666666667E+009;1.776558011770248E-001;-5.976733192801476E-002;-4.030382551718503E-004;-2.812155522406101E-003;
2.416333333333334E+009;1.775771081447601E-001;-5.988512188196182E-002;-5.842471146024764E-004;-2.762231277301908E-003;
2.416500000000000E+009;1.773904114961624E-001;-6.033593788743019E-002;-6.854059174656868E-004;-2.649808768182993E-003;
2.416666666666667E+009;1.772170066833496E-001;-6.044551730155945E-002;-7.694078958593309E-004;-2.650866750627756E-003;
2.416833333333334E+009;1.771700382232666E-001;-6.089793890714645E-002;-9.481743909418583E-004;-2.616469748318195E-003;
2.417000000000000E+009;1.765597909688950E-001;-6.099936738610268E-002;-7.933180895633996E-004;-2.514003543183208E-003;
2.417166666666667E+009;1.762196868658066E-001;-6.108641624450684E-002;-1.018467242829502E-003;-2.477299654856324E-003;
2.417333333333334E+009;1.757109165191650E-001;-6.129374355077744E-002;-9.959629969671369E-004;-2.297412836924195E-003;
2.417500000000000E+009;1.750751435756683E-001;-6.179385259747505E-002;-1.142810913734138E-003;-2.374617150053382E-003;
2.417666666666667E+009;1.745159775018692E-001;-6.181610375642777E-002;-1.248796004801989E-003;-2.238764194771648E-003;
2.417833333333334E+009;1.736659109592438E-001;-6.208940222859383E-002;-1.174601959064603E-003;-2.227603225037456E-003;
2.418000000000000E+009;1.727509945631027E-001;-6.241249665617943E-002;-1.272667781449854E-003;-2.129279309883714E-003;
2.418166666666667E+009;1.718618720769882E-001;-6.257695704698563E-002;-1.303763943724334E-003;-2.013318939134479E-003;
2.418333333333334E+009;1.711118668317795E-001;-6.310693174600601E-002;-1.414264668710530E-003;-1.876015914604068E-003;
2.418500000000000E+009;1.699325591325760E-001;-6.346036493778229E-002;-1.425093505531550E-003;-1.871157321147621E-003;
2.418666666666667E+009;1.689129769802094E-001;-6.390973925590515E-002;-1.466843765228987E-003;-1.768144196830690E-003;
2.418833333333334E+009;1.677320450544357E-001;-6.440928578376770E-002;-1.510057365521789E-003;-1.824967097491026E-003;
2.419000000000000E+009;1.665926873683929E-001;-6.505154818296433E-002;-1.620429917238653E-003;-1.644993433728814E-003;
2.419166666666667E+009;1.653788536787033E-001;-6.563833355903626E-002;-1.735346857458353E-003;-1.583847450092435E-003;
2.419333333333334E+009;1.639591306447983E-001;-6.621342897415161E-002;-1.645883778110147E-003;-1.523566315881908E-003;
2.419500000000000E+009;1.628588140010834E-001;-6.726098060607910E-002;-1.627182355150580E-003;-1.492911833338440E-003;
2.419666666666667E+009;1.618201136589050E-001;-6.818018108606339E-002;-1.746236579492688E-003;-1.360183814540505E-003;
2.419833333333334E+009;1.605058908462524E-001;-6.903337687253952E-002;-1.729681622236967E-003;-1.314228400588036E-003;
2.420000000000000E+009;1.594222187995911E-001;-7.007290422916412E-002;-1.638084999285638E-003;-1.189080416224897E-003;
2.420166666666667E+009;1.583293229341507E-001;-7.125020772218704E-002;-1.785714412108064E-003;-1.225068466737866E-003;
2.420333333333334E+009;1.572905778884888E-001;-7.228963077068329E-002;-1.789980102330446E-003;-1.137682935222983E-003;
2.420500000000000E+009;1.562282145023346E-001;-7.355360686779022E-002;-1.851378008723259E-003;-9.496287093497813E-004;
2.420666666666667E+009;1.553220152854919E-001;-7.497218251228333E-002;-1.758477766998112E-003;-8.930332260206342E-004;
2.420833333333334E+009;1.543530374765396E-001;-7.605763524770737E-002;-1.889489474706352E-003;-7.239995175041258E-004;
2.421000000000000E+009;1.534380018711090E-001;-7.780699431896210E-002;-1.830575754866004E-003;-6.475489935837686E-004;
2.421166666666667E+009;1.526127755641937E-001;-7.930882275104523E-002;-1.937720458954573E-003;-6.628239643760026E-004;
2.421333333333334E+009;1.520711630582809E-001;-8.069793879985809E-002;-1.743303961120546E-003;-6.257469067350030E-004;
2.421500000000000E+009;1.513103842735291E-001;-8.236106485128403E-002;-1.719300867989659E-003;-4.695274983532727E-004;
2.421666666666667E+009;1.508600115776062E-001;-8.393364399671555E-002;-1.845810911618173E-003;-4.160272073931992E-004;
2.421833333333334E+009;1.504116505384445E-001;-8.565368503332138E-002;-1.750843715853989E-003;-3.619243798311800E-004;
2.422000000000000E+009;1.500452607870102E-001;-8.714547753334045E-002;-1.816148753277957E-003;-1.945118274306878E-004;
2.422166666666667E+009;1.496592909097672E-001;-8.931417763233185E-002;-1.729600946418941E-003;-2.178174763685092E-004;
2.422333333333334E+009;1.497118473052979E-001;-9.077847748994827E-002;-1.650996156968176E-003;-9.517144644632936E-005;
2.422500000000000E+009;1.494180262088776E-001;-9.244184941053391E-002;-1.705513219349086E-003;2.524618503230158E-005;
2.422666666666667E+009;1.493854075670242E-001;-9.420416504144669E-002;-1.738225808367133E-003;4.899422856396996E-005;
2.422833333333334E+009;1.495627015829086E-001;-9.604650735855103E-002;-1.605742261745036E-003;2.323561784578487E-004;
2.423000000000000E+009;1.495532393455505E-001;-9.758707880973816E-002;-1.568748848512769E-003;2.185368066420779E-004;
2.423166666666667E+009;1.499230265617371E-001;-9.941358864307404E-002;-1.424589660018683E-003;2.497350214980543E-004;
2.423333333333334E+009;1.503382474184036E-001;-1.008410528302193E-001;-1.387804164551199E-003;2.494999207556248E-004;
2.423500000000000E+009;1.503912955522537E-001;-1.024139001965523E-001;-1.332400832325220E-003;3.645089745987207E-004;
2.423666666666667E+009;1.506447643041611E-001;-1.039972379803658E-001;-1.178168924525380E-003;3.750698233488947E-004;
2.423833333333334E+009;1.513008773326874E-001;-1.054930388927460E-001;-1.258324133232236E-003;5.083141732029617E-004;
2.424000000000000E+009;1.516172587871552E-001;-1.067891269922257E-001;-1.102353911846876E-003;4.383540945127606E-004;
2.424166666666667E+009;1.520880162715912E-001;-1.081152781844139E-001;-1.095798914320767E-003;5.367779522202909E-004;
2.424333333333334E+009;1.525723636150360E-001;-1.092914640903473E-001;-1.077437191270292E-003;4.170111496932805E-004;
2.424500000000000E+009;1.530563533306122E-001;-1.106546521186829E-001;-9.529360686428845E-004;5.507960449904203E-004;
2.424666666666667E+009;1.535568386316299E-001;-1.114483550190926E-001;-9.885608451440930E-004;5.386664415709674E-004;
2.424833333333334E+009;1.539426147937775E-001;-1.125230565667152E-001;-9.482940658926964E-004;5.347671103663743E-004;
2.425000000000000E+009;1.544706672430039E-001;-1.135601848363876E-001;-6.310694152489305E-004;3.575074952095747E-004;
2.425166666666667E+009;1.547907590866089E-001;-1.143871545791626E-001;-9.384184377267957E-004;5.087786703370512E-004;
2.425333333333334E+009;1.552960425615311E-001;-1.151353269815445E-001;-5.690056132152677E-004;6.006844341754913E-004;
2.425500000000000E+009;1.556702554225922E-001;-1.158527433872223E-001;-6.582807400263846E-004;4.856064333580434E-004;
2.425666666666667E+009;1.558646410703659E-001;-1.165761426091194E-001;-5.340375355444849E-004;3.973142302129418E-004;
2.425833333333334E+009;1.561927646398544E-001;-1.170419082045555E-001;-5.314099253155291E-004;2.710921398829669E-004;
2.426000000000000E+009;1.564050167798996E-001;-1.175558865070343E-001;-4.468824481591582E-004;3.683705290313810E-004;
2.426166666666667E+009;1.566198766231537E-001;-1.179348751902580E-001;-4.917915794067085E-004;3.164775262121111E-004;
2.426333333333334E+009;1.565426737070084E-001;-1.182691007852554E-001;-3.168245020788163E-004;3.271065070293844E-004;
2.426500000000000E+009;1.566123366355896E-001;-1.184988096356392E-001;-3.099330351687968E-004;3.228322311770171E-004;
2.426666666666667E+009;1.565113812685013E-001;-1.186492070555687E-001;-3.802814753726125E-004;2.200642629759386E-004;
2.426833333333334E+009;1.563418358564377E-001;-1.188315004110336E-001;-3.469746443443000E-004;1.423535431968048E-004;
2.427000000000000E+009;1.560259610414505E-001;-1.190719306468964E-001;-2.417733776383102E-004;6.762802513549104E-005;
2.427166666666667E+009;1.556756794452667E-001;-1.191726103425026E-001;-3.791157214436680E-004;6.070974632166326E-005;
2.427333333333334E+009;1.551906913518906E-001;-1.192378029227257E-001;-3.850313369184732E-004;8.377963968086988E-005;
2.427500000000000E+009;1.547251939773560E-001;-1.193116530776024E-001;-3.112973063252866E-004;1.748703834891785E-005;
2.427666666666667E+009;1.540257781744003E-001;-1.194573715329170E-001;-2.783325326163322E-004;-9.594824223313481E-005;
