# Version 1.00
#
freq[Hz];re:Trc1_S11;im:Trc1_S11;re:Trc2_S21;im:Trc2_S21;
2.400000000000000E+009;1.582275480031967E-001;6.276614218950272E-002;-1.458381593693048E-004;3.338294569402933E-003;
2.400166666666667E+009;1.581664234399796E-001;6.108438223600388E-002;-8.868208533385769E-005;3.452112898230553E-003;
2.400333333333334E+009;1.579280942678452E-001;5.900781974196434E-002;1.562291727168486E-004;3.355366177856922E-003;
2.400500000000000E+009;1.579286605119705E-001;5.720673128962517E-002;1.611847255844623E-004;3.390022087842226E-003;
2.400666666666667E+009;1.579878926277161E-001;5.526017025113106E-002;2.895657962653786E-004;3.289347980171442E-003;
2.400833333333334E+009;1.579665690660477E-001;5.318949371576309E-002;4.741057346109301E-004;3.356154076755047E-003;
2.401000000000000E+009;1.579697728157044E-001;5.122651904821396E-002;4.215467488393188E-004;3.346914658322930E-003;
2.401166666666667E+009;1.580336689949036E-001;4.899483174085617E-002;5.822197417728603E-004;3.381416900083423E-003;
2.401333333333334E+009;1.581759899854660E-001;4.674617946147919E-002;5.247278604656458E-004;3.199798520654440E-003;
2.401500000000000E+009;1.586776375770569E-001;4.489666968584061E-002;5.877282237634063E-004;3.175466321408749E-003;
2.401666666666667E+009;1.587627679109573E-001;4.301052168011665E-002;7.731697987765074E-004;3.343936288729310E-003;
2.401833333333334E+009;1.592361778020859E-001;4.077912122011185E-002;8.716725278645754E-004;3.168863477185369E-003;
2.402000000000000E+009;1.593513339757919E-001;3.877346217632294E-002;8.863222319632769E-004;3.275931114330888E-003;
2.402166666666667E+009;1.601660251617432E-001;3.671260178089142E-002;1.144509878940880E-003;3.081828355789185E-003;
2.402333333333334E+009;1.605370938777924E-001;3.482076153159142E-002;1.206500804983079E-003;3.013873472809792E-003;
2.402500000000000E+009;1.613098531961441E-001;3.303059935569763E-002;1.197455450892448E-003;3.021966665983200E-003;
2.402666666666667E+009;1.619811654090881E-001;3.144542127847672E-002;1.290973857976496E-003;3.180954372510314E-003;
2.402833333333334E+009;1.627618670463562E-001;2.967767789959908E-002;1.333850668743253E-003;2.986364997923374E-003;
2.403000000000000E+009;1.635079830884934E-001;2.800549753010273E-002;1.631485763937235E-003;2.924194326624274E-003;
2.403166666666667E+009;1.643939763307571E-001;2.634933777153492E-002;1.688534743152559E-003;3.070087172091007E-003;
2.403333333333334E+009;1.654155403375626E-001;2.487267553806305E-002;1.675701118074358E-003;2.945651300251484E-003;
2.403500000000000E+009;1.660961359739304E-001;2.325918525457382E-002;1.741669839248061E-003;2.854264341294766E-003;
2.403666666666667E+009;1.671346575021744E-001;2.182324789464474E-002;1.922014402225614E-003;2.765584969893098E-003;
2.403833333333334E+009;1.681158840656281E-001;2.068049088120461E-002;1.959726214408875E-003;2.789693418890238E-003;
2.404000000000000E+009;1.691580265760422E-001;1.955772005021572E-002;2.061953535303474E-003;2.790599828585982E-003;
2.404166666666667E+009;1.701283603906632E-001;1.841457746922970E-002;2.145985607057810E-003;2.635001437738538E-003;
2.404333333333334E+009;1.709981560707092E-001;1.732697337865830E-002;2.340550767257810E-003;2.498639049008489E-003;
2.404500000000000E+009;1.718809008598328E-001;1.634593307971954E-002;2.217038068920374E-003;2.610980998724699E-003;
2.404666666666667E+009;1.728584766387940E-001;1.532516907900572E-002;2.446526894345880E-003;2.609247108921409E-003;
2.404833333333334E+009;1.738477200269699E-001;1.482919976115227E-002;2.423888770863414E-003;2.391673624515533E-003;
2.405000000000000E+009;1.748345345258713E-001;1.396440342068672E-002;2.437743358314037E-003;2.403872087597847E-003;
2.405166666666667E+009;1.755514144897461E-001;1.333085726946592E-002;2.526520984247327E-003;2.319014631211758E-003;
2.405333333333334E+009;1.764843910932541E-001;1.273969560861588E-002;2.729122526943684E-003;2.276645740494132E-003;
2.405500000000000E+009;1.772243082523346E-001;1.229173224419355E-002;2.965102437883616E-003;2.133874688297510E-003;
2.405666666666667E+009;1.778491884469986E-001;1.188861485570669E-002;2.903444226831198E-003;2.071360591799021E-003;
2.405833333333334E+009;1.783157438039780E-001;1.160765346139669E-002;2.765314886346459E-003;1.989994663745165E-003;
2.406000000000000E+009;1.790609806776047E-001;1.096502412110567E-002;3.042835276573896E-003;2.041446277871728E-003;
2.406166666666667E+009;1.794593781232834E-001;1.089581288397312E-002;3.206434892490506E-003;1.688503311015666E-003;
2.406333333333334E+009;1.800382584333420E-001;1.052019465714693E-002;3.238713135942817E-003;1.724674249999225E-003;
2.406500000000000E+009;1.803706735372543E-001;1.018167380243540E-002;3.278424730524421E-003;1.664228504523635E-003;
2.406666666666667E+009;1.803563237190247E-001;9.927340783178806E-003;3.464851062744856E-003;1.409059274010360E-003;
2.406833333333334E+009;1.807437390089035E-001;9.651729837059975E-003;3.396606538444758E-003;1.327506965026259E-003;
2.407000000000000E+009;1.807431578636169E-001;9.241717867553234E-003;3.447687253355980E-003;1.325159450061619E-003;
2.407166666666667E+009;1.809390336275101E-001;9.057790040969849E-003;3.519026562571526E-003;1.166558824479580E-003;
2.407333333333334E+009;1.808414310216904E-001;8.671160787343979E-003;3.839394776150584E-003;1.183640095405281E-003;
2.407500000000000E+009;1.805848479270935E-001;8.245165459811688E-003;3.687338903546333E-003;9.452073718421161E-004;
2.407666666666667E+009;1.804510653018951E-001;7.754973135888577E-003;3.690378507599235E-003;8.076683734543622E-004;
2.407833333333334E+009;1.800972521305084E-001;7.149405777454376E-003;3.755418816581368E-003;6.572589045390487E-004;
2.408000000000000E+009;1.796678602695465E-001;6.628413219004870E-003;3.724666777998209E-003;6.494836416095495E-004;
2.408166666666667E+009;1.792945712804794E-001;6.110103800892830E-003;3.790191374719143E-003;3.601774515118450E-004;
2.408333333333334E+009;1.790868341922760E-001;5.434934049844742E-003;3.892855020239949E-003;1.012533393804915E-004;
2.408500000000000E+009;1.783282756805420E-001;4.564930684864521E-003;3.852168098092079E-003;8.930798855999456E-008;
2.408666666666667E+009;1.778235137462616E-001;3.635233268141747E-003;3.898374969139695E-003;-1.305084442719817E-004;
2.408833333333334E+009;1.770763397216797E-001;2.626148751005530E-003;3.873577341437340E-003;-3.593356523197144E-004;
2.409000000000000E+009;1.764208823442459E-001;1.667457749135792E-003;3.841623896732926E-003;-3.678914799820632E-004;
2.409166666666667E+009;1.757712811231613E-001;5.745405214838684E-004;3.869534470140934E-003;-6.187388207763434E-004;
2.409333333333334E+009;1.751271039247513E-001;-7.449264521710575E-004;3.739010076969862E-003;-7.409907411783934E-004;
2.409500000000000E+009;1.744551509618759E-001;-2.054221229627729E-003;3.727410454303026E-003;-8.780200150795281E-004;
2.409666666666667E+009;1.735887080430985E-001;-3.283390309661627E-003;3.807419445365667E-003;-9.371967171318829E-004;
2.409833333333334E+009;1.728757321834564E-001;-4.622688982635737E-003;3.591040614992380E-003;-1.118072774261236E-003;
2.410000000000000E+009;1.724093854427338E-001;-6.209216546267271E-003;3.581812838092446E-003;-1.199705642648041E-003;
2.410166666666667E+009;1.717455834150314E-001;-7.761416956782341E-003;3.550008404999971E-003;-1.451991614885628E-003;
2.410333333333334E+009;1.710208058357239E-001;-9.526334702968597E-003;3.529232693836093E-003;-1.580631593242288E-003;
2.410500000000000E+009;1.703792214393616E-001;-1.109459809958935E-002;3.298444207757711E-003;-1.739832805469632E-003;
2.410666666666667E+009;1.698299199342728E-001;-1.299243234097958E-002;3.329955972731113E-003;-1.735114259645343E-003;
2.410833333333334E+009;1.695501804351807E-001;-1.479027327150106E-002;3.114674473181367E-003;-1.922497991472483E-003;
2.411000000000000E+009;1.689945161342621E-001;-1.662585511803627E-002;3.129211952909827E-003;-2.113623777404428E-003;
2.411166666666667E+009;1.685250997543335E-001;-1.854209043085575E-002;2.944296691566706E-003;-2.138389740139246E-003;
2.411333333333334E+009;1.682250499725342E-001;-2.045886218547821E-002;2.897444879636169E-003;-2.263383707031608E-003;
2.411500000000000E+009;1.681381911039352E-001;-2.248975634574890E-002;2.772313542664051E-003;-2.439241623505950E-003;
2.411666666666667E+009;1.681488901376724E-001;-2.451821789145470E-002;2.661716425791383E-003;-2.441138494759798E-003;
2.411833333333334E+009;1.679079383611679E-001;-2.634927071630955E-002;2.399144927039743E-003;-2.408921020105481E-003;
2.412000000000000E+009;1.680109500885010E-001;-2.838360890746117E-002;2.345232758671045E-003;-2.587714698165655E-003;
2.412166666666667E+009;1.679479479789734E-001;-3.034510836005211E-002;2.222082577645779E-003;-2.676621545106173E-003;
2.412333333333334E+009;1.684342771768570E-001;-3.212482109665871E-002;2.200094517320395E-003;-2.752342494204640E-003;
2.412500000000000E+009;1.685311347246170E-001;-3.402480110526085E-002;2.227282151579857E-003;-2.850976074114442E-003;
2.412666666666667E+009;1.689835339784622E-001;-3.613508492708206E-002;1.856132177636027E-003;-2.951971720904112E-003;
2.412833333333334E+009;1.689687669277191E-001;-3.801576048135757E-002;1.896033063530922E-003;-2.883126027882099E-003;
2.413000000000000E+009;1.694804877042770E-001;-3.964888304471970E-002;1.712876255623996E-003;-2.870280761271715E-003;
2.413166666666667E+009;1.698465198278427E-001;-4.138945415616036E-002;1.653628307394683E-003;-3.036425448954105E-003;
2.413333333333334E+009;1.701324135065079E-001;-4.300865530967712E-002;1.375095685943961E-003;-3.134952159598470E-003;
2.413500000000000E+009;1.707205176353455E-001;-4.474317282438278E-002;1.319788745604456E-003;-3.034891560673714E-003;
2.413666666666667E+009;1.713164001703262E-001;-4.649482667446137E-002;1.225415850058198E-003;-3.221352351829410E-003;
2.413833333333334E+009;1.718295812606812E-001;-4.779588803648949E-002;9.522060281597078E-004;-3.001052653416991E-003;
2.414000000000000E+009;1.722504943609238E-001;-4.935454949736595E-002;9.760736138559878E-004;-2.923194086179137E-003;
2.414166666666667E+009;1.729581654071808E-001;-5.054368451237679E-002;7.892847643233836E-004;-3.167318878695369E-003;
2.414333333333334E+009;1.734499484300613E-001;-5.188906565308571E-002;6.457608542405069E-004;-3.095927648246288E-003;
2.414500000000000E+009;1.742427647113800E-001;-5.298052355647087E-002;5.512321949936450E-004;-3.168271621689200E-003;
2.414666666666667E+009;1.747087091207504E-001;-5.392365902662277E-002;3.624585515353829E-004;-3.114635357633233E-003;
2.414833333333334E+009;1.750606596469879E-001;-5.513350293040276E-002;3.394902450963855E-004;-3.145464695990086E-003;
2.415000000000000E+009;1.755352765321732E-001;-5.593103915452957E-002;3.220078069716692E-004;-3.042373340576887E-003;
2.415166666666667E+009;1.759996861219406E-001;-5.657683312892914E-002;2.094674564432353E-004;-3.027710830792785E-003;
2.415333333333334E+009;1.764569282531738E-001;-5.742125585675240E-002;-1.269540662178770E-004;-3.033178159967065E-003;
2.415500000000000E+009;1.767619699239731E-001;-5.801048874855042E-002;-1.928536803461611E-004;-2.915429882705212E-003;
2.415666666666667E+009;1.770224869251251E-001;-5.846095457673073E-002;-3.095460706390441E-004;-3.013698849827051E-003;
2.415833333333334E+009;1.773700714111328E-001;-5.894348770380020E-002;-4.176815564278513E-004;-2.844571834430099E-003;
2.416000000000000E+009;1.772560477256775E-001;-5.951870605349541E-002;-5.178304272703826E-004;-2.851789817214012E-003;
2.416166666666667E+009;1.775615513324738E-001;-5.982797220349312E-002;-4.616966762114316E-004;-2.697172574698925E-003;
2.416333333333334E+009;1.775302737951279E-001;-5.999902635812759E-002;-6.361418636515737E-004;-2.694303402677178E-003;
2.416500000000000E+009;1.773923188447952E-001;-6.042529270052910E-002;-6.908571813255549E-004;-2.603873843327165E-003;
2.416666666666667E+009;1.772334873676300E-001;-6.060419231653214E-002;-9.141148184426129E-004;-2.539262641221285E-003;
2.416833333333334E+009;1.771176904439926E-001;-6.094437465071678E-002;-9.628344560042024E-004;-2.591021591797471E-003;
2.417000000000000E+009;1.764507889747620E-001;-6.123284623026848E-002;-9.732045582495630E-004;-2.436632057651877E-003;
2.417166666666667E+009;1.761441230773926E-001;-6.118329614400864E-002;-9.090022067539394E-004;-2.315301913768053E-003;
2.417333333333334E+009;1.757330298423767E-001;-6.148678064346314E-002;-1.050247228704393E-003;-2.313654404133558E-003;
2.417500000000000E+009;1.750671267509460E-001;-6.188741698861122E-002;-1.145638292655349E-003;-2.191893290728331E-003;
2.417666666666667E+009;1.743846386671066E-001;-6.181119382381439E-002;-1.082678791135550E-003;-2.230946440249682E-003;
2.417833333333334E+009;1.737607568502426E-001;-6.204518303275108E-002;-1.331253559328616E-003;-2.176672685891390E-003;
2.418000000000000E+009;1.727014780044556E-001;-6.242395564913750E-002;-1.419293461367488E-003;-2.098212484270334E-003;
2.418166666666667E+009;1.717502176761627E-001;-6.269080191850662E-002;-1.429462339729071E-003;-1.978970598429442E-003;
2.418333333333334E+009;1.711039841175079E-001;-6.299973279237747E-002;-1.444250694476068E-003;-1.959821442142129E-003;
2.418500000000000E+009;1.699051558971405E-001;-6.341644376516342E-002;-1.652641803957522E-003;-1.880289637483656E-003;
2.418666666666667E+009;1.689051091670990E-001;-6.396853178739548E-002;-1.545533537864685E-003;-1.696224906481803E-003;
2.418833333333334E+009;1.676946580410004E-001;-6.449871510267258E-002;-1.670553465373814E-003;-1.681432477198541E-003;
2.419000000000000E+009;1.663876622915268E-001;-6.501360237598419E-002;-1.793578965589404E-003;-1.759922597557306E-003;
2.419166666666667E+009;1.653415262699127E-001;-6.574715673923492E-002;-1.516530173830688E-003;-1.484327833168209E-003;
2.419333333333334E+009;1.639957726001740E-001;-6.629058718681335E-002;-1.563269761390984E-003;-1.464213826693595E-003;
2.419500000000000E+009;1.628716289997101E-001;-6.732144951820374E-002;-1.859281328506768E-003;-1.501100254245102E-003;
2.419666666666667E+009;1.617474853992462E-001;-6.815239042043686E-002;-1.659019151702523E-003;-1.440286519937217E-003;
2.419833333333334E+009;1.603762209415436E-001;-6.895904988050461E-002;-1.786461682058871E-003;-1.308192848227918E-003;
2.420000000000000E+009;1.595026850700378E-001;-7.008690387010574E-002;-1.899416558444500E-003;-1.296843751333654E-003;
2.420166666666667E+009;1.583173722028732E-001;-7.121194899082184E-002;-1.797086559236050E-003;-1.083482056856155E-003;
2.420333333333334E+009;1.573129445314407E-001;-7.233484089374542E-002;-1.952885650098324E-003;-9.702480165287852E-004;
2.420500000000000E+009;1.561639457941055E-001;-7.343755662441254E-002;-1.838510972447693E-003;-8.628203067928553E-004;
2.420666666666667E+009;1.552818715572357E-001;-7.479844987392426E-002;-1.857561408542097E-003;-9.128512465395033E-004;
2.420833333333334E+009;1.542762368917465E-001;-7.634069025516510E-002;-1.905987155623734E-003;-7.354642730206251E-004;
2.421000000000000E+009;1.532718539237976E-001;-7.780881226062775E-002;-1.782802632078528E-003;-6.290415185503662E-004;
2.421166666666667E+009;1.527217626571655E-001;-7.911356538534164E-002;-1.806697691790760E-003;-6.326458533294499E-004;
2.421333333333334E+009;1.520321965217590E-001;-8.084355294704437E-002;-1.836923416703939E-003;-4.511513398028910E-004;
2.421500000000000E+009;1.513774842023850E-001;-8.227854967117310E-002;-1.756300451233983E-003;-4.745276237372309E-004;
2.421666666666667E+009;1.508722603321075E-001;-8.393495529890060E-002;-1.743187080137432E-003;-3.699607914313674E-004;
2.421833333333334E+009;1.502875089645386E-001;-8.567979931831360E-002;-1.932169427163899E-003;-3.313297929707915E-004;
2.422000000000000E+009;1.500274688005447E-001;-8.733671158552170E-002;-1.656385720707476E-003;-2.190559898735955E-004;
2.422166666666667E+009;1.496472060680389E-001;-8.927820622920990E-002;-1.817989512346685E-003;-2.088735200231895E-004;
2.422333333333334E+009;1.497691273689270E-001;-9.089062362909317E-002;-1.744519686326385E-003;1.106075287680142E-004;
2.422500000000000E+009;1.493150144815445E-001;-9.258507937192917E-002;-1.599131501279771E-003;-3.879726500599645E-005;
2.422666666666667E+009;1.492575258016586E-001;-9.420447051525116E-002;-1.396692241542041E-003;1.746728812577203E-004;
2.422833333333334E+009;1.493474990129471E-001;-9.599038213491440E-002;-1.574976835399866E-003;1.609972096048296E-004;
2.423000000000000E+009;1.495093554258347E-001;-9.757909178733826E-002;-1.565525424666703E-003;2.071415074169636E-004;
2.423166666666667E+009;1.499190032482147E-001;-9.925890713930130E-002;-1.439518993720412E-003;5.043091950938106E-004;
2.423333333333334E+009;1.501354724168778E-001;-1.006821691989899E-001;-1.352994237095118E-003;4.521768132690340E-004;
2.423500000000000E+009;1.504490375518799E-001;-1.024320051074028E-001;-1.330758328549564E-003;2.747316320892423E-004;
2.423666666666667E+009;1.506077498197556E-001;-1.037740260362625E-001;-1.264230464585125E-003;3.091146936640143E-004;
2.423833333333334E+009;1.512223631143570E-001;-1.053898930549622E-001;-1.048349775373936E-003;4.055280587635934E-004;
2.424000000000000E+009;1.514511704444885E-001;-1.067127585411072E-001;-1.008207560516894E-003;4.830301913898438E-004;
2.424166666666667E+009;1.519400477409363E-001;-1.081384718418121E-001;-1.036332454532385E-003;5.829000729136169E-004;
2.424333333333334E+009;1.524742990732193E-001;-1.092228591442108E-001;-1.064727548509836E-003;4.983054241165519E-004;
2.424500000000000E+009;1.530903130769730E-001;-1.104886531829834E-001;-8.374949684366584E-004;4.653981304727495E-004;
2.424666666666667E+009;1.535837501287460E-001;-1.113862022757530E-001;-8.142084116116166E-004;5.192685057409108E-004;
2.424833333333334E+009;1.538776010274887E-001;-1.125793531537056E-001;-8.049100870266557E-004;4.065408720634878E-004;
2.425000000000000E+009;1.546111404895783E-001;-1.136204153299332E-001;-6.194626912474632E-004;5.089762271381915E-004;
2.425166666666667E+009;1.547657400369644E-001;-1.144898980855942E-001;-5.364496610127389E-004;4.554610059130937E-004;
2.425333333333334E+009;1.552107036113739E-001;-1.151431500911713E-001;-5.903152632527053E-004;3.315192006994039E-004;
2.425500000000000E+009;1.557795703411102E-001;-1.159204170107842E-001;-5.759648629464209E-004;5.443100817501545E-004;
2.425666666666667E+009;1.558724194765091E-001;-1.164268553256989E-001;-6.035896367393434E-004;4.707929329015315E-004;
2.425833333333334E+009;1.561890840530396E-001;-1.170358583331108E-001;-5.392987513914704E-004;2.773846790660173E-004;
2.426000000000000E+009;1.562812179327011E-001;-1.175457015633583E-001;-4.787924990523607E-004;4.058507620356977E-004;
2.426166666666667E+009;1.565417349338532E-001;-1.180597543716431E-001;-3.674254403449595E-004;3.380245761945844E-004;
2.426333333333334E+009;1.564643681049347E-001;-1.184127926826477E-001;-4.325398476794362E-004;4.229309852235019E-004;
2.426500000000000E+009;1.565708070993424E-001;-1.185921952128410E-001;-3.097515145782381E-004;1.946258562384173E-004;
2.426666666666667E+009;1.565214693546295E-001;-1.186923161149025E-001;-6.802976713515818E-005;1.905234385048971E-004;
2.426833333333334E+009;1.562234908342362E-001;-1.188721284270287E-001;-2.495719236321747E-004;1.543456892250106E-004;
2.427000000000000E+009;1.559800058603287E-001;-1.191182658076286E-001;-3.186517278663814E-004;2.140811848221347E-004;
2.427166666666667E+009;1.557207554578781E-001;-1.191031038761139E-001;-2.675726427696645E-004;1.198179234052077E-004;
2.427333333333334E+009;1.550246179103851E-001;-1.191112846136093E-001;-2.213205589214340E-004;-6.712439062539488E-005;
2.427500000000000E+009;1.546116620302200E-001;-1.193565055727959E-001;-1.722528977552429E-004;-9.632787259761244E-005;
2.427666666666667E+009;1.538867205381393E-001;-1.194538027048111E-001;-2.275468868901953E-004;-5.612496897811070E-005;
