# Version 1.00
#
freq[Hz];re:Trc1_S11;im:Trc1_S11;re:Trc2_S21;im:Trc2_S21;
2.400000000000000E+009;1.609343290328980E-001;5.677061155438423E-002;5.388348363339901E-004;5.041870754212141E-003;
2.400166666666667E+009;1.611658781766892E-001;5.504304543137550E-002;5.732408608309925E-004;5.149234551936388E-003;
2.400333333333334E+009;1.609973460435867E-001;5.338443443179131E-002;7.332511013373733E-004;5.349399987608194E-003;
2.400500000000000E+009;1.611252129077911E-001;5.163812637329102E-002;8.281270274892449E-004;5.066519137471914E-003;
2.400666666666667E+009;1.614548265933991E-001;4.971129447221756E-002;1.130852964706719E-003;5.540070589631796E-003;
2.400833333333334E+009;1.615547984838486E-001;4.781928285956383E-002;1.156773068942130E-003;5.585930310189724E-003;
2.401000000000000E+009;1.616473793983460E-001;4.595794528722763E-002;1.548357540741563E-003;5.659192334860563E-003;
2.401166666666667E+009;1.619854718446732E-001;4.397365450859070E-002;1.768286339938641E-003;5.756549071520567E-003;
2.401333333333334E+009;1.620634049177170E-001;4.224773123860359E-002;2.074898919090629E-003;5.898940842598677E-003;
2.401500000000000E+009;1.627288758754730E-001;4.036643728613854E-002;2.237774431705475E-003;5.813302472233772E-003;
2.401666666666667E+009;1.628437340259552E-001;3.882507607340813E-002;2.619694918394089E-003;5.954854656010866E-003;
2.401833333333334E+009;1.633586585521698E-001;3.669884428381920E-002;2.841593464836478E-003;5.753555800765753E-003;
2.402000000000000E+009;1.636682301759720E-001;3.489041328430176E-002;3.214250085875392E-003;5.713504739105701E-003;
2.402166666666667E+009;1.640819013118744E-001;3.314964845776558E-002;3.479173174127936E-003;5.906403064727783E-003;
2.402333333333334E+009;1.645856052637100E-001;3.148710727691650E-002;3.889764193445444E-003;5.766400136053562E-003;
2.402500000000000E+009;1.653344929218292E-001;3.002672083675861E-002;4.263248760253191E-003;5.435451865196228E-003;
2.402666666666667E+009;1.658351421356201E-001;2.838273532688618E-002;4.426332656294107E-003;5.506181158125401E-003;
2.402833333333334E+009;1.663459688425064E-001;2.695100754499435E-002;4.680386744439602E-003;5.307962186634541E-003;
2.403000000000000E+009;1.670818626880646E-001;2.556014619767666E-002;5.066758021712303E-003;5.148577503859997E-003;
2.403166666666667E+009;1.678497046232224E-001;2.402155473828316E-002;5.407244432717562E-003;5.034293048083782E-003;
2.403333333333334E+009;1.684940457344055E-001;2.279607206583023E-002;5.724518094211817E-003;4.630338400602341E-003;
2.403500000000000E+009;1.690688580274582E-001;2.147196233272553E-002;6.009570788592100E-003;4.343592561781406E-003;
2.403666666666667E+009;1.698570400476456E-001;2.023939974606037E-002;6.413092371076345E-003;4.156789276748896E-003;
2.403833333333334E+009;1.706046313047409E-001;1.912785880267620E-002;6.561450194567442E-003;3.634287277236581E-003;
2.404000000000000E+009;1.713869720697403E-001;1.798584498465061E-002;6.620445754379034E-003;3.313811263069511E-003;
2.404166666666667E+009;1.719891875982285E-001;1.690734364092350E-002;7.094843313097954E-003;3.107804106548429E-003;
2.404333333333334E+009;1.726154983043671E-001;1.612239703536034E-002;7.043310441076756E-003;2.756105503067374E-003;
2.404500000000000E+009;1.733189970254898E-001;1.512832846492529E-002;7.371683139353991E-003;2.433328656479716E-003;
2.404666666666667E+009;1.738467961549759E-001;1.443811133503914E-002;7.492065895348787E-003;1.794185256585479E-003;
2.404833333333334E+009;1.746207177639008E-001;1.369848847389221E-002;7.556191179901362E-003;1.296770176850259E-003;
2.405000000000000E+009;1.751656234264374E-001;1.297909766435623E-002;7.322811055928469E-003;1.115871360525489E-003;
2.405166666666667E+009;1.755648851394653E-001;1.242176070809364E-002;7.377040106803179E-003;7.366696372628212E-004;
2.405333333333334E+009;1.761750429868698E-001;1.171264797449112E-002;7.553503848612309E-003;3.219811769668013E-004;
2.405500000000000E+009;1.766217201948166E-001;1.120211556553841E-002;7.394762709736824E-003;-2.683258389879484E-005;
2.405666666666667E+009;1.769589483737946E-001;1.079242676496506E-002;7.284593302756548E-003;-5.026191356591880E-004;
2.405833333333334E+009;1.772014200687408E-001;1.048723887652159E-002;7.292222231626511E-003;-8.316065068356693E-004;
2.406000000000000E+009;1.777539104223251E-001;9.866137057542801E-003;7.102182134985924E-003;-1.089370460249484E-003;
2.406166666666667E+009;1.776269376277924E-001;9.476623497903347E-003;7.068692240864039E-003;-1.565426122397184E-003;
2.406333333333334E+009;1.780842840671539E-001;9.170137345790863E-003;6.959952414035797E-003;-1.807003398425877E-003;
2.406500000000000E+009;1.781292110681534E-001;8.806923404335976E-003;6.692856084555388E-003;-2.029114402830601E-003;
2.406666666666667E+009;1.779670864343643E-001;8.419575169682503E-003;6.402335595339537E-003;-2.321970183402300E-003;
2.406833333333334E+009;1.781157404184341E-001;8.030632510781288E-003;6.327277515083551E-003;-2.586604561656714E-003;
2.407000000000000E+009;1.780034601688385E-001;7.508776616305113E-003;6.057051941752434E-003;-2.732942812144756E-003;
2.407166666666667E+009;1.781234592199326E-001;7.044221274554730E-003;5.905851721763611E-003;-3.100454108789563E-003;
2.407333333333334E+009;1.778064817190170E-001;6.489792838692665E-003;5.565980914980173E-003;-3.219888545572758E-003;
2.407500000000000E+009;1.775091737508774E-001;5.923085846006870E-003;5.486225709319115E-003;-3.446963150054216E-003;
2.407666666666667E+009;1.773958355188370E-001;5.390661768615246E-003;5.061364267021418E-003;-3.650714643299580E-003;
2.407833333333334E+009;1.769233196973801E-001;4.636312834918499E-003;4.883295856416225E-003;-3.769818460568786E-003;
2.408000000000000E+009;1.765658408403397E-001;3.822968341410160E-003;4.725702106952667E-003;-4.073702264577150E-003;
2.408166666666667E+009;1.761746704578400E-001;3.157210536301136E-003;4.530160687863827E-003;-4.053540527820587E-003;
2.408333333333334E+009;1.760142892599106E-001;2.410601591691375E-003;4.207680467516184E-003;-4.094032105058432E-003;
2.408500000000000E+009;1.752547770738602E-001;1.313356566242874E-003;4.004220012575388E-003;-4.258072003722191E-003;
2.408666666666667E+009;1.748294532299042E-001;2.595880359876901E-004;3.765777219086886E-003;-4.241362214088440E-003;
2.408833333333334E+009;1.741555631160736E-001;-8.167195483110845E-004;3.529770998284221E-003;-4.463938996195793E-003;
2.409000000000000E+009;1.735593676567078E-001;-1.838695257902145E-003;3.315883688628674E-003;-4.321710206568241E-003;
2.409166666666667E+009;1.731040924787521E-001;-3.153711557388306E-003;3.075418528169394E-003;-4.535985644906759E-003;
2.409333333333334E+009;1.726119220256805E-001;-4.525702446699143E-003;2.856905804947019E-003;-4.620968829840422E-003;
2.409500000000000E+009;1.719709038734436E-001;-5.947754252701998E-003;2.673931187018752E-003;-4.457858391106129E-003;
2.409666666666667E+009;1.713157743215561E-001;-7.177597377449274E-003;2.307398011907935E-003;-4.349539987742901E-003;
2.409833333333334E+009;1.708089411258698E-001;-8.609425276517868E-003;2.388196997344494E-003;-4.418889060616493E-003;
2.410000000000000E+009;1.705426871776581E-001;-1.019746996462345E-002;2.089748857542872E-003;-4.468550905585289E-003;
2.410166666666667E+009;1.700009405612946E-001;-1.192261837422848E-002;1.869139261543751E-003;-4.309920128434897E-003;
2.410333333333334E+009;1.695652157068253E-001;-1.354906242340803E-002;1.833068090490997E-003;-4.301778506487608E-003;
2.410500000000000E+009;1.692429184913635E-001;-1.528938487172127E-002;1.638273126445711E-003;-4.179171286523342E-003;
2.410666666666667E+009;1.688788086175919E-001;-1.710695028305054E-002;1.644919393584132E-003;-4.205378703773022E-003;
2.410833333333334E+009;1.685386151075363E-001;-1.889773085713387E-002;1.413815072737634E-003;-4.129027482122183E-003;
2.411000000000000E+009;1.683123856782913E-001;-2.052813582122326E-002;1.411506091244519E-003;-4.025093279778957E-003;
2.411166666666667E+009;1.681846976280212E-001;-2.252311632037163E-002;1.287084422074258E-003;-4.037544596940279E-003;
2.411333333333334E+009;1.681801527738571E-001;-2.434310130774975E-002;1.087605254724622E-003;-4.002650268375874E-003;
2.411500000000000E+009;1.680029034614563E-001;-2.633629553020001E-002;1.042389427311719E-003;-3.999936394393444E-003;
2.411666666666667E+009;1.681243032217026E-001;-2.805732935667038E-002;9.564297506585717E-004;-4.031932912766933E-003;
2.411833333333334E+009;1.680615693330765E-001;-3.002295456826687E-002;9.464108734391630E-004;-4.013596102595329E-003;
2.412000000000000E+009;1.683389842510223E-001;-3.199787065386772E-002;8.515508379787207E-004;-3.979067318141460E-003;
2.412166666666667E+009;1.683394759893417E-001;-3.390539437532425E-002;8.897087536752224E-004;-4.002396482974291E-003;
2.412333333333334E+009;1.689139455556870E-001;-3.557911515235901E-002;8.438450749963522E-004;-4.028227645903826E-003;
2.412500000000000E+009;1.689391285181046E-001;-3.731495141983032E-002;5.850066081620753E-004;-3.956422675400972E-003;
2.412666666666667E+009;1.692716777324677E-001;-3.933912888169289E-002;5.528900655917823E-004;-3.908617421984673E-003;
2.412833333333334E+009;1.697154343128204E-001;-4.096078872680664E-002;3.777428064495325E-004;-3.891444997861981E-003;
2.413000000000000E+009;1.699812859296799E-001;-4.264375194907188E-002;2.577929990366101E-004;-4.076045937836170E-003;
2.413166666666667E+009;1.705715209245682E-001;-4.415801912546158E-002;2.698986791074276E-004;-4.069125279784203E-003;
2.413333333333334E+009;1.707019060850143E-001;-4.569245874881744E-002;6.401300197467208E-005;-3.993693739175797E-003;
2.413500000000000E+009;1.712902188301086E-001;-4.722795262932777E-002;-4.029429328511469E-005;-4.008388612419367E-003;
2.413666666666667E+009;1.717566847801209E-001;-4.881239682435989E-002;-1.001240161713213E-004;-4.146172665059567E-003;
2.413833333333334E+009;1.721918880939484E-001;-4.999729245901108E-002;-1.606344594620168E-004;-4.065765067934990E-003;
2.414000000000000E+009;1.726097613573074E-001;-5.142429843544960E-002;-2.084734442178160E-004;-4.173516761511564E-003;
2.414166666666667E+009;1.732246428728104E-001;-5.241920799016953E-002;-6.139991455711424E-004;-4.003678448498249E-003;
2.414333333333334E+009;1.736241430044174E-001;-5.365492030978203E-002;-6.907908245921135E-004;-4.069849383085966E-003;
2.414500000000000E+009;1.743021309375763E-001;-5.447572469711304E-002;-5.874290945939720E-004;-4.124476574361324E-003;
2.414666666666667E+009;1.747227758169174E-001;-5.552002415060997E-002;-9.744343697093427E-004;-3.969890531152487E-003;
2.414833333333334E+009;1.748952269554138E-001;-5.651583522558212E-002;-1.064437557943165E-003;-3.964571282267571E-003;
2.415000000000000E+009;1.753772497177124E-001;-5.711944028735161E-002;-1.172050018794835E-003;-4.057770129293203E-003;
2.415166666666667E+009;1.755703091621399E-001;-5.799596384167671E-002;-1.247072592377663E-003;-3.899487899616361E-003;
2.415333333333334E+009;1.759638637304306E-001;-5.852539837360382E-002;-1.330370549112558E-003;-3.833498340100050E-003;
2.415500000000000E+009;1.762007176876068E-001;-5.896843597292900E-002;-1.570742111653090E-003;-3.627648809924722E-003;
2.415666666666667E+009;1.763767600059509E-001;-5.942795053124428E-002;-1.619061222299933E-003;-3.719093976542354E-003;
2.415833333333334E+009;1.764029115438461E-001;-6.002580747008324E-002;-1.730226445943117E-003;-3.589360276237130E-003;
2.416000000000000E+009;1.764147728681564E-001;-6.030987203121185E-002;-1.918390626087785E-003;-3.687265794724226E-003;
2.416166666666667E+009;1.765843629837036E-001;-6.073433160781860E-002;-2.119650365784764E-003;-3.455328987911344E-003;
2.416333333333334E+009;1.763725578784943E-001;-6.104364618659020E-002;-2.232867293059826E-003;-3.435629885643721E-003;
2.416500000000000E+009;1.761005222797394E-001;-6.126167625188828E-002;-2.301125321537256E-003;-3.473885124549270E-003;
2.416666666666667E+009;1.758648008108139E-001;-6.149237602949143E-002;-2.282004337757826E-003;-3.387353848665953E-003;
2.416833333333334E+009;1.756309866905212E-001;-6.188165768980980E-002;-2.450947184115648E-003;-3.060526214540005E-003;
2.417000000000000E+009;1.750484853982925E-001;-6.215324625372887E-002;-2.512770472094417E-003;-2.913276897743344E-003;
2.417166666666667E+009;1.745036989450455E-001;-6.221767514944077E-002;-2.753351116552949E-003;-2.973657567054033E-003;
2.417333333333334E+009;1.740157455205917E-001;-6.230150163173676E-002;-2.757710171863437E-003;-2.720445161685348E-003;
2.417500000000000E+009;1.732676625251770E-001;-6.272866576910019E-002;-2.838754327967763E-003;-2.633154857903719E-003;
2.417666666666667E+009;1.727519482374191E-001;-6.296199560165405E-002;-2.842063549906015E-003;-2.395062707364559E-003;
2.417833333333334E+009;1.717555075883865E-001;-6.318683177232742E-002;-3.023932222276926E-003;-2.267626347020268E-003;
2.418000000000000E+009;1.707150787115097E-001;-6.358478218317032E-002;-3.084689145907760E-003;-2.327817259356380E-003;
2.418166666666667E+009;1.698059141635895E-001;-6.384949386119843E-002;-3.014671849086881E-003;-1.984601141884923E-003;
2.418333333333334E+009;1.691395938396454E-001;-6.434931606054306E-002;-3.115697065368295E-003;-2.046858193352819E-003;
2.418500000000000E+009;1.678649485111237E-001;-6.474756449460983E-002;-3.034752793610096E-003;-1.845670631155372E-003;
2.418666666666667E+009;1.669148802757263E-001;-6.525262445211411E-002;-3.087212564423680E-003;-1.545910839922726E-003;
2.418833333333334E+009;1.656219661235809E-001;-6.584432721138001E-002;-3.131775185465813E-003;-1.668388256803155E-003;
2.419000000000000E+009;1.643941998481751E-001;-6.638040393590927E-002;-2.968670101836324E-003;-1.398449647240341E-003;
2.419166666666667E+009;1.633422374725342E-001;-6.706130504608154E-002;-3.059631912037730E-003;-1.251611043699086E-003;
2.419333333333334E+009;1.619690805673599E-001;-6.764753907918930E-002;-3.099299967288971E-003;-1.133982557803392E-003;
2.419500000000000E+009;1.609750539064407E-001;-6.879384815692902E-002;-3.143671900033951E-003;-1.051474129781127E-003;
2.419666666666667E+009;1.598259508609772E-001;-6.959902495145798E-002;-3.006423590704799E-003;-8.977213292382658E-004;
2.419833333333334E+009;1.585331708192825E-001;-7.061780989170075E-002;-3.044315380975604E-003;-9.321899269707501E-004;
2.420000000000000E+009;1.574812382459641E-001;-7.164631783962250E-002;-3.094434970989823E-003;-7.119894144125283E-004;
2.420166666666667E+009;1.562782973051071E-001;-7.284414768218994E-002;-2.958706812933087E-003;-4.739598371088505E-004;
2.420333333333334E+009;1.551622599363327E-001;-7.402127236127853E-002;-2.911197254434228E-003;-3.343846183270216E-004;
2.420500000000000E+009;1.543441861867905E-001;-7.518225163221359E-002;-3.049851162359119E-003;-4.174505302216858E-004;
2.420666666666667E+009;1.532608419656754E-001;-7.631110399961472E-002;-2.830725163221359E-003;-2.230499667348340E-004;
2.420833333333334E+009;1.523679941892624E-001;-7.795631140470505E-002;-2.828270895406604E-003;-1.112824174924754E-004;
2.421000000000000E+009;1.514589935541153E-001;-7.931001484394074E-002;-2.886538859456778E-003;-1.303668541368097E-004;
2.421166666666667E+009;1.508171260356903E-001;-8.086808770895004E-002;-2.639545826241374E-003;-6.726483843522146E-005;
2.421333333333334E+009;1.501607596874237E-001;-8.246441185474396E-002;-2.531933598220348E-003;1.092758393497206E-004;
2.421500000000000E+009;1.492106169462204E-001;-8.387792110443115E-002;-2.650216687470675E-003;1.255836396012455E-004;
2.421666666666667E+009;1.488763242959976E-001;-8.562611043453217E-002;-2.462613163515925E-003;2.038314123637974E-004;
2.421833333333334E+009;1.485092043876648E-001;-8.720724284648895E-002;-2.405725652351975E-003;4.334499826654792E-004;
2.422000000000000E+009;1.478793025016785E-001;-8.893200755119324E-002;-2.435985021293163E-003;3.758082748390734E-004;
2.422166666666667E+009;1.474953442811966E-001;-9.074162691831589E-002;-2.388380933552980E-003;3.885202459059656E-004;
2.422333333333334E+009;1.473724991083145E-001;-9.246427565813065E-002;-2.212676685303450E-003;4.583781701512635E-004;
2.422500000000000E+009;1.471281051635742E-001;-9.401280432939529E-002;-2.203738084062934E-003;5.685239448212087E-004;
2.422666666666667E+009;1.469353139400482E-001;-9.569029510021210E-002;-2.075081458315253E-003;4.221010312903673E-004;
2.422833333333334E+009;1.468727886676788E-001;-9.753698855638504E-002;-1.900177798233926E-003;5.136006511747837E-004;
2.423000000000000E+009;1.469109803438187E-001;-9.908673912286758E-002;-2.001765416935086E-003;5.285760853439570E-004;
2.423166666666667E+009;1.471060812473297E-001;-1.008213683962822E-001;-1.966573065146804E-003;3.908161888830364E-004;
2.423333333333334E+009;1.472209095954895E-001;-1.021760329604149E-001;-1.837186515331268E-003;5.067897145636380E-004;
2.423500000000000E+009;1.473951190710068E-001;-1.038774028420448E-001;-1.708695199340582E-003;6.072773248888552E-004;
2.423666666666667E+009;1.475677043199539E-001;-1.054530590772629E-001;-1.718098181299865E-003;5.492360214702785E-004;
2.423833333333334E+009;1.479506343603134E-001;-1.070541962981224E-001;-1.835600240156055E-003;4.595234931912273E-004;
2.424000000000000E+009;1.482198089361191E-001;-1.081314310431480E-001;-1.687762909568846E-003;4.580258973874152E-004;
2.424166666666667E+009;1.484495252370834E-001;-1.096611395478249E-001;-1.505652093328536E-003;3.577346506062895E-004;
2.424333333333334E+009;1.488742977380753E-001;-1.106971725821495E-001;-1.721236389130354E-003;4.826517251785845E-004;
2.424500000000000E+009;1.493085026741028E-001;-1.120142936706543E-001;-1.746598165482283E-003;4.883532528765500E-004;
2.424666666666667E+009;1.498761773109436E-001;-1.129363626241684E-001;-1.704910537227988E-003;5.596459377557039E-004;
2.424833333333334E+009;1.498814970254898E-001;-1.139700338244438E-001;-1.656312844716013E-003;3.508863155730069E-004;
2.425000000000000E+009;1.503970921039581E-001;-1.150145381689072E-001;-1.613113563507795E-003;4.906704998575151E-004;
2.425166666666667E+009;1.503952592611313E-001;-1.158621534705162E-001;-1.573254936374724E-003;5.515277152881026E-004;
2.425333333333334E+009;1.508568823337555E-001;-1.166425943374634E-001;-1.633775653317571E-003;5.303220823407173E-004;
2.425500000000000E+009;1.512117832899094E-001;-1.173467412590981E-001;-1.779263606294990E-003;5.785931716673076E-004;
2.425666666666667E+009;1.512611508369446E-001;-1.180615127086639E-001;-1.591463224031031E-003;6.502526812255383E-004;
2.425833333333334E+009;1.515976637601852E-001;-1.186000481247902E-001;-1.700272783637047E-003;5.684480420313776E-004;
2.426000000000000E+009;1.515130251646042E-001;-1.192207261919975E-001;-1.639924244955182E-003;7.329016807489097E-004;
2.426166666666667E+009;1.518889367580414E-001;-1.196337789297104E-001;-1.650907797738910E-003;7.809428498148918E-004;
2.426333333333334E+009;1.517525017261505E-001;-1.200995296239853E-001;-1.623352523893118E-003;7.825997890904546E-004;
2.426500000000000E+009;1.517159193754196E-001;-1.202785745263100E-001;-1.537919160909951E-003;7.299042772501707E-004;
2.426666666666667E+009;1.516874432563782E-001;-1.204566359519959E-001;-1.481882529333234E-003;8.552450453862548E-004;
2.426833333333334E+009;1.513529568910599E-001;-1.208057403564453E-001;-1.513123977929354E-003;9.805436711758375E-004;
2.427000000000000E+009;1.510707736015320E-001;-1.211899220943451E-001;-1.525269937701523E-003;9.085300262086093E-004;
2.427166666666667E+009;1.506856381893158E-001;-1.210620775818825E-001;-1.535052666440606E-003;8.605332695879042E-004;
2.427333333333334E+009;1.502445787191391E-001;-1.213534399867058E-001;-1.390035962685943E-003;8.259239257313311E-004;
2.427500000000000E+009;1.499065160751343E-001;-1.213672682642937E-001;-1.467170543037355E-003;9.913295507431030E-004;
2.427666666666667E+009;1.490285694599152E-001;-1.216675341129303E-001;-1.336469198577106E-003;8.459023083560169E-004;
