# Version 1.00
#
freq[Hz];re:Trc1_S11;im:Trc1_S11;re:Trc2_S21;im:Trc2_S21;
2.400000000000000E+009;1.611653715372086E-001;5.660179629921913E-002;5.876117502339184E-004;5.157462786883116E-003;
2.400166666666667E+009;1.611782312393189E-001;5.510413646697998E-002;6.924498593434691E-004;4.959589336067438E-003;
2.400333333333334E+009;1.611250489950180E-001;5.326533690094948E-002;7.204530411399901E-004;5.212320014834404E-003;
2.400500000000000E+009;1.612333357334137E-001;5.140408873558044E-002;1.061205402947962E-003;5.464733112603426E-003;
2.400666666666667E+009;1.614255905151367E-001;4.976236820220947E-002;1.137608080171049E-003;5.468290299177170E-003;
2.400833333333334E+009;1.617543250322342E-001;4.789436981081963E-002;1.353006111457944E-003;5.547652952373028E-003;
2.401000000000000E+009;1.618154048919678E-001;4.586787149310112E-002;1.719466294161975E-003;5.742254201322794E-003;
2.401166666666667E+009;1.620122045278549E-001;4.398126527667046E-002;1.828276086598635E-003;5.650977604091167E-003;
2.401333333333334E+009;1.622955650091171E-001;4.213989898562431E-002;2.028235932812095E-003;5.759558640420437E-003;
2.401500000000000E+009;1.627316623926163E-001;4.024964570999146E-002;2.428507199510932E-003;5.857320036739111E-003;
2.401666666666667E+009;1.630553454160690E-001;3.863174095749855E-002;2.675124909728766E-003;5.665739532560110E-003;
2.401833333333334E+009;1.633189469575882E-001;3.664102032780647E-002;2.989427186548710E-003;5.906966514885426E-003;
2.402000000000000E+009;1.635018438100815E-001;3.491272404789925E-002;3.264743369072676E-003;5.800543352961540E-003;
2.402166666666667E+009;1.641569882631302E-001;3.307888284325600E-002;3.548333421349526E-003;5.678693298250437E-003;
2.402333333333334E+009;1.645413488149643E-001;3.157418966293335E-002;3.836102550849319E-003;5.608142353594303E-003;
2.402500000000000E+009;1.653368622064591E-001;2.975646220147610E-002;4.135811701416969E-003;5.623309407383204E-003;
2.402666666666667E+009;1.656660884618759E-001;2.843546681106091E-002;4.530048463493586E-003;5.422566551715136E-003;
2.402833333333334E+009;1.664905399084091E-001;2.694243192672730E-002;4.871430806815624E-003;5.242938641458750E-003;
2.403000000000000E+009;1.671823859214783E-001;2.543900348246098E-002;5.080970004200935E-003;4.992168862372637E-003;
2.403166666666667E+009;1.678763031959534E-001;2.398112043738365E-002;5.238623358309269E-003;4.810393322259188E-003;
2.403333333333334E+009;1.684913486242294E-001;2.276509813964367E-002;5.718763917684555E-003;4.641939420253038E-003;
2.403500000000000E+009;1.690598279237747E-001;2.149295806884766E-002;5.996231455355883E-003;4.313556011766195E-003;
2.403666666666667E+009;1.697493940591812E-001;2.005016803741455E-002;6.307507865130901E-003;4.180674441158772E-003;
2.403833333333334E+009;1.706083416938782E-001;1.902165822684765E-002;6.540262140333653E-003;3.533108159899712E-003;
2.404000000000000E+009;1.712603867053986E-001;1.810187101364136E-002;6.598053965717554E-003;3.378709778189659E-003;
2.404166666666667E+009;1.717917174100876E-001;1.693385839462280E-002;7.023544982075691E-003;3.089765086770058E-003;
2.404333333333334E+009;1.725059300661087E-001;1.612503640353680E-002;7.139389403164387E-003;2.582577057182789E-003;
2.404500000000000E+009;1.730874776840210E-001;1.520002260804176E-002;7.336969021707773E-003;2.266665454953909E-003;
2.404666666666667E+009;1.738692075014114E-001;1.442137733101845E-002;7.217781152576208E-003;1.705899485386908E-003;
2.404833333333334E+009;1.745090633630753E-001;1.371063571423292E-002;7.388024590909481E-003;1.416712184436619E-003;
2.405000000000000E+009;1.750975400209427E-001;1.297759916633368E-002;7.224536035209894E-003;1.120607019402087E-003;
2.405166666666667E+009;1.756310909986496E-001;1.250967942178249E-002;7.435989100486040E-003;7.636579684913158E-004;
2.405333333333334E+009;1.760588288307190E-001;1.158722955733538E-002;7.370423991233110E-003;2.308944676769897E-004;
2.405500000000000E+009;1.765264421701431E-001;1.129864994436503E-002;7.312916684895754E-003;-7.518666097894311E-005;
2.405666666666667E+009;1.770407855510712E-001;1.082466635853052E-002;7.422922179102898E-003;-4.469167615752667E-004;
2.405833333333334E+009;1.772399991750717E-001;1.046921405941248E-002;7.205970119684935E-003;-7.812629919499159E-004;
2.406000000000000E+009;1.774862855672836E-001;9.944158606231213E-003;7.041920907795429E-003;-1.103219809010625E-003;
2.406166666666667E+009;1.777552664279938E-001;9.643921628594399E-003;6.910207215696573E-003;-1.428999006748200E-003;
2.406333333333334E+009;1.780885756015778E-001;9.067867882549763E-003;6.680781487375498E-003;-1.598614268004894E-003;
2.406500000000000E+009;1.781252473592758E-001;8.763309568166733E-003;6.704291794449091E-003;-1.967228716239333E-003;
2.406666666666667E+009;1.780171692371368E-001;8.542383089661598E-003;6.556572858244181E-003;-2.304364694282413E-003;
2.406833333333334E+009;1.780978739261627E-001;7.950080558657646E-003;6.272046361118555E-003;-2.551638986915350E-003;
2.407000000000000E+009;1.781443655490875E-001;7.427301257848740E-003;6.005099043250084E-003;-2.749281702563167E-003;
2.407166666666667E+009;1.781772375106812E-001;7.125003729015589E-003;5.927754100412130E-003;-3.018211107701063E-003;
2.407333333333334E+009;1.778389513492584E-001;6.399428471922875E-003;5.739294458180666E-003;-3.208757145330310E-003;
2.407500000000000E+009;1.776563227176666E-001;5.884883459657431E-003;5.456210579723120E-003;-3.410732606425881E-003;
2.407666666666667E+009;1.772899329662323E-001;5.410484038293362E-003;5.210458766669035E-003;-3.643841482698917E-003;
2.407833333333334E+009;1.769854426383972E-001;4.564785864204168E-003;4.961027763783932E-003;-3.854878712445498E-003;
2.408000000000000E+009;1.766259968280792E-001;3.784888656809926E-003;4.795368760824204E-003;-3.985349554568529E-003;
2.408166666666667E+009;1.761357188224793E-001;3.094715997576714E-003;4.700860008597374E-003;-4.044443368911743E-003;
2.408333333333334E+009;1.759492009878159E-001;2.286746865138412E-003;4.171276930719614E-003;-4.139848519116640E-003;
2.408500000000000E+009;1.753435134887695E-001;1.397227635607123E-003;4.157168790698052E-003;-4.255796782672405E-003;
2.408666666666667E+009;1.747748702764511E-001;1.967214047908783E-004;3.794607240706682E-003;-4.357885569334030E-003;
2.408833333333334E+009;1.741203367710114E-001;-7.981434464454651E-004;3.506569890305400E-003;-4.348263144493103E-003;
2.409000000000000E+009;1.736771166324616E-001;-2.039422979578376E-003;3.260106779634953E-003;-4.335619043558836E-003;
2.409166666666667E+009;1.731544286012650E-001;-3.212663345038891E-003;3.214817028492689E-003;-4.470665007829666E-003;
2.409333333333334E+009;1.727110892534256E-001;-4.612343385815620E-003;2.853039884939790E-003;-4.611956886947155E-003;
2.409500000000000E+009;1.719166934490204E-001;-6.029748823493719E-003;2.632359042763710E-003;-4.435792565345764E-003;
2.409666666666667E+009;1.713210344314575E-001;-7.290234789252281E-003;2.490066690370441E-003;-4.438962787389755E-003;
2.409833333333334E+009;1.708470284938812E-001;-8.686913177371025E-003;2.258421620354056E-003;-4.486822523176670E-003;
2.410000000000000E+009;1.705412715673447E-001;-1.035680528730154E-002;2.201244467869401E-003;-4.303731489926577E-003;
2.410166666666667E+009;1.700263321399689E-001;-1.204518694430590E-002;1.997663872316480E-003;-4.369099158793688E-003;
2.410333333333334E+009;1.696644872426987E-001;-1.367743685841560E-002;1.887748599983752E-003;-4.238060209900141E-003;
2.410500000000000E+009;1.692051142454147E-001;-1.534407585859299E-002;1.807919354178011E-003;-4.244179464876652E-003;
2.410666666666667E+009;1.688584685325623E-001;-1.719866320490837E-002;1.636049593798816E-003;-4.327342379838228E-003;
2.410833333333334E+009;1.686608791351318E-001;-1.876290328800678E-002;1.307661179453135E-003;-4.171837586909533E-003;
2.411000000000000E+009;1.682805120944977E-001;-2.065211907029152E-002;1.234679832123220E-003;-4.116275813430548E-003;
2.411166666666667E+009;1.682050526142120E-001;-2.270125225186348E-002;1.218923949636519E-003;-4.121113568544388E-003;
2.411333333333334E+009;1.680546104907990E-001;-2.425967343151569E-002;1.140953623689711E-003;-4.024896305054426E-003;
2.411500000000000E+009;1.678791493177414E-001;-2.621872723102570E-002;1.094894832931459E-003;-3.963103517889977E-003;
2.411666666666667E+009;1.681162118911743E-001;-2.820963971316814E-002;1.034012297168374E-003;-3.811314702033997E-003;
2.411833333333334E+009;1.681397408246994E-001;-3.008620254695416E-002;9.262592066079378E-004;-3.990408964455128E-003;
2.412000000000000E+009;1.683476269245148E-001;-3.185985982418060E-002;9.239436476491392E-004;-3.849198343232274E-003;
2.412166666666667E+009;1.683412045240402E-001;-3.376907855272293E-002;8.348568226210773E-004;-3.780267201364040E-003;
2.412333333333334E+009;1.686731427907944E-001;-3.556247800588608E-002;6.774244830012322E-004;-3.875453257933259E-003;
2.412500000000000E+009;1.689490526914597E-001;-3.737000748515129E-002;6.170232663862407E-004;-3.864436876028776E-003;
2.412666666666667E+009;1.692187786102295E-001;-3.921906277537346E-002;5.577196716330946E-004;-3.955902997404337E-003;
2.412833333333334E+009;1.696961969137192E-001;-4.100190103054047E-002;5.176474223844707E-004;-3.839001990854740E-003;
2.413000000000000E+009;1.701301187276840E-001;-4.251106455922127E-002;4.694583476521075E-004;-3.959528170526028E-003;
2.413166666666667E+009;1.704454272985458E-001;-4.413164034485817E-002;2.113348309649155E-004;-3.949623089283705E-003;
2.413333333333334E+009;1.707867980003357E-001;-4.568283259868622E-002;8.673965930938721E-005;-3.979050554335117E-003;
2.413500000000000E+009;1.713190078735352E-001;-4.727994650602341E-002;7.442472269758582E-005;-4.051803611218929E-003;
2.413666666666667E+009;1.716826260089874E-001;-4.869406297802925E-002;-7.901865319581702E-005;-4.033317323774099E-003;
2.413833333333334E+009;1.722351461648941E-001;-5.009911581873894E-002;-2.600880688987672E-004;-3.966148011386395E-003;
2.414000000000000E+009;1.726347804069519E-001;-5.144211649894714E-002;-4.731726949103177E-004;-4.145673941820860E-003;
2.414166666666667E+009;1.732607930898666E-001;-5.255228281021118E-002;-4.968379507772625E-004;-4.135513678193092E-003;
2.414333333333334E+009;1.735688596963882E-001;-5.369348078966141E-002;-4.769566585309804E-004;-4.024624824523926E-003;
2.414500000000000E+009;1.743650734424591E-001;-5.466348305344582E-002;-6.659512291662395E-004;-4.000093322247267E-003;
2.414666666666667E+009;1.745791286230087E-001;-5.555834621191025E-002;-7.305431645363569E-004;-4.022379871457815E-003;
2.414833333333334E+009;1.750257760286331E-001;-5.645268037915230E-002;-9.319197270087898E-004;-4.007933661341667E-003;
2.415000000000000E+009;1.753538846969605E-001;-5.716154351830483E-002;-1.095404499210417E-003;-3.875531721860170E-003;
2.415166666666667E+009;1.755645424127579E-001;-5.789869278669357E-002;-1.184846274554730E-003;-3.916342742741108E-003;
2.415333333333334E+009;1.760269552469254E-001;-5.865936353802681E-002;-1.407760661095381E-003;-3.789332229644060E-003;
2.415500000000000E+009;1.762671619653702E-001;-5.921987816691399E-002;-1.497364253737032E-003;-3.606079379096627E-003;
2.415666666666667E+009;1.762860864400864E-001;-5.944218114018440E-002;-1.519171986728907E-003;-3.618129063397646E-003;
2.415833333333334E+009;1.765642315149307E-001;-6.004736199975014E-002;-1.714542508125305E-003;-3.629575017839670E-003;
2.416000000000000E+009;1.763796359300613E-001;-6.046403571963310E-002;-1.939260982908309E-003;-3.635278437286615E-003;
2.416166666666667E+009;1.765215694904327E-001;-6.082588806748390E-002;-1.969351898878813E-003;-3.578672185540199E-003;
2.416333333333334E+009;1.764531433582306E-001;-6.099452823400497E-002;-2.170157385990024E-003;-3.399415407329798E-003;
2.416500000000000E+009;1.762644648551941E-001;-6.135246530175209E-002;-2.253787359222770E-003;-3.247027983888984E-003;
2.416666666666667E+009;1.758129149675369E-001;-6.159436702728272E-002;-2.436027629300952E-003;-3.374560503289104E-003;
2.416833333333334E+009;1.756246685981751E-001;-6.200089678168297E-002;-2.485015895217657E-003;-3.150037955492735E-003;
2.417000000000000E+009;1.749640852212906E-001;-6.220727786421776E-002;-2.563064917922020E-003;-2.908325986936688E-003;
2.417166666666667E+009;1.745987683534622E-001;-6.228484958410263E-002;-2.749092411249876E-003;-2.796805929392576E-003;
2.417333333333334E+009;1.739341020584106E-001;-6.244804710149765E-002;-2.757949987426400E-003;-2.681780373677611E-003;
2.417500000000000E+009;1.732697039842606E-001;-6.280862540006638E-002;-2.826204523444176E-003;-2.626936184242368E-003;
2.417666666666667E+009;1.725504547357559E-001;-6.301841884851456E-002;-3.011848777532578E-003;-2.495141932740808E-003;
2.417833333333334E+009;1.717946827411652E-001;-6.333498656749725E-002;-2.873687539249659E-003;-2.366787288337946E-003;
2.418000000000000E+009;1.707120686769486E-001;-6.366433203220367E-002;-2.961429534479976E-003;-2.115547424182296E-003;
2.418166666666667E+009;1.698479354381561E-001;-6.393738090991974E-002;-3.028060775250197E-003;-1.992557197809219E-003;
2.418333333333334E+009;1.690007895231247E-001;-6.433783471584320E-002;-3.113884478807449E-003;-1.934190862812102E-003;
2.418500000000000E+009;1.678433120250702E-001;-6.480051577091217E-002;-3.142672125250101E-003;-1.691489014774561E-003;
2.418666666666667E+009;1.668276935815811E-001;-6.536226719617844E-002;-3.047264181077480E-003;-1.656001317314804E-003;
2.418833333333334E+009;1.655989289283752E-001;-6.597826629877091E-002;-3.064645687118173E-003;-1.641289796680212E-003;
2.419000000000000E+009;1.643681079149246E-001;-6.650295108556747E-002;-3.172626486048102E-003;-1.270824694074690E-003;
2.419166666666667E+009;1.633827090263367E-001;-6.714873760938644E-002;-3.147220239043236E-003;-1.320324605330825E-003;
2.419333333333334E+009;1.618629992008209E-001;-6.772577762603760E-002;-3.177410224452615E-003;-1.085135038010776E-003;
2.419500000000000E+009;1.608007997274399E-001;-6.874769181013107E-002;-3.143008099868894E-003;-1.023136428557336E-003;
2.419666666666667E+009;1.596713811159134E-001;-6.983210891485214E-002;-3.168535651639104E-003;-8.590037468820810E-004;
2.419833333333334E+009;1.583104431629181E-001;-7.065775990486145E-002;-3.292463021352887E-003;-9.279059595428407E-004;
2.420000000000000E+009;1.573997586965561E-001;-7.173116505146027E-002;-3.052708925679326E-003;-6.639030179940164E-004;
2.420166666666667E+009;1.562105715274811E-001;-7.275447249412537E-002;-3.044404089450836E-003;-5.627995706163347E-004;
2.420333333333334E+009;1.552866399288178E-001;-7.406446337699890E-002;-2.840965753421187E-003;-4.251002392265946E-004;
2.420500000000000E+009;1.542300730943680E-001;-7.510814815759659E-002;-2.901355503126979E-003;-2.235642168670893E-004;
2.420666666666667E+009;1.532823592424393E-001;-7.648441940546036E-002;-2.903125481680036E-003;-1.813795970520005E-004;
2.420833333333334E+009;1.523631811141968E-001;-7.792386412620544E-002;-3.017955692484975E-003;-1.812976261135191E-004;
2.421000000000000E+009;1.513480842113495E-001;-7.951737940311432E-002;-2.895849291235209E-003;1.798582088667899E-004;
2.421166666666667E+009;1.507992595434189E-001;-8.083038032054901E-002;-2.790023107081652E-003;6.316563667496666E-005;
2.421333333333334E+009;1.499492824077606E-001;-8.227625489234924E-002;-2.692777430638671E-003;2.018334198510274E-004;
2.421500000000000E+009;1.491894125938416E-001;-8.395141363143921E-002;-2.559739630669355E-003;1.303475000895560E-004;
2.421666666666667E+009;1.487808376550674E-001;-8.563299477100372E-002;-2.450834261253476E-003;2.597462735138834E-004;
2.421833333333334E+009;1.483526378870010E-001;-8.727024495601654E-002;-2.364496234804392E-003;3.622478398028761E-004;
2.422000000000000E+009;1.478419601917267E-001;-8.883529156446457E-002;-2.381672384217382E-003;2.800731163006276E-004;
2.422166666666667E+009;1.476034522056580E-001;-9.070004522800446E-002;-2.397409174591303E-003;4.253772785887122E-004;
2.422333333333334E+009;1.474253386259079E-001;-9.233653545379639E-002;-2.257707295939326E-003;4.114992916584015E-004;
2.422500000000000E+009;1.470854878425598E-001;-9.382019191980362E-002;-2.230097306892276E-003;4.083027597516775E-004;
2.422666666666667E+009;1.468811631202698E-001;-9.574972093105316E-002;-1.903197029605508E-003;4.275536048226059E-004;
2.422833333333334E+009;1.471199393272400E-001;-9.748484194278717E-002;-1.896648784168065E-003;4.734392859973013E-004;
2.423000000000000E+009;1.470490097999573E-001;-9.906557202339172E-002;-1.957745524123311E-003;5.615875707007945E-004;
2.423166666666667E+009;1.472521722316742E-001;-1.007128655910492E-001;-1.854774658568203E-003;3.846688196063042E-004;
2.423333333333334E+009;1.472999602556229E-001;-1.021698415279388E-001;-1.765722641721368E-003;4.360348975751549E-004;
2.423500000000000E+009;1.475282907485962E-001;-1.038890406489372E-001;-1.808073720894754E-003;4.967909771949053E-004;
2.423666666666667E+009;1.477232426404953E-001;-1.055542752146721E-001;-1.726211048662663E-003;6.109990063123405E-004;
2.423833333333334E+009;1.480818986892700E-001;-1.069060638546944E-001;-1.628357451409102E-003;4.655022930819541E-004;
2.424000000000000E+009;1.481528431177139E-001;-1.081767007708550E-001;-1.820785342715681E-003;5.171712837181985E-004;
2.424166666666667E+009;1.485289037227631E-001;-1.097371727228165E-001;-1.651482074521482E-003;3.193724551238120E-004;
2.424333333333334E+009;1.490053087472916E-001;-1.107485443353653E-001;-1.869881409220398E-003;3.909399674739689E-004;
2.424500000000000E+009;1.492665708065033E-001;-1.121907085180283E-001;-1.719775958918035E-003;4.965626285411418E-004;
2.424666666666667E+009;1.497126370668411E-001;-1.131020858883858E-001;-1.721408101730049E-003;5.038414383307099E-004;
2.424833333333334E+009;1.499599069356918E-001;-1.141635701060295E-001;-1.644448842853308E-003;5.450113676488400E-004;
2.425000000000000E+009;1.503917872905731E-001;-1.151558831334114E-001;-1.789719914086163E-003;5.641473107971251E-004;
2.425166666666667E+009;1.504894793033600E-001;-1.159800663590431E-001;-1.705233706161380E-003;6.710049347020686E-004;
2.425333333333334E+009;1.508029699325562E-001;-1.168599128723145E-001;-1.844289246946573E-003;6.334182107821107E-004;
2.425500000000000E+009;1.512475758790970E-001;-1.176018342375755E-001;-1.671651727519929E-003;5.660741007886827E-004;
2.425666666666667E+009;1.512071192264557E-001;-1.181484386324883E-001;-1.747547183185816E-003;6.910792435519397E-004;
2.425833333333334E+009;1.514013856649399E-001;-1.187150627374649E-001;-1.685601659119129E-003;7.413757266476750E-004;
2.426000000000000E+009;1.517048031091690E-001;-1.193584501743317E-001;-1.618357724510133E-003;5.897154333069921E-004;
2.426166666666667E+009;1.518239825963974E-001;-1.197534501552582E-001;-1.749868737533689E-003;6.498002330772579E-004;
2.426333333333334E+009;1.517920494079590E-001;-1.200691163539887E-001;-1.584398793056607E-003;8.091246709227562E-004;
2.426500000000000E+009;1.517471820116043E-001;-1.203426197171211E-001;-1.476523815654218E-003;7.418106542900205E-004;
2.426666666666667E+009;1.516794860363007E-001;-1.205591484904289E-001;-1.489386544562876E-003;7.804938359186053E-004;
2.426833333333334E+009;1.513796150684357E-001;-1.208689659833908E-001;-1.630518119782209E-003;9.036112460307777E-004;
2.427000000000000E+009;1.511243730783463E-001;-1.211702376604080E-001;-1.584115321747959E-003;9.756583021953702E-004;
2.427166666666667E+009;1.506856679916382E-001;-1.212378963828087E-001;-1.504858140833676E-003;8.415637421421707E-004;
2.427333333333334E+009;1.501430422067642E-001;-1.213679611682892E-001;-1.429690048098564E-003;9.729998419061303E-004;
2.427500000000000E+009;1.498193293809891E-001;-1.215645670890808E-001;-1.497709075920284E-003;9.564741048961878E-004;
2.427666666666667E+009;1.490304023027420E-001;-1.216207444667816E-001;-1.410128781571984E-003;8.410721202380955E-004;
