# Version 1.00
#
freq[Hz];re:Trc1_S11;im:Trc1_S11;re:Trc2_S21;im:Trc2_S21;
2.400000000000000E+009;1.609717607498169E-001;5.663769319653511E-002;6.200330099090934E-004;5.015762522816658E-003;
2.400166666666667E+009;1.610388606786728E-001;5.511588975787163E-002;6.284939008764923E-004;5.127241369336844E-003;
2.400333333333334E+009;1.610078513622284E-001;5.320822447538376E-002;7.609944441355765E-004;5.256999749690294E-003;
2.400500000000000E+009;1.612684428691864E-001;5.152008682489395E-002;9.146833326667547E-004;5.296940915286541E-003;
2.400666666666667E+009;1.613356471061707E-001;4.959906265139580E-002;1.094875973649323E-003;5.466094240546227E-003;
2.400833333333334E+009;1.614933460950851E-001;4.792567715048790E-002;1.384832081384957E-003;5.503428634256125E-003;
2.401000000000000E+009;1.616488844156265E-001;4.593989998102188E-002;1.484471606090665E-003;5.630444735288620E-003;
2.401166666666667E+009;1.619900017976761E-001;4.404891654849052E-002;1.862290897406638E-003;5.805541761219502E-003;
2.401333333333334E+009;1.620854884386063E-001;4.231269657611847E-002;2.096673240885139E-003;5.775226280093193E-003;
2.401500000000000E+009;1.625838428735733E-001;4.036724194884300E-002;2.234089886769652E-003;5.821622908115387E-003;
2.401666666666667E+009;1.630925536155701E-001;3.869221732020378E-002;2.583082299679518E-003;5.891575943678618E-003;
2.401833333333334E+009;1.632990241050720E-001;3.662404045462608E-002;2.901992993429303E-003;5.907808896154165E-003;
2.402000000000000E+009;1.635124236345291E-001;3.495302423834801E-002;3.209176706150174E-003;5.830096080899239E-003;
2.402166666666667E+009;1.641706824302673E-001;3.302332386374474E-002;3.528395202010870E-003;5.688447505235672E-003;
2.402333333333334E+009;1.645939350128174E-001;3.139725700020790E-002;3.986699040979147E-003;5.635125562548637E-003;
2.402500000000000E+009;1.652494817972183E-001;2.994413860142231E-002;4.269790835678577E-003;5.478920880705118E-003;
2.402666666666667E+009;1.657810211181641E-001;2.847573161125183E-002;4.502600058913231E-003;5.300692282617092E-003;
2.402833333333334E+009;1.663158088922501E-001;2.676681242883205E-002;4.849888850003481E-003;5.260440986603499E-003;
2.403000000000000E+009;1.670203804969788E-001;2.556312270462513E-002;5.242174025624991E-003;5.100096575915813E-003;
2.403166666666667E+009;1.676650196313858E-001;2.396100386977196E-002;5.560066550970078E-003;4.933817312121391E-003;
2.403333333333334E+009;1.684927642345429E-001;2.263636887073517E-002;5.813129711896181E-003;4.690721165388823E-003;
2.403500000000000E+009;1.690393537282944E-001;2.138672396540642E-002;5.993310362100601E-003;4.251801408827305E-003;
2.403666666666667E+009;1.698246896266937E-001;2.012803032994270E-002;6.334322039037943E-003;3.915043082088232E-003;
2.403833333333334E+009;1.706007719039917E-001;1.911639049649239E-002;6.548661738634110E-003;3.707957454025745E-003;
2.404000000000000E+009;1.713671684265137E-001;1.804452203214169E-002;6.694735493510962E-003;3.383107949048281E-003;
2.404166666666667E+009;1.720621585845947E-001;1.708265580236912E-002;7.032317109405994E-003;2.979202661663294E-003;
2.404333333333334E+009;1.726306974887848E-001;1.620822399854660E-002;7.124726194888353E-003;2.650457900017500E-003;
2.404500000000000E+009;1.731228530406952E-001;1.523500867187977E-002;7.228411268442869E-003;2.180985175073147E-003;
2.404666666666667E+009;1.739079654216766E-001;1.441802084445953E-002;7.322695106267929E-003;1.839977223426104E-003;
2.404833333333334E+009;1.744264513254166E-001;1.375453267246485E-002;7.564395666122437E-003;1.363961957395077E-003;
2.405000000000000E+009;1.750653535127640E-001;1.289220619946718E-002;7.489040959626436E-003;9.529394446872175E-004;
2.405166666666667E+009;1.755227297544479E-001;1.239935401827097E-002;7.299593649804592E-003;6.944519118405879E-004;
2.405333333333334E+009;1.762265413999558E-001;1.174061466008425E-002;7.432788144797087E-003;1.143682238762267E-004;
2.405500000000000E+009;1.765566915273666E-001;1.125501282513142E-002;7.365858182311058E-003;-1.040419447235763E-004;
2.405666666666667E+009;1.769471615552902E-001;1.091196574270725E-002;7.362810429185629E-003;-5.171133670955896E-004;
2.405833333333334E+009;1.772060841321945E-001;1.048266887664795E-002;7.259498815983534E-003;-8.384197717532516E-004;
2.406000000000000E+009;1.775971353054047E-001;9.816864505410194E-003;7.177447434514761E-003;-1.266729552298784E-003;
2.406166666666667E+009;1.777173280715942E-001;9.635933674871922E-003;7.020771503448486E-003;-1.394742052070797E-003;
2.406333333333334E+009;1.780980080366135E-001;9.125760756433010E-003;6.733435671776533E-003;-1.708086696453393E-003;
2.406500000000000E+009;1.781248450279236E-001;8.683332242071629E-003;6.688561756163836E-003;-2.045847009867430E-003;
2.406666666666667E+009;1.779540777206421E-001;8.317224681377411E-003;6.571007892489433E-003;-2.316813683137298E-003;
2.406833333333334E+009;1.782038807868958E-001;7.910675369203091E-003;6.392842624336481E-003;-2.539729932323098E-003;
2.407000000000000E+009;1.780903488397598E-001;7.490810472518206E-003;5.860822740942240E-003;-2.937560202553868E-003;
2.407166666666667E+009;1.780674010515213E-001;7.131955120712519E-003;5.837497301399708E-003;-3.046036930754781E-003;
2.407333333333334E+009;1.778229624032974E-001;6.438249722123146E-003;5.647073499858379E-003;-3.506913548335433E-003;
2.407500000000000E+009;1.775958687067032E-001;5.976696964353323E-003;5.539088509976864E-003;-3.545386483892798E-003;
2.407666666666667E+009;1.772486269474030E-001;5.418778862804174E-003;5.057637579739094E-003;-3.673317376524210E-003;
2.407833333333334E+009;1.769476681947708E-001;4.564068745821714E-003;4.809708800166845E-003;-3.898744471371174E-003;
2.408000000000000E+009;1.766763329505920E-001;3.878702875226736E-003;4.751785192638636E-003;-4.005223046988249E-003;
2.408166666666667E+009;1.761414706707001E-001;3.077996196225286E-003;4.565282259136438E-003;-4.028597380965948E-003;
2.408333333333334E+009;1.759173870086670E-001;2.272575860843062E-003;4.234899766743183E-003;-4.119172226637602E-003;
2.408500000000000E+009;1.752440482378006E-001;1.428729272447527E-003;4.115866031497717E-003;-4.317611455917358E-003;
2.408666666666667E+009;1.748191416263580E-001;3.839092096313834E-004;3.826937172561884E-003;-4.501176998019218E-003;
2.408833333333334E+009;1.741410195827484E-001;-8.549065678380430E-004;3.605146193876863E-003;-4.386468790471554E-003;
2.409000000000000E+009;1.737345159053803E-001;-1.932685147039592E-003;3.409751458093524E-003;-4.555074498057365E-003;
2.409166666666667E+009;1.731327176094055E-001;-3.096076659858227E-003;3.108933335170150E-003;-4.466559272259474E-003;
2.409333333333334E+009;1.725973933935165E-001;-4.510918166488409E-003;3.036202164366841E-003;-4.514733795076609E-003;
2.409500000000000E+009;1.720213890075684E-001;-5.874590016901493E-003;2.626132685691118E-003;-4.534214735031128E-003;
2.409666666666667E+009;1.713270097970963E-001;-7.325695361942053E-003;2.504038857296109E-003;-4.488786216825247E-003;
2.409833333333334E+009;1.708001643419266E-001;-8.638205938041210E-003;2.294781617820263E-003;-4.380409605801106E-003;
2.410000000000000E+009;1.705708354711533E-001;-1.021649502217770E-002;2.063928870484233E-003;-4.352023825049400E-003;
2.410166666666667E+009;1.699758470058441E-001;-1.189107820391655E-002;1.835467177443206E-003;-4.364088643342257E-003;
2.410333333333334E+009;1.695973873138428E-001;-1.352749485522509E-002;1.876035588793457E-003;-4.200900904834271E-003;
2.410500000000000E+009;1.691598892211914E-001;-1.512791402637959E-002;1.580634736455977E-003;-4.252224694937468E-003;
2.410666666666667E+009;1.687898188829422E-001;-1.701901666820049E-002;1.464925240725279E-003;-4.094999749213457E-003;
2.410833333333334E+009;1.686554700136185E-001;-1.880487240850925E-002;1.331755891442299E-003;-4.023016430437565E-003;
2.411000000000000E+009;1.685644239187241E-001;-2.066131681203842E-002;1.334523200057447E-003;-3.948478493839502E-003;
2.411166666666667E+009;1.681787073612213E-001;-2.247300185263157E-002;1.272458932362497E-003;-3.926875535398722E-003;
2.411333333333334E+009;1.681535989046097E-001;-2.435066550970078E-002;1.147407805547118E-003;-3.906098660081625E-003;
2.411500000000000E+009;1.679495722055435E-001;-2.632353268563747E-002;1.076513668522239E-003;-3.937961068004370E-003;
2.411666666666667E+009;1.681452691555023E-001;-2.806081995368004E-002;9.162403293885291E-004;-3.917479887604713E-003;
2.411833333333334E+009;1.680940538644791E-001;-2.997491136193276E-002;1.012317603453994E-003;-3.760759485885501E-003;
2.412000000000000E+009;1.684916764497757E-001;-3.186758607625961E-002;9.612797293812037E-004;-3.889644052833319E-003;
2.412166666666667E+009;1.682325005531311E-001;-3.372127935290337E-002;7.361365132965148E-004;-3.823556704446673E-003;
2.412333333333334E+009;1.688041090965271E-001;-3.554426506161690E-002;7.061739452183247E-004;-3.999452106654644E-003;
2.412500000000000E+009;1.688561439514160E-001;-3.730053454637528E-002;6.270903395488858E-004;-4.186148755252361E-003;
2.412666666666667E+009;1.692525893449783E-001;-3.927561640739441E-002;7.145342533476651E-004;-3.984844777733088E-003;
2.412833333333334E+009;1.697079092264175E-001;-4.092840477824211E-002;4.630988987628371E-004;-3.973399288952351E-003;
2.413000000000000E+009;1.699993610382080E-001;-4.265359416604042E-002;4.041820066049695E-004;-4.093744326382875E-003;
2.413166666666667E+009;1.703843921422958E-001;-4.420155286788940E-002;2.576514671090990E-004;-4.096975084394217E-003;
2.413333333333334E+009;1.706091612577438E-001;-4.575863480567932E-002;1.701687288004905E-004;-4.051976371556521E-003;
2.413500000000000E+009;1.712768375873566E-001;-4.728375747799873E-002;8.627266652183607E-005;-4.070497583597899E-003;
2.413666666666667E+009;1.719176769256592E-001;-4.863410443067551E-002;-2.492436760803685E-005;-3.971585538238287E-003;
2.413833333333334E+009;1.720902919769287E-001;-4.989040270447731E-002;-9.207127004629001E-005;-4.199076443910599E-003;
2.414000000000000E+009;1.726181209087372E-001;-5.137714743614197E-002;-3.667048295028508E-004;-4.017224069684744E-003;
2.414166666666667E+009;1.732559055089951E-001;-5.238166451454163E-002;-5.122525035403669E-004;-4.042088519781828E-003;
2.414333333333334E+009;1.736247390508652E-001;-5.363803729414940E-002;-5.246428772807121E-004;-3.973749931901693E-003;
2.414500000000000E+009;1.742437332868576E-001;-5.445813015103340E-002;-7.643711287528276E-004;-3.961776383221149E-003;
2.414666666666667E+009;1.745508909225464E-001;-5.548376217484474E-002;-8.058538078330457E-004;-3.952843602746725E-003;
2.414833333333334E+009;1.750455498695374E-001;-5.645906925201416E-002;-9.484778856858611E-004;-4.060324747115374E-003;
2.415000000000000E+009;1.753093749284744E-001;-5.715060234069824E-002;-1.053135143592954E-003;-3.826696658506990E-003;
2.415166666666667E+009;1.755723953247070E-001;-5.781917273998261E-002;-1.236992771737278E-003;-3.987717442214489E-003;
2.415333333333334E+009;1.759800463914871E-001;-5.857992917299271E-002;-1.173457247205079E-003;-3.932799678295851E-003;
2.415500000000000E+009;1.761920899152756E-001;-5.906943604350090E-002;-1.415116596035659E-003;-3.736290615051985E-003;
2.415666666666667E+009;1.763032078742981E-001;-5.954293534159660E-002;-1.565518323332071E-003;-3.746320260688663E-003;
2.415833333333334E+009;1.764911264181137E-001;-5.997266992926598E-002;-1.837793504819274E-003;-3.610599786043167E-003;
2.416000000000000E+009;1.764670312404633E-001;-6.037608534097672E-002;-1.842435449361801E-003;-3.586963051930070E-003;
2.416166666666667E+009;1.766345798969269E-001;-6.069601327180862E-002;-2.103914041072130E-003;-3.527482738718391E-003;
2.416333333333334E+009;1.764265000820160E-001;-6.103571131825447E-002;-2.175531117245555E-003;-3.517870325595141E-003;
2.416500000000000E+009;1.762575209140778E-001;-6.125895306468010E-002;-2.382122213020921E-003;-3.371346509084106E-003;
2.416666666666667E+009;1.758005768060684E-001;-6.144713982939720E-002;-2.411742694675922E-003;-3.240710357204080E-003;
2.416833333333334E+009;1.755520999431610E-001;-6.185624003410339E-002;-2.457860158756375E-003;-3.091567661613226E-003;
2.417000000000000E+009;1.749945878982544E-001;-6.211667135357857E-002;-2.598194172605872E-003;-3.057248424738646E-003;
2.417166666666667E+009;1.745566427707672E-001;-6.225726380944252E-002;-2.678534481674433E-003;-2.861460205167532E-003;
2.417333333333334E+009;1.739719212055206E-001;-6.227257475256920E-002;-2.955763833597302E-003;-2.748462604358792E-003;
2.417500000000000E+009;1.732673794031143E-001;-6.292673200368881E-002;-2.838329179212451E-003;-2.573153702542186E-003;
2.417666666666667E+009;1.726113557815552E-001;-6.294406205415726E-002;-2.971072681248188E-003;-2.515199128538370E-003;
2.417833333333334E+009;1.717696934938431E-001;-6.327044218778610E-002;-2.973037306219339E-003;-2.430033870041370E-003;
2.418000000000000E+009;1.707060337066650E-001;-6.374511122703552E-002;-2.908492693677545E-003;-2.184714889153838E-003;
2.418166666666667E+009;1.698524057865143E-001;-6.388691812753677E-002;-3.064531832933426E-003;-2.107091713696718E-003;
2.418333333333334E+009;1.690334975719452E-001;-6.438357383012772E-002;-2.985632978379726E-003;-1.823518308810890E-003;
2.418500000000000E+009;1.679005771875382E-001;-6.472195684909821E-002;-3.213172545656562E-003;-1.734092831611633E-003;
2.418666666666667E+009;1.668120324611664E-001;-6.528734415769577E-002;-3.094375366345048E-003;-1.680513261817396E-003;
2.418833333333334E+009;1.655447632074356E-001;-6.587636470794678E-002;-3.068833379074931E-003;-1.567568513564766E-003;
2.419000000000000E+009;1.643038690090179E-001;-6.643302738666534E-002;-3.054696833714843E-003;-1.376396045088768E-003;
2.419166666666667E+009;1.632893532514572E-001;-6.718668341636658E-002;-3.227412933483720E-003;-1.301261130720377E-003;
2.419333333333334E+009;1.618687361478806E-001;-6.764909625053406E-002;-3.207622328773141E-003;-1.066309981979430E-003;
2.419500000000000E+009;1.608106046915054E-001;-6.876429915428162E-002;-3.052322892472148E-003;-1.103681745007634E-003;
2.419666666666667E+009;1.597324013710022E-001;-6.975508481264114E-002;-3.071108367294073E-003;-8.003107504919171E-004;
2.419833333333334E+009;1.584740579128265E-001;-7.051597535610199E-002;-3.064048010855913E-003;-8.490175241604447E-004;
2.420000000000000E+009;1.574568599462509E-001;-7.177986204624176E-002;-2.993039088323712E-003;-7.093086023814976E-004;
2.420166666666667E+009;1.563184559345245E-001;-7.284787297248840E-002;-3.198130987584591E-003;-5.921105039305985E-004;
2.420333333333334E+009;1.552154719829559E-001;-7.392737269401550E-002;-2.973687136545777E-003;-3.456859267316759E-004;
2.420500000000000E+009;1.543042510747910E-001;-7.505834847688675E-002;-2.924418775364757E-003;-3.250084118917584E-004;
2.420666666666667E+009;1.532043218612671E-001;-7.660038024187088E-002;-2.909478731453419E-003;-3.470838710200042E-004;
2.420833333333334E+009;1.523794382810593E-001;-7.788620889186859E-002;-2.810444682836533E-003;-1.906971010612324E-005;
2.421000000000000E+009;1.514653712511063E-001;-7.932063192129135E-002;-2.897968282923102E-003;-1.533127360744402E-004;
2.421166666666667E+009;1.507363319396973E-001;-8.085449039936066E-002;-2.630171366035938E-003;3.140467379125767E-005;
2.421333333333334E+009;1.501617282629013E-001;-8.232895284891129E-002;-2.699264325201511E-003;2.040232357103378E-004;
2.421500000000000E+009;1.492359787225723E-001;-8.392300456762314E-002;-2.704384969547391E-003;8.221970347221941E-005;
2.421666666666667E+009;1.489259749650955E-001;-8.546872437000275E-002;-2.527713077142835E-003;2.206947247032076E-004;
2.421833333333334E+009;1.484495103359222E-001;-8.717162162065506E-002;-2.371995477005839E-003;3.629899874795228E-004;
2.422000000000000E+009;1.478788405656815E-001;-8.899687975645065E-002;-2.456126501783729E-003;3.098729357589036E-004;
2.422166666666667E+009;1.475853174924851E-001;-9.088569879531860E-002;-2.195210428908467E-003;5.040755495429039E-004;
2.422333333333334E+009;1.472843736410141E-001;-9.221445769071579E-002;-2.296072896569967E-003;4.047233087476343E-004;
2.422500000000000E+009;1.471137702465057E-001;-9.384445101022720E-002;-2.120954450219870E-003;5.275869043543935E-004;
2.422666666666667E+009;1.468654870986939E-001;-9.572316706180573E-002;-2.051976276561618E-003;4.663945874199271E-004;
2.422833333333334E+009;1.468593478202820E-001;-9.751477092504501E-002;-1.993974903598428E-003;4.324345791246742E-004;
2.423000000000000E+009;1.469812095165253E-001;-9.915620088577271E-002;-1.951048267073929E-003;3.769191971514374E-004;
2.423166666666667E+009;1.471168249845505E-001;-1.006969660520554E-001;-1.753489836119115E-003;5.599449505098164E-004;
2.423333333333334E+009;1.474563628435135E-001;-1.022667139768601E-001;-1.929828082211316E-003;4.664642910938710E-004;
2.423500000000000E+009;1.474117934703827E-001;-1.038331091403961E-001;-1.768587273545563E-003;5.169090582057834E-004;
2.423666666666667E+009;1.476659476757050E-001;-1.054789274930954E-001;-1.703745452687144E-003;5.091468919999898E-004;
2.423833333333334E+009;1.480298638343811E-001;-1.068814694881439E-001;-1.698351581580937E-003;6.285947165451944E-004;
2.424000000000000E+009;1.482961326837540E-001;-1.080681011080742E-001;-1.794859766960144E-003;4.400596953928471E-004;
2.424166666666667E+009;1.485101133584976E-001;-1.096116527915001E-001;-1.714278711006045E-003;4.128958389628679E-004;
2.424333333333334E+009;1.488946378231049E-001;-1.107944101095200E-001;-1.626743702217937E-003;4.499955975916237E-004;
2.424500000000000E+009;1.492785960435867E-001;-1.119998246431351E-001;-1.682694302871823E-003;5.066199810244143E-004;
2.424666666666667E+009;1.497301459312439E-001;-1.128670871257782E-001;-1.774252625182271E-003;5.129799828864634E-004;
2.424833333333334E+009;1.500403583049774E-001;-1.140225380659103E-001;-1.653312472626567E-003;4.584892885759473E-004;
2.425000000000000E+009;1.503904461860657E-001;-1.149188056588173E-001;-1.742507563903928E-003;4.881418135482818E-004;
2.425166666666667E+009;1.505127400159836E-001;-1.159949153661728E-001;-1.543860533274710E-003;6.627358379773796E-004;
2.425333333333334E+009;1.508791893720627E-001;-1.167129352688789E-001;-1.665017101913691E-003;5.759626510553062E-004;
2.425500000000000E+009;1.511278152465820E-001;-1.175195202231407E-001;-1.870715292170644E-003;6.115207215771079E-004;
2.425666666666667E+009;1.512998193502426E-001;-1.181158572435379E-001;-1.646469580009580E-003;7.120669470168650E-004;
2.425833333333334E+009;1.515408158302307E-001;-1.186485365033150E-001;-1.685133087448776E-003;5.721821216866374E-004;
2.426000000000000E+009;1.515772044658661E-001;-1.193739473819733E-001;-1.610456616617739E-003;7.104853866621852E-004;
2.426166666666667E+009;1.519031375646591E-001;-1.197718381881714E-001;-1.571561791934073E-003;5.781942163594067E-004;
2.426333333333334E+009;1.517771184444428E-001;-1.200604438781738E-001;-1.595981186255813E-003;8.231045212596655E-004;
2.426500000000000E+009;1.516665220260620E-001;-1.203169822692871E-001;-1.567107625305653E-003;7.661948911845684E-004;
2.426666666666667E+009;1.517661958932877E-001;-1.205036565661430E-001;-1.595873967744410E-003;7.889303378760815E-004;
2.426833333333334E+009;1.514099240303040E-001;-1.207890287041664E-001;-1.497024320997298E-003;9.903584141284227E-004;
2.427000000000000E+009;1.510912030935288E-001;-1.211576387286186E-001;-1.377933775074780E-003;9.444293100386858E-004;
2.427166666666667E+009;1.507080793380737E-001;-1.211734935641289E-001;-1.552367699332535E-003;9.109026868827641E-004;
2.427333333333334E+009;1.502045243978500E-001;-1.213361620903015E-001;-1.417102408595383E-003;9.080379968509078E-004;
2.427500000000000E+009;1.497512161731720E-001;-1.214678883552551E-001;-1.350864535197616E-003;9.353400091640651E-004;
2.427666666666667E+009;1.490840762853622E-001;-1.215867623686791E-001;-1.391676487401128E-003;8.950704359449446E-004;
