# Version 1.00
#
freq[Hz];re:Trc1_S11;im:Trc1_S11;re:Trc2_S21;im:Trc2_S21;
2.400000000000000E+009;1.564307361841202E-001;1.118548512458801E-001;7.152200676500797E-003;-4.100489430129528E-003;
2.400166666666667E+009;1.558251827955246E-001;1.095461100339890E-001;7.093760650604963E-003;-4.227039404213429E-003;
2.400333333333334E+009;1.557117700576782E-001;1.072959229350090E-001;7.041546050459147E-003;-4.380508325994015E-003;
2.400500000000000E+009;1.553598791360855E-001;1.046470105648041E-001;6.924903951585293E-003;-4.543010145425797E-003;
2.400666666666667E+009;1.550438404083252E-001;1.021307036280632E-001;6.777239497750998E-003;-4.737704526633024E-003;
2.400833333333334E+009;1.547300666570664E-001;9.915804117918015E-002;6.746283732354641E-003;-4.944260697811842E-003;
2.401000000000000E+009;1.548649668693543E-001;9.631660580635071E-002;6.689331959933043E-003;-5.161401350051165E-003;
2.401166666666667E+009;1.546816527843475E-001;9.347849339246750E-002;6.459425203502178E-003;-5.448262672871351E-003;
2.401333333333334E+009;1.547725498676300E-001;9.059438109397888E-002;6.369205657392740E-003;-5.790530238300562E-003;
2.401500000000000E+009;1.548563390970230E-001;8.752021193504334E-002;6.089720875024796E-003;-5.946819204837084E-003;
2.401666666666667E+009;1.550945043563843E-001;8.442287147045136E-002;5.961157381534576E-003;-6.170266307890415E-003;
2.401833333333334E+009;1.554140299558640E-001;8.153122663497925E-002;5.719197448343039E-003;-6.526413839310408E-003;
2.402000000000000E+009;1.562077999114990E-001;7.862264662981033E-002;5.459254141896963E-003;-6.649386603385210E-003;
2.402166666666667E+009;1.566304415464401E-001;7.584892958402634E-002;5.019532050937414E-003;-6.844130344688892E-003;
2.402333333333334E+009;1.574788242578507E-001;7.285667955875397E-002;4.906545858830214E-003;-7.020850200206041E-003;
2.402500000000000E+009;1.585980802774429E-001;6.998586654663086E-002;4.547414835542440E-003;-7.101126480847597E-003;
2.402666666666667E+009;1.595475673675537E-001;6.741920113563538E-002;4.240004811435938E-003;-7.271113339811564E-003;
2.402833333333334E+009;1.608801484107971E-001;6.464567780494690E-002;3.847642103210092E-003;-7.392955943942070E-003;
2.403000000000000E+009;1.622868180274963E-001;6.216089427471161E-002;3.633081680163741E-003;-7.322982419282198E-003;
2.403166666666667E+009;1.641362011432648E-001;5.956848338246346E-002;3.306849393993616E-003;-7.345253601670265E-003;
2.403333333333334E+009;1.654141843318939E-001;5.710133910179138E-002;3.045039484277368E-003;-7.357318885624409E-003;
2.403500000000000E+009;1.671767234802246E-001;5.480030551552773E-002;2.735282992944121E-003;-7.441693451255560E-003;
2.403666666666667E+009;1.690419167280197E-001;5.256588757038117E-002;2.474585082381964E-003;-7.421108428388834E-003;
2.403833333333334E+009;1.707292944192886E-001;5.039601400494576E-002;2.346312860026956E-003;-7.443609647452831E-003;
2.404000000000000E+009;1.723940521478653E-001;4.845374450087547E-002;1.932855695486069E-003;-7.462909445166588E-003;
2.404166666666667E+009;1.742339581251144E-001;4.660005122423172E-002;1.827515312470496E-003;-7.572809234261513E-003;
2.404333333333334E+009;1.761159449815750E-001;4.480605944991112E-002;1.530505134724081E-003;-7.569271605461836E-003;
2.404500000000000E+009;1.777119636535645E-001;4.323830083012581E-002;1.353973406367004E-003;-7.668501697480679E-003;
2.404666666666667E+009;1.796890646219254E-001;4.193265736103058E-002;1.166872796602547E-003;-7.667967118322849E-003;
2.404833333333334E+009;1.815399527549744E-001;4.068265855312347E-002;7.180250831879675E-004;-7.685200776904821E-003;
2.405000000000000E+009;1.829620152711868E-001;3.992388769984245E-002;5.635448615066707E-004;-7.582549005746841E-003;
2.405166666666667E+009;1.848941892385483E-001;3.915484249591827E-002;2.072136121569201E-004;-7.627508137375116E-003;
2.405333333333334E+009;1.865492910146713E-001;3.839778900146484E-002;-7.051644206512719E-005;-7.726488169282675E-003;
2.405500000000000E+009;1.881065815687180E-001;3.780352696776390E-002;-1.152428303612396E-004;-7.563816849142313E-003;
2.405666666666667E+009;1.895707249641419E-001;3.744774684309959E-002;-5.490232724696398E-004;-7.464598864316940E-003;
2.405833333333334E+009;1.910412907600403E-001;3.725897893309593E-002;-7.620035903528333E-004;-7.395240943878889E-003;
2.406000000000000E+009;1.923235207796097E-001;3.708198294043541E-002;-9.519808809272945E-004;-7.145228330045939E-003;
2.406166666666667E+009;1.936905980110169E-001;3.689265251159668E-002;-1.097273547202349E-003;-7.238602731376886E-003;
2.406333333333334E+009;1.948549300432205E-001;3.702351078391075E-002;-1.362945535220206E-003;-7.128308061510325E-003;
2.406500000000000E+009;1.959307789802551E-001;3.713374584913254E-002;-1.517857657745481E-003;-6.887149065732956E-003;
2.406666666666667E+009;1.966827958822250E-001;3.733083605766296E-002;-1.782697159796953E-003;-6.875817198306322E-003;
2.406833333333334E+009;1.974826306104660E-001;3.747645020484924E-002;-2.008390147238970E-003;-6.772484630346298E-003;
2.407000000000000E+009;1.979106664657593E-001;3.793711960315704E-002;-2.094310242682695E-003;-6.760607939213514E-003;
2.407166666666667E+009;1.986753940582275E-001;3.797191381454468E-002;-2.266976283863187E-003;-6.546570919454098E-003;
2.407333333333334E+009;1.988348513841629E-001;3.838634118437767E-002;-2.316564088687301E-003;-6.558730732649565E-003;
2.407500000000000E+009;1.989446431398392E-001;3.871316462755203E-002;-2.650177339091897E-003;-6.397647317498922E-003;
2.407666666666667E+009;1.990763098001480E-001;3.887737169861794E-002;-2.689551329240203E-003;-6.369538605213165E-003;
2.407833333333334E+009;1.985187679529190E-001;3.895681351423264E-002;-2.921995939686894E-003;-6.248953752219677E-003;
2.408000000000000E+009;1.987920254468918E-001;3.924041613936424E-002;-3.033556509763002E-003;-6.125635001808405E-003;
2.408166666666667E+009;1.981208473443985E-001;3.927328810095787E-002;-3.101773560047150E-003;-5.991546902805567E-003;
2.408333333333334E+009;1.976869404315949E-001;3.903215751051903E-002;-3.118430497124791E-003;-5.941092502325773E-003;
2.408500000000000E+009;1.970461905002594E-001;3.892870992422104E-002;-3.149714786559343E-003;-5.759377498179674E-003;
2.408666666666667E+009;1.963853836059570E-001;3.884334117174149E-002;-3.292715875431895E-003;-5.601288285106421E-003;
2.408833333333334E+009;1.957817524671555E-001;3.838685899972916E-002;-3.398041706532240E-003;-5.535237956792116E-003;
2.409000000000000E+009;1.946266442537308E-001;3.781695663928986E-002;-3.480493789538741E-003;-5.403192248195410E-003;
2.409166666666667E+009;1.936571300029755E-001;3.704076260328293E-002;-3.518533194437623E-003;-5.481831729412079E-003;
2.409333333333334E+009;1.926334500312805E-001;3.653471544384956E-002;-3.672209102660418E-003;-5.400293506681919E-003;
2.409500000000000E+009;1.912938505411148E-001;3.541897982358933E-002;-3.734389087185264E-003;-5.251003894954920E-003;
2.409666666666667E+009;1.902401000261307E-001;3.424806520342827E-002;-3.869243431836367E-003;-5.318103358149529E-003;
2.409833333333334E+009;1.890562325716019E-001;3.294372186064720E-002;-3.824790706858039E-003;-5.248347297310829E-003;
2.410000000000000E+009;1.877816021442413E-001;3.164199739694595E-002;-3.981512505561113E-003;-5.112587939947844E-003;
2.410166666666667E+009;1.863613724708557E-001;3.002853132784367E-002;-4.022067412734032E-003;-5.145336966961622E-003;
2.410333333333334E+009;1.851242482662201E-001;2.830084972083569E-002;-4.080717451870441E-003;-5.095664877444506E-003;
2.410500000000000E+009;1.840460300445557E-001;2.660355158150196E-002;-4.335772246122360E-003;-4.995694849640131E-003;
2.410666666666667E+009;1.829989254474640E-001;2.458959072828293E-002;-4.319140221923590E-003;-5.131905432790518E-003;
2.410833333333334E+009;1.819610595703125E-001;2.239985391497612E-002;-4.524279385805130E-003;-5.116777028888464E-003;
2.411000000000000E+009;1.809870004653931E-001;2.029448375105858E-002;-4.731951281428337E-003;-5.091247614473105E-003;
2.411166666666667E+009;1.801083981990814E-001;1.796778291463852E-002;-4.903670866042376E-003;-5.113372113555670E-003;
2.411333333333334E+009;1.793323904275894E-001;1.540063600987196E-002;-5.071163177490234E-003;-5.068705882877111E-003;
2.411500000000000E+009;1.785175055265427E-001;1.301458477973938E-002;-5.298195872455835E-003;-5.056594498455524E-003;
2.411666666666667E+009;1.781541109085083E-001;1.057680416852236E-002;-5.632718559354544E-003;-5.150091368705034E-003;
2.411833333333334E+009;1.776761412620544E-001;8.097766898572445E-003;-5.965766962617636E-003;-4.829611629247665E-003;
2.412000000000000E+009;1.776099354028702E-001;5.452068522572517E-003;-6.287030410021544E-003;-4.875025711953640E-003;
2.412166666666667E+009;1.773551404476166E-001;3.051670966669917E-003;-6.493199616670609E-003;-4.688999149948359E-003;
2.412333333333334E+009;1.774989962577820E-001;3.644126409199089E-004;-6.655082106590271E-003;-4.565657116472721E-003;
2.412500000000000E+009;1.776182055473328E-001;-2.237205626443029E-003;-6.903626024723053E-003;-4.245966672897339E-003;
2.412666666666667E+009;1.780455261468887E-001;-4.993517883121967E-003;-7.367114070802927E-003;-4.074855241924524E-003;
2.412833333333334E+009;1.787199079990387E-001;-7.398257963359356E-003;-7.567944936454296E-003;-3.746998496353626E-003;
2.413000000000000E+009;1.792332381010056E-001;-1.014026440680027E-002;-7.784428074955940E-003;-3.326107282191515E-003;
2.413166666666667E+009;1.799423545598984E-001;-1.264364458620548E-002;-8.061855100095272E-003;-2.985950326547027E-003;
2.413333333333334E+009;1.809139400720596E-001;-1.521746162325144E-002;-8.243450894951820E-003;-2.587835537269712E-003;
2.413500000000000E+009;1.818264424800873E-001;-1.769992336630821E-002;-8.312570862472057E-003;-2.323168562725186E-003;
2.413666666666667E+009;1.830324828624725E-001;-2.006871998310089E-002;-8.454103954136372E-003;-1.741985441185534E-003;
2.413833333333334E+009;1.841558367013931E-001;-2.237750217318535E-002;-8.607720024883747E-003;-1.388930133543909E-003;
2.414000000000000E+009;1.852751970291138E-001;-2.463372237980366E-002;-8.496220223605633E-003;-1.095715677365661E-003;
2.414166666666667E+009;1.867204457521439E-001;-2.669773064553738E-002;-8.471747860312462E-003;-7.134621846489608E-004;
2.414333333333334E+009;1.879336237907410E-001;-2.883316203951836E-002;-8.481660857796669E-003;-2.494884829502553E-004;
2.414500000000000E+009;1.891791522502899E-001;-3.052835352718830E-002;-8.346352726221085E-003;-3.838779593934305E-005;
2.414666666666667E+009;1.904789954423904E-001;-3.222488239407539E-002;-8.341079577803612E-003;3.004599129781127E-004;
2.414833333333334E+009;1.918308138847351E-001;-3.383221104741097E-002;-8.352405391633511E-003;7.632144261151552E-004;
2.415000000000000E+009;1.933638602495194E-001;-3.532714396715164E-002;-8.297253400087357E-003;1.062783296220005E-003;
2.415166666666667E+009;1.946431994438171E-001;-3.643789514899254E-002;-8.161004632711411E-003;1.359205110929906E-003;
2.415333333333334E+009;1.960868984460831E-001;-3.769419714808464E-002;-8.003008551895618E-003;1.688179443590343E-003;
2.415500000000000E+009;1.973671764135361E-001;-3.845972567796707E-002;-7.838525809347630E-003;2.007212955504656E-003;
2.415666666666667E+009;1.987061053514481E-001;-3.941429033875465E-002;-7.712740451097488E-003;2.310857642441988E-003;
2.415833333333334E+009;1.997505128383637E-001;-4.010119289159775E-002;-7.743188645690680E-003;2.679540542885661E-003;
2.416000000000000E+009;2.009193599224091E-001;-4.076645150780678E-002;-7.543891202658415E-003;2.820332534611225E-003;
2.416166666666667E+009;2.019332200288773E-001;-4.143542051315308E-002;-7.358162198215723E-003;3.226926783099771E-003;
2.416333333333334E+009;2.028197795152664E-001;-4.174773395061493E-002;-7.252599578350782E-003;3.426226321607828E-003;
2.416500000000000E+009;2.035986930131912E-001;-4.190660268068314E-002;-7.055602967739105E-003;3.699237713590264E-003;
2.416666666666667E+009;2.042305618524551E-001;-4.224522411823273E-002;-6.884388625621796E-003;3.970880061388016E-003;
2.416833333333334E+009;2.047091126441956E-001;-4.223214089870453E-002;-6.685803178697825E-003;4.249376244843006E-003;
2.417000000000000E+009;2.050923705101013E-001;-4.227738454937935E-002;-6.446952931582928E-003;4.321291577070952E-003;
2.417166666666667E+009;2.050540000200272E-001;-4.202149808406830E-002;-6.276580505073071E-003;4.590823315083981E-003;
2.417333333333334E+009;2.051256150007248E-001;-4.174521937966347E-002;-6.052186712622643E-003;4.729698877781630E-003;
2.417500000000000E+009;2.051716148853302E-001;-4.176243767142296E-002;-5.793538410216570E-003;4.901295062154532E-003;
2.417666666666667E+009;2.048122435808182E-001;-4.134115204215050E-002;-5.445045884698629E-003;5.183090455830097E-003;
2.417833333333334E+009;2.046396732330322E-001;-4.098967835307121E-002;-5.284675862640142E-003;5.105488467961550E-003;
2.418000000000000E+009;2.041400372982025E-001;-4.054792225360870E-002;-5.016761366277933E-003;5.401549860835075E-003;
2.418166666666667E+009;2.035112529993057E-001;-4.035285860300064E-002;-4.862013738602400E-003;5.391226615756750E-003;
2.418333333333334E+009;2.027569860219955E-001;-3.994075208902359E-002;-4.484051372855902E-003;5.550975911319256E-003;
2.418500000000000E+009;2.018623352050781E-001;-3.982846811413765E-002;-4.343640059232712E-003;5.692245904356241E-003;
2.418666666666667E+009;2.011599987745285E-001;-3.952008858323097E-002;-4.181693773716688E-003;5.696299951523542E-003;
2.418833333333334E+009;1.998603343963623E-001;-3.936190903186798E-002;-3.939857240766287E-003;5.716249346733093E-003;
2.419000000000000E+009;1.987222731113434E-001;-3.945992141962051E-002;-3.528441302478313E-003;5.672627128660679E-003;
2.419166666666667E+009;1.974324733018875E-001;-3.945505619049072E-002;-3.331613726913929E-003;5.572608672082424E-003;
2.419333333333334E+009;1.959251016378403E-001;-3.973227739334106E-002;-3.209104994311929E-003;5.630668718367815E-003;
2.419500000000000E+009;1.945490241050720E-001;-3.991781547665596E-002;-3.079960122704506E-003;5.572099704295397E-003;
2.419666666666667E+009;1.927385926246643E-001;-4.049631208181381E-002;-2.842464484274387E-003;5.428296048194170E-003;
2.419833333333334E+009;1.911153495311737E-001;-4.108459874987602E-002;-2.731335349380970E-003;5.292432848364115E-003;
2.420000000000000E+009;1.895432770252228E-001;-4.181270673871040E-002;-2.637844532728195E-003;5.298149306327105E-003;
2.420166666666667E+009;1.877111643552780E-001;-4.244334623217583E-002;-2.584441797807813E-003;5.445718765258789E-003;
2.420333333333334E+009;1.858969032764435E-001;-4.363113641738892E-002;-2.483133692294359E-003;5.214581266045570E-003;
2.420500000000000E+009;1.841416060924530E-001;-4.466689005494118E-002;-2.641411731019616E-003;5.300327669829130E-003;
2.420666666666667E+009;1.821427643299103E-001;-4.575419798493385E-002;-2.484714612364769E-003;5.289188586175442E-003;
2.420833333333334E+009;1.804572790861130E-001;-4.719401523470879E-002;-2.398268552497029E-003;5.417088977992535E-003;
2.421000000000000E+009;1.788491904735565E-001;-4.874323680996895E-002;-2.350392052903771E-003;5.477315280586481E-003;
2.421166666666667E+009;1.772626489400864E-001;-5.026102811098099E-002;-2.230060286819935E-003;5.598135292530060E-003;
2.421333333333334E+009;1.753011047840118E-001;-5.195642262697220E-002;-2.215951681137085E-003;5.366728175431490E-003;
2.421500000000000E+009;1.738253533840179E-001;-5.383331701159477E-002;-2.130236476659775E-003;5.587325897067785E-003;
2.421666666666667E+009;1.723347306251526E-001;-5.560765787959099E-002;-1.880678231827915E-003;5.626861471682787E-003;
2.421833333333334E+009;1.709451526403427E-001;-5.757289007306099E-002;-1.884172321297228E-003;5.773031618446112E-003;
2.422000000000000E+009;1.696848124265671E-001;-5.964325368404388E-002;-1.769494614563882E-003;5.797924008220434E-003;
2.422166666666667E+009;1.685808151960373E-001;-6.195816770195961E-002;-1.507298322394490E-003;5.930776242166758E-003;
2.422333333333334E+009;1.673628836870194E-001;-6.401849538087845E-002;-1.629391219466925E-003;5.842356942594051E-003;
2.422500000000000E+009;1.663351505994797E-001;-6.622376292943955E-002;-1.416392973624170E-003;5.839848425239325E-003;
2.422666666666667E+009;1.654576212167740E-001;-6.843724846839905E-002;-1.202888553962112E-003;6.005743052810431E-003;
2.422833333333334E+009;1.647705882787705E-001;-7.063949108123779E-002;-1.091215526685119E-003;6.107542198151350E-003;
2.423000000000000E+009;1.640969663858414E-001;-7.292540371417999E-002;-1.026575104333460E-003;6.188923958688974E-003;
2.423166666666667E+009;1.638032346963882E-001;-7.511978596448898E-002;-9.557488374412060E-004;6.278919987380505E-003;
2.423333333333334E+009;1.634067147970200E-001;-7.736587524414063E-002;-6.193396984599531E-004;6.463056430220604E-003;
2.423500000000000E+009;1.631992608308792E-001;-7.944575697183609E-002;-3.767861926462501E-004;6.399043835699558E-003;
2.423666666666667E+009;1.631320416927338E-001;-8.174947649240494E-002;-3.182664222549647E-004;6.457570474594832E-003;
2.423833333333334E+009;1.630105376243591E-001;-8.372873067855835E-002;-1.314311230089515E-004;6.619960069656372E-003;
2.424000000000000E+009;1.632105112075806E-001;-8.572121709585190E-002;7.191945041995496E-005;6.665116176009178E-003;
2.424166666666667E+009;1.632089912891388E-001;-8.750749379396439E-002;3.953790874220431E-004;6.633481942117214E-003;
2.424333333333334E+009;1.634470820426941E-001;-8.933795243501663E-002;5.499325343407691E-004;6.618493236601353E-003;
2.424500000000000E+009;1.638174355030060E-001;-9.123671799898148E-002;8.577328408136964E-004;6.697370205074549E-003;
2.424666666666667E+009;1.642088443040848E-001;-9.280141443014145E-002;1.025466597639024E-003;6.641179788857698E-003;
2.424833333333334E+009;1.649174243211746E-001;-9.426601231098175E-002;1.308668288402259E-003;6.526088807731867E-003;
2.425000000000000E+009;1.653772294521332E-001;-9.582775086164475E-002;1.574146328493953E-003;6.624826695770025E-003;
2.425166666666667E+009;1.657817661762238E-001;-9.700927883386612E-002;1.811733818612993E-003;6.484908983111382E-003;
2.425333333333334E+009;1.662834882736206E-001;-9.817847609519959E-002;1.887307851575315E-003;6.264728028327227E-003;
2.425500000000000E+009;1.669330745935440E-001;-9.942001104354858E-002;2.358420053496957E-003;6.422014441341162E-003;
2.425666666666667E+009;1.675085872411728E-001;-1.001757234334946E-001;2.469207393005490E-003;6.331192329525948E-003;
2.425833333333334E+009;1.681109368801117E-001;-1.012376248836517E-001;2.538884757086635E-003;6.225329358130693E-003;
2.426000000000000E+009;1.687359213829041E-001;-1.017704755067825E-001;2.815128071233630E-003;6.199142895638943E-003;
2.426166666666667E+009;1.693416237831116E-001;-1.023799702525139E-001;2.940797479823232E-003;6.086562760174274E-003;
2.426333333333334E+009;1.696514040231705E-001;-1.029302850365639E-001;3.251757239922881E-003;6.071026436984539E-003;
2.426500000000000E+009;1.702233999967575E-001;-1.032692566514015E-001;3.473234362900257E-003;5.926147103309631E-003;
2.426666666666667E+009;1.708754003047943E-001;-1.036235466599464E-001;3.650686703622341E-003;5.814812611788511E-003;
2.426833333333334E+009;1.713252216577530E-001;-1.039971113204956E-001;3.919358365237713E-003;5.687550175935030E-003;
2.427000000000000E+009;1.715570241212845E-001;-1.042108461260796E-001;4.041260108351708E-003;5.574723705649376E-003;
2.427166666666667E+009;1.717142462730408E-001;-1.042767316102982E-001;4.259784240275621E-003;5.417984444648027E-003;
2.427333333333334E+009;1.719098836183548E-001;-1.044623330235481E-001;4.463481716811657E-003;5.200747866183519E-003;
2.427500000000000E+009;1.719237715005875E-001;-1.045890524983406E-001;4.602137953042984E-003;5.050527397543192E-003;
2.427666666666667E+009;1.717830449342728E-001;-1.044600233435631E-001;4.872598219662905E-003;4.831798374652863E-003;
