# Version 1.00
#
freq[Hz];re:Trc1_S11;im:Trc1_S11;re:Trc2_S21;im:Trc2_S21;
2.400000000000000E+009;1.563354283571243E-001;1.113777458667755E-001;7.371921092271805E-003;-4.074907395988703E-003;
2.400166666666667E+009;1.557430177927017E-001;1.090261936187744E-001;7.190228905528784E-003;-4.189125262200832E-003;
2.400333333333334E+009;1.556507498025894E-001;1.069484278559685E-001;7.232978474348784E-003;-4.491269588470459E-003;
2.400500000000000E+009;1.552261859178543E-001;1.041331216692925E-001;7.043656893074513E-003;-4.503549076616764E-003;
2.400666666666667E+009;1.550316214561462E-001;1.016598343849182E-001;6.821341812610626E-003;-4.697153810411692E-003;
2.400833333333334E+009;1.546346694231033E-001;9.871181845664978E-002;6.883247289806604E-003;-4.878284409642220E-003;
2.401000000000000E+009;1.547304987907410E-001;9.599515795707703E-002;6.694974843412638E-003;-5.149557255208492E-003;
2.401166666666667E+009;1.543807387351990E-001;9.304833412170410E-002;6.518304813653231E-003;-5.392936989665031E-003;
2.401333333333334E+009;1.544263213872910E-001;9.022868424654007E-002;6.295975297689438E-003;-5.664997268468142E-003;
2.401500000000000E+009;1.547418534755707E-001;8.716393262147903E-002;6.136774085462093E-003;-6.056220736354590E-003;
2.401666666666667E+009;1.548231244087219E-001;8.412679284811020E-002;5.915910471230745E-003;-6.243058945983648E-003;
2.401833333333334E+009;1.550753563642502E-001;8.114507049322128E-002;5.621140357106924E-003;-6.473029032349587E-003;
2.402000000000000E+009;1.558165997266769E-001;7.838435471057892E-002;5.494828335940838E-003;-6.644088774919510E-003;
2.402166666666667E+009;1.563634574413300E-001;7.556885480880737E-002;5.361314397305250E-003;-6.857863161712885E-003;
2.402333333333334E+009;1.572840511798859E-001;7.260262966156006E-002;4.825366660952568E-003;-6.916737183928490E-003;
2.402500000000000E+009;1.582541614770889E-001;6.986416876316071E-002;4.509930498898029E-003;-7.211979944258928E-003;
2.402666666666667E+009;1.592197120189667E-001;6.722141802310944E-002;4.240986891090870E-003;-7.331265136599541E-003;
2.402833333333334E+009;1.605045348405838E-001;6.451876461505890E-002;3.803022205829620E-003;-7.423925679177046E-003;
2.403000000000000E+009;1.621608287096024E-001;6.168596819043160E-002;3.609125269576907E-003;-7.431329693645239E-003;
2.403166666666667E+009;1.635512709617615E-001;5.935158208012581E-002;3.259148681536317E-003;-7.575862109661102E-003;
2.403333333333334E+009;1.651054173707962E-001;5.689343810081482E-002;3.030783031135798E-003;-7.563655730336905E-003;
2.403500000000000E+009;1.668578982353210E-001;5.453133210539818E-002;2.692810492590070E-003;-7.443013135343790E-003;
2.403666666666667E+009;1.685739308595657E-001;5.234042927622795E-002;2.601247746497393E-003;-7.532457821071148E-003;
2.403833333333334E+009;1.705291569232941E-001;5.027840659022331E-002;2.150460146367550E-003;-7.658984977751970E-003;
2.404000000000000E+009;1.719406396150589E-001;4.826444759964943E-002;2.096152165904641E-003;-7.587859407067299E-003;
2.404166666666667E+009;1.739487946033478E-001;4.649423435330391E-002;1.834925496950746E-003;-7.445482071489096E-003;
2.404333333333334E+009;1.756172478199005E-001;4.481113702058792E-002;1.671233563683927E-003;-7.667066995054483E-003;
2.404500000000000E+009;1.775098741054535E-001;4.301716014742851E-002;1.322582247667015E-003;-7.745428476482630E-003;
2.404666666666667E+009;1.792526990175247E-001;4.180671274662018E-002;1.083527808077633E-003;-7.572110276669264E-003;
2.404833333333334E+009;1.813010722398758E-001;4.061803594231606E-002;7.991963648237288E-004;-7.660513278096914E-003;
2.405000000000000E+009;1.826993227005005E-001;3.978745639324188E-002;5.298780160956085E-004;-7.750429678708315E-003;
2.405166666666667E+009;1.844071447849274E-001;3.890269249677658E-002;3.871746594086289E-004;-7.504337932914496E-003;
2.405333333333334E+009;1.860025376081467E-001;3.814813122153282E-002;2.168954961234704E-004;-7.602877914905548E-003;
2.405500000000000E+009;1.877999603748322E-001;3.801697865128517E-002;-2.128773048752919E-004;-7.671802304685116E-003;
2.405666666666667E+009;1.892872005701065E-001;3.731910139322281E-002;-4.381853213999420E-004;-7.625514175742865E-003;
2.405833333333334E+009;1.908112466335297E-001;3.720016777515411E-002;-7.950061699375510E-004;-7.613573689013720E-003;
2.406000000000000E+009;1.921175122261047E-001;3.703726828098297E-002;-9.652978624217212E-004;-7.324317470192909E-003;
2.406166666666667E+009;1.933238208293915E-001;3.690415248274803E-002;-1.088231801986694E-003;-7.284163031727076E-003;
2.406333333333334E+009;1.945584118366242E-001;3.694969788193703E-002;-1.345335622318089E-003;-7.306518964469433E-003;
2.406500000000000E+009;1.954527050256729E-001;3.723647072911263E-002;-1.485089887864888E-003;-7.017742842435837E-003;
2.406666666666667E+009;1.964756250381470E-001;3.729639202356339E-002;-1.840619137510657E-003;-7.037215866148472E-003;
2.406833333333334E+009;1.972267776727676E-001;3.752284497022629E-002;-1.992856618016958E-003;-6.824734155088663E-003;
2.407000000000000E+009;1.977623254060745E-001;3.791654855012894E-002;-2.046942943707109E-003;-6.812369916588068E-003;
2.407166666666667E+009;1.982550024986267E-001;3.792716935276985E-002;-2.296690363436937E-003;-6.832512095570564E-003;
2.407333333333334E+009;1.983600854873657E-001;3.829179704189301E-002;-2.520829206332564E-003;-6.621968466788530E-003;
2.407500000000000E+009;1.985900849103928E-001;3.882994875311852E-002;-2.558405976742506E-003;-6.676442921161652E-003;
2.407666666666667E+009;1.986652761697769E-001;3.878757730126381E-002;-2.589811570942402E-003;-6.496495101600885E-003;
2.407833333333334E+009;1.984130740165710E-001;3.895357996225357E-002;-2.868795534595847E-003;-6.323629058897495E-003;
2.408000000000000E+009;1.983609050512314E-001;3.920777514576912E-002;-3.063782118260860E-003;-6.216034293174744E-003;
2.408166666666667E+009;1.978471428155899E-001;3.910577669739723E-002;-3.082487033680081E-003;-6.178180221468210E-003;
2.408333333333334E+009;1.975486874580383E-001;3.895881026983261E-002;-3.235177835449576E-003;-5.964584182947874E-003;
2.408500000000000E+009;1.967191398143768E-001;3.896669670939446E-002;-3.266694489866495E-003;-5.819369107484818E-003;
2.408666666666667E+009;1.962296366691589E-001;3.870825096964836E-002;-3.375126980245113E-003;-5.703547038137913E-003;
2.408833333333334E+009;1.953241974115372E-001;3.831760585308075E-002;-3.541876329109073E-003;-5.596822593361139E-003;
2.409000000000000E+009;1.944753080606461E-001;3.776251897215843E-002;-3.674599574878812E-003;-5.579688120633364E-003;
2.409166666666667E+009;1.934167146682739E-001;3.710484877228737E-002;-3.716901177540422E-003;-5.547703709453344E-003;
2.409333333333334E+009;1.923756897449493E-001;3.643147274851799E-002;-3.718613414093852E-003;-5.259893834590912E-003;
2.409500000000000E+009;1.909441053867340E-001;3.547061979770660E-002;-3.834875533357263E-003;-5.274596624076366E-003;
2.409666666666667E+009;1.898971647024155E-001;3.432699292898178E-002;-3.785727079957724E-003;-5.184780806303024E-003;
2.409833333333334E+009;1.885783672332764E-001;3.310253471136093E-002;-3.711749566718936E-003;-5.152609199285507E-003;
2.410000000000000E+009;1.875066310167313E-001;3.172713518142700E-002;-3.926056437194347E-003;-5.079401191323996E-003;
2.410166666666667E+009;1.860534846782684E-001;3.009974025189877E-002;-4.024546127766371E-003;-5.077668000012636E-003;
2.410333333333334E+009;1.850084066390991E-001;2.838295698165894E-002;-4.237717017531395E-003;-5.168985109776259E-003;
2.410500000000000E+009;1.838303804397583E-001;2.667015604674816E-002;-4.152690991759300E-003;-5.076045170426369E-003;
2.410666666666667E+009;1.827754825353622E-001;2.466530539095402E-002;-4.303212743252516E-003;-5.112190730869770E-003;
2.410833333333334E+009;1.818136572837830E-001;2.247725799679756E-002;-4.508473910391331E-003;-5.204591900110245E-003;
2.411000000000000E+009;1.808373034000397E-001;2.026992477476597E-002;-4.648597445338965E-003;-5.283173173666000E-003;
2.411166666666667E+009;1.799259334802628E-001;1.800052821636200E-002;-4.830347839742899E-003;-5.186013877391815E-003;
2.411333333333334E+009;1.789814233779907E-001;1.548633165657520E-002;-5.158547312021256E-003;-5.183595698326826E-003;
2.411500000000000E+009;1.783952414989471E-001;1.321745477616787E-002;-5.378630477935076E-003;-5.068400409072638E-003;
2.411666666666667E+009;1.781653314828873E-001;1.083547528833151E-002;-5.505288019776344E-003;-4.986611194908619E-003;
2.411833333333334E+009;1.772771179676056E-001;8.310716599225998E-003;-6.053866352885962E-003;-4.924769978970289E-003;
2.412000000000000E+009;1.775015741586685E-001;5.608732812106609E-003;-6.263793446123600E-003;-4.869317170232534E-003;
2.412166666666667E+009;1.771616637706757E-001;3.226237138733268E-003;-6.534859538078308E-003;-4.616683814674616E-003;
2.412333333333334E+009;1.771854162216187E-001;5.057624657638371E-004;-6.898005492985249E-003;-4.496109671890736E-003;
2.412500000000000E+009;1.773533672094345E-001;-2.023289911448956E-003;-7.065545767545700E-003;-4.279196262359619E-003;
2.412666666666667E+009;1.777412593364716E-001;-4.747926723212004E-003;-7.316880859434605E-003;-4.105936735868454E-003;
2.412833333333334E+009;1.782156080007553E-001;-7.456189952790737E-003;-7.632561028003693E-003;-3.600852563977242E-003;
2.413000000000000E+009;1.790307611227036E-001;-1.003974024206400E-002;-7.849565707147121E-003;-3.348788479343057E-003;
2.413166666666667E+009;1.797518134117127E-001;-1.240177080035210E-002;-8.142049424350262E-003;-3.089058212935925E-003;
2.413333333333334E+009;1.808328032493591E-001;-1.496428623795509E-002;-8.171003311872482E-003;-2.715867245569825E-003;
2.413500000000000E+009;1.816565394401550E-001;-1.748919114470482E-002;-8.408781141042709E-003;-2.230060519650579E-003;
2.413666666666667E+009;1.826946586370468E-001;-1.985325291752815E-002;-8.412548340857029E-003;-1.740970183163881E-003;
2.413833333333334E+009;1.838613450527191E-001;-2.216617204248905E-002;-8.598518557846546E-003;-1.400469569489360E-003;
2.414000000000000E+009;1.849788427352905E-001;-2.413538657128811E-002;-8.592913858592510E-003;-1.065703807398677E-003;
2.414166666666667E+009;1.864260286092758E-001;-2.619757689535618E-002;-8.383877575397492E-003;-6.766191800124943E-004;
2.414333333333334E+009;1.876207292079926E-001;-2.855483815073967E-002;-8.567921817302704E-003;-2.041479165200144E-004;
2.414500000000000E+009;1.891223043203354E-001;-3.019047528505325E-002;-8.456422947347164E-003;2.186992933275178E-004;
2.414666666666667E+009;1.904726475477219E-001;-3.188942745327950E-002;-8.494252339005470E-003;3.776832600124180E-004;
2.414833333333334E+009;1.916218101978302E-001;-3.357606008648872E-002;-8.445383049547672E-003;6.992602720856667E-004;
2.415000000000000E+009;1.930333822965622E-001;-3.497871011495590E-002;-8.338201791048050E-003;1.174166798591614E-003;
2.415166666666667E+009;1.943568587303162E-001;-3.625098988413811E-002;-8.234079927206039E-003;1.391495461575687E-003;
2.415333333333334E+009;1.957763582468033E-001;-3.733332827687264E-002;-8.133110590279102E-003;1.775865093804896E-003;
2.415500000000000E+009;1.971596777439117E-001;-3.808347135782242E-002;-7.953714579343796E-003;2.110054949298501E-003;
2.415666666666667E+009;1.984392404556274E-001;-3.901207819581032E-002;-7.941330783069134E-003;2.207477809861302E-003;
2.415833333333334E+009;1.995655298233032E-001;-3.975446522235870E-002;-7.819136604666710E-003;2.664340194314718E-003;
2.416000000000000E+009;2.007273286581039E-001;-4.025763645768166E-002;-7.556531112641096E-003;2.944870851933956E-003;
2.416166666666667E+009;2.017890512943268E-001;-4.103324189782143E-002;-7.343374658375979E-003;2.948303939774633E-003;
2.416333333333334E+009;2.027485668659210E-001;-4.123966023325920E-002;-7.414683233946562E-003;3.474792465567589E-003;
2.416500000000000E+009;2.034523338079453E-001;-4.167527705430985E-002;-7.136209402233362E-003;3.709746757522225E-003;
2.416666666666667E+009;2.041242569684982E-001;-4.195266589522362E-002;-6.902959197759628E-003;3.993810620158911E-003;
2.416833333333334E+009;2.045463323593140E-001;-4.189227521419525E-002;-6.670176517218351E-003;4.104000516235828E-003;
2.417000000000000E+009;2.050174176692963E-001;-4.194260761141777E-002;-6.439728662371635E-003;4.401755519211292E-003;
2.417166666666667E+009;2.049950659275055E-001;-4.173584654927254E-002;-6.317504215985537E-003;4.528444726020098E-003;
2.417333333333334E+009;2.050415277481079E-001;-4.142767190933228E-002;-6.153901573270559E-003;4.812906496226788E-003;
2.417500000000000E+009;2.050349861383438E-001;-4.131629690527916E-002;-5.788273643702269E-003;5.090664140880108E-003;
2.417666666666667E+009;2.046929895877838E-001;-4.092888161540031E-002;-5.513378884643316E-003;5.163148976862431E-003;
2.417833333333334E+009;2.045404762029648E-001;-4.063651710748673E-002;-5.422783084213734E-003;5.150347016751766E-003;
2.418000000000000E+009;2.041288912296295E-001;-4.011778160929680E-002;-5.026679486036301E-003;5.393711384385824E-003;
2.418166666666667E+009;2.033711373806000E-001;-3.988323733210564E-002;-4.706291947513819E-003;5.437400657683611E-003;
2.418333333333334E+009;2.027197629213333E-001;-3.954691067337990E-002;-4.664692562073469E-003;5.446877330541611E-003;
2.418500000000000E+009;2.018992900848389E-001;-3.936731815338135E-002;-4.326867870986462E-003;5.481968633830547E-003;
2.418666666666667E+009;2.010740041732788E-001;-3.912572190165520E-002;-3.993010614067316E-003;5.699669476598501E-003;
2.418833333333334E+009;1.998552680015564E-001;-3.899900987744331E-002;-3.678013337776065E-003;5.644478835165501E-003;
2.419000000000000E+009;1.985371410846710E-001;-3.907329216599464E-002;-3.634106367826462E-003;5.502022337168455E-003;
2.419166666666667E+009;1.974261701107025E-001;-3.903586417436600E-002;-3.272370202466846E-003;5.662780255079269E-003;
2.419333333333334E+009;1.959247589111328E-001;-3.933170065283775E-002;-3.171940566971898E-003;5.615451373159885E-003;
2.419500000000000E+009;1.943701207637787E-001;-3.952546417713165E-002;-3.033855231478810E-003;5.534050054848194E-003;
2.419666666666667E+009;1.928438246250153E-001;-4.007733240723610E-002;-2.765507902950048E-003;5.532152950763702E-003;
2.419833333333334E+009;1.911224424839020E-001;-4.070357978343964E-002;-2.673863666132093E-003;5.420843139290810E-003;
2.420000000000000E+009;1.893640011548996E-001;-4.141503944993019E-002;-2.656518947333098E-003;5.293568130582571E-003;
2.420166666666667E+009;1.877819001674652E-001;-4.208390042185783E-002;-2.462473465129733E-003;5.271258763968945E-003;
2.420333333333334E+009;1.859746575355530E-001;-4.316737875342369E-002;-2.337916521355510E-003;5.291660781949759E-003;
2.420500000000000E+009;1.840945929288864E-001;-4.423084855079651E-002;-2.442304044961929E-003;5.394486244767904E-003;
2.420666666666667E+009;1.824344992637634E-001;-4.534084722399712E-002;-2.199338749051094E-003;5.268068518489599E-003;
2.420833333333334E+009;1.806548833847046E-001;-4.678515344858170E-002;-2.309997566044331E-003;5.393291823565960E-003;
2.421000000000000E+009;1.789489984512329E-001;-4.814810305833817E-002;-2.265313407406211E-003;5.458038765937090E-003;
2.421166666666667E+009;1.772555410861969E-001;-4.990703240036964E-002;-2.255500294268131E-003;5.486276000738144E-003;
2.421333333333334E+009;1.753500252962112E-001;-5.151543021202087E-002;-2.227247925475240E-003;5.471973214298487E-003;
2.421500000000000E+009;1.738271415233612E-001;-5.340019240975380E-002;-2.061576815322042E-003;5.685685668140650E-003;
2.421666666666667E+009;1.723421961069107E-001;-5.523508042097092E-002;-1.781907631084323E-003;5.545326042920351E-003;
2.421833333333334E+009;1.710420995950699E-001;-5.711189284920692E-002;-1.741567626595497E-003;5.691489204764366E-003;
2.422000000000000E+009;1.697263717651367E-001;-5.922339856624603E-002;-1.591827720403671E-003;5.694053135812283E-003;
2.422166666666667E+009;1.688038259744644E-001;-6.140357628464699E-002;-1.597367459908128E-003;5.937312263995409E-003;
2.422333333333334E+009;1.675961613655090E-001;-6.361476331949234E-002;-1.460809726268053E-003;5.891131237149239E-003;
2.422500000000000E+009;1.665748804807663E-001;-6.579411029815674E-002;-1.158825238235295E-003;6.049620453268290E-003;
2.422666666666667E+009;1.656983494758606E-001;-6.795916706323624E-002;-1.093591214157641E-003;6.133577786386013E-003;
2.422833333333334E+009;1.651538014411926E-001;-7.027585804462433E-002;-1.058299676515162E-003;6.086854264140129E-003;
2.423000000000000E+009;1.643909364938736E-001;-7.270735502243042E-002;-8.747816900722683E-004;6.320289336144924E-003;
2.423166666666667E+009;1.639941781759262E-001;-7.481974363327026E-002;-7.013716967776418E-004;6.282797548919916E-003;
2.423333333333334E+009;1.635872125625610E-001;-7.715491205453873E-002;-4.603690758813173E-004;6.284216418862343E-003;
2.423500000000000E+009;1.634213328361511E-001;-7.907395809888840E-002;-4.585148999467492E-004;6.339702289551497E-003;
2.423666666666667E+009;1.634156554937363E-001;-8.131206780672073E-002;-2.467140438966453E-004;6.420673336833715E-003;
2.423833333333334E+009;1.632798016071320E-001;-8.298764377832413E-002;4.353204349172302E-005;6.567948497831821E-003;
2.424000000000000E+009;1.635797172784805E-001;-8.539473265409470E-002;2.370651345700026E-004;6.652582436800003E-003;
2.424166666666667E+009;1.636494547128677E-001;-8.736260980367661E-002;4.333046381361783E-004;6.546141114085913E-003;
2.424333333333334E+009;1.638009846210480E-001;-8.895307034254074E-002;6.107973749749363E-004;6.561771035194397E-003;
2.424500000000000E+009;1.641365438699722E-001;-9.111956506967545E-002;8.602607995271683E-004;6.392624229192734E-003;
2.424666666666667E+009;1.645138114690781E-001;-9.271517395973206E-002;1.092726015485823E-003;6.719902157783508E-003;
2.424833333333334E+009;1.652873456478119E-001;-9.404216706752777E-002;1.224267878569663E-003;6.613836623728275E-003;
2.425000000000000E+009;1.657129675149918E-001;-9.548315405845642E-002;1.632134313695133E-003;6.480818614363670E-003;
2.425166666666667E+009;1.661452949047089E-001;-9.677014499902725E-002;1.995404716581106E-003;6.449906155467033E-003;
2.425333333333334E+009;1.666957736015320E-001;-9.784208238124847E-002;2.038743346929550E-003;6.487608887255192E-003;
2.425500000000000E+009;1.674436777830124E-001;-9.923382848501205E-002;2.318871207535267E-003;6.373146083205938E-003;
2.425666666666667E+009;1.679702252149582E-001;-9.994594752788544E-002;2.534521277993918E-003;6.239640992134810E-003;
2.425833333333334E+009;1.684266179800034E-001;-1.009817048907280E-001;2.595072844997048E-003;6.324321031570435E-003;
2.426000000000000E+009;1.691463589668274E-001;-1.015269011259079E-001;2.825302304700017E-003;6.187747698277235E-003;
2.426166666666667E+009;1.697669327259064E-001;-1.022030711174011E-001;2.992003690451384E-003;6.035507190972567E-003;
2.426333333333334E+009;1.701392978429794E-001;-1.028452590107918E-001;3.155035432428122E-003;6.004157941788435E-003;
2.426500000000000E+009;1.708283424377441E-001;-1.032148227095604E-001;3.419355954974890E-003;5.957655142992735E-003;
2.426666666666667E+009;1.712815910577774E-001;-1.036099120974541E-001;3.696186002343893E-003;5.734786391258240E-003;
2.426833333333334E+009;1.717758178710938E-001;-1.039940118789673E-001;3.802400082349777E-003;5.593583919107914E-003;
2.427000000000000E+009;1.719812601804733E-001;-1.041326224803925E-001;4.114273469895124E-003;5.470382981002331E-003;
2.427166666666667E+009;1.722484529018402E-001;-1.042941510677338E-001;4.207739140838385E-003;5.174830555915833E-003;
2.427333333333334E+009;1.723920106887817E-001;-1.044207587838173E-001;4.447344224900007E-003;5.088235717266798E-003;
2.427500000000000E+009;1.722997874021530E-001;-1.044960245490074E-001;4.663670901209116E-003;4.951795097440481E-003;
2.427666666666667E+009;1.722139120101929E-001;-1.045119985938072E-001;4.683743696659803E-003;4.770484287291765E-003;
