# Version 1.00
#
freq[Hz];re:Trc1_S11;im:Trc1_S11;re:Trc2_S21;im:Trc2_S21;
2.400000000000000E+009;1.562178283929825E-001;6.205816566944122E-002;-3.040431067347527E-003;1.936960616149008E-003;
2.400166666666667E+009;1.560166478157044E-001;6.044462695717812E-002;-2.867239061743021E-003;1.797337434254587E-003;
2.400333333333334E+009;1.559170484542847E-001;5.830539762973785E-002;-2.878681756556034E-003;2.052706899121404E-003;
2.400500000000000E+009;1.561094522476196E-001;5.623816326260567E-002;-2.816044492647052E-003;2.244708128273487E-003;
2.400666666666667E+009;1.561096459627152E-001;5.407409742474556E-002;-2.555471844971180E-003;2.413391601294279E-003;
2.400833333333334E+009;1.563321650028229E-001;5.217516794800758E-002;-2.460120478644967E-003;2.513149287551642E-003;
2.401000000000000E+009;1.565299034118652E-001;4.999010637402535E-002;-2.357269404456019E-003;2.637577475979924E-003;
2.401166666666667E+009;1.568717509508133E-001;4.792631417512894E-002;-2.045382512733340E-003;2.792620100080967E-003;
2.401333333333334E+009;1.568813323974609E-001;4.579775780439377E-002;-1.934416475705802E-003;2.812681486830115E-003;
2.401500000000000E+009;1.578162461519241E-001;4.363335669040680E-002;-1.710005220957100E-003;2.943065715953708E-003;
2.401666666666667E+009;1.582222729921341E-001;4.153143987059593E-002;-1.642107730731368E-003;3.059292677789927E-003;
2.401833333333334E+009;1.586159020662308E-001;3.942096233367920E-002;-1.290728687308729E-003;3.012598725035787E-003;
2.402000000000000E+009;1.591682136058807E-001;3.726326301693916E-002;-9.141665650531650E-004;3.047561971470714E-003;
2.402166666666667E+009;1.600369364023209E-001;3.540879115462303E-002;-9.470923105254769E-004;2.954748924821615E-003;
2.402333333333334E+009;1.607418358325958E-001;3.356398642063141E-002;-7.289336645044386E-004;3.107093041762710E-003;
2.402500000000000E+009;1.616758257150650E-001;3.180959448218346E-002;-3.803667204920203E-004;3.057803725823760E-003;
2.402666666666667E+009;1.624257117509842E-001;3.004437685012817E-002;-1.252679794561118E-004;2.999746007844806E-003;
2.402833333333334E+009;1.632324308156967E-001;2.844881638884544E-002;-1.635814442124683E-005;2.851122291758657E-003;
2.403000000000000E+009;1.643280684947968E-001;2.671241201460362E-002;9.990857506636530E-005;2.833129372447729E-003;
2.403166666666667E+009;1.652732491493225E-001;2.521364018321037E-002;4.522808885667473E-004;2.541473833844066E-003;
2.403333333333334E+009;1.664652228355408E-001;2.373160980641842E-002;4.896121099591255E-004;2.583924448117614E-003;
2.403500000000000E+009;1.674886643886566E-001;2.254882827401161E-002;7.148598087951541E-004;2.259997883811593E-003;
2.403666666666667E+009;1.686320006847382E-001;2.114111185073853E-002;7.368753431364894E-004;2.225195989012718E-003;
2.403833333333334E+009;1.697585880756378E-001;2.017284743487835E-002;7.701957947574556E-004;2.009254181757569E-003;
2.404000000000000E+009;1.707401722669601E-001;1.901788823306561E-002;7.893830188550055E-004;1.888750470243394E-003;
2.404166666666667E+009;1.717170774936676E-001;1.797426305711269E-002;7.700836285948753E-004;1.699288841336966E-003;
2.404333333333334E+009;1.729047447443008E-001;1.730017550289631E-002;1.033976557664573E-003;1.529472763650119E-003;
2.404500000000000E+009;1.736499071121216E-001;1.632503978908062E-002;9.791824268177152E-004;1.255881856195629E-003;
2.404666666666667E+009;1.747097820043564E-001;1.558673102408648E-002;1.086888718418777E-003;1.181120402179658E-003;
2.404833333333334E+009;1.755603402853012E-001;1.493028830736876E-002;1.106279436498880E-003;1.080727088265121E-003;
2.405000000000000E+009;1.764310747385025E-001;1.447673421353102E-002;1.114772283472121E-003;9.171821293421090E-004;
2.405166666666667E+009;1.773288547992706E-001;1.379202585667372E-002;9.467107593081892E-004;9.656402980908752E-004;
2.405333333333334E+009;1.780350953340530E-001;1.318899355828762E-002;1.127600902691484E-003;7.859611068852246E-004;
2.405500000000000E+009;1.787983626127243E-001;1.309289317578077E-002;1.070967060513794E-003;5.391040467657149E-004;
2.405666666666667E+009;1.793676465749741E-001;1.281215623021126E-002;8.909247117117047E-004;4.341830790508539E-004;
2.405833333333334E+009;1.798708736896515E-001;1.252811122685671E-002;7.259068079292774E-004;3.380067064426839E-004;
2.406000000000000E+009;1.802790164947510E-001;1.211395207792521E-002;1.052065519616008E-003;3.514739219099283E-004;
2.406166666666667E+009;1.805941313505173E-001;1.204932294785976E-002;7.423784118145704E-004;2.477762463968247E-004;
2.406333333333334E+009;1.809322834014893E-001;1.174964103847742E-002;6.864614551886916E-004;3.166606184095144E-004;
2.406500000000000E+009;1.811066418886185E-001;1.149537228047848E-002;8.254615240730345E-004;-5.150389188202098E-005;
2.406666666666667E+009;1.810235232114792E-001;1.136041712015867E-002;6.275908090174198E-004;1.658578985370696E-004;
2.406833333333334E+009;1.811189055442810E-001;1.104069408029318E-002;5.823324318043888E-004;8.867743599694222E-005;
2.407000000000000E+009;1.812020093202591E-001;1.079967897385359E-002;6.638148333877325E-004;3.700533488881774E-005;
2.407166666666667E+009;1.810909658670425E-001;1.051621511578560E-002;5.366419209167361E-004;-1.439783518435434E-004;
2.407333333333334E+009;1.807764917612076E-001;9.970770217478275E-003;4.959776415489614E-004;-1.551079185446724E-004;
2.407500000000000E+009;1.804973632097244E-001;9.683964774012566E-003;4.848333483096212E-004;-1.051612925948575E-004;
2.407666666666667E+009;1.800293326377869E-001;9.375483728945255E-003;3.741967666428536E-004;-1.026046156766824E-004;
2.407833333333334E+009;1.793807744979858E-001;8.672025986015797E-003;4.712466034106910E-004;-2.678304008441046E-005;
2.408000000000000E+009;1.788741350173950E-001;7.896244525909424E-003;4.053442389704287E-004;-1.908190897665918E-004;
2.408166666666667E+009;1.783753484487534E-001;7.499987259507179E-003;3.188859845977277E-004;-4.660471167881042E-004;
2.408333333333334E+009;1.777946203947067E-001;6.654231809079647E-003;3.721953253261745E-004;-3.515171993058175E-004;
2.408500000000000E+009;1.769841760396957E-001;5.559602752327919E-003;2.714431029744446E-004;-3.255341143812984E-004;
2.408666666666667E+009;1.763517856597900E-001;4.727344494313002E-003;1.426497474312782E-004;-3.617618640419096E-004;
2.408833333333334E+009;1.754618883132935E-001;3.593403613194823E-003;1.589271232660394E-005;-4.899422056041658E-004;
2.409000000000000E+009;1.746432781219482E-001;2.571822376921773E-003;1.101767775253393E-004;-4.578023799695075E-004;
2.409166666666667E+009;1.739585101604462E-001;1.377767533995211E-003;-7.146211282815784E-005;-6.016150582581759E-004;
2.409333333333334E+009;1.731736361980438E-001;-1.966901036212221E-004;6.334822683129460E-005;-5.741863278672099E-004;
2.409500000000000E+009;1.724499017000198E-001;-1.650827703997493E-003;-9.772618068382144E-005;-6.516644498333335E-004;
2.409666666666667E+009;1.716625839471817E-001;-3.085960866883397E-003;-2.296500606462359E-004;-7.385453209280968E-004;
2.409833333333334E+009;1.709828823804855E-001;-4.467830061912537E-003;-2.322551881661639E-004;-7.843346102163196E-004;
2.410000000000000E+009;1.703835427761078E-001;-6.363173481076956E-003;-3.131881530862302E-004;-7.375820423476398E-004;
2.410166666666667E+009;1.696023792028427E-001;-8.022234775125980E-003;-4.514067841228098E-004;-6.704634288325906E-004;
2.410333333333334E+009;1.690793931484222E-001;-9.787206538021565E-003;-5.572250229306519E-004;-8.917539380490780E-004;
2.410500000000000E+009;1.685578972101212E-001;-1.163001637905836E-002;-6.143689970485866E-004;-7.370049715973437E-004;
2.410666666666667E+009;1.679542958736420E-001;-1.351118460297585E-002;-6.637960905209184E-004;-7.867627427913249E-004;
2.410833333333334E+009;1.675743907690048E-001;-1.542783807963133E-002;-6.515575223602355E-004;-6.708586006425321E-004;
2.411000000000000E+009;1.672730892896652E-001;-1.729966700077057E-002;-8.884642738848925E-004;-8.260813774541020E-004;
2.411166666666667E+009;1.670723855495453E-001;-1.957188174128532E-002;-1.009000116027892E-003;-7.618094095960259E-004;
2.411333333333334E+009;1.668591797351837E-001;-2.133078128099442E-002;-1.088713877834380E-003;-7.512760348618031E-004;
2.411500000000000E+009;1.667838990688324E-001;-2.363950759172440E-002;-1.180449267849326E-003;-7.148896693252027E-004;
2.411666666666667E+009;1.669879257678986E-001;-2.563242241740227E-002;-1.278704847209156E-003;-7.571642054244876E-004;
2.411833333333334E+009;1.669660210609436E-001;-2.753084897994995E-002;-1.473480369895697E-003;-4.665155138354749E-004;
2.412000000000000E+009;1.672502011060715E-001;-2.968598529696465E-002;-1.519790384918451E-003;-4.851996200159192E-004;
2.412166666666667E+009;1.673084795475006E-001;-3.170081228017807E-002;-1.710837124846876E-003;-5.047041340731084E-004;
2.412333333333334E+009;1.677759289741516E-001;-3.357033059000969E-002;-1.687731710262597E-003;-3.161906497552991E-004;
2.412500000000000E+009;1.679776459932327E-001;-3.551805019378662E-002;-1.787217799574137E-003;-2.245332143502310E-004;
2.412666666666667E+009;1.686508506536484E-001;-3.757124766707420E-002;-1.838121912442148E-003;-2.016297949012369E-004;
2.412833333333334E+009;1.690861731767654E-001;-3.919652476906776E-002;-2.096828073263168E-003;4.354787961347029E-006;
2.413000000000000E+009;1.696145236492157E-001;-4.089789092540741E-002;-1.996972132474184E-003;8.079859253484756E-005;
2.413166666666667E+009;1.702350527048111E-001;-4.272576421499252E-002;-2.249130280688405E-003;2.120174031006172E-004;
2.413333333333334E+009;1.706235110759735E-001;-4.437820985913277E-002;-2.196753164753318E-003;4.518996865954250E-004;
2.413500000000000E+009;1.714519858360291E-001;-4.591279104351997E-002;-2.183756325393915E-003;6.195250898599625E-004;
2.413666666666667E+009;1.720671057701111E-001;-4.749931395053864E-002;-2.225081203505397E-003;7.400028407573700E-004;
2.413833333333334E+009;1.727545708417893E-001;-4.884352162480354E-002;-2.189011080190539E-003;9.097298607230187E-004;
2.414000000000000E+009;1.732560396194458E-001;-5.015867948532105E-002;-2.286434173583984E-003;9.428919875063002E-004;
2.414166666666667E+009;1.740633994340897E-001;-5.136942863464356E-002;-2.178210997954011E-003;1.046413555741310E-003;
2.414333333333334E+009;1.745782792568207E-001;-5.257789790630341E-002;-2.150366315618157E-003;1.148292794823647E-003;
2.414500000000000E+009;1.755425035953522E-001;-5.347272753715515E-002;-2.225286094471812E-003;1.295885303989053E-003;
2.414666666666667E+009;1.760562807321549E-001;-5.443737655878067E-002;-2.110236557200551E-003;1.472693169489503E-003;
2.414833333333334E+009;1.764500886201859E-001;-5.528269335627556E-002;-2.019942505285144E-003;1.783333253115416E-003;
2.415000000000000E+009;1.769448071718216E-001;-5.604698508977890E-002;-2.143801888450980E-003;1.710767857730389E-003;
2.415166666666667E+009;1.773709505796433E-001;-5.668814852833748E-002;-2.168324077501893E-003;2.010656520724297E-003;
2.415333333333334E+009;1.779713332653046E-001;-5.723925679922104E-002;-1.890423358418047E-003;2.151586348190904E-003;
2.415500000000000E+009;1.781217753887177E-001;-5.762053653597832E-002;-1.691739191301167E-003;2.323909895494580E-003;
2.415666666666667E+009;1.784051954746246E-001;-5.807240307331085E-002;-1.572824199683964E-003;2.363232197239995E-003;
2.415833333333334E+009;1.786974221467972E-001;-5.842075124382973E-002;-1.534753944724798E-003;2.344632288441062E-003;
2.416000000000000E+009;1.786258071660996E-001;-5.880978330969811E-002;-1.422432134859264E-003;2.561308210715652E-003;
2.416166666666667E+009;1.788648068904877E-001;-5.894511565566063E-002;-1.304799574427307E-003;2.789211226627231E-003;
2.416333333333334E+009;1.786170750856400E-001;-5.910770595073700E-002;-1.168863032944500E-003;2.746621612459421E-003;
2.416500000000000E+009;1.785878539085388E-001;-5.927997455000877E-002;-1.053293584845960E-003;2.772932406514883E-003;
2.416666666666667E+009;1.782570928335190E-001;-5.943348631262779E-002;-8.880744571797550E-004;2.712574787437916E-003;
2.416833333333334E+009;1.779398322105408E-001;-5.961518362164497E-002;-9.140372276306152E-004;2.949568908661604E-003;
2.417000000000000E+009;1.772687882184982E-001;-5.973254516720772E-002;-8.708096574991942E-004;2.854222198948264E-003;
2.417166666666667E+009;1.768238693475723E-001;-5.980274826288223E-002;-4.964433610439301E-004;2.939246594905853E-003;
2.417333333333334E+009;1.762242615222931E-001;-5.982553958892822E-002;-4.160520911682397E-004;2.960460959002376E-003;
2.417500000000000E+009;1.753559261560440E-001;-6.018942967057228E-002;-4.620285180862993E-004;3.015454160049558E-003;
2.417666666666667E+009;1.746712923049927E-001;-6.020229682326317E-002;-2.154102985514328E-004;3.052251413464546E-003;
2.417833333333334E+009;1.737368553876877E-001;-6.055567041039467E-002;-1.901927025755867E-004;3.046578960493207E-003;
2.418000000000000E+009;1.725922524929047E-001;-6.088906154036522E-002;2.714422771532554E-005;2.951311413198710E-003;
2.418166666666667E+009;1.716083586215973E-001;-6.090510636568070E-002;1.671469653956592E-004;3.076954279094935E-003;
2.418333333333334E+009;1.707346141338348E-001;-6.145814806222916E-002;2.640388265717775E-004;2.973067574203014E-003;
2.418500000000000E+009;1.693546175956726E-001;-6.182412430644035E-002;3.125488874502480E-004;2.853550482541323E-003;
2.418666666666667E+009;1.682158559560776E-001;-6.245136260986328E-002;4.307415219955146E-004;3.023484954610467E-003;
2.418833333333334E+009;1.668740212917328E-001;-6.303397566080093E-002;5.368729471229017E-004;3.027379978448153E-003;
2.419000000000000E+009;1.655332744121552E-001;-6.362714618444443E-002;5.204706103540957E-004;3.017066512256861E-003;
2.419166666666667E+009;1.643811315298080E-001;-6.427147984504700E-002;6.044526235200465E-004;3.060423769056797E-003;
2.419333333333334E+009;1.628590822219849E-001;-6.501763314008713E-002;7.551359594799578E-004;3.003969555720687E-003;
2.419500000000000E+009;1.616999506950378E-001;-6.612139195203781E-002;8.984979358501732E-004;2.941112266853452E-003;
2.419666666666667E+009;1.603373140096664E-001;-6.703985482454300E-002;9.853324154391885E-004;3.030120860785246E-003;
2.419833333333334E+009;1.591567844152451E-001;-6.815133988857269E-002;1.085044001229107E-003;2.913656877353787E-003;
2.420000000000000E+009;1.580513864755631E-001;-6.930476427078247E-002;1.209580455906689E-003;2.881903667002916E-003;
2.420166666666667E+009;1.568280309438705E-001;-7.061439007520676E-002;1.470029354095459E-003;2.805265365168452E-003;
2.420333333333334E+009;1.559105217456818E-001;-7.182563096284866E-002;1.399670611135662E-003;2.807573182508349E-003;
2.420500000000000E+009;1.549030840396881E-001;-7.313047349452972E-002;1.633029547519982E-003;2.890822710469365E-003;
2.420666666666667E+009;1.538516432046890E-001;-7.458403706550598E-002;1.522225793451071E-003;2.777558518573642E-003;
2.420833333333334E+009;1.529804319143295E-001;-7.615320384502411E-002;1.882239361293614E-003;2.810657722875476E-003;
2.421000000000000E+009;1.519589126110077E-001;-7.783497124910355E-002;1.813293667510152E-003;2.624266548082233E-003;
2.421166666666667E+009;1.512507498264313E-001;-7.940576225519180E-002;2.029428491368890E-003;2.544580958783627E-003;
2.421333333333334E+009;1.507849544286728E-001;-8.100436627864838E-002;1.925317686982453E-003;2.522506518289447E-003;
2.421500000000000E+009;1.500994712114334E-001;-8.274820446968079E-002;2.169932005926967E-003;2.503491006791592E-003;
2.421666666666667E+009;1.497299522161484E-001;-8.459496498107910E-002;2.292140619829297E-003;2.334456657990813E-003;
2.421833333333334E+009;1.494439691305161E-001;-8.619906008243561E-002;2.307478571310639E-003;2.259712666273117E-003;
2.422000000000000E+009;1.489615738391876E-001;-8.801892399787903E-002;2.428375417366624E-003;2.191614825278521E-003;
2.422166666666667E+009;1.487267315387726E-001;-9.013934433460236E-002;2.356197219341993E-003;1.983393216505647E-003;
2.422333333333334E+009;1.487659960985184E-001;-9.163167327642441E-002;2.531049773097038E-003;1.994003076106310E-003;
2.422500000000000E+009;1.487006247043610E-001;-9.343034774065018E-002;2.752933185547590E-003;1.836509094573557E-003;
2.422666666666667E+009;1.486714035272598E-001;-9.535690397024155E-002;2.607226138934493E-003;1.765833119861782E-003;
2.422833333333334E+009;1.489479690790176E-001;-9.714692831039429E-002;2.876446349546313E-003;1.570273772813380E-003;
2.423000000000000E+009;1.492006033658981E-001;-9.869435429573059E-002;2.711632521823049E-003;1.563975703902543E-003;
2.423166666666667E+009;1.497150957584381E-001;-1.004117578268051E-001;2.770059276372194E-003;1.551902620121837E-003;
2.423333333333334E+009;1.498718708753586E-001;-1.018650010228157E-001;2.860894892364740E-003;1.325807301327586E-003;
2.423500000000000E+009;1.501929759979248E-001;-1.034447103738785E-001;2.903206506744027E-003;1.116967410780489E-003;
2.423666666666667E+009;1.506869643926621E-001;-1.050661653280258E-001;2.811801619827747E-003;1.327709644101560E-003;
2.423833333333334E+009;1.513601392507553E-001;-1.064669191837311E-001;3.047416917979717E-003;1.018040697090328E-003;
2.424000000000000E+009;1.516911834478378E-001;-1.076347157359123E-001;2.902510808780789E-003;8.644219487905502E-004;
2.424166666666667E+009;1.521703451871872E-001;-1.089643090963364E-001;2.943962113931775E-003;9.715971536934376E-004;
2.424333333333334E+009;1.528740823268890E-001;-1.100170537829399E-001;2.894821111112833E-003;7.902506040409207E-004;
2.424500000000000E+009;1.534431725740433E-001;-1.113548874855042E-001;2.891045296564698E-003;6.651380099356175E-004;
2.424666666666667E+009;1.540710628032684E-001;-1.120183765888214E-001;2.979357726871967E-003;5.779422353953123E-004;
2.424833333333334E+009;1.544843316078186E-001;-1.129612177610397E-001;2.834551734849811E-003;5.699967732653022E-004;
2.425000000000000E+009;1.551325023174286E-001;-1.139047443866730E-001;2.920039230957627E-003;3.958517918363214E-004;
2.425166666666667E+009;1.553796827793121E-001;-1.145066022872925E-001;2.869644667953253E-003;3.541883779689670E-004;
2.425333333333334E+009;1.558284163475037E-001;-1.151337400078774E-001;2.803247887641192E-003;2.435212954878807E-004;
2.425500000000000E+009;1.564174890518189E-001;-1.158950775861740E-001;2.880926243960857E-003;1.738064456731081E-004;
2.425666666666667E+009;1.565412878990173E-001;-1.163206174969673E-001;2.838564570993185E-003;1.372193423776480E-006;
2.425833333333334E+009;1.568719297647476E-001;-1.166397929191589E-001;2.685444196686149E-003;-2.419844349788036E-005;
2.426000000000000E+009;1.570665538311005E-001;-1.170820072293282E-001;2.658855868503451E-003;-2.119374403264374E-004;
2.426166666666667E+009;1.573395282030106E-001;-1.173805296421051E-001;2.636061515659094E-003;-1.238007534993812E-004;
2.426333333333334E+009;1.572140455245972E-001;-1.175577118992806E-001;2.767365658655763E-003;-1.485543471062556E-004;
2.426500000000000E+009;1.572583019733429E-001;-1.176282316446304E-001;2.649833215400577E-003;-1.478354824939743E-004;
2.426666666666667E+009;1.572302132844925E-001;-1.176790148019791E-001;2.621733816340566E-003;-2.494883665349335E-004;
2.426833333333334E+009;1.569477170705795E-001;-1.178169772028923E-001;2.778860973194242E-003;-2.217302680946887E-004;
2.427000000000000E+009;1.565251946449280E-001;-1.179292798042297E-001;2.619555452838540E-003;-4.215298104099929E-004;
2.427166666666667E+009;1.562038660049439E-001;-1.178263425827026E-001;2.583644818514586E-003;-2.893082273658365E-004;
2.427333333333334E+009;1.554604023694992E-001;-1.180035918951035E-001;2.615349600091577E-003;-3.220462822355330E-004;
2.427500000000000E+009;1.549333184957504E-001;-1.179872825741768E-001;2.455687848851085E-003;-3.210277645848692E-004;
2.427666666666667E+009;1.540958434343338E-001;-1.181201785802841E-001;2.666394459083676E-003;-3.598813200369477E-004;
2.427833333333334E+009;1.531377732753754E-001;-1.181263327598572E-001;2.491873223334551E-003;-5.990481004118919E-004;
