# Version 1.00
#
freq[Hz];re:Trc1_S11;im:Trc1_S11;re:Trc2_S21;im:Trc2_S21;
2.400000000000000E+009;1.559609472751617E-001;6.215184554457665E-002;-3.083179239183664E-003;1.901652780361474E-003;
2.400166666666667E+009;1.560038775205612E-001;6.024312227964401E-002;-2.949211979284883E-003;1.880113151855767E-003;
2.400333333333334E+009;1.559285223484039E-001;5.823244526982307E-002;-2.677460433915258E-003;2.181684132665396E-003;
2.400500000000000E+009;1.559561640024185E-001;5.618594214320183E-002;-2.814341336488724E-003;2.276182174682617E-003;
2.400666666666667E+009;1.559588313102722E-001;5.416484922170639E-002;-2.619758713990450E-003;2.381896367296577E-003;
2.400833333333334E+009;1.562720239162445E-001;5.228142067790031E-002;-2.259694971144199E-003;2.570712938904762E-003;
2.401000000000000E+009;1.565518379211426E-001;4.993401840329170E-002;-2.387890592217445E-003;2.771125873550773E-003;
2.401166666666667E+009;1.566706448793411E-001;4.766595363616943E-002;-2.084674080833793E-003;2.787459408864379E-003;
2.401333333333334E+009;1.572296023368835E-001;4.579812288284302E-002;-1.980255357921124E-003;2.776001812890172E-003;
2.401500000000000E+009;1.576693505048752E-001;4.342032968997955E-002;-1.703843008726835E-003;2.897468628361821E-003;
2.401666666666667E+009;1.582572311162949E-001;4.152108356356621E-002;-1.517786295153201E-003;3.031853586435318E-003;
2.401833333333334E+009;1.586671173572540E-001;3.934645280241966E-002;-1.202847226522863E-003;2.881767693907023E-003;
2.402000000000000E+009;1.592572182416916E-001;3.749132156372070E-002;-1.141907298006117E-003;2.916409866884351E-003;
2.402166666666667E+009;1.598587632179260E-001;3.536380082368851E-002;-8.814474567770958E-004;2.918795216828585E-003;
2.402333333333334E+009;1.605100333690643E-001;3.336177766323090E-002;-6.969709065742791E-004;2.811023266986013E-003;
2.402500000000000E+009;1.617020070552826E-001;3.171168267726898E-002;-4.670607449952513E-004;2.919901860877872E-003;
2.402666666666667E+009;1.626619100570679E-001;3.003983944654465E-002;-2.175528352381662E-004;2.844163682311773E-003;
2.402833333333334E+009;1.634594947099686E-001;2.825382910668850E-002;-5.665221760864370E-005;2.799756824970245E-003;
2.403000000000000E+009;1.643901169300079E-001;2.664758823812008E-002;9.493711695540696E-005;2.747951308265328E-003;
2.403166666666667E+009;1.654532700777054E-001;2.529671229422092E-002;4.186341830063611E-004;2.555258804932237E-003;
2.403333333333334E+009;1.664041727781296E-001;2.387525327503681E-002;5.216112476773560E-004;2.428243402391672E-003;
2.403500000000000E+009;1.674262136220932E-001;2.240748330950737E-002;6.115500582382083E-004;2.345148008316755E-003;
2.403666666666667E+009;1.685293614864349E-001;2.112551406025887E-002;7.188218878582120E-004;2.104417188093066E-003;
2.403833333333334E+009;1.696584671735764E-001;2.002418041229248E-002;8.367436239495874E-004;2.144614234566689E-003;
2.404000000000000E+009;1.707724481821060E-001;1.894556917250156E-002;9.163932991214097E-004;1.744157285429537E-003;
2.404166666666667E+009;1.717436611652374E-001;1.792383380234242E-002;9.663831442594528E-004;1.697789179161191E-003;
2.404333333333334E+009;1.727415770292282E-001;1.720511540770531E-002;8.343184017576277E-004;1.453328877687454E-003;
2.404500000000000E+009;1.735404729843140E-001;1.631254702806473E-002;1.046253833919764E-003;1.505472697317600E-003;
2.404666666666667E+009;1.747537106275559E-001;1.554089225828648E-002;1.048776088282466E-003;1.358199398964644E-003;
2.404833333333334E+009;1.756766736507416E-001;1.494438201189041E-002;9.614403825253248E-004;1.103895832784474E-003;
2.405000000000000E+009;1.764250695705414E-001;1.431975327432156E-002;1.052815699949861E-003;9.694564505480230E-004;
2.405166666666667E+009;1.773118078708649E-001;1.384488400071859E-002;1.015521702356637E-003;9.048109059222043E-004;
2.405333333333334E+009;1.781084686517716E-001;1.313177496194840E-002;1.070474390871823E-003;7.796293357387185E-004;
2.405500000000000E+009;1.787102371454239E-001;1.304578222334385E-002;9.970869868993759E-004;6.219131173565984E-004;
2.405666666666667E+009;1.794470548629761E-001;1.273513212800026E-002;9.242260130122304E-004;5.465131835080683E-004;
2.405833333333334E+009;1.795781105756760E-001;1.263962499797344E-002;1.167240203358233E-003;3.382175345905125E-004;
2.406000000000000E+009;1.802409291267395E-001;1.195657998323441E-002;9.340632241219282E-004;5.090885679237545E-004;
2.406166666666667E+009;1.804117709398270E-001;1.199034973978996E-002;7.884639198891819E-004;7.663720316486433E-005;
2.406333333333334E+009;1.810840815305710E-001;1.194675639271736E-002;1.008877065032721E-003;6.661157385678962E-005;
2.406500000000000E+009;1.809545159339905E-001;1.173978019505739E-002;5.585824837908149E-004;2.073653449770063E-004;
2.406666666666667E+009;1.810013800859451E-001;1.141366641968489E-002;8.219838491640985E-004;2.911652554757893E-004;
2.406833333333334E+009;1.811540573835373E-001;1.119310408830643E-002;6.870679790154100E-004;-6.465716433012858E-005;
2.407000000000000E+009;1.811343282461166E-001;1.075911335647106E-002;4.180486721452326E-004;-1.241820718860254E-004;
2.407166666666667E+009;1.810030937194824E-001;1.061995793133974E-002;4.440891207195818E-004;-1.715412654448301E-004;
2.407333333333334E+009;1.806630343198776E-001;1.010909676551819E-002;2.018311352003366E-004;2.753256922005676E-005;
2.407500000000000E+009;1.803673058748245E-001;9.793828241527081E-003;4.831616533920169E-004;-1.739145955070853E-004;
2.407666666666667E+009;1.799245327711105E-001;9.335159324109554E-003;5.672064144164324E-004;-6.381936691468582E-005;
2.407833333333334E+009;1.793505698442459E-001;8.651627227663994E-003;2.996046678163111E-004;-1.225431042257696E-004;
2.408000000000000E+009;1.788193732500076E-001;8.162417449057102E-003;3.378323453944176E-004;-4.736942937597632E-004;
2.408166666666667E+009;1.782719939947128E-001;7.483301684260368E-003;1.582891127327457E-004;-2.366942353546619E-004;
2.408333333333334E+009;1.779381036758423E-001;6.617678329348564E-003;2.117782714776695E-004;-1.266001345356926E-004;
2.408500000000000E+009;1.769546866416931E-001;5.736500024795532E-003;4.163425765000284E-004;-3.929026133846492E-004;
2.408666666666667E+009;1.762889474630356E-001;4.642431158572435E-003;2.837965439539403E-004;-2.802760282065719E-004;
2.408833333333334E+009;1.754827350378037E-001;3.590338164940476E-003;1.963445974979550E-004;-3.798889811150730E-004;
2.409000000000000E+009;1.747169494628906E-001;2.577019855380058E-003;1.575416390551254E-004;-5.860839737579227E-004;
2.409166666666667E+009;1.740448474884033E-001;1.354820095002651E-003;7.376726716756821E-005;-5.238135927356780E-004;
2.409333333333334E+009;1.732727140188217E-001;-9.841843711910769E-005;3.519042763855396E-007;-5.743932561017573E-004;
2.409500000000000E+009;1.723836213350296E-001;-1.672787009738386E-003;-1.589517196407542E-004;-5.330888088792563E-004;
2.409666666666667E+009;1.715617477893829E-001;-3.111153608188033E-003;-1.937851920956746E-004;-6.368226604536176E-004;
2.409833333333334E+009;1.707632839679718E-001;-4.566027782857418E-003;-3.199513885192573E-004;-7.019048789516091E-004;
2.410000000000000E+009;1.701437085866928E-001;-6.232851650565863E-003;-3.292748879175633E-004;-6.911812233738601E-004;
2.410166666666667E+009;1.696500778198242E-001;-8.023707196116447E-003;-2.714968868531287E-004;-6.791306659579277E-004;
2.410333333333334E+009;1.689091622829437E-001;-9.774795733392239E-003;-5.711141857318580E-004;-8.136578253470361E-004;
2.410500000000000E+009;1.684424281120300E-001;-1.162326615303755E-002;-7.081576040945947E-004;-7.690404891036451E-004;
2.410666666666667E+009;1.678962260484695E-001;-1.350328698754311E-002;-9.278052602894604E-004;-8.609626092948020E-004;
2.410833333333334E+009;1.676476597785950E-001;-1.539701968431473E-002;-8.804792887531221E-004;-7.985641132108867E-004;
2.411000000000000E+009;1.671972721815109E-001;-1.737317629158497E-002;-9.420620626769960E-004;-8.987779729068279E-004;
2.411166666666667E+009;1.669292002916336E-001;-1.950285024940968E-002;-1.115566468797624E-003;-6.730738678015769E-004;
2.411333333333334E+009;1.667100489139557E-001;-2.150463871657848E-002;-1.102807465940714E-003;-6.266380660235882E-004;
2.411500000000000E+009;1.666578501462936E-001;-2.357782609760761E-002;-1.287839491851628E-003;-6.991432164795697E-004;
2.411666666666667E+009;1.668336540460587E-001;-2.549001760780811E-002;-1.459120889194310E-003;-6.391877541318536E-004;
2.411833333333334E+009;1.669460386037827E-001;-2.748976275324822E-002;-1.420174026861787E-003;-6.240095244720578E-004;
2.412000000000000E+009;1.671148091554642E-001;-2.976770326495171E-002;-1.561838551424444E-003;-6.396924727596343E-004;
2.412166666666667E+009;1.672492921352387E-001;-3.165046498179436E-002;-1.640836591832340E-003;-3.619049966800958E-004;
2.412333333333334E+009;1.678322106599808E-001;-3.347433730959892E-002;-1.774162170477212E-003;-2.144732425222173E-004;
2.412500000000000E+009;1.680018305778503E-001;-3.546308726072311E-002;-1.904759672470391E-003;-3.140844055451453E-004;
2.412666666666667E+009;1.683335006237030E-001;-3.750368580222130E-002;-2.022888045758009E-003;-1.620980619918555E-004;
2.412833333333334E+009;1.691976785659790E-001;-3.920975700020790E-002;-1.988798612728715E-003;7.863884820835665E-005;
2.413000000000000E+009;1.695986539125443E-001;-4.096576198935509E-002;-2.043703338131309E-003;1.343269104836509E-004;
2.413166666666667E+009;1.700863540172577E-001;-4.280613735318184E-002;-2.201287541538477E-003;2.444603014737368E-004;
2.413333333333334E+009;1.705701649188995E-001;-4.439008235931397E-002;-2.239332068711519E-003;5.558448610827327E-004;
2.413500000000000E+009;1.712609678506851E-001;-4.593297094106674E-002;-2.151222433894873E-003;5.301594501361251E-004;
2.413666666666667E+009;1.720395386219025E-001;-4.750943556427956E-002;-2.277454128488898E-003;6.822805153205991E-004;
2.413833333333334E+009;1.727260798215866E-001;-4.883273690938950E-002;-2.263942966237664E-003;7.760023581795394E-004;
2.414000000000000E+009;1.731454879045487E-001;-5.025147274136543E-002;-2.474905457347632E-003;1.083766110241413E-003;
2.414166666666667E+009;1.741030216217041E-001;-5.133667215704918E-002;-2.239899709820747E-003;1.121287234127522E-003;
2.414333333333334E+009;1.747508794069290E-001;-5.258934572339058E-002;-2.314497949555516E-003;1.513458439148963E-003;
2.414500000000000E+009;1.753876805305481E-001;-5.347206816077232E-002;-2.261771354824305E-003;1.506087137386203E-003;
2.414666666666667E+009;1.758434027433395E-001;-5.428094416856766E-002;-2.096220618113875E-003;1.536521711386740E-003;
2.414833333333334E+009;1.763608604669571E-001;-5.526869744062424E-002;-2.137349219992757E-003;1.726413727737963E-003;
2.415000000000000E+009;1.769195348024368E-001;-5.600406229496002E-002;-2.167779020965099E-003;1.891241059638560E-003;
2.415166666666667E+009;1.774396896362305E-001;-5.656586959958077E-002;-1.992322038859129E-003;1.985921058803797E-003;
2.415333333333334E+009;1.778554320335388E-001;-5.726009979844093E-002;-1.866366597823799E-003;2.178956056013703E-003;
2.415500000000000E+009;1.781891882419586E-001;-5.761667713522911E-002;-1.672860933467746E-003;2.238468732684851E-003;
2.415666666666667E+009;1.783487796783447E-001;-5.809047818183899E-002;-1.683285227045417E-003;2.377238357439637E-003;
2.415833333333334E+009;1.786548197269440E-001;-5.848035588860512E-002;-1.611241023056209E-003;2.491998719051480E-003;
2.416000000000000E+009;1.785292178392410E-001;-5.872014537453651E-002;-1.581407152116299E-003;2.535949693992734E-003;
2.416166666666667E+009;1.789153516292572E-001;-5.899120122194290E-002;-1.293904031626880E-003;2.661406295374036E-003;
2.416333333333334E+009;1.786422282457352E-001;-5.905905738472939E-002;-1.126241753809154E-003;2.560775261372328E-003;
2.416500000000000E+009;1.785259693861008E-001;-5.931719020009041E-002;-1.167669775895774E-003;2.796017332002521E-003;
2.416666666666667E+009;1.782623231410980E-001;-5.946762487292290E-002;-1.006770296953619E-003;2.845329465344548E-003;
2.416833333333334E+009;1.779197007417679E-001;-5.958692356944084E-002;-8.816493791528046E-004;2.823931397870183E-003;
2.417000000000000E+009;1.772673875093460E-001;-5.971864983439446E-002;-7.487569237127900E-004;2.901014639064670E-003;
2.417166666666667E+009;1.768305301666260E-001;-5.970678105950356E-002;-6.632502190768719E-004;2.922889543697238E-003;
2.417333333333334E+009;1.763145029544830E-001;-5.993282049894333E-002;-4.645390145014972E-004;2.882528584450483E-003;
2.417500000000000E+009;1.753756254911423E-001;-6.027581915259361E-002;-4.053038428537548E-004;3.062813077121973E-003;
2.417666666666667E+009;1.747187823057175E-001;-6.025727093219757E-002;-2.715458103921264E-004;2.997632371261716E-003;
2.417833333333334E+009;1.737709492444992E-001;-6.047840043902397E-002;-1.400690962327644E-004;2.991871209815145E-003;
2.418000000000000E+009;1.725888401269913E-001;-6.092448160052300E-002;-8.523905853508040E-005;3.111890051513910E-003;
2.418166666666667E+009;1.715766191482544E-001;-6.094535440206528E-002;-2.494228056093562E-006;2.958861412480474E-003;
2.418333333333334E+009;1.705834418535233E-001;-6.152959167957306E-002;2.637551224324852E-004;3.125039860606194E-003;
2.418500000000000E+009;1.694374829530716E-001;-6.188963353633881E-002;1.656886888667941E-004;2.952757989987731E-003;
2.418666666666667E+009;1.683567911386490E-001;-6.245695799589157E-002;3.078840090893209E-004;3.074516309425235E-003;
2.418833333333334E+009;1.668888479471207E-001;-6.309173256158829E-002;3.656370972748846E-004;3.074968000873923E-003;
2.419000000000000E+009;1.654946208000183E-001;-6.366977840662003E-002;6.149841938167810E-004;2.989142667502165E-003;
2.419166666666667E+009;1.643687635660172E-001;-6.445530056953430E-002;7.639757241122425E-004;3.015534486621618E-003;
2.419333333333334E+009;1.628244370222092E-001;-6.507867574691773E-002;8.187470375560224E-004;3.015763359144330E-003;
2.419500000000000E+009;1.617223471403122E-001;-6.604678928852081E-002;8.427777211181819E-004;2.934107789769769E-003;
2.419666666666667E+009;1.605145633220673E-001;-6.724069267511368E-002;9.290246525779367E-004;3.173340577632189E-003;
2.419833333333334E+009;1.591542810201645E-001;-6.815752387046814E-002;1.092019374482334E-003;2.897728700190783E-003;
2.420000000000000E+009;1.581037044525147E-001;-6.926477700471878E-002;1.224915846250951E-003;2.966408384963870E-003;
2.420166666666667E+009;1.569230556488037E-001;-7.054530829191208E-002;1.279957476072013E-003;2.926320303231478E-003;
2.420333333333334E+009;1.557400673627853E-001;-7.204930484294891E-002;1.475615426898003E-003;2.996410243213177E-003;
2.420500000000000E+009;1.547699868679047E-001;-7.324474304914475E-002;1.505943480879068E-003;2.911620540544391E-003;
2.420666666666667E+009;1.535779386758804E-001;-7.460604608058929E-002;1.579583040438592E-003;2.770308637991548E-003;
2.420833333333334E+009;1.528537124395371E-001;-7.624398916959763E-002;1.701165921986103E-003;2.794639673084021E-003;
2.421000000000000E+009;1.519045829772949E-001;-7.795587182044983E-002;1.857236726209521E-003;2.661975566297770E-003;
2.421166666666667E+009;1.512214690446854E-001;-7.944091409444809E-002;1.947672222740948E-003;2.644948195666075E-003;
2.421333333333334E+009;1.506998240947723E-001;-8.102992177009583E-002;2.025365829467773E-003;2.541229594498873E-003;
2.421500000000000E+009;1.499852985143662E-001;-8.305907249450684E-002;2.011516597121954E-003;2.518001012504101E-003;
2.421666666666667E+009;1.496998518705368E-001;-8.454024046659470E-002;2.107397885993123E-003;2.406334737315774E-003;
2.421833333333334E+009;1.492238342761993E-001;-8.633908629417419E-002;2.311282325536013E-003;2.430949127301574E-003;
2.422000000000000E+009;1.489072144031525E-001;-8.808657526969910E-002;2.394337207078934E-003;2.373871393501759E-003;
2.422166666666667E+009;1.487245410680771E-001;-9.006252139806747E-002;2.403556369245052E-003;2.193285152316093E-003;
2.422333333333334E+009;1.487134844064713E-001;-9.173107147216797E-002;2.605526242405176E-003;2.136598573997617E-003;
2.422500000000000E+009;1.485880762338638E-001;-9.337437152862549E-002;2.593529177829623E-003;1.914239372126758E-003;
2.422666666666667E+009;1.485402286052704E-001;-9.523645043373108E-002;2.618886996060610E-003;1.790702226571739E-003;
2.422833333333334E+009;1.489324420690537E-001;-9.710910916328430E-002;2.668793080374599E-003;1.727879745885730E-003;
2.423000000000000E+009;1.490859240293503E-001;-9.868957102298737E-002;2.784307114779949E-003;1.603161217644811E-003;
2.423166666666667E+009;1.495547592639923E-001;-1.002694144845009E-001;2.796447835862637E-003;1.526519656181335E-003;
2.423333333333334E+009;1.498111486434937E-001;-1.016692146658897E-001;2.893780358135700E-003;1.308100763708353E-003;
2.423500000000000E+009;1.502253860235214E-001;-1.034820452332497E-001;2.894740784540772E-003;1.357479719445109E-003;
2.423666666666667E+009;1.506117880344391E-001;-1.049190983176231E-001;2.799878362566233E-003;1.248799846507609E-003;
2.423833333333334E+009;1.512629836797714E-001;-1.064826697111130E-001;2.834210405126214E-003;1.189453527331352E-003;
2.424000000000000E+009;1.516333073377609E-001;-1.076059788465500E-001;2.891246927902103E-003;1.010882551781833E-003;
2.424166666666667E+009;1.521843373775482E-001;-1.087918281555176E-001;2.887422684580088E-003;9.511422831565142E-004;
2.424333333333334E+009;1.528449356555939E-001;-1.100314632058144E-001;2.923601539805532E-003;9.415278909727931E-004;
2.424500000000000E+009;1.534359902143478E-001;-1.111436560750008E-001;2.950598020106554E-003;6.439675926230848E-004;
2.424666666666667E+009;1.541033834218979E-001;-1.120306476950645E-001;2.974170492962003E-003;6.968921516090632E-004;
2.424833333333334E+009;1.545853912830353E-001;-1.129667684435844E-001;2.836178755387664E-003;4.886189126409590E-004;
2.425000000000000E+009;1.550685316324234E-001;-1.137947514653206E-001;2.785283373668790E-003;5.227939691394568E-004;
2.425166666666667E+009;1.553417146205902E-001;-1.145994886755943E-001;3.006398677825928E-003;2.655124699231237E-004;
2.425333333333334E+009;1.558617800474167E-001;-1.151785925030708E-001;2.845537615939975E-003;2.653607225511223E-004;
2.425500000000000E+009;1.563652008771896E-001;-1.158538535237312E-001;2.889571245759726E-003;1.549100561533123E-004;
2.425666666666667E+009;1.565315574407578E-001;-1.163242682814598E-001;2.827526303008199E-003;1.282495213672519E-004;
2.425833333333334E+009;1.568887680768967E-001;-1.167483180761337E-001;2.812350401654840E-003;-5.413206963567063E-005;
2.426000000000000E+009;1.569902002811432E-001;-1.171123757958412E-001;2.780635841190815E-003;-9.275211596104782E-006;
2.426166666666667E+009;1.572505235671997E-001;-1.174302920699120E-001;2.861505374312401E-003;-1.456130848964676E-004;
2.426333333333334E+009;1.571638435125351E-001;-1.176223233342171E-001;2.663560910150409E-003;-6.241512892302126E-005;
2.426500000000000E+009;1.571242064237595E-001;-1.177270859479904E-001;2.724386751651764E-003;-1.278628915315494E-004;
2.426666666666667E+009;1.571648865938187E-001;-1.177247688174248E-001;2.551798243075609E-003;-3.840004210360348E-004;
2.426833333333334E+009;1.568132787942886E-001;-1.178918033838272E-001;2.594282152131200E-003;-4.497641639318317E-004;
2.427000000000000E+009;1.563863158226013E-001;-1.180058717727661E-001;2.517722779884934E-003;-3.443857422098517E-004;
2.427166666666667E+009;1.560278385877609E-001;-1.179188564419746E-001;2.585897454991937E-003;-3.812241775449365E-004;
2.427333333333334E+009;1.553814560174942E-001;-1.179988309741020E-001;2.514137420803309E-003;-4.520864749792963E-004;
2.427500000000000E+009;1.548133939504623E-001;-1.181028038263321E-001;2.493424573913217E-003;-4.910619463771582E-004;
2.427666666666667E+009;1.539515107870102E-001;-1.180276125669479E-001;2.392996801063418E-003;-4.365518107078970E-004;
2.427833333333334E+009;1.531106382608414E-001;-1.180908605456352E-001;2.470784587785602E-003;-4.627914458978921E-004;
