# Version 1.00
#
freq[Hz];re:Trc1_S11;im:Trc1_S11;re:Trc2_S21;im:Trc2_S21;
2.400000000000000E+009;1.560625731945038E-001;6.219128891825676E-002;-3.097799839451909E-003;1.915715169161558E-003;
2.400166666666667E+009;1.560941487550736E-001;6.039423868060112E-002;-3.088888246566057E-003;1.946026342920959E-003;
2.400333333333334E+009;1.558817625045776E-001;5.838245898485184E-002;-2.868635347113013E-003;2.113353228196502E-003;
2.400500000000000E+009;1.560557782649994E-001;5.635937303304672E-002;-2.822639886289835E-003;2.251660684123635E-003;
2.400666666666667E+009;1.561573296785355E-001;5.421856790781021E-002;-2.591018797829747E-003;2.568495227023959E-003;
2.400833333333334E+009;1.563263088464737E-001;5.219699442386627E-002;-2.544598421081901E-003;2.582525135949254E-003;
2.401000000000000E+009;1.564427614212036E-001;4.999462887644768E-002;-2.439520787447691E-003;2.668957924470305E-003;
2.401166666666667E+009;1.569010764360428E-001;4.782934486865997E-002;-2.170692663639784E-003;2.882105764001608E-003;
2.401333333333334E+009;1.571079045534134E-001;4.570984840393066E-002;-2.008290728554130E-003;2.896305872127414E-003;
2.401500000000000E+009;1.576926112174988E-001;4.362018406391144E-002;-1.598662463948131E-003;2.919350052252412E-003;
2.401666666666667E+009;1.582577377557755E-001;4.153460636734963E-002;-1.584934303537011E-003;2.939659170806408E-003;
2.401833333333334E+009;1.588783115148544E-001;3.933934494853020E-002;-1.318897586315870E-003;3.032505977898836E-003;
2.402000000000000E+009;1.592766344547272E-001;3.747377917170525E-002;-1.022480893880129E-003;3.027349011972547E-003;
2.402166666666667E+009;1.600617468357086E-001;3.542722761631012E-002;-8.582453010603786E-004;2.951438073068857E-003;
2.402333333333334E+009;1.605892628431320E-001;3.339414671063423E-002;-6.401988212019205E-004;2.918276237323880E-003;
2.402500000000000E+009;1.617303490638733E-001;3.185470402240753E-002;-4.917395999655128E-004;3.144359448924661E-003;
2.402666666666667E+009;1.626412421464920E-001;3.016612119972706E-002;-3.703611146192998E-004;2.957562217488885E-003;
2.402833333333334E+009;1.635123342275620E-001;2.828668430447578E-002;-2.920965198427439E-004;2.953398972749710E-003;
2.403000000000000E+009;1.644736081361771E-001;2.671592868864536E-002;2.710227272473276E-004;3.148726886138320E-003;
2.403166666666667E+009;1.655165553092957E-001;2.525721304118633E-002;5.195322228246369E-005;2.547963056713343E-003;
2.403333333333334E+009;1.666119545698166E-001;2.401525340974331E-002;6.449496722780168E-004;2.841037930920720E-003;
2.403500000000000E+009;1.675847619771957E-001;2.257923781871796E-002;1.326004858128727E-004;2.047327812761068E-003;
2.403666666666667E+009;1.685630828142166E-001;2.127508074045181E-002;8.629324729554355E-004;2.324677305296063E-003;
2.403833333333334E+009;1.699163466691971E-001;2.010252699255943E-002;9.450901998206973E-004;2.077867276966572E-003;
2.404000000000000E+009;1.709816455841065E-001;1.909513399004936E-002;1.002211589366198E-003;1.926878001540899E-003;
2.404166666666667E+009;1.719423830509186E-001;1.800445839762688E-002;8.929916075430811E-004;1.858137547969818E-003;
2.404333333333334E+009;1.729051768779755E-001;1.731772720813751E-002;1.202777959406376E-003;1.768925460055471E-003;
2.404500000000000E+009;1.738230288028717E-001;1.634195446968079E-002;1.363255316391587E-003;1.604895922355354E-003;
2.404666666666667E+009;1.749368607997894E-001;1.553312502801418E-002;5.599202704615891E-004;1.208601868711412E-003;
2.404833333333334E+009;1.756563931703568E-001;1.486338768154383E-002;7.453885627910495E-004;1.465092063881457E-003;
2.405000000000000E+009;1.765557676553726E-001;1.431332807987928E-002;9.210560820065439E-004;9.001498692668974E-004;
2.405166666666667E+009;1.773430854082108E-001;1.384098175913096E-002;9.960917523130775E-004;7.938833441585302E-004;
2.405333333333334E+009;1.781129390001297E-001;1.329907681792975E-002;1.115963561460376E-003;9.445113246329129E-004;
2.405500000000000E+009;1.787789016962051E-001;1.306292880326510E-002;9.851844515651465E-004;8.033569320105016E-004;
2.405666666666667E+009;1.794693619012833E-001;1.271606795489788E-002;9.236209443770349E-004;6.432114169001579E-004;
2.405833333333334E+009;1.798193007707596E-001;1.258509606122971E-002;9.257674100808799E-004;6.117235170677304E-004;
2.406000000000000E+009;1.803685426712036E-001;1.207818556576967E-002;9.231626754626632E-004;4.912749282084405E-004;
2.406166666666667E+009;1.805554926395416E-001;1.204614434391260E-002;8.798249182291329E-004;2.614206750877202E-004;
2.406333333333334E+009;1.810410618782044E-001;1.183568593114615E-002;8.549251942895353E-004;2.807053097058088E-004;
2.406500000000000E+009;1.811406761407852E-001;1.158491615206003E-002;8.035927894525230E-004;1.925813558045775E-004;
2.406666666666667E+009;1.811093240976334E-001;1.141927205026150E-002;6.332898628897965E-004;1.489801215939224E-004;
2.406833333333334E+009;1.811141669750214E-001;1.111542154103518E-002;7.125482079572976E-004;4.212365820421837E-005;
2.407000000000000E+009;1.810790449380875E-001;1.077375933527947E-002;4.787616780959070E-004;3.674386243801564E-005;
2.407166666666667E+009;1.811559200286865E-001;1.058466173708439E-002;5.559806013479829E-004;-4.065653411089443E-005;
2.407333333333334E+009;1.807079911231995E-001;1.007334329187870E-002;6.375288940034807E-004;-5.902834163862281E-005;
2.407500000000000E+009;1.803807020187378E-001;9.805796667933464E-003;4.771122185047716E-004;-1.246513711521402E-004;
2.407666666666667E+009;1.799831837415695E-001;9.372982196509838E-003;4.630773037206382E-004;-2.699928008951247E-004;
2.407833333333334E+009;1.794270277023315E-001;8.727403357625008E-003;2.968370681628585E-004;-4.274532693671063E-005;
2.408000000000000E+009;1.789219975471497E-001;7.995407097041607E-003;2.410846063867211E-004;-2.574742247816175E-004;
2.408166666666667E+009;1.783985644578934E-001;7.467044051736593E-003;3.460334846749902E-004;-2.519126283004880E-004;
2.408333333333334E+009;1.778025627136231E-001;6.634737830609083E-003;3.721976536326110E-004;-2.112036017933860E-004;
2.408500000000000E+009;1.770072877407074E-001;5.818146280944347E-003;2.324656961718574E-004;-2.906715963035822E-004;
2.408666666666667E+009;1.763358861207962E-001;4.747339989989996E-003;1.383724011247978E-004;-3.356077650096268E-004;
2.408833333333334E+009;1.754548549652100E-001;3.700549714267254E-003;2.906969166360796E-004;-3.865508770104498E-004;
2.409000000000000E+009;1.746059060096741E-001;2.555586164817214E-003;5.896177390241064E-005;-5.549349007196724E-004;
2.409166666666667E+009;1.739188134670258E-001;1.375727937556803E-003;2.937991848739330E-005;-6.176771712489426E-004;
2.409333333333334E+009;1.733412891626358E-001;-1.033723310683854E-004;7.317941344808787E-005;-4.994918708689511E-004;
2.409500000000000E+009;1.724168956279755E-001;-1.675126724876463E-003;2.414857817711891E-006;-6.160925840958953E-004;
2.409666666666667E+009;1.716933697462082E-001;-3.193079493939877E-003;-1.282483135582879E-004;-6.402292638085783E-004;
2.409833333333334E+009;1.710091978311539E-001;-4.567637108266354E-003;-2.870216267183423E-004;-7.539902580901980E-004;
2.410000000000000E+009;1.701972484588623E-001;-6.238050293177366E-003;-2.426141290925443E-004;-6.633092416450381E-004;
2.410166666666667E+009;1.696455180644989E-001;-7.847351022064686E-003;-4.232766805216670E-004;-5.593299865722656E-004;
2.410333333333334E+009;1.691978871822357E-001;-9.693128056824207E-003;-4.642994608730078E-004;-7.892156136222184E-004;
2.410500000000000E+009;1.684920787811279E-001;-1.183574087917805E-002;-5.568858468905091E-004;-8.215581183321774E-004;
2.410666666666667E+009;1.680408120155335E-001;-1.355059817433357E-002;-7.040221826173365E-004;-6.465904880315065E-004;
2.410833333333334E+009;1.677137911319733E-001;-1.539945881813765E-002;-6.091514951549470E-004;-7.717914413660765E-004;
2.411000000000000E+009;1.672577112913132E-001;-1.749470457434654E-002;-9.322050027549267E-004;-7.414711290039122E-004;
2.411166666666667E+009;1.670941114425659E-001;-1.948991976678371E-002;-8.960487321019173E-004;-6.681645754724741E-004;
2.411333333333334E+009;1.669511944055557E-001;-2.133777365088463E-002;-1.064857118763030E-003;-6.832859944552183E-004;
2.411500000000000E+009;1.666788607835770E-001;-2.363369241356850E-002;-1.188125694170594E-003;-6.637087208218873E-004;
2.411666666666667E+009;1.669647991657257E-001;-2.559466101229191E-002;-1.358495559543371E-003;-6.097386358305812E-004;
2.411833333333334E+009;1.669099330902100E-001;-2.757432870566845E-002;-1.275685150176287E-003;-6.017220439389348E-004;
2.412000000000000E+009;1.672170162200928E-001;-2.959969267249107E-002;-1.536360941827297E-003;-6.186768878251314E-004;
2.412166666666667E+009;1.674047410488129E-001;-3.152858838438988E-002;-1.671069534495473E-003;-4.915362806059420E-004;
2.412333333333334E+009;1.677627414464951E-001;-3.346358239650726E-002;-1.673669437877834E-003;-3.639747155830264E-004;
2.412500000000000E+009;1.680810153484345E-001;-3.550088778138161E-002;-1.765580847859383E-003;-1.664895535213873E-004;
2.412666666666667E+009;1.686024963855743E-001;-3.740543872117996E-002;-1.833068788982928E-003;-1.828861131798476E-004;
2.412833333333334E+009;1.690683960914612E-001;-3.925510868430138E-002;-1.899950788356364E-003;-1.035828681779094E-004;
2.413000000000000E+009;1.696108728647232E-001;-4.092165827751160E-002;-1.975751481950283E-003;1.625721051823348E-004;
2.413166666666667E+009;1.700055301189423E-001;-4.277679324150085E-002;-2.174251945689321E-003;2.446962171234191E-004;
2.413333333333334E+009;1.706572771072388E-001;-4.443128407001495E-002;-2.042674692347646E-003;4.254559753462672E-004;
2.413500000000000E+009;1.714954525232315E-001;-4.591768980026245E-002;-2.308162394911051E-003;4.987007123418152E-004;
2.413666666666667E+009;1.721419841051102E-001;-4.758299142122269E-002;-2.147631254047155E-003;4.656517703551799E-004;
2.413833333333334E+009;1.726488471031189E-001;-4.880205541849136E-002;-2.202493604272604E-003;7.474218728020787E-004;
2.414000000000000E+009;1.731914281845093E-001;-5.022249743342400E-002;-2.244522795081139E-003;9.909883374348283E-004;
2.414166666666667E+009;1.740195900201798E-001;-5.137702822685242E-002;-2.152610104531050E-003;1.044296193867922E-003;
2.414333333333334E+009;1.748000532388687E-001;-5.250405147671700E-002;-2.229716628789902E-003;1.234013587236404E-003;
2.414500000000000E+009;1.753951609134674E-001;-5.354713276028633E-002;-2.258225111290813E-003;1.323986565694213E-003;
2.414666666666667E+009;1.759710162878037E-001;-5.449543893337250E-002;-2.169978804886341E-003;1.621885807253420E-003;
2.414833333333334E+009;1.764531135559082E-001;-5.529112741351128E-002;-2.093820134177804E-003;1.694336533546448E-003;
2.415000000000000E+009;1.770146787166596E-001;-5.596758425235748E-002;-2.064833417534828E-003;1.924503478221595E-003;
2.415166666666667E+009;1.772749423980713E-001;-5.663596838712692E-002;-1.947477343492210E-003;2.104911487549543E-003;
2.415333333333334E+009;1.779720783233643E-001;-5.719325691461563E-002;-1.900659175589681E-003;2.221764530986548E-003;
2.415500000000000E+009;1.782337576150894E-001;-5.759767815470696E-002;-1.697692903690040E-003;2.259489381685853E-003;
2.415666666666667E+009;1.785060018301010E-001;-5.805541202425957E-002;-1.687241136096418E-003;2.385558560490608E-003;
2.415833333333334E+009;1.786106377840042E-001;-5.840091034770012E-002;-1.550842192955315E-003;2.449284307658672E-003;
2.416000000000000E+009;1.784864515066147E-001;-5.872885137796402E-002;-1.532932743430138E-003;2.475042128935456E-003;
2.416166666666667E+009;1.787954419851303E-001;-5.888180807232857E-002;-1.257495838217437E-003;2.604337409138680E-003;
2.416333333333334E+009;1.786644458770752E-001;-5.909319594502449E-002;-1.207582303322852E-003;2.706633415073156E-003;
2.416500000000000E+009;1.784736365079880E-001;-5.928434059023857E-002;-9.438113193027675E-004;2.656693337485194E-003;
2.416666666666667E+009;1.781520992517471E-001;-5.932711437344551E-002;-8.564722375012934E-004;2.818037755787373E-003;
2.416833333333334E+009;1.779778152704239E-001;-5.952855199575424E-002;-8.659337181597948E-004;2.860956126824021E-003;
2.417000000000000E+009;1.772470474243164E-001;-5.974373593926430E-002;-7.154261693358421E-004;2.827062737196684E-003;
2.417166666666667E+009;1.767024695873261E-001;-5.974083021283150E-002;-5.855789058841765E-004;3.024882404133678E-003;
2.417333333333334E+009;1.761516779661179E-001;-5.987944826483727E-002;-4.053184238728136E-004;2.940317150205374E-003;
2.417500000000000E+009;1.753531098365784E-001;-6.011184304952622E-002;-4.189555766060948E-004;3.012445755302906E-003;
2.417666666666667E+009;1.746243089437485E-001;-6.022988632321358E-002;-2.626782224979252E-004;3.049944760277867E-003;
2.417833333333334E+009;1.737148910760880E-001;-6.029730662703514E-002;-5.308879917720333E-005;3.105741692706943E-003;
2.418000000000000E+009;1.726231127977371E-001;-6.081188470125198E-002;6.033240788383409E-005;3.084755036979914E-003;
2.418166666666667E+009;1.715462505817413E-001;-6.101893633604050E-002;1.274929527426139E-004;3.054180182516575E-003;
2.418333333333334E+009;1.706618219614029E-001;-6.132486090064049E-002;2.551974321249872E-004;3.102563321590424E-003;
2.418500000000000E+009;1.694422215223312E-001;-6.173572316765785E-002;4.343847394920886E-004;3.055694513022900E-003;
2.418666666666667E+009;1.683068573474884E-001;-6.215819716453552E-002;6.197618204168975E-004;2.983098151162267E-003;
2.418833333333334E+009;1.669659912586212E-001;-6.302093714475632E-002;6.250894512049854E-004;2.968709915876389E-003;
2.419000000000000E+009;1.656612902879715E-001;-6.359146535396576E-002;8.327130344696343E-004;3.011061809957027E-003;
2.419166666666667E+009;1.643090248107910E-001;-6.425867229700089E-002;8.382615051232278E-004;2.908531576395035E-003;
2.419333333333334E+009;1.629584282636643E-001;-6.493734568357468E-002;1.041090465150774E-003;2.975490642711520E-003;
2.419500000000000E+009;1.617015004158020E-001;-6.595744937658310E-002;1.018528710119426E-003;2.893414115533233E-003;
2.419666666666667E+009;1.605504155158997E-001;-6.714674085378647E-002;1.169452327303588E-003;2.864975715056062E-003;
2.419833333333334E+009;1.591368764638901E-001;-6.797364354133606E-002;1.212926581501961E-003;2.958136610686779E-003;
2.420000000000000E+009;1.582616567611694E-001;-6.927035003900528E-002;1.351620187051594E-003;2.842593006789684E-003;
2.420166666666667E+009;1.570690423250198E-001;-7.052753120660782E-002;1.409530057571828E-003;2.852762816473842E-003;
2.420333333333334E+009;1.559892445802689E-001;-7.171298563480377E-002;1.476261182688177E-003;2.782661933451891E-003;
2.420500000000000E+009;1.547866165637970E-001;-7.312002032995224E-002;1.481569954194129E-003;2.777128247544169E-003;
2.420666666666667E+009;1.537946164608002E-001;-7.450661063194275E-002;1.751320669427514E-003;2.806720789521933E-003;
2.420833333333334E+009;1.528485268354416E-001;-7.620030641555786E-002;1.813989365473390E-003;2.668351167812944E-003;
2.421000000000000E+009;1.519122123718262E-001;-7.782678306102753E-002;2.087842673063278E-003;2.552733058109880E-003;
2.421166666666667E+009;1.512999534606934E-001;-7.936497032642365E-002;1.964318333193660E-003;2.607455477118492E-003;
2.421333333333334E+009;1.508003622293472E-001;-8.109220862388611E-002;2.102852566167712E-003;2.524792449548841E-003;
2.421500000000000E+009;1.499135345220566E-001;-8.276306837797165E-002;2.156729344278574E-003;2.290913602337241E-003;
2.421666666666667E+009;1.496515423059464E-001;-8.451206237077713E-002;2.246369374915958E-003;2.190134255215526E-003;
2.421833333333334E+009;1.493165045976639E-001;-8.639220893383026E-002;2.412636531516910E-003;2.212722087278962E-003;
2.422000000000000E+009;1.490014642477036E-001;-8.814249187707901E-002;2.437183866277337E-003;2.092009177431464E-003;
2.422166666666667E+009;1.487175375223160E-001;-9.008007496595383E-002;2.488140715286136E-003;2.087678527459502E-003;
2.422333333333334E+009;1.488096415996552E-001;-9.161307662725449E-002;2.581286942586303E-003;2.104314276948571E-003;
2.422500000000000E+009;1.487497538328171E-001;-9.349200129508972E-002;2.613585442304611E-003;1.835785689763725E-003;
2.422666666666667E+009;1.485951840877533E-001;-9.526339918375015E-002;2.781044924631715E-003;1.675216830335558E-003;
2.422833333333334E+009;1.488537937402725E-001;-9.697346389293671E-002;2.733622444793582E-003;1.682792906649411E-003;
2.423000000000000E+009;1.491828858852387E-001;-9.875965863466263E-002;2.680230187252164E-003;1.555849448777735E-003;
2.423166666666667E+009;1.495174616575241E-001;-1.003929302096367E-001;2.786788856610656E-003;1.288364874199033E-003;
2.423333333333334E+009;1.499236375093460E-001;-1.016946658492088E-001;2.792442683130503E-003;1.344590913504362E-003;
2.423500000000000E+009;1.504284292459488E-001;-1.033680066466332E-001;2.886969596147537E-003;1.239861827343702E-003;
2.423666666666667E+009;1.505469679832459E-001;-1.050728261470795E-001;2.838308457285166E-003;1.104070688597858E-003;
2.423833333333334E+009;1.512502729892731E-001;-1.062847673892975E-001;2.880652435123920E-003;1.026122132316232E-003;
2.424000000000000E+009;1.517558693885803E-001;-1.074700802564621E-001;2.879128558561206E-003;8.478957461193204E-004;
2.424166666666667E+009;1.521383076906204E-001;-1.088334396481514E-001;2.949330257251859E-003;8.300511981360614E-004;
2.424333333333334E+009;1.528217643499374E-001;-1.100476011633873E-001;2.935843309387565E-003;7.746019982732832E-004;
2.424500000000000E+009;1.533251255750656E-001;-1.111354231834412E-001;2.931924536824226E-003;6.311882170848548E-004;
2.424666666666667E+009;1.541288942098618E-001;-1.119152829051018E-001;3.039010567590594E-003;5.001974059268832E-004;
2.424833333333334E+009;1.544366031885147E-001;-1.129089668393135E-001;3.041299525648356E-003;5.149437929503620E-004;
2.425000000000000E+009;1.549927145242691E-001;-1.137175112962723E-001;3.027843078598380E-003;3.503279294818640E-004;
2.425166666666667E+009;1.553131788969040E-001;-1.144770905375481E-001;2.816661028191447E-003;9.990051330532879E-005;
2.425333333333334E+009;1.557671576738358E-001;-1.151087880134583E-001;2.891148673370481E-003;2.004009729716927E-004;
2.425500000000000E+009;1.564121842384338E-001;-1.157272234559059E-001;2.866107271984220E-003;9.622859943192452E-005;
2.425666666666667E+009;1.565861105918884E-001;-1.162157207727432E-001;2.818616805598140E-003;8.702069862920325E-006;
2.425833333333334E+009;1.569040268659592E-001;-1.167407482862473E-001;2.909864531829953E-003;7.962827112351079E-006;
2.426000000000000E+009;1.570599675178528E-001;-1.171071454882622E-001;2.814987907186151E-003;-2.909693575929850E-004;
2.426166666666667E+009;1.573827564716339E-001;-1.173670515418053E-001;2.660015597939491E-003;-8.771593275014311E-005;
2.426333333333334E+009;1.572671979665756E-001;-1.175667718052864E-001;2.761919284239411E-003;-1.662719296291471E-004;
2.426500000000000E+009;1.572363078594208E-001;-1.176206991076469E-001;2.616786863654852E-003;-2.910285838879645E-004;
2.426666666666667E+009;1.572462916374207E-001;-1.176165342330933E-001;2.602666383609176E-003;-2.624436165206134E-004;
2.426833333333334E+009;1.568334251642227E-001;-1.178091019392014E-001;2.631868468597531E-003;-4.802270559594035E-004;
2.427000000000000E+009;1.565323472023010E-001;-1.179879978299141E-001;2.586083021014929E-003;-4.220399714540690E-004;
2.427166666666667E+009;1.560272127389908E-001;-1.178130581974983E-001;2.512643579393625E-003;-4.105317639186978E-004;
2.427333333333334E+009;1.555259674787521E-001;-1.179536730051041E-001;2.436465816572309E-003;-4.117557255085558E-004;
2.427500000000000E+009;1.549424529075623E-001;-1.180538460612297E-001;2.569129224866629E-003;-4.573746991809458E-004;
2.427666666666667E+009;1.540842205286026E-001;-1.181367188692093E-001;2.423472935333848E-003;-6.432436057366431E-004;
2.427833333333334E+009;1.531921327114105E-001;-1.180626824498177E-001;2.459756098687649E-003;-5.476140067912638E-004;
