# Version 1.00
#
freq[Hz];re:Trc1_S11;im:Trc1_S11;re:Trc2_S21;im:Trc2_S21;
2.400000000000000E+009;1.688617020845413E-001;4.591906070709229E-002;-1.184855937026441E-003;8.653451805002987E-004;
2.400166666666667E+009;1.698647290468216E-001;4.489228501915932E-002;-9.581414633430541E-004;9.212160948663950E-004;
2.400333333333334E+009;1.709597855806351E-001;4.380920529365540E-002;-1.009306753985584E-003;8.139834390021861E-004;
2.400500000000000E+009;1.718422174453735E-001;4.282827302813530E-002;-9.290734305977821E-004;7.828444940969348E-004;
2.400666666666667E+009;1.725760102272034E-001;4.175851121544838E-002;-7.376293651759625E-004;5.987680051475763E-004;
2.400833333333334E+009;1.736567318439484E-001;4.110505059361458E-002;-7.616628427058458E-004;4.592599289026111E-004;
2.401000000000000E+009;1.743949502706528E-001;4.023775830864906E-002;-7.031142013147473E-004;5.730183329433203E-004;
2.401166666666667E+009;1.753980666399002E-001;3.956838324666023E-002;-4.892693250440061E-004;3.692418104037643E-004;
2.401333333333334E+009;1.759685575962067E-001;3.879979625344276E-002;-5.454194615595043E-004;3.151167766191065E-004;
2.401500000000000E+009;1.765882372856140E-001;3.811972588300705E-002;-4.987934953533113E-004;2.865086134988815E-004;
2.401666666666667E+009;1.773221194744110E-001;3.759039565920830E-002;-5.389665602706373E-004;3.605092206271365E-005;
2.401833333333334E+009;1.780410856008530E-001;3.707604110240936E-002;-6.304581766016781E-004;-3.189777999068610E-005;
2.402000000000000E+009;1.782988160848618E-001;3.650636225938797E-002;-7.614727946929634E-004;2.869306808861438E-005;
2.402166666666667E+009;1.788566261529923E-001;3.561974689364433E-002;-6.439766730181873E-004;-6.538511661347002E-005;
2.402333333333334E+009;1.790238916873932E-001;3.524737060070038E-002;-5.381145165301859E-004;-2.188244689023122E-004;
2.402500000000000E+009;1.798191517591476E-001;3.469371423125267E-002;-7.528215646743774E-004;-2.647539949975908E-004;
2.402666666666667E+009;1.799098700284958E-001;3.402649611234665E-002;-8.657234138809145E-004;-4.421180638018996E-004;
2.402833333333334E+009;1.799896359443665E-001;3.334305435419083E-002;-8.629842777736485E-004;-3.944325435440987E-004;
2.403000000000000E+009;1.800754368305206E-001;3.267873078584671E-002;-1.053978339768946E-003;-8.270485559478402E-004;
2.403166666666667E+009;1.800087839365006E-001;3.191827982664108E-002;-1.095975399948657E-003;-4.690603818744421E-004;
2.403333333333334E+009;1.799814403057098E-001;3.101533651351929E-002;-1.139326370321214E-003;-6.844630697742105E-004;
2.403500000000000E+009;1.797069907188416E-001;2.997919917106628E-002;-1.404937240295112E-003;-7.582851103506982E-004;
2.403666666666667E+009;1.795022338628769E-001;2.896991372108460E-002;-1.539226970635355E-003;-6.102878251112998E-004;
2.403833333333334E+009;1.793789118528366E-001;2.793724648654461E-002;-1.616283087059856E-003;-8.135046809911728E-004;
2.404000000000000E+009;1.789297610521317E-001;2.678252197802067E-002;-1.882660668343306E-003;-7.220894913189113E-004;
2.404166666666667E+009;1.785369813442230E-001;2.570458129048348E-002;-1.856942893937230E-003;-8.310765260830522E-004;
2.404333333333334E+009;1.781672835350037E-001;2.449918910861015E-002;-2.091380069032311E-003;-6.619416526518762E-004;
2.404500000000000E+009;1.775175631046295E-001;2.316271141171455E-002;-2.245406853035092E-003;-6.380497361533344E-004;
2.404666666666667E+009;1.771016865968704E-001;2.176855131983757E-002;-2.423678757622838E-003;-2.686046645976603E-004;
2.404833333333334E+009;1.765211671590805E-001;2.039275318384171E-002;-2.602017717435956E-003;-4.907628172077239E-004;
2.405000000000000E+009;1.760858744382858E-001;1.889667659997940E-002;-2.743640914559364E-003;-2.370431466260925E-004;
2.405166666666667E+009;1.755246520042419E-001;1.725870184600353E-002;-2.724018646404147E-003;-2.279839973198250E-004;
2.405333333333334E+009;1.752158701419830E-001;1.558797527104616E-002;-3.088006284087896E-003;-8.122445433400571E-005;
2.405500000000000E+009;1.747687309980393E-001;1.392543874680996E-002;-2.941675484180450E-003;1.665101881371811E-004;
2.405666666666667E+009;1.743033975362778E-001;1.222685445100069E-002;-3.272725734859705E-003;2.348530397284776E-004;
2.405833333333334E+009;1.737529039382935E-001;1.047910097986460E-002;-3.232976188883185E-003;4.361525352578610E-004;
2.406000000000000E+009;1.735672056674957E-001;8.605307899415493E-003;-3.403379814699292E-003;5.426791030913591E-004;
2.406166666666667E+009;1.732062846422195E-001;6.873603910207748E-003;-3.407198004424572E-003;7.334550027735531E-004;
2.406333333333334E+009;1.731113940477371E-001;4.752508364617825E-003;-3.411111654713750E-003;9.239831706508994E-004;
2.406500000000000E+009;1.729744076728821E-001;2.829653210937977E-003;-3.532638773322105E-003;1.139736385084689E-003;
2.406666666666667E+009;1.727487593889237E-001;7.659934344701469E-004;-3.673192812129855E-003;1.474996213801205E-003;
2.406833333333334E+009;1.727765947580338E-001;-1.332882791757584E-003;-3.713635029271245E-003;1.711875433102250E-003;
2.407000000000000E+009;1.727622151374817E-001;-3.406995208933950E-003;-3.599605755880475E-003;1.916854409500957E-003;
2.407166666666667E+009;1.729976236820221E-001;-5.414224229753017E-003;-3.711807308718562E-003;2.057594247162342E-003;
2.407333333333334E+009;1.729158908128738E-001;-7.526245899498463E-003;-3.633996006101370E-003;2.306490205228329E-003;
2.407500000000000E+009;1.732119470834732E-001;-9.691544808447361E-003;-3.703785594552755E-003;2.508070785552263E-003;
2.407666666666667E+009;1.734490841627121E-001;-1.161505095660687E-002;-3.426309674978256E-003;2.845061942934990E-003;
2.407833333333334E+009;1.736763715744019E-001;-1.379838678985834E-002;-3.251430811360478E-003;3.061533672735095E-003;
2.408000000000000E+009;1.740338802337647E-001;-1.604847609996796E-002;-3.143153851851821E-003;3.262533806264401E-003;
2.408166666666667E+009;1.743792742490768E-001;-1.795513182878494E-002;-3.018635092303157E-003;3.588690189644694E-003;
2.408333333333334E+009;1.749123185873032E-001;-1.990542560815811E-002;-2.971064765006304E-003;3.738594707101584E-003;
2.408500000000000E+009;1.752278357744217E-001;-2.193057537078857E-002;-2.550109522417188E-003;3.986535128206015E-003;
2.408666666666667E+009;1.756943017244339E-001;-2.379252575337887E-002;-2.445572055876255E-003;4.172138404101133E-003;
2.408833333333334E+009;1.759875565767288E-001;-2.548628859221935E-002;-2.253188518807292E-003;4.287180956453085E-003;
2.409000000000000E+009;1.761593520641327E-001;-2.713090181350708E-002;-2.143586520105600E-003;4.290190525352955E-003;
2.409166666666667E+009;1.768822669982910E-001;-2.879654988646507E-002;-1.911703031510115E-003;4.467532504349947E-003;
2.409333333333334E+009;1.772782355546951E-001;-3.039340861141682E-002;-1.567400991916657E-003;4.671233240514994E-003;
2.409500000000000E+009;1.776020675897598E-001;-3.164681792259216E-002;-1.442622742615640E-003;4.765279125422239E-003;
2.409666666666667E+009;1.778898388147354E-001;-3.293482586741447E-002;-1.276360126212239E-003;4.880641587078571E-003;
2.409833333333334E+009;1.783926039934158E-001;-3.389276564121246E-002;-8.885179413482547E-004;4.938494414091110E-003;
2.410000000000000E+009;1.789330095052719E-001;-3.495151177048683E-002;-7.757040439173579E-004;4.999477416276932E-003;
2.410166666666667E+009;1.794584691524506E-001;-3.576923906803131E-002;-3.553776477929205E-004;4.918849561363459E-003;
2.410333333333334E+009;1.798594743013382E-001;-3.668776154518127E-002;-1.960300287464634E-004;5.065748933702707E-003;
2.410500000000000E+009;1.803401708602905E-001;-3.755060583353043E-002;1.372231927234680E-004;5.179299507290125E-003;
2.410666666666667E+009;1.804637759923935E-001;-3.833743557333946E-002;2.871922333724797E-004;5.069840233772993E-003;
2.410833333333334E+009;1.809944063425064E-001;-3.875710815191269E-002;4.966088454239070E-004;5.185589659959078E-003;
2.411000000000000E+009;1.812303960323334E-001;-3.945333883166313E-002;7.063465891405940E-004;5.017249379307032E-003;
2.411166666666667E+009;1.812513321638107E-001;-4.005704447627068E-002;1.017088536173105E-003;4.972460214048624E-003;
2.411333333333334E+009;1.816341876983643E-001;-4.043516516685486E-002;1.288784318603575E-003;4.963954444974661E-003;
2.411500000000000E+009;1.816353648900986E-001;-4.101438075304031E-002;1.606967416591942E-003;4.894750658422709E-003;
2.411666666666667E+009;1.816359758377075E-001;-4.157610610127449E-002;1.796148484572768E-003;4.639222752302885E-003;
2.411833333333334E+009;1.817223578691483E-001;-4.177742451429367E-002;2.102420432493091E-003;4.513929132372141E-003;
2.412000000000000E+009;1.815775334835053E-001;-4.233136400580406E-002;2.342015970498323E-003;4.398669116199017E-003;
2.412166666666667E+009;1.812125146389008E-001;-4.252581670880318E-002;2.334083896130323E-003;4.314500838518143E-003;
2.412333333333334E+009;1.809927970170975E-001;-4.285467788577080E-002;2.551731187850237E-003;4.076849669218063E-003;
2.412500000000000E+009;1.802719980478287E-001;-4.315206408500671E-002;2.713773166760802E-003;3.973187413066626E-003;
2.412666666666667E+009;1.798128187656403E-001;-4.363454505801201E-002;2.835923107340932E-003;3.823657752946019E-003;
2.412833333333334E+009;1.791806519031525E-001;-4.395350441336632E-002;3.061644267290831E-003;3.672445425763726E-003;
2.413000000000000E+009;1.783745437860489E-001;-4.432893916964531E-002;3.033786313608289E-003;3.505811793729663E-003;
2.413166666666667E+009;1.775340586900711E-001;-4.479905590415001E-002;3.083604620769620E-003;3.332127118483186E-003;
2.413333333333334E+009;1.766033172607422E-001;-4.513991624116898E-002;3.077690955251455E-003;3.196424804627895E-003;
2.413500000000000E+009;1.757657229900360E-001;-4.561454802751541E-002;3.116614883765578E-003;3.156788414344192E-003;
2.413666666666667E+009;1.748521476984024E-001;-4.618733003735542E-002;3.218075493350625E-003;2.953153103590012E-003;
2.413833333333334E+009;1.735516935586929E-001;-4.668579250574112E-002;3.117297543212771E-003;2.938912715762854E-003;
2.414000000000000E+009;1.722422093153000E-001;-4.731039330363274E-002;3.191659925505519E-003;2.607423113659024E-003;
2.414166666666667E+009;1.713396310806274E-001;-4.810428619384766E-002;3.221491118893027E-003;2.676289528608322E-003;
2.414333333333334E+009;1.701539605855942E-001;-4.879169166088104E-002;3.369087353348732E-003;2.631154377013445E-003;
2.414500000000000E+009;1.690955013036728E-001;-4.968401789665222E-002;3.461098298430443E-003;2.607252914458513E-003;
2.414666666666667E+009;1.676634550094605E-001;-5.048442631959915E-002;3.437032457441092E-003;2.395101822912693E-003;
2.414833333333334E+009;1.665555536746979E-001;-5.158626288175583E-002;3.495373530313373E-003;2.562220906838775E-003;
2.415000000000000E+009;1.653622537851334E-001;-5.249871313571930E-002;3.491387236863375E-003;2.458569826558232E-003;
2.415166666666667E+009;1.640817672014237E-001;-5.391596257686615E-002;3.886633319780231E-003;2.426169812679291E-003;
2.415333333333334E+009;1.630274206399918E-001;-5.510830506682396E-002;3.910011611878872E-003;2.450318075716496E-003;
2.415500000000000E+009;1.619253605604172E-001;-5.644142627716065E-002;3.961677197366953E-003;2.247340977191925E-003;
2.415666666666667E+009;1.607621461153030E-001;-5.775011703372002E-002;4.320040810853243E-003;2.084051491692662E-003;
2.415833333333334E+009;1.598147898912430E-001;-5.937052890658379E-002;4.409242887049913E-003;2.118014264851809E-003;
2.416000000000000E+009;1.585563868284226E-001;-6.104044616222382E-002;4.452814348042011E-003;1.816639676690102E-003;
2.416166666666667E+009;1.577608138322830E-001;-6.279361248016357E-002;4.626361187547445E-003;1.785341068170965E-003;
2.416333333333334E+009;1.567317545413971E-001;-6.461999565362930E-002;4.752097185701132E-003;1.590205589309335E-003;
2.416500000000000E+009;1.558231115341187E-001;-6.650720536708832E-002;5.074496846646071E-003;1.438266132026911E-003;
2.416666666666667E+009;1.547255367040634E-001;-6.822606921195984E-002;5.045943427830935E-003;1.248816726729274E-003;
2.416833333333334E+009;1.541317999362946E-001;-7.022111117839813E-002;5.279614124447107E-003;9.688792051747441E-004;
2.417000000000000E+009;1.531655490398407E-001;-7.212709635496140E-002;5.394271574914455E-003;7.360347663052380E-004;
2.417166666666667E+009;1.525581330060959E-001;-7.390045374631882E-002;5.475278012454510E-003;4.996704519726336E-004;
2.417333333333334E+009;1.518911570310593E-001;-7.577946782112122E-002;5.344594828784466E-003;1.737744169076905E-004;
2.417500000000000E+009;1.514239758253098E-001;-7.786819338798523E-002;5.451030097901821E-003;-2.272537531098351E-004;
2.417666666666667E+009;1.510626524686813E-001;-7.964427024126053E-002;5.395215936005116E-003;-3.974787541665137E-004;
2.417833333333334E+009;1.505531966686249E-001;-8.149613440036774E-002;5.488383583724499E-003;-7.150135352276266E-004;
2.418000000000000E+009;1.500401049852371E-001;-8.331510424613953E-002;5.408023949712515E-003;-8.712447015568614E-004;
2.418166666666667E+009;1.498160660266876E-001;-8.487587422132492E-002;5.455404054373503E-003;-1.203384948894382E-003;
2.418333333333334E+009;1.498171538114548E-001;-8.668456226587296E-002;5.200214218348265E-003;-1.489246380515397E-003;
2.418500000000000E+009;1.496556252241135E-001;-8.826053142547607E-002;5.221945699304342E-003;-1.864340738393366E-003;
2.418666666666667E+009;1.496863812208176E-001;-8.980523794889450E-002;5.082604475319386E-003;-2.076379256322980E-003;
2.418833333333334E+009;1.494217216968536E-001;-9.137299656867981E-002;4.850797355175018E-003;-2.299546729773283E-003;
2.419000000000000E+009;1.494173854589462E-001;-9.255580604076386E-002;4.780890420079231E-003;-2.488196361809969E-003;
2.419166666666667E+009;1.496505588293076E-001;-9.391576051712036E-002;4.738257266581059E-003;-2.904411405324936E-003;
2.419333333333334E+009;1.494928896427155E-001;-9.475643187761307E-002;4.291919991374016E-003;-2.892421791329980E-003;
2.419500000000000E+009;1.497091203927994E-001;-9.598682820796967E-002;4.147985484451056E-003;-3.153254510834813E-003;
2.419666666666667E+009;1.500434130430222E-001;-9.699845314025879E-002;4.036727827042341E-003;-3.189614042639732E-003;
2.419833333333334E+009;1.501200348138809E-001;-9.759699553251267E-002;3.719177562743425E-003;-3.410953097045422E-003;
2.420000000000000E+009;1.505226045846939E-001;-9.837342053651810E-002;3.677482949569821E-003;-3.318078117445111E-003;
2.420166666666667E+009;1.507384479045868E-001;-9.903655201196671E-002;3.493998665362597E-003;-3.636864945292473E-003;
2.420333333333334E+009;1.509893983602524E-001;-9.952045977115631E-002;3.285035490989685E-003;-3.575722919777036E-003;
2.420500000000000E+009;1.513462513685226E-001;-9.968125075101852E-002;3.202454186975956E-003;-3.811955451965332E-003;
2.420666666666667E+009;1.514859050512314E-001;-9.984535723924637E-002;2.853104379028082E-003;-3.827449632808566E-003;
2.420833333333334E+009;1.517825126647949E-001;-1.001989692449570E-001;3.051316598430276E-003;-3.946561831980944E-003;
2.421000000000000E+009;1.518722027540207E-001;-1.003945916891098E-001;2.861314453184605E-003;-3.871044609695673E-003;
2.421166666666667E+009;1.523059904575348E-001;-1.004694029688835E-001;2.497929381206632E-003;-4.128236789256334E-003;
2.421333333333334E+009;1.523809581995010E-001;-1.003312766551971E-001;2.353135030716658E-003;-4.111518617719412E-003;
2.421500000000000E+009;1.524168401956558E-001;-1.002340838313103E-001;2.193185500800610E-003;-4.295750986784697E-003;
2.421666666666667E+009;1.524099260568619E-001;-1.002957746386528E-001;2.120777266100049E-003;-4.430728498846293E-003;
2.421833333333334E+009;1.524167954921722E-001;-9.984339773654938E-002;1.890377840027213E-003;-4.446497187018395E-003;
2.422000000000000E+009;1.521612107753754E-001;-9.975877404212952E-002;1.716885133646429E-003;-4.412288311868906E-003;
2.422166666666667E+009;1.519027501344681E-001;-9.982518851757050E-002;1.458146725781262E-003;-4.623356740921736E-003;
2.422333333333334E+009;1.516206711530685E-001;-9.928967803716660E-002;1.184320077300072E-003;-4.872134886682034E-003;
2.422500000000000E+009;1.511587798595429E-001;-9.883859753608704E-002;1.045359531417489E-003;-4.830523394048214E-003;
2.422666666666667E+009;1.504475325345993E-001;-9.877428412437439E-002;8.635878330096602E-004;-4.902873653918505E-003;
2.422833333333334E+009;1.498419642448425E-001;-9.849859774112701E-002;4.721721634268761E-004;-5.045106168836355E-003;
2.423000000000000E+009;1.489646732807159E-001;-9.817718714475632E-002;1.869660482043400E-004;-4.810344427824020E-003;
2.423166666666667E+009;1.481036990880966E-001;-9.784638136625290E-002;-2.227303921245039E-004;-4.983383696526289E-003;
2.423333333333334E+009;1.473511159420013E-001;-9.734545648097992E-002;-3.319401585031301E-004;-4.895979072898626E-003;
2.423500000000000E+009;1.461383104324341E-001;-9.710182994604111E-002;-7.384549244306982E-004;-4.689818713814020E-003;
2.423666666666667E+009;1.447743773460388E-001;-9.691155701875687E-002;-1.083480310626328E-003;-4.643317312002182E-003;
2.423833333333334E+009;1.438236087560654E-001;-9.668964147567749E-002;-1.244267332367599E-003;-4.541974049061537E-003;
2.424000000000000E+009;1.424624323844910E-001;-9.633835405111313E-002;-1.483834232203662E-003;-4.245444200932980E-003;
2.424166666666667E+009;1.411574482917786E-001;-9.628317505121231E-002;-1.743345288559794E-003;-4.098894540220499E-003;
2.424333333333334E+009;1.398455202579498E-001;-9.607821702957153E-002;-1.681291498243809E-003;-4.024181514978409E-003;
2.424500000000000E+009;1.383335590362549E-001;-9.632305055856705E-002;-2.076124539598823E-003;-3.840426448732615E-003;
2.424666666666667E+009;1.370089352130890E-001;-9.612283855676651E-002;-2.060881583020091E-003;-3.474399913102388E-003;
2.424833333333334E+009;1.354862898588181E-001;-9.641966223716736E-002;-2.253042766824365E-003;-3.350043203681707E-003;
2.425000000000000E+009;1.340569406747818E-001;-9.682799875736237E-002;-2.510112011805177E-003;-3.220839425921440E-003;
2.425166666666667E+009;1.322755515575409E-001;-9.718816727399826E-002;-2.291269367560744E-003;-3.029024461284280E-003;
2.425333333333334E+009;1.310570091009140E-001;-9.768959879875183E-002;-2.462377073243260E-003;-2.873345743864775E-003;
2.425500000000000E+009;1.295814961194992E-001;-9.835597872734070E-002;-2.646603155881167E-003;-2.416052855551243E-003;
2.425666666666667E+009;1.280904412269592E-001;-9.897234290838242E-002;-2.421963494271040E-003;-2.306743990629911E-003;
2.425833333333334E+009;1.266914010047913E-001;-9.992408752441406E-002;-2.542726928368211E-003;-2.035782672464848E-003;
2.426000000000000E+009;1.253329813480377E-001;-1.010271832346916E-001;-2.627830486744642E-003;-1.918965601362288E-003;
2.426166666666667E+009;1.240203380584717E-001;-1.021066382527351E-001;-2.566830953583121E-003;-1.756075187586248E-003;
2.426333333333334E+009;1.226844415068626E-001;-1.032663956284523E-001;-2.476665657013655E-003;-1.527268788777292E-003;
2.426500000000000E+009;1.214650124311447E-001;-1.044990718364716E-001;-2.403046004474163E-003;-1.228717505000532E-003;
2.426666666666667E+009;1.203552335500717E-001;-1.057343184947968E-001;-2.262587193399668E-003;-1.112627913244069E-003;
2.426833333333334E+009;1.191181391477585E-001;-1.073313429951668E-001;-2.336832461878657E-003;-1.035580760799348E-003;
2.427000000000000E+009;1.179682165384293E-001;-1.089256927371025E-001;-1.895542023703456E-003;-9.637319017201662E-004;
2.427166666666667E+009;1.171219050884247E-001;-1.102112755179405E-001;-2.031955868005753E-003;-6.776633672416210E-004;
2.427333333333334E+009;1.161207854747772E-001;-1.119961664080620E-001;-1.745099085383117E-003;-6.694020703434944E-004;
2.427500000000000E+009;1.153821200132370E-001;-1.136862412095070E-001;-1.505570719018579E-003;-7.481527864001691E-004;
2.427666666666667E+009;1.145667880773544E-001;-1.153903156518936E-001;-1.632092637009919E-003;-6.110605318099260E-004;
