# Version 1.00
#
freq[Hz];re:Trc1_S11;im:Trc1_S11;re:Trc2_S21;im:Trc2_S21;
2.400000000000000E+009;1.582946628332138E-001;6.274263560771942E-002;-1.188343740068376E-003;-4.251250531524420E-003;
2.400166666666667E+009;1.583173125982285E-001;6.115963310003281E-002;-1.219795085489750E-003;-4.210302606225014E-003;
2.400333333333334E+009;1.580552607774735E-001;5.941534414887428E-002;-1.275019953027368E-003;-4.274183884263039E-003;
2.400500000000000E+009;1.582020819187164E-001;5.738387629389763E-002;-1.471156254410744E-003;-4.195153713226318E-003;
2.400666666666667E+009;1.579300910234451E-001;5.528698489069939E-002;-1.557330950163305E-003;-4.219041205942631E-003;
2.400833333333334E+009;1.582307666540146E-001;5.350860953330994E-002;-1.604426302947104E-003;-4.008028190582991E-003;
2.401000000000000E+009;1.583302617073059E-001;5.153485760092735E-002;-1.722331508062780E-003;-4.011227749288082E-003;
2.401166666666667E+009;1.585566699504852E-001;4.952519014477730E-002;-1.866161124780774E-003;-3.977149259299040E-003;
2.401333333333334E+009;1.586209386587143E-001;4.730130359530449E-002;-1.917269080877304E-003;-3.921695053577423E-003;
2.401500000000000E+009;1.589538156986237E-001;4.535026103258133E-002;-2.160682110115886E-003;-3.892141859978437E-003;
2.401666666666667E+009;1.592691242694855E-001;4.326627403497696E-002;-2.278224099427462E-003;-3.968958277255297E-003;
2.401833333333334E+009;1.596579253673554E-001;4.142174124717712E-002;-2.377507044002414E-003;-3.922350704669952E-003;
2.402000000000000E+009;1.600731313228607E-001;3.923770040273666E-002;-2.598723163828254E-003;-3.636722685769200E-003;
2.402166666666667E+009;1.607349514961243E-001;3.725361451506615E-002;-2.720730612054467E-003;-3.608836093917489E-003;
2.402333333333334E+009;1.612361073493958E-001;3.535246849060059E-002;-2.815214218571782E-003;-3.577713854610920E-003;
2.402500000000000E+009;1.621059775352478E-001;3.350018337368965E-002;-2.890709554776549E-003;-3.429495496675372E-003;
2.402666666666667E+009;1.627226024866104E-001;3.178804740309715E-002;-2.931134775280953E-003;-3.351238789036870E-003;
2.402833333333334E+009;1.633821278810501E-001;2.998982742428780E-002;-3.318182192742825E-003;-3.351164748892188E-003;
2.403000000000000E+009;1.640277653932571E-001;2.833863906562328E-002;-3.390662604942918E-003;-3.117501968517900E-003;
2.403166666666667E+009;1.649610698223114E-001;2.679516188800335E-002;-3.375698113813996E-003;-2.972045680508018E-003;
2.403333333333334E+009;1.659778952598572E-001;2.548821642994881E-002;-3.519586054608226E-003;-2.810671692714095E-003;
2.403500000000000E+009;1.668033599853516E-001;2.398633956909180E-002;-3.643301548436284E-003;-2.854482503607869E-003;
2.403666666666667E+009;1.676546186208725E-001;2.245755866169930E-002;-3.907345235347748E-003;-2.602850552648306E-003;
2.403833333333334E+009;1.687635630369186E-001;2.113823965191841E-002;-3.814877942204475E-003;-2.419772790744901E-003;
2.404000000000000E+009;1.698195636272430E-001;1.992763951420784E-002;-3.948072437196970E-003;-2.173797693103552E-003;
2.404166666666667E+009;1.706568598747253E-001;1.873744465410709E-002;-4.279701504856348E-003;-2.031179377809167E-003;
2.404333333333334E+009;1.714457422494888E-001;1.785872504115105E-002;-4.051112104207277E-003;-1.943162875249982E-003;
2.404500000000000E+009;1.723243147134781E-001;1.661631464958191E-002;-4.064296837896109E-003;-1.535452669486404E-003;
2.404666666666667E+009;1.734103113412857E-001;1.591400988399983E-002;-4.277624189853668E-003;-1.473525655455887E-003;
2.404833333333334E+009;1.741891652345657E-001;1.515221036970615E-002;-4.233072511851788E-003;-1.267421408556402E-003;
2.405000000000000E+009;1.750251650810242E-001;1.438494957983494E-002;-4.130319692194462E-003;-1.253337832167745E-003;
2.405166666666667E+009;1.758654713630676E-001;1.359683182090521E-002;-4.362965002655983E-003;-1.059185946360230E-003;
2.405333333333334E+009;1.767371594905853E-001;1.297927927225828E-002;-4.243500996381044E-003;-8.559701382182539E-004;
2.405500000000000E+009;1.773883551359177E-001;1.267904601991177E-002;-4.147402010858059E-003;-6.774981156922877E-004;
2.405666666666667E+009;1.779454350471497E-001;1.222596038132906E-002;-4.116502590477467E-003;-4.162613477092236E-004;
2.405833333333334E+009;1.784716397523880E-001;1.173033285886049E-002;-4.160637501627207E-003;-2.909026807174087E-004;
2.406000000000000E+009;1.791561841964722E-001;1.121244207024574E-002;-4.192441701889038E-003;-3.458360151853412E-004;
2.406166666666667E+009;1.794746071100235E-001;1.113191526383162E-002;-4.010041244328022E-003;-2.084618463413790E-004;
2.406333333333334E+009;1.799670308828354E-001;1.068810373544693E-002;-4.154530353844166E-003;1.017997201415710E-004;
2.406500000000000E+009;1.801609992980957E-001;1.028980314731598E-002;-4.008314572274685E-003;2.481099218130112E-004;
2.406666666666667E+009;1.802957653999329E-001;1.013344526290894E-002;-4.053976386785507E-003;3.270824672654271E-004;
2.406833333333334E+009;1.805382370948792E-001;9.755521081387997E-003;-3.914263565093279E-003;5.611976375803351E-004;
2.407000000000000E+009;1.805086880922318E-001;9.286379441618919E-003;-4.034878220409155E-003;5.802555824629962E-004;
2.407166666666667E+009;1.806494146585465E-001;9.187491610646248E-003;-3.898313967511058E-003;6.568462122231722E-004;
2.407333333333334E+009;1.805593669414520E-001;8.587077260017395E-003;-3.867208957672119E-003;7.462621433660388E-004;
2.407500000000000E+009;1.803718656301498E-001;8.226794190704823E-003;-3.951505292207003E-003;1.016803900711238E-003;
2.407666666666667E+009;1.801650971174240E-001;7.743884343653917E-003;-3.713304176926613E-003;9.479885338805616E-004;
2.407833333333334E+009;1.797422170639038E-001;7.127863354980946E-003;-3.543560393154621E-003;1.137992017902434E-003;
2.408000000000000E+009;1.793362498283386E-001;6.460340227931738E-003;-3.635628148913384E-003;1.409390824846923E-003;
2.408166666666667E+009;1.789794862270355E-001;6.071533542126417E-003;-3.585967002436519E-003;1.436433987691999E-003;
2.408333333333334E+009;1.787524968385696E-001;5.293041002005339E-003;-3.540050238370895E-003;1.612007268704474E-003;
2.408500000000000E+009;1.780076473951340E-001;4.390765447169542E-003;-3.267945721745491E-003;1.531100366264582E-003;
2.408666666666667E+009;1.776396185159683E-001;3.445908194407821E-003;-3.291981760412455E-003;1.625075703486800E-003;
2.408833333333334E+009;1.768150925636292E-001;2.649104222655296E-003;-3.086628159508109E-003;1.839590840972960E-003;
2.409000000000000E+009;1.761413812637329E-001;1.536683063022792E-003;-3.170330543071032E-003;1.678347704000771E-003;
2.409166666666667E+009;1.755806207656860E-001;4.781100433319807E-004;-2.970478497445583E-003;1.775685697793961E-003;
2.409333333333334E+009;1.749945282936096E-001;-9.502879693172872E-004;-2.844534115865827E-003;1.881135860458016E-003;
2.409500000000000E+009;1.741926223039627E-001;-2.363595413044095E-003;-2.840886591002345E-003;2.038215287029743E-003;
2.409666666666667E+009;1.734946966171265E-001;-3.642588388174772E-003;-2.860603621229529E-003;2.101310063153505E-003;
2.409833333333334E+009;1.728627681732178E-001;-4.771601408720017E-003;-2.601692453026772E-003;2.261805348098278E-003;
2.410000000000000E+009;1.723776608705521E-001;-6.462500430643559E-003;-2.529090503230691E-003;2.125920727849007E-003;
2.410166666666667E+009;1.715986728668213E-001;-8.111173287034035E-003;-2.398605691269040E-003;2.176038920879364E-003;
2.410333333333334E+009;1.710293740034103E-001;-9.774974547326565E-003;-2.534497063606978E-003;2.137178787961602E-003;
2.410500000000000E+009;1.705352813005447E-001;-1.141853630542755E-002;-2.345032524317503E-003;2.289142692461610E-003;
2.410666666666667E+009;1.699240654706955E-001;-1.331127714365721E-002;-2.332999138161540E-003;2.194914966821671E-003;
2.410833333333334E+009;1.696349680423737E-001;-1.481975149363279E-002;-2.264452865347266E-003;2.229063306003809E-003;
2.411000000000000E+009;1.690943688154221E-001;-1.673304289579392E-002;-2.078942023217678E-003;2.385283820331097E-003;
2.411166666666667E+009;1.689069569110870E-001;-1.856626383960247E-002;-2.042453037574887E-003;2.342974999919534E-003;
2.411333333333334E+009;1.686289012432098E-001;-2.050471492111683E-002;-2.043062122538686E-003;2.362032420933247E-003;
2.411500000000000E+009;1.683677881956101E-001;-2.261589840054512E-002;-1.966504147276282E-003;2.525471849367023E-003;
2.411666666666667E+009;1.685117483139038E-001;-2.452297694981098E-002;-1.903365598991513E-003;2.360785380005837E-003;
2.411833333333334E+009;1.682936996221542E-001;-2.620427496731281E-002;-1.803740044124425E-003;2.561737550422549E-003;
2.412000000000000E+009;1.684926152229309E-001;-2.839193306863308E-002;-1.763210049830377E-003;2.636280842125416E-003;
2.412166666666667E+009;1.683524847030640E-001;-3.033500164747238E-002;-1.742211054079235E-003;2.518604276701808E-003;
2.412333333333334E+009;1.688303798437119E-001;-3.224035352468491E-002;-1.679235254414380E-003;2.547293668612838E-003;
2.412500000000000E+009;1.688001304864883E-001;-3.385268524289131E-002;-1.742630614899099E-003;2.741201547905803E-003;
2.412666666666667E+009;1.692177951335907E-001;-3.606588020920754E-002;-1.615254441276193E-003;2.756400499492884E-003;
2.412833333333334E+009;1.694904267787933E-001;-3.775177150964737E-002;-1.677906140685082E-003;2.636134624481201E-003;
2.413000000000000E+009;1.700341105461121E-001;-3.955818712711334E-002;-1.460236730054021E-003;2.908078022301197E-003;
2.413166666666667E+009;1.703058779239655E-001;-4.115133732557297E-002;-1.351386890746653E-003;2.831106074154377E-003;
2.413333333333334E+009;1.707551330327988E-001;-4.314528405666351E-002;-1.294960151426494E-003;2.854536287486553E-003;
2.413500000000000E+009;1.712801009416580E-001;-4.464363679289818E-002;-1.139694242738187E-003;2.945516025647521E-003;
2.413666666666667E+009;1.717845797538757E-001;-4.623839631676674E-002;-1.121415290981531E-003;2.947369823232293E-003;
2.413833333333334E+009;1.723535805940628E-001;-4.777734354138374E-002;-9.573913412168622E-004;3.159201471135020E-003;
2.414000000000000E+009;1.728853732347488E-001;-4.913447424769402E-002;-1.063830102793872E-003;2.924864413216710E-003;
2.414166666666667E+009;1.733720153570175E-001;-5.050970986485481E-002;-8.601941517554224E-004;3.148818388581276E-003;
2.414333333333334E+009;1.740298569202423E-001;-5.170423164963722E-002;-7.012611022219062E-004;3.236769931390882E-003;
2.414500000000000E+009;1.746030896902084E-001;-5.276727303862572E-002;-6.519724265672267E-004;3.176079131662846E-003;
2.414666666666667E+009;1.750109642744064E-001;-5.383653938770294E-002;-6.026629125699401E-004;3.319079987704754E-003;
2.414833333333334E+009;1.754991412162781E-001;-5.492028221487999E-002;-4.698897537309676E-004;3.431349759921432E-003;
2.415000000000000E+009;1.759555786848068E-001;-5.567500367760658E-002;-3.339136310387403E-004;3.334447741508484E-003;
2.415166666666667E+009;1.762834191322327E-001;-5.662788078188896E-002;-2.711476117838174E-004;3.180243074893951E-003;
2.415333333333334E+009;1.768272221088409E-001;-5.727294832468033E-002;4.937064659316093E-005;3.259131452068687E-003;
2.415500000000000E+009;1.772060096263886E-001;-5.788268148899078E-002;1.389531971653923E-004;3.220890415832400E-003;
2.415666666666667E+009;1.773687154054642E-001;-5.837427452206612E-002;3.816448152065277E-004;3.261354519054294E-003;
2.415833333333334E+009;1.777459830045700E-001;-5.890018120408058E-002;1.461732754250988E-004;3.217416582629085E-003;
2.416000000000000E+009;1.777878850698471E-001;-5.933072790503502E-002;3.301609249319881E-004;3.146717324852943E-003;
2.416166666666667E+009;1.780515462160111E-001;-5.965681374073029E-002;3.627761325333268E-004;3.204687731340528E-003;
2.416333333333334E+009;1.777880936861038E-001;-5.996708571910858E-002;6.231381557881832E-004;3.195780096575618E-003;
2.416500000000000E+009;1.777407377958298E-001;-6.036160886287689E-002;7.766745984554291E-004;3.089823992922902E-003;
2.416666666666667E+009;1.775062084197998E-001;-6.059106439352036E-002;8.091799682006240E-004;3.045301185920835E-003;
2.416833333333334E+009;1.774206608533859E-001;-6.087910383939743E-002;8.824666147120297E-004;3.079508896917105E-003;
2.417000000000000E+009;1.767889708280563E-001;-6.114920228719711E-002;1.063419855199754E-003;2.962865401059389E-003;
2.417166666666667E+009;1.763890236616135E-001;-6.123605743050575E-002;1.291734050028026E-003;3.121270099654794E-003;
2.417333333333334E+009;1.758234202861786E-001;-6.149652600288391E-002;1.302868244238198E-003;3.064324147999287E-003;
2.417500000000000E+009;1.752288788557053E-001;-6.183196604251862E-002;1.255796523764730E-003;2.871586708351970E-003;
2.417666666666667E+009;1.747370958328247E-001;-6.191608309745789E-002;1.364371506497264E-003;2.984271151944995E-003;
2.417833333333334E+009;1.738128662109375E-001;-6.221180409193039E-002;1.437002676539123E-003;2.801786176860333E-003;
2.418000000000000E+009;1.728339642286301E-001;-6.266181170940399E-002;1.725616166368127E-003;2.688866807147861E-003;
2.418166666666667E+009;1.719388067722321E-001;-6.283500045537949E-002;1.701803528703749E-003;2.640243852511048E-003;
2.418333333333334E+009;1.711948812007904E-001;-6.316421180963516E-002;1.866373000666499E-003;2.473920350894332E-003;
2.418500000000000E+009;1.700978130102158E-001;-6.358990818262100E-002;1.856385031715035E-003;2.472228836268187E-003;
2.418666666666667E+009;1.691664010286331E-001;-6.414579600095749E-002;1.935122767463327E-003;2.292538993060589E-003;
2.418833333333334E+009;1.677122265100479E-001;-6.473344564437866E-002;2.111492678523064E-003;2.262311987578869E-003;
2.419000000000000E+009;1.665100157260895E-001;-6.518763303756714E-002;2.047925721853972E-003;2.184032229706645E-003;
2.419166666666667E+009;1.655378490686417E-001;-6.594051420688629E-002;2.183696022257209E-003;2.157760085538030E-003;
2.419333333333334E+009;1.641404181718826E-001;-6.644590944051743E-002;2.266924129799008E-003;2.070864895358682E-003;
2.419500000000000E+009;1.629239916801453E-001;-6.736664474010468E-002;2.375454874709249E-003;1.984201837331057E-003;
2.419666666666667E+009;1.619998365640640E-001;-6.837932020425797E-002;2.332677599042654E-003;1.781125436536968E-003;
2.419833333333334E+009;1.606193333864212E-001;-6.915509700775147E-002;2.433745888993144E-003;1.773477182723582E-003;
2.420000000000000E+009;1.596505194902420E-001;-7.016793638467789E-002;2.408941043540835E-003;1.552386907860637E-003;
2.420166666666667E+009;1.584188342094421E-001;-7.137015461921692E-002;2.442642580717802E-003;1.566030434332788E-003;
2.420333333333334E+009;1.574038714170456E-001;-7.258675247430801E-002;2.516563981771469E-003;1.500661135651171E-003;
2.420500000000000E+009;1.563861966133118E-001;-7.376629114151001E-002;2.481253119185567E-003;1.298297778703272E-003;
2.420666666666667E+009;1.553968936204910E-001;-7.487963885068893E-002;2.626175526529551E-003;1.252630725502968E-003;
2.420833333333334E+009;1.543262004852295E-001;-7.640533894300461E-002;2.543158596381545E-003;1.060532755218446E-003;
2.421000000000000E+009;1.535209417343140E-001;-7.792638987302780E-002;2.458054106682539E-003;1.057267771102488E-003;
2.421166666666667E+009;1.529783159494400E-001;-7.948917895555496E-002;2.483667805790901E-003;8.382286760024726E-004;
2.421333333333334E+009;1.523300558328629E-001;-8.114392310380936E-002;2.572790021076798E-003;8.101999992504716E-004;
2.421500000000000E+009;1.516122668981552E-001;-8.249752968549728E-002;2.550382865592837E-003;8.234326378442347E-004;
2.421666666666667E+009;1.510209143161774E-001;-8.414409309625626E-002;2.328796312212944E-003;5.296744056977332E-004;
2.421833333333334E+009;1.507282853126526E-001;-8.592631667852402E-002;2.381336409598589E-003;5.391908925957978E-004;
2.422000000000000E+009;1.501737385988236E-001;-8.756747841835022E-002;2.323897555470467E-003;5.296693998388946E-004;
2.422166666666667E+009;1.497517526149750E-001;-8.924929052591324E-002;2.493801992386580E-003;3.560431941878051E-004;
2.422333333333334E+009;1.497822701931000E-001;-9.102454036474228E-002;2.112698275595903E-003;2.894779900088906E-004;
2.422500000000000E+009;1.495190560817719E-001;-9.268730878829956E-002;2.290775300934911E-003;1.925175311043859E-004;
2.422666666666667E+009;1.492904126644135E-001;-9.434542804956436E-002;2.241144422441721E-003;1.970835728570819E-004;
2.422833333333334E+009;1.494677215814591E-001;-9.622605144977570E-002;2.063553081825376E-003;2.701812481973320E-004;
2.423000000000000E+009;1.494957357645035E-001;-9.786784648895264E-002;1.953864702954888E-003;2.385818515904248E-004;
2.423166666666667E+009;1.497968137264252E-001;-9.943093359470367E-002;1.926213386468589E-003;1.376779255224392E-004;
2.423333333333334E+009;1.501143872737885E-001;-1.009508222341538E-001;1.929357764311135E-003;1.285302569158375E-004;
2.423500000000000E+009;1.502759307622910E-001;-1.024560481309891E-001;1.907595316879451E-003;-2.359553036512807E-005;
2.423666666666667E+009;1.504487842321396E-001;-1.040451377630234E-001;1.877334318123758E-003;9.061736636795104E-005;
2.423833333333334E+009;1.510235518217087E-001;-1.055226176977158E-001;1.932219020090997E-003;6.347372982418165E-005;
2.424000000000000E+009;1.512358486652374E-001;-1.068816259503365E-001;1.719677355140448E-003;1.298344286624342E-004;
2.424166666666667E+009;1.516631394624710E-001;-1.081181615591049E-001;1.724188681691885E-003;2.442530785629060E-005;
2.424333333333334E+009;1.522382795810700E-001;-1.091941446065903E-001;1.811714610084891E-003;1.167177761089988E-004;
2.424500000000000E+009;1.527099311351776E-001;-1.106736361980438E-001;1.591013045981526E-003;2.290521806571633E-004;
2.424666666666667E+009;1.532026231288910E-001;-1.113488599658012E-001;1.658815890550613E-003;1.525710831629112E-004;
2.424833333333334E+009;1.536927223205566E-001;-1.124699935317040E-001;1.738277147524059E-003;1.386941876262426E-004;
2.425000000000000E+009;1.539595872163773E-001;-1.134676411747932E-001;1.799636520445347E-003;2.333470365556423E-005;
2.425166666666667E+009;1.543373912572861E-001;-1.142186820507050E-001;1.710789045318961E-003;-2.279709406138863E-005;
2.425333333333334E+009;1.547820270061493E-001;-1.149601563811302E-001;1.799888792447746E-003;1.491950824856758E-004;
2.425500000000000E+009;1.552268266677856E-001;-1.157856136560440E-001;1.763633103109896E-003;2.059550024569035E-004;
2.425666666666667E+009;1.554301381111145E-001;-1.163062527775765E-001;1.928824232891202E-003;4.365673885331489E-005;
2.425833333333334E+009;1.556271761655808E-001;-1.167471408843994E-001;1.941878232173622E-003;2.132914232788608E-004;
2.426000000000000E+009;1.559022665023804E-001;-1.173648685216904E-001;1.742926076985896E-003;1.143189510912634E-004;
2.426166666666667E+009;1.562141478061676E-001;-1.176825687289238E-001;2.048273338004947E-003;7.358309085248038E-005;
2.426333333333334E+009;1.562320590019226E-001;-1.180253252387047E-001;2.099247649312019E-003;1.036059693433344E-004;
2.426500000000000E+009;1.561969965696335E-001;-1.182406395673752E-001;2.043685643002391E-003;2.019049279624596E-004;
2.426666666666667E+009;1.563504338264465E-001;-1.183525398373604E-001;2.253999933600426E-003;7.130485028028488E-005;
2.426833333333334E+009;1.561444997787476E-001;-1.185746714472771E-001;2.140947384759784E-003;-4.083998646819964E-005;
2.427000000000000E+009;1.558081358671188E-001;-1.188429147005081E-001;2.187832491472364E-003;-3.300934258732013E-005;
2.427166666666667E+009;1.554526388645172E-001;-1.187905818223953E-001;2.139255171641707E-003;-1.328288344666362E-004;
2.427333333333334E+009;1.549794822931290E-001;-1.189817860722542E-001;2.275048289448023E-003;-2.082331920973957E-004;
2.427500000000000E+009;1.546016484498978E-001;-1.191224530339241E-001;2.346516121178865E-003;-2.208805817645043E-004;
2.427666666666667E+009;1.538640856742859E-001;-1.192084252834320E-001;2.325138309970498E-003;-2.628721122164279E-004;
2.427833333333334E+009;1.530042439699173E-001;-1.192384809255600E-001;2.452582586556673E-003;-3.653419262263924E-004;
