# Version 1.00
#
freq[Hz];re:Trc1_S11;im:Trc1_S11;re:Trc2_S21;im:Trc2_S21;
2.400000000000000E+009;1.582759320735931E-001;6.266828626394272E-002;-1.340257818810642E-003;-4.235871136188507E-003;
2.400166666666667E+009;1.582621783018112E-001;6.111475452780724E-002;-1.449334085918963E-003;-4.297181032598019E-003;
2.400333333333334E+009;1.579356193542481E-001;5.904212221503258E-002;-1.610691659152508E-003;-4.124162718653679E-003;
2.400500000000000E+009;1.580138355493546E-001;5.707614868879318E-002;-1.818490796722472E-003;-3.912981133908033E-003;
2.400666666666667E+009;1.581608802080154E-001;5.520310997962952E-002;-1.896429108455777E-003;-4.055439494550228E-003;
2.400833333333334E+009;1.581270098686218E-001;5.325782671570778E-002;-1.913711894303560E-003;-4.018519539386034E-003;
2.401000000000000E+009;1.583003401756287E-001;5.125654488801956E-002;-2.025777474045754E-003;-3.842763835564256E-003;
2.401166666666667E+009;1.585111021995544E-001;4.910008981823921E-002;-2.242646412923932E-003;-3.737150924280286E-003;
2.401333333333334E+009;1.586655676364899E-001;4.713110253214836E-002;-2.269563032314181E-003;-3.714251797646284E-003;
2.401500000000000E+009;1.590291261672974E-001;4.511689022183418E-002;-2.422564895823598E-003;-3.789286129176617E-003;
2.401666666666667E+009;1.592591702938080E-001;4.316977411508560E-002;-2.456373069435358E-003;-3.705864772200584E-003;
2.401833333333334E+009;1.597816497087479E-001;4.116672277450562E-002;-2.614747732877731E-003;-3.754484234377742E-003;
2.402000000000000E+009;1.601598411798477E-001;3.916300460696220E-002;-2.895199228078127E-003;-3.674687584862113E-003;
2.402166666666667E+009;1.607334911823273E-001;3.701560571789742E-002;-2.955069998279214E-003;-3.483876818791032E-003;
2.402333333333334E+009;1.610811054706574E-001;3.523162007331848E-002;-3.072379156947136E-003;-3.277190029621124E-003;
2.402500000000000E+009;1.619312614202499E-001;3.349032253026962E-002;-3.051480511203408E-003;-3.275894094258547E-003;
2.402666666666667E+009;1.624923199415207E-001;3.171751275658608E-002;-3.327596234157682E-003;-3.092258004471660E-003;
2.402833333333334E+009;1.632606983184815E-001;3.006433509290218E-002;-3.333631204441190E-003;-3.025830024853349E-003;
2.403000000000000E+009;1.641071587800980E-001;2.836629748344421E-002;-3.459207015112042E-003;-3.028341801837087E-003;
2.403166666666667E+009;1.649576723575592E-001;2.682702802121639E-002;-3.642443800345063E-003;-2.807183889672160E-003;
2.403333333333334E+009;1.656810939311981E-001;2.535966970026493E-002;-3.767808433622122E-003;-2.754919929429889E-003;
2.403500000000000E+009;1.666601449251175E-001;2.393636666238308E-002;-3.912950865924358E-003;-2.624090760946274E-003;
2.403666666666667E+009;1.676964163780212E-001;2.255548723042011E-002;-3.983973525464535E-003;-2.304872032254934E-003;
2.403833333333334E+009;1.686733961105347E-001;2.125481329858303E-002;-4.148277919739485E-003;-2.159022958949208E-003;
2.404000000000000E+009;1.694409847259522E-001;2.005289122462273E-002;-4.161390475928783E-003;-2.122466918081045E-003;
2.404166666666667E+009;1.706482470035553E-001;1.881014928221703E-002;-4.280897323042154E-003;-1.797286793589592E-003;
2.404333333333334E+009;1.715276092290878E-001;1.808780059218407E-002;-4.220573231577873E-003;-1.706863869912922E-003;
2.404500000000000E+009;1.722469180822372E-001;1.683123782277107E-002;-4.317002836614847E-003;-1.593096181750298E-003;
2.404666666666667E+009;1.733704805374146E-001;1.600118167698383E-002;-4.308108240365982E-003;-1.265087979845703E-003;
2.404833333333334E+009;1.742209792137146E-001;1.529337465763092E-002;-4.304172936826944E-003;-9.577274904586375E-004;
2.405000000000000E+009;1.751334369182587E-001;1.448678411543369E-002;-4.382860846817493E-003;-9.589087567292154E-004;
2.405166666666667E+009;1.758857369422913E-001;1.374664809554815E-002;-4.108135588467121E-003;-6.603749352507293E-004;
2.405333333333334E+009;1.767071485519409E-001;1.310567185282707E-002;-4.406373947858810E-003;-6.037281709723175E-004;
2.405500000000000E+009;1.772130131721497E-001;1.267593074589968E-002;-4.184742923825979E-003;-4.761637246701866E-004;
2.405666666666667E+009;1.779886484146118E-001;1.213863119482994E-002;-4.251314792782068E-003;-2.397760399617255E-004;
2.405833333333334E+009;1.783248335123062E-001;1.180246938019991E-002;-4.366532899439335E-003;-3.120572073385119E-004;
2.406000000000000E+009;1.791630089282990E-001;1.133451424539089E-002;-4.218121524900198E-003;-3.560918412404135E-005;
2.406166666666667E+009;1.794314384460449E-001;1.120713539421558E-002;-4.237245768308640E-003;4.340743544162251E-005;
2.406333333333334E+009;1.800595074892044E-001;1.081559807062149E-002;-4.153698217123747E-003;2.717420866247267E-004;
2.406500000000000E+009;1.802049577236176E-001;1.035853289067745E-002;-4.163414239883423E-003;4.403002967592329E-004;
2.406666666666667E+009;1.802652329206467E-001;1.015120372176170E-002;-3.976828418672085E-003;5.392724997363985E-004;
2.406833333333334E+009;1.804407984018326E-001;9.685312397778034E-003;-4.084823653101921E-003;6.348932511173189E-004;
2.407000000000000E+009;1.807446032762528E-001;9.397670626640320E-003;-3.930516075342894E-003;8.265147916972637E-004;
2.407166666666667E+009;1.806326061487198E-001;9.091245941817761E-003;-3.983473405241966E-003;1.036021392792463E-003;
2.407333333333334E+009;1.804918199777603E-001;8.591604419052601E-003;-3.832681803032756E-003;9.373582433909178E-004;
2.407500000000000E+009;1.803881376981735E-001;8.236162364482880E-003;-3.767500864341855E-003;1.076425658538938E-003;
2.407666666666667E+009;1.801064759492874E-001;7.730402518063784E-003;-3.758362494409084E-003;1.326084136962891E-003;
2.407833333333334E+009;1.798434108495712E-001;7.232406642287970E-003;-3.502055536955595E-003;1.340832677669823E-003;
2.408000000000000E+009;1.795088201761246E-001;6.617377977818251E-003;-3.400457557290793E-003;1.494668307714164E-003;
2.408166666666667E+009;1.790096908807755E-001;6.095504853874445E-003;-3.348186146467924E-003;1.499084522947669E-003;
2.408333333333334E+009;1.786989718675613E-001;5.282030440866947E-003;-3.438872750848532E-003;1.696813153102994E-003;
2.408500000000000E+009;1.782098561525345E-001;4.290548153221607E-003;-3.254507668316364E-003;1.699233194813132E-003;
2.408666666666667E+009;1.775653958320618E-001;3.511350834742189E-003;-3.166235517710447E-003;1.875438843853772E-003;
2.408833333333334E+009;1.768912971019745E-001;2.585784764960408E-003;-3.010349348187447E-003;2.012845361605287E-003;
2.409000000000000E+009;1.762233972549439E-001;1.481198356486857E-003;-2.906237961724401E-003;2.009001793339849E-003;
2.409166666666667E+009;1.756162196397781E-001;3.586627135518938E-004;-2.991107292473316E-003;2.077154116705060E-003;
2.409333333333334E+009;1.749196052551270E-001;-8.206318598240614E-004;-2.789530437439680E-003;2.196771791204810E-003;
2.409500000000000E+009;1.742804348468781E-001;-2.269863383844495E-003;-2.670739078894258E-003;2.116414252668619E-003;
2.409666666666667E+009;1.736699342727661E-001;-3.619348863139749E-003;-2.481272909790278E-003;2.196963177993894E-003;
2.409833333333334E+009;1.728762984275818E-001;-5.029796622693539E-003;-2.513883868232369E-003;2.274309750646353E-003;
2.410000000000000E+009;1.722691804170609E-001;-6.385931279510260E-003;-2.558813663199544E-003;2.163356170058250E-003;
2.410166666666667E+009;1.717532724142075E-001;-8.000928908586502E-003;-2.396834082901478E-003;2.466181758791208E-003;
2.410333333333334E+009;1.709061563014984E-001;-9.543403983116150E-003;-2.212908817455173E-003;2.330581424757838E-003;
2.410500000000000E+009;1.705634146928787E-001;-1.127910614013672E-002;-2.104564337059856E-003;2.446089405566454E-003;
2.410666666666667E+009;1.699768006801605E-001;-1.325998734682798E-002;-2.081309212371707E-003;2.490426879376173E-003;
2.410833333333334E+009;1.697947680950165E-001;-1.495695579797030E-002;-2.081637270748615E-003;2.423270605504513E-003;
2.411000000000000E+009;1.692552268505096E-001;-1.675845123827457E-002;-2.112232381477952E-003;2.536924090236425E-003;
2.411166666666667E+009;1.687259674072266E-001;-1.870888844132423E-002;-1.906945952214301E-003;2.582553774118424E-003;
2.411333333333334E+009;1.685541421175003E-001;-2.052799612283707E-002;-1.809741836041212E-003;2.569971838966012E-003;
2.411500000000000E+009;1.685073822736740E-001;-2.273573167622089E-002;-1.763920765370131E-003;2.488124184310436E-003;
2.411666666666667E+009;1.683778464794159E-001;-2.443559654057026E-002;-1.900252071209252E-003;2.559420652687550E-003;
2.411833333333334E+009;1.683478951454163E-001;-2.633576095104218E-002;-1.682459842413664E-003;2.638514619320631E-003;
2.412000000000000E+009;1.683924198150635E-001;-2.845200896263123E-002;-1.561795827001333E-003;2.594628604128957E-003;
2.412166666666667E+009;1.684008985757828E-001;-3.033575601875782E-002;-1.604582648724318E-003;2.678425051271915E-003;
2.412333333333334E+009;1.688081771135330E-001;-3.217102959752083E-002;-1.492049545049667E-003;2.696323441341519E-003;
2.412500000000000E+009;1.688200980424881E-001;-3.409891203045845E-002;-1.642700401134789E-003;2.810466336086392E-003;
2.412666666666667E+009;1.692168265581131E-001;-3.597890213131905E-002;-1.364019000902772E-003;2.766080899164081E-003;
2.412833333333334E+009;1.694611012935638E-001;-3.783460333943367E-002;-1.496759708970785E-003;2.858739346265793E-003;
2.413000000000000E+009;1.698948293924332E-001;-3.962750732898712E-002;-1.150132971815765E-003;2.856374485418201E-003;
2.413166666666667E+009;1.703798621892929E-001;-4.149113222956657E-002;-1.185812521725893E-003;2.978928387165070E-003;
2.413333333333334E+009;1.706815809011459E-001;-4.310218617320061E-002;-1.083903713151813E-003;3.110880265012384E-003;
2.413500000000000E+009;1.713247746229172E-001;-4.468355700373650E-002;-9.719946538098157E-004;3.106207586824894E-003;
2.413666666666667E+009;1.718925386667252E-001;-4.621921852231026E-002;-8.461301913484931E-004;3.005571896210313E-003;
2.413833333333334E+009;1.723755151033402E-001;-4.757433384656906E-002;-7.074078894220293E-004;3.196502104401588E-003;
2.414000000000000E+009;1.727997809648514E-001;-4.914220422506332E-002;-7.491029100492597E-004;3.134064376354218E-003;
2.414166666666667E+009;1.734975278377533E-001;-5.044642835855484E-002;-5.871719331480563E-004;3.171731485053897E-003;
2.414333333333334E+009;1.739348024129868E-001;-5.145835876464844E-002;-6.023118039593101E-004;3.126494586467743E-003;
2.414500000000000E+009;1.747329533100128E-001;-5.283426865935326E-002;-5.710151162929833E-004;3.214667551219463E-003;
2.414666666666667E+009;1.751892268657684E-001;-5.385436117649078E-002;-3.417799889575690E-004;3.290670225396752E-003;
2.414833333333334E+009;1.753851324319840E-001;-5.496581271290779E-002;-1.299207069678232E-004;3.289105603471398E-003;
2.415000000000000E+009;1.760326176881790E-001;-5.570368096232414E-002;-4.617700687958859E-005;3.187739523127675E-003;
2.415166666666667E+009;1.764434128999710E-001;-5.659560486674309E-002;-3.223758903914131E-005;3.317910479381681E-003;
2.415333333333334E+009;1.769217997789383E-001;-5.743028968572617E-002;2.021871332544833E-004;3.264281898736954E-003;
2.415500000000000E+009;1.772582381963730E-001;-5.785722658038139E-002;2.884712012019008E-004;3.369634971022606E-003;
2.415666666666667E+009;1.774152070283890E-001;-5.848378315567970E-002;2.113789960276336E-004;3.204724285751581E-003;
2.415833333333334E+009;1.776156276464462E-001;-5.891279131174088E-002;4.590188036672771E-004;3.259519115090370E-003;
2.416000000000000E+009;1.776687949895859E-001;-5.950082838535309E-002;5.760593339800835E-004;3.222016384825110E-003;
2.416166666666667E+009;1.778871715068817E-001;-5.973174422979355E-002;4.729744105134159E-004;3.106358926743269E-003;
2.416333333333334E+009;1.778293848037720E-001;-5.998566001653671E-002;7.928893319331110E-004;3.076108638197184E-003;
2.416500000000000E+009;1.777260750532150E-001;-6.047315895557404E-002;8.596703992225230E-004;3.147376701235771E-003;
2.416666666666667E+009;1.774561852216721E-001;-6.063008680939674E-002;1.141847809776664E-003;3.052920801565051E-003;
2.416833333333334E+009;1.773642003536224E-001;-6.096353381872177E-002;1.237663323991001E-003;3.064048476517201E-003;
2.417000000000000E+009;1.767715662717819E-001;-6.118837371468544E-002;1.218882505781949E-003;2.985086757689714E-003;
2.417166666666667E+009;1.763447672128677E-001;-6.129397824406624E-002;1.359611982479692E-003;2.980157732963562E-003;
2.417333333333334E+009;1.758889555931091E-001;-6.153624504804611E-002;1.418408821336925E-003;2.980282995849848E-003;
2.417500000000000E+009;1.752671003341675E-001;-6.186994537711144E-002;1.558484742417932E-003;2.817919943481684E-003;
2.417666666666667E+009;1.745118498802185E-001;-6.196255236864090E-002;1.539068296551704E-003;2.795461565256119E-003;
2.417833333333334E+009;1.737671196460724E-001;-6.226480379700661E-002;1.634218962863088E-003;2.709695370867848E-003;
2.418000000000000E+009;1.729245632886887E-001;-6.262833625078201E-002;1.758253551088274E-003;2.586488611996174E-003;
2.418166666666667E+009;1.719743311405182E-001;-6.275125592947006E-002;1.840718905441463E-003;2.505285432562232E-003;
2.418333333333334E+009;1.711805015802383E-001;-6.315067410469055E-002;1.824326580390334E-003;2.449847990646958E-003;
2.418500000000000E+009;1.701167672872543E-001;-6.360954046249390E-002;1.956514548510313E-003;2.378828125074506E-003;
2.418666666666667E+009;1.690571755170822E-001;-6.418410688638687E-002;2.032953547313809E-003;2.331552561372519E-003;
2.418833333333334E+009;1.678021997213364E-001;-6.458991020917893E-002;2.105037681758404E-003;2.335265977308154E-003;
2.419000000000000E+009;1.665125787258148E-001;-6.513478606939316E-002;2.113376511260867E-003;2.090583089739084E-003;
2.419166666666667E+009;1.655200421810150E-001;-6.594891101121903E-002;2.258277265354991E-003;1.934317755512893E-003;
2.419333333333334E+009;1.641269475221634E-001;-6.651747971773148E-002;2.290188334882259E-003;1.908278325572610E-003;
2.419500000000000E+009;1.631649583578110E-001;-6.742589920759201E-002;2.415981609374285E-003;1.951600075699389E-003;
2.419666666666667E+009;1.618771255016327E-001;-6.834053993225098E-002;2.340193372219801E-003;1.705743954516947E-003;
2.419833333333334E+009;1.606448292732239E-001;-6.928928196430206E-002;2.474247477948666E-003;1.623116782866418E-003;
2.420000000000000E+009;1.596834808588028E-001;-7.026652991771698E-002;2.403949154540896E-003;1.588890096172690E-003;
2.420166666666667E+009;1.584467440843582E-001;-7.131899893283844E-002;2.580227097496390E-003;1.400862354785204E-003;
2.420333333333334E+009;1.574245244264603E-001;-7.260715216398239E-002;2.617128891870379E-003;1.561910845339298E-003;
2.420500000000000E+009;1.564439088106155E-001;-7.373785972595215E-002;2.541445661336184E-003;1.368126133456826E-003;
2.420666666666667E+009;1.553726941347122E-001;-7.500289380550385E-002;2.531658159568906E-003;1.204411382786930E-003;
2.420833333333334E+009;1.546574234962463E-001;-7.636082172393799E-002;2.561403904110193E-003;1.216146047227085E-003;
2.421000000000000E+009;1.536466330289841E-001;-7.796318084001541E-002;2.549270866438747E-003;8.523970609530807E-004;
2.421166666666667E+009;1.528584808111191E-001;-7.942863553762436E-002;2.601754618808627E-003;8.768099942244589E-004;
2.421333333333334E+009;1.523284614086151E-001;-8.106589317321777E-002;2.438773168250918E-003;7.590745226480067E-004;
2.421500000000000E+009;1.514405161142349E-001;-8.253996074199677E-002;2.551794052124023E-003;7.080518989823759E-004;
2.421666666666667E+009;1.509714275598526E-001;-8.423408865928650E-002;2.539989538490772E-003;4.935865290462971E-004;
2.421833333333334E+009;1.506220400333405E-001;-8.591698110103607E-002;2.523947507143021E-003;5.429053562693298E-004;
2.422000000000000E+009;1.501994878053665E-001;-8.749105036258698E-002;2.381360158324242E-003;4.913877928629518E-004;
2.422166666666667E+009;1.499843001365662E-001;-8.939095586538315E-002;2.299246843904257E-003;3.402743896003813E-004;
2.422333333333334E+009;1.496361643075943E-001;-9.086792171001434E-002;2.141427248716354E-003;1.449793489882723E-004;
2.422500000000000E+009;1.495464295148850E-001;-9.269531071186066E-002;2.298551611602306E-003;1.165685243904591E-004;
2.422666666666667E+009;1.495289206504822E-001;-9.443902969360352E-002;2.177495509386063E-003;5.278202661429532E-005;
2.422833333333334E+009;1.495751738548279E-001;-9.602782875299454E-002;2.186437137424946E-003;1.700724096735939E-004;
2.423000000000000E+009;1.495317816734314E-001;-9.786704182624817E-002;2.113383961841464E-003;2.395036790403538E-005;
2.423166666666667E+009;1.499329358339310E-001;-9.941770881414414E-002;1.959972782060504E-003;1.932398481585551E-005;
2.423333333333334E+009;1.501040011644363E-001;-1.009278148412705E-001;1.966518117114902E-003;-6.866882904432714E-005;
2.423500000000000E+009;1.503480076789856E-001;-1.023334786295891E-001;1.889967476017773E-003;-8.938326573115774E-006;
2.423666666666667E+009;1.505553126335144E-001;-1.040381491184235E-001;1.799900317564607E-003;-6.082545587560162E-005;
2.423833333333334E+009;1.511477082967758E-001;-1.055088490247726E-001;1.849769731052220E-003;-4.976001218892634E-005;
2.424000000000000E+009;1.512982249259949E-001;-1.066313982009888E-001;1.808473141863942E-003;-1.132645775214769E-004;
2.424166666666667E+009;1.516390442848206E-001;-1.080480962991715E-001;1.783017534762621E-003;-1.491662806074601E-005;
2.424333333333334E+009;1.522855013608933E-001;-1.091381460428238E-001;1.663954812102020E-003;-9.498524013906717E-005;
2.424500000000000E+009;1.527709662914276E-001;-1.104999184608460E-001;1.700564986094832E-003;4.957409146300051E-006;
2.424666666666667E+009;1.533492654561997E-001;-1.113487333059311E-001;1.763330074027181E-003;5.564044477068819E-005;
2.424833333333334E+009;1.536737233400345E-001;-1.123943626880646E-001;1.694352016784251E-003;4.801502291229554E-005;
2.425000000000000E+009;1.542688906192780E-001;-1.133722439408302E-001;1.627000514417887E-003;1.152256008936092E-004;
2.425166666666667E+009;1.543945968151093E-001;-1.141921505331993E-001;1.669423189014196E-003;1.252534566447139E-004;
2.425333333333334E+009;1.549903303384781E-001;-1.149858906865120E-001;1.645780168473721E-003;1.834596332628280E-004;
2.425500000000000E+009;1.553779244422913E-001;-1.156415119767189E-001;1.788257737644017E-003;1.236717362189665E-004;
2.425666666666667E+009;1.554917693138123E-001;-1.162434965372086E-001;1.752586220391095E-003;7.117973291315138E-005;
2.425833333333334E+009;1.558641046285629E-001;-1.167087927460671E-001;1.894205925054848E-003;4.337156860856339E-005;
2.426000000000000E+009;1.559593975543976E-001;-1.173713803291321E-001;1.934047322720289E-003;-5.505992521648295E-005;
2.426166666666667E+009;1.563808321952820E-001;-1.177414879202843E-001;1.884426339529455E-003;-2.168201717722695E-006;
2.426333333333334E+009;1.562717258930206E-001;-1.180315911769867E-001;1.980112865567207E-003;-5.683263225364499E-006;
2.426500000000000E+009;1.562872678041458E-001;-1.182664036750794E-001;1.885244855657220E-003;3.605929578043288E-006;
2.426666666666667E+009;1.563454121351242E-001;-1.182906702160835E-001;2.222027396783233E-003;-2.641895298438612E-005;
2.426833333333334E+009;1.561765670776367E-001;-1.186443492770195E-001;2.083758823573589E-003;-1.656799431657419E-004;
2.427000000000000E+009;1.558592021465302E-001;-1.188214346766472E-001;2.180285984650254E-003;-1.925622927956283E-004;
2.427166666666667E+009;1.555568724870682E-001;-1.188305690884590E-001;2.287370851263404E-003;-1.559024676680565E-004;
2.427333333333334E+009;1.549349725246429E-001;-1.190336346626282E-001;2.209171187132597E-003;-2.028786402661353E-004;
2.427500000000000E+009;1.546887606382370E-001;-1.190890371799469E-001;2.280266257002950E-003;-2.913954958785325E-004;
2.427666666666667E+009;1.538988649845123E-001;-1.192660480737686E-001;2.388458466157317E-003;-4.075168399140239E-004;
2.427833333333334E+009;1.531455218791962E-001;-1.193164288997650E-001;2.380230464041233E-003;-3.557616728357971E-004;
