# Version 1.00
#
freq[Hz];re:Trc1_S11;im:Trc1_S11;re:Trc2_S21;im:Trc2_S21;
2.400000000000000E+009;1.553242951631546E-001;1.062659248709679E-001;2.138766460120678E-003;-6.050374358892441E-003;
2.400166666666667E+009;1.550847887992859E-001;1.038888692855835E-001;1.924226293340325E-003;-6.104466505348682E-003;
2.400333333333334E+009;1.551533192396164E-001;1.015978902578354E-001;1.862066215835512E-003;-5.955136846750975E-003;
2.400500000000000E+009;1.551212817430496E-001;9.877967834472656E-002;1.774059142917395E-003;-6.100418977439404E-003;
2.400666666666667E+009;1.553456783294678E-001;9.643201529979706E-002;1.578482217155397E-003;-6.092412397265434E-003;
2.400833333333334E+009;1.552859991788864E-001;9.357756376266480E-002;1.391137135215104E-003;-6.122626364231110E-003;
2.401000000000000E+009;1.555731594562531E-001;9.056616574525833E-002;1.148283481597900E-003;-6.337811704725027E-003;
2.401166666666667E+009;1.556973308324814E-001;8.787093311548233E-002;1.032752916216850E-003;-6.230230908840895E-003;
2.401333333333334E+009;1.561095416545868E-001;8.502000570297241E-002;6.913666729815304E-004;-6.579093635082245E-003;
2.401500000000000E+009;1.564513444900513E-001;8.220434188842773E-002;6.938072619959712E-004;-6.781210191547871E-003;
2.401666666666667E+009;1.568782329559326E-001;7.945267856121063E-002;2.707963867578656E-004;-6.629015319049358E-003;
2.401833333333334E+009;1.574842333793640E-001;7.672163099050522E-002;7.891708810348064E-005;-6.606630049645901E-003;
2.402000000000000E+009;1.581798344850540E-001;7.383584976196289E-002;-4.649308102671057E-004;-6.626782007515431E-003;
2.402166666666667E+009;1.591655164957047E-001;7.130815833806992E-002;-7.997868815436959E-004;-6.665508262813091E-003;
2.402333333333334E+009;1.600625813007355E-001;6.856673210859299E-002;-1.080753630958498E-003;-6.629598326981068E-003;
2.402500000000000E+009;1.612468063831329E-001;6.623655557632446E-002;-1.433376572094858E-003;-6.558118388056755E-003;
2.402666666666667E+009;1.624646782875061E-001;6.399469077587128E-002;-1.733921701088548E-003;-6.409561727195978E-003;
2.402833333333334E+009;1.636028885841370E-001;6.138325110077858E-002;-2.248844830319285E-003;-6.238555070012808E-003;
2.403000000000000E+009;1.651055514812470E-001;5.923548340797424E-002;-2.507092896848917E-003;-6.004252936691046E-003;
2.403166666666667E+009;1.668397635221481E-001;5.694798752665520E-002;-2.784077310934663E-003;-5.754916928708553E-003;
2.403333333333334E+009;1.680649071931839E-001;5.490335822105408E-002;-3.195735858753324E-003;-5.597140640020371E-003;
2.403500000000000E+009;1.699446141719818E-001;5.271990597248077E-002;-3.475455567240715E-003;-5.212331190705299E-003;
2.403666666666667E+009;1.717396080493927E-001;5.090833082795143E-002;-3.505333792418242E-003;-4.953111056238413E-003;
2.403833333333334E+009;1.732791513204575E-001;4.899599030613899E-002;-3.608169965445995E-003;-4.382179118692875E-003;
2.404000000000000E+009;1.747135072946549E-001;4.735669121146202E-002;-3.749523544684053E-003;-4.107355140149593E-003;
2.404166666666667E+009;1.766102612018585E-001;4.602130129933357E-002;-3.876728005707264E-003;-3.726323833689094E-003;
2.404333333333334E+009;1.781783401966095E-001;4.449356719851494E-002;-3.714697668328881E-003;-3.310814732685685E-003;
2.404500000000000E+009;1.797042489051819E-001;4.308757558465004E-002;-3.629314946010709E-003;-3.131163539364934E-003;
2.404666666666667E+009;1.812232732772827E-001;4.210240021348000E-002;-3.538949647918344E-003;-2.812132239341736E-003;
2.404833333333334E+009;1.829840391874313E-001;4.106923565268517E-002;-3.413723548874259E-003;-2.672791481018066E-003;
2.405000000000000E+009;1.841957420110703E-001;4.042899236083031E-002;-3.385545453056693E-003;-2.373752417042851E-003;
2.405166666666667E+009;1.858026087284088E-001;3.978669270873070E-002;-3.295195754617453E-003;-2.452365122735500E-003;
2.405333333333334E+009;1.870950609445572E-001;3.929187729954720E-002;-3.100107191130519E-003;-2.272418467327952E-003;
2.405500000000000E+009;1.884403526782990E-001;3.881220147013664E-002;-3.001794684678316E-003;-2.280806656926870E-003;
2.405666666666667E+009;1.896020621061325E-001;3.847286850214005E-002;-3.082534996792674E-003;-2.074469579383731E-003;
2.405833333333334E+009;1.909073889255524E-001;3.809426352381706E-002;-2.942612860351801E-003;-2.088341396301985E-003;
2.406000000000000E+009;1.916930973529816E-001;3.793981298804283E-002;-2.853476442396641E-003;-2.043888904154301E-003;
2.406166666666667E+009;1.927173733711243E-001;3.774533793330193E-002;-2.818443579599261E-003;-1.983249792829156E-003;
2.406333333333334E+009;1.936284899711609E-001;3.782129660248756E-002;-2.804135903716087E-003;-1.880830037407577E-003;
2.406500000000000E+009;1.944079250097275E-001;3.790201246738434E-002;-2.882114145904779E-003;-1.666015014052391E-003;
2.406666666666667E+009;1.949380487203598E-001;3.785028681159020E-002;-2.682437188923359E-003;-1.674626371823251E-003;
2.406833333333334E+009;1.954497247934341E-001;3.783313184976578E-002;-2.575674792751670E-003;-1.641844864934683E-003;
2.407000000000000E+009;1.956282854080200E-001;3.813768178224564E-002;-2.570657292380929E-003;-1.473869779147208E-003;
2.407166666666667E+009;1.959284394979477E-001;3.783360123634338E-002;-2.329172566533089E-003;-1.520770369097590E-003;
2.407333333333334E+009;1.959785372018814E-001;3.797965869307518E-002;-2.270383294671774E-003;-1.444178284145892E-003;
2.407500000000000E+009;1.958275884389877E-001;3.800882771611214E-002;-2.226925687864423E-003;-1.497570192441344E-003;
2.407666666666667E+009;1.958998143672943E-001;3.787485882639885E-002;-2.060802187770605E-003;-1.576334354467690E-003;
2.407833333333334E+009;1.953463703393936E-001;3.770497068762779E-002;-2.001129090785980E-003;-1.509491237811744E-003;
2.408000000000000E+009;1.952741742134094E-001;3.744242712855339E-002;-1.895143650472164E-003;-1.645314157940447E-003;
2.408166666666667E+009;1.946340948343277E-001;3.723919764161110E-002;-1.842307276092470E-003;-1.709558418951929E-003;
2.408333333333334E+009;1.940771490335465E-001;3.664926812052727E-002;-1.847305567935109E-003;-1.996038714423776E-003;
2.408500000000000E+009;1.934551000595093E-001;3.622678667306900E-002;-1.630682381801307E-003;-1.964668743312359E-003;
2.408666666666667E+009;1.927844732999802E-001;3.574853017926216E-002;-1.751630683429539E-003;-1.996546983718872E-003;
2.408833333333334E+009;1.920642852783203E-001;3.480801731348038E-002;-1.883104094304144E-003;-2.303401241078973E-003;
2.409000000000000E+009;1.911239326000214E-001;3.392744064331055E-002;-1.823434489779174E-003;-2.360991900786758E-003;
2.409166666666667E+009;1.902442276477814E-001;3.287331387400627E-002;-1.806155545637012E-003;-2.462927950546145E-003;
2.409333333333334E+009;1.893798857927322E-001;3.176422789692879E-002;-2.084364416077733E-003;-2.491136780008674E-003;
2.409500000000000E+009;1.881996244192123E-001;3.040548786520958E-002;-2.217967994511128E-003;-2.642190083861351E-003;
2.409666666666667E+009;1.872034519910812E-001;2.912067621946335E-002;-2.297599567100406E-003;-2.860187552869320E-003;
2.409833333333334E+009;1.861516386270523E-001;2.765377983450890E-002;-2.527983160689473E-003;-2.922072773799300E-003;
2.410000000000000E+009;1.851543635129929E-001;2.595256641507149E-002;-2.747457241639495E-003;-3.009242238476872E-003;
2.410166666666667E+009;1.841991096735001E-001;2.397728152573109E-002;-2.922842744737864E-003;-2.963484032079577E-003;
2.410333333333334E+009;1.832629740238190E-001;2.221139334142208E-002;-2.872321056202054E-003;-2.977115567773581E-003;
2.410500000000000E+009;1.823650896549225E-001;2.036021277308464E-002;-3.005022183060646E-003;-2.877582795917988E-003;
2.410666666666667E+009;1.813700497150421E-001;1.803535968065262E-002;-3.171238116919994E-003;-2.807876095175743E-003;
2.410833333333334E+009;1.809218227863312E-001;1.596845686435700E-002;-3.533984301611781E-003;-2.946665044873953E-003;
2.411000000000000E+009;1.801196783781052E-001;1.374385319650173E-002;-3.648393088951707E-003;-2.922153798863292E-003;
2.411166666666667E+009;1.793856918811798E-001;1.138074602931738E-002;-3.854057518765330E-003;-2.952046925202012E-003;
2.411333333333334E+009;1.789635866880417E-001;9.001516737043858E-003;-4.012999124825001E-003;-2.784874057397246E-003;
2.411500000000000E+009;1.785217672586441E-001;6.638756021857262E-003;-4.292217083275318E-003;-2.967248437926173E-003;
2.411666666666667E+009;1.784950941801071E-001;4.164960235357285E-003;-4.506020806729794E-003;-2.764102770015597E-003;
2.411833333333334E+009;1.780760884284973E-001;1.975366147235036E-003;-4.728451371192932E-003;-2.613815013319254E-003;
2.412000000000000E+009;1.783363670110703E-001;-4.870438715443015E-004;-4.838057793676853E-003;-2.669674344360828E-003;
2.412166666666667E+009;1.783934980630875E-001;-2.972928807139397E-003;-5.203370470553637E-003;-2.508925274014473E-003;
2.412333333333334E+009;1.784899532794952E-001;-5.388684105128050E-003;-5.521586630493403E-003;-2.274351660162211E-003;
2.412500000000000E+009;1.791014224290848E-001;-7.824816741049290E-003;-5.606667138636112E-003;-2.319270977750421E-003;
2.412666666666667E+009;1.793466061353684E-001;-1.016700454056263E-002;-5.935933906584978E-003;-1.991498051211238E-003;
2.412833333333334E+009;1.801173090934753E-001;-1.267198938876391E-002;-6.239856127649546E-003;-1.710384618490934E-003;
2.413000000000000E+009;1.808883100748062E-001;-1.481284666806459E-002;-6.508879829198122E-003;-1.427162787877023E-003;
2.413166666666667E+009;1.817961633205414E-001;-1.707510463893414E-002;-6.688831839710474E-003;-1.050183083862066E-003;
2.413333333333334E+009;1.826504319906235E-001;-1.938744634389877E-002;-6.858215667307377E-003;-8.055764483287931E-004;
2.413500000000000E+009;1.836041212081909E-001;-2.154371887445450E-002;-7.177095860242844E-003;-2.219160378444940E-004;
2.413666666666667E+009;1.848762333393097E-001;-2.352158538997173E-002;-7.297442294657230E-003;1.135460188379511E-004;
2.413833333333334E+009;1.858758777379990E-001;-2.547092922031879E-002;-7.412184495478869E-003;5.993946106173098E-004;
2.414000000000000E+009;1.869012713432312E-001;-2.728611417114735E-002;-7.323194760829210E-003;1.149169984273613E-003;
2.414166666666667E+009;1.881756931543350E-001;-2.897971123456955E-002;-7.194946520030499E-003;1.591619453392923E-003;
2.414333333333334E+009;1.893150210380554E-001;-3.081390820443630E-002;-7.197169121354818E-003;1.981587847694755E-003;
2.414500000000000E+009;1.906517744064331E-001;-3.249141201376915E-002;-7.018388248980045E-003;2.540404209867120E-003;
2.414666666666667E+009;1.917702406644821E-001;-3.388036414980888E-002;-6.778600160032511E-003;2.803744981065393E-003;
2.414833333333334E+009;1.928463727235794E-001;-3.520326316356659E-002;-6.709820590913296E-003;3.167730523273349E-003;
2.415000000000000E+009;1.940735280513763E-001;-3.645287826657295E-002;-6.314403377473354E-003;3.702652640640736E-003;
2.415166666666667E+009;1.953296363353729E-001;-3.739391267299652E-002;-6.099764257669449E-003;3.855098271742463E-003;
2.415333333333334E+009;1.965200155973434E-001;-3.834712132811546E-002;-5.860366858541966E-003;4.039048682898283E-003;
2.415500000000000E+009;1.974925547838211E-001;-3.912445902824402E-002;-5.606002639979124E-003;4.440301563590765E-003;
2.415666666666667E+009;1.984571069478989E-001;-3.980996087193489E-002;-5.307782441377640E-003;4.512920044362545E-003;
2.415833333333334E+009;1.992258727550507E-001;-4.041956365108490E-002;-5.048931110650301E-003;4.753773566335440E-003;
2.416000000000000E+009;2.001205682754517E-001;-4.095859080553055E-002;-4.721659235656261E-003;4.845530726015568E-003;
2.416166666666667E+009;2.008126974105835E-001;-4.155028611421585E-002;-4.431067500263453E-003;5.200124345719814E-003;
2.416333333333334E+009;2.014026790857315E-001;-4.186666756868362E-002;-4.282981622964144E-003;5.148733034729958E-003;
2.416500000000000E+009;2.018535882234573E-001;-4.211839288473129E-002;-4.011968150734901E-003;5.427024327218533E-003;
2.416666666666667E+009;2.021110504865646E-001;-4.244937375187874E-002;-3.592395223677158E-003;5.589821841567755E-003;
2.416833333333334E+009;2.022549808025360E-001;-4.246492311358452E-002;-3.189495531842113E-003;5.692725535482168E-003;
2.417000000000000E+009;2.022968381643295E-001;-4.252619668841362E-002;-2.897197613492608E-003;5.747475195676088E-003;
2.417166666666667E+009;2.020186632871628E-001;-4.256875440478325E-002;-2.605845918878913E-003;5.655018612742424E-003;
2.417333333333334E+009;2.018167972564697E-001;-4.253480210900307E-002;-2.270210068672895E-003;5.850221961736679E-003;
2.417500000000000E+009;2.015380710363388E-001;-4.250465705990791E-002;-1.812467002309859E-003;5.746867507696152E-003;
2.417666666666667E+009;2.008821219205856E-001;-4.244632273912430E-002;-1.627634046599269E-003;5.651219282299280E-003;
2.417833333333334E+009;2.003672122955322E-001;-4.228477180004120E-002;-1.100020483136177E-003;5.539912264794111E-003;
2.418000000000000E+009;1.997152417898178E-001;-4.192577302455902E-002;-9.842505678534508E-004;5.447984673082829E-003;
2.418166666666667E+009;1.988342553377152E-001;-4.197622835636139E-002;-5.883407429791987E-004;5.341527517884970E-003;
2.418333333333334E+009;1.980009377002716E-001;-4.183410480618477E-002;-5.985177122056484E-004;5.277475807815790E-003;
2.418500000000000E+009;1.969632953405380E-001;-4.188285395503044E-002;-3.880726872012019E-004;5.099806468933821E-003;
2.418666666666667E+009;1.959528177976608E-001;-4.178931936621666E-002;-7.545300468336791E-005;4.871323239058256E-003;
2.418833333333334E+009;1.946258842945099E-001;-4.204796999692917E-002;1.029287795972778E-005;4.739244468510151E-003;
2.419000000000000E+009;1.932983398437500E-001;-4.225202649831772E-002;2.520432462915778E-004;4.477418959140778E-003;
2.419166666666667E+009;1.921319514513016E-001;-4.244844242930412E-002;2.792864688672125E-004;4.418640863150358E-003;
2.419333333333334E+009;1.906761378049851E-001;-4.303692281246185E-002;3.546566586010158E-004;4.272568039596081E-003;
2.419500000000000E+009;1.890652924776077E-001;-4.363923519849777E-002;2.902096603065729E-004;4.001937340945005E-003;
2.419666666666667E+009;1.875167936086655E-001;-4.441586136817932E-002;4.646037996280938E-004;3.996522165834904E-003;
2.419833333333334E+009;1.860202699899674E-001;-4.496500641107559E-002;4.002551722805947E-004;3.841246012598276E-003;
2.420000000000000E+009;1.844696104526520E-001;-4.596029222011566E-002;4.001911147497594E-004;3.750148694962263E-003;
2.420166666666667E+009;1.828788816928864E-001;-4.690832644701004E-002;4.542023234535009E-004;3.533679759129882E-003;
2.420333333333334E+009;1.813344210386276E-001;-4.814193770289421E-002;4.868806281592697E-004;3.373898565769196E-003;
2.420500000000000E+009;1.795392036437988E-001;-4.950765520334244E-002;4.726930346805602E-004;3.244252176955342E-003;
2.420666666666667E+009;1.780307441949844E-001;-5.042054876685143E-002;5.168407224118710E-004;3.340037539601326E-003;
2.420833333333334E+009;1.764414757490158E-001;-5.206235125660896E-002;4.540270601864904E-004;3.140187822282314E-003;
2.421000000000000E+009;1.750705689191818E-001;-5.361437797546387E-002;6.056426209397614E-004;3.185665002092719E-003;
2.421166666666667E+009;1.736287772655487E-001;-5.536538362503052E-002;4.456196329556406E-004;3.147995099425316E-003;
2.421333333333334E+009;1.719580441713333E-001;-5.676969885826111E-002;4.294115642551333E-004;3.003977937623859E-003;
2.421500000000000E+009;1.706918925046921E-001;-5.869023501873016E-002;4.409032117109746E-004;3.039781702682376E-003;
2.421666666666667E+009;1.697265207767487E-001;-6.061560660600662E-002;5.916069494560361E-004;2.978393109515309E-003;
2.421833333333334E+009;1.685650795698166E-001;-6.238293647766113E-002;5.286022787913680E-004;2.904914086684585E-003;
2.422000000000000E+009;1.674494296312332E-001;-6.435661762952805E-002;4.534101462922990E-004;2.885575871914625E-003;
2.422166666666667E+009;1.665529459714890E-001;-6.629120558500290E-002;4.746826307382435E-004;2.777643967419863E-003;
2.422333333333334E+009;1.656559109687805E-001;-6.830204278230667E-002;5.001883837394416E-004;2.778352005407214E-003;
2.422500000000000E+009;1.650336235761643E-001;-7.015546411275864E-002;4.936231998726726E-004;2.763411728665233E-003;
2.422666666666667E+009;1.642157584428787E-001;-7.220207154750824E-002;3.149788826704025E-004;2.747937804087997E-003;
2.422833333333334E+009;1.639572679996491E-001;-7.419082522392273E-002;4.386157961562276E-004;2.893029479309917E-003;
2.423000000000000E+009;1.634345799684525E-001;-7.633003592491150E-002;4.071292351000011E-004;2.695778850466013E-003;
2.423166666666667E+009;1.630580276250839E-001;-7.812479883432388E-002;3.748575982172042E-004;2.773504471406341E-003;
2.423333333333334E+009;1.629284918308258E-001;-8.004071563482285E-002;3.877152048517019E-004;2.777581103146076E-003;
2.423500000000000E+009;1.628753840923309E-001;-8.184843510389328E-002;3.318761882837862E-004;2.821495989337564E-003;
2.423666666666667E+009;1.628549993038178E-001;-8.367314934730530E-002;3.599661285988987E-004;2.825188217684627E-003;
2.423833333333334E+009;1.627367436885834E-001;-8.533445745706558E-002;1.000149568426423E-004;2.876413520425558E-003;
2.424000000000000E+009;1.628338247537613E-001;-8.713621646165848E-002;1.214901567436755E-004;3.018799936398864E-003;
2.424166666666667E+009;1.631614118814468E-001;-8.854903280735016E-002;3.448368806857616E-005;2.995013259351254E-003;
2.424333333333334E+009;1.633842289447784E-001;-9.003346413373947E-002;7.418359746225178E-005;3.186555579304695E-003;
2.424500000000000E+009;1.636129319667816E-001;-9.182020276784897E-002;1.487193076172844E-004;3.271703841164708E-003;
2.424666666666667E+009;1.640691906213760E-001;-9.306874126195908E-002;8.229407103499398E-005;3.457592101767659E-003;
2.424833333333334E+009;1.645349562168121E-001;-9.443087875843048E-002;4.484425153350458E-005;3.571068402379751E-003;
2.425000000000000E+009;1.649344712495804E-001;-9.556308388710022E-002;2.445449645165354E-004;3.748728660866618E-003;
2.425166666666667E+009;1.652139276266098E-001;-9.648398309946060E-002;4.688177723437548E-004;3.907612524926662E-003;
2.425333333333334E+009;1.655857414007187E-001;-9.752929955720902E-002;5.717123858630657E-004;4.146408289670944E-003;
2.425500000000000E+009;1.659470200538635E-001;-9.838593751192093E-002;7.717760745435953E-004;4.091044887900353E-003;
2.425666666666667E+009;1.663444191217423E-001;-9.895604848861694E-002;1.048628357239068E-003;4.273382481187582E-003;
2.425833333333334E+009;1.666924208402634E-001;-9.983626753091812E-002;1.127841067500413E-003;4.281635861843824E-003;
2.426000000000000E+009;1.670914739370346E-001;-1.002665013074875E-001;1.432540477253497E-003;4.189165309071541E-003;
2.426166666666667E+009;1.674178689718247E-001;-1.008097082376480E-001;1.643827650696039E-003;4.231525119394064E-003;
2.426333333333334E+009;1.674799323081970E-001;-1.013469249010086E-001;1.619627582840622E-003;4.452705848962069E-003;
2.426500000000000E+009;1.678015887737274E-001;-1.016076058149338E-001;2.010261407122016E-003;4.234416410326958E-003;
2.426666666666667E+009;1.680392175912857E-001;-1.019405946135521E-001;2.287506125867367E-003;4.216813016682863E-003;
2.426833333333334E+009;1.682445406913757E-001;-1.022305190563202E-001;2.498607616871595E-003;4.157310351729393E-003;
2.427000000000000E+009;1.682126820087433E-001;-1.023744940757752E-001;2.493374282494187E-003;4.084722604602575E-003;
2.427166666666667E+009;1.682912111282349E-001;-1.025147661566734E-001;2.702435711398721E-003;3.941004630178213E-003;
2.427333333333334E+009;1.681104600429535E-001;-1.027432680130005E-001;2.900086808949709E-003;3.830742090940476E-003;
2.427500000000000E+009;1.678775995969772E-001;-1.028477549552918E-001;3.153869416564703E-003;3.921492956578732E-003;
2.427666666666667E+009;1.675340086221695E-001;-1.029165834188461E-001;3.272605827078223E-003;3.699064254760742E-003;
