# Version 1.00
#
freq[Hz];re:Trc1_S11;im:Trc1_S11;re:Trc2_S21;im:Trc2_S21;
2.400000000000000E+009;1.550895124673843E-001;1.064644381403923E-001;2.378638135269284E-003;-6.055657751858234E-003;
2.400166666666667E+009;1.549225300550461E-001;1.038931086659432E-001;2.086795633658767E-003;-6.135744508355856E-003;
2.400333333333334E+009;1.549907326698303E-001;1.016482710838318E-001;1.840241719037294E-003;-6.007601972669363E-003;
2.400500000000000E+009;1.549168527126312E-001;9.893110394477844E-002;1.883532153442502E-003;-6.071042735129595E-003;
2.400666666666667E+009;1.550374329090118E-001;9.656489640474320E-002;1.687055220827460E-003;-6.224764976650477E-003;
2.400833333333334E+009;1.551012396812439E-001;9.359879046678543E-002;1.560061238706112E-003;-6.181878037750721E-003;
2.401000000000000E+009;1.555110216140747E-001;9.082934260368347E-002;1.269552391022444E-003;-6.368409376591444E-003;
2.401166666666667E+009;1.554768532514572E-001;8.800406008958817E-002;1.049299258738756E-003;-6.421360187232494E-003;
2.401333333333334E+009;1.559304296970367E-001;8.514600247144699E-002;9.238480706699193E-004;-6.544973701238632E-003;
2.401500000000000E+009;1.563451588153839E-001;8.221205323934555E-002;6.143820355646312E-004;-6.606568116694689E-003;
2.401666666666667E+009;1.566696614027023E-001;7.955165952444077E-002;2.352490992052481E-004;-6.557983346283436E-003;
2.401833333333334E+009;1.573490798473358E-001;7.685941457748413E-002;3.678715756905149E-006;-6.671772338449955E-003;
2.402000000000000E+009;1.583012640476227E-001;7.400298863649368E-002;-2.903909189626575E-004;-6.649969611316919E-003;
2.402166666666667E+009;1.590012609958649E-001;7.163874059915543E-002;-6.423169397749007E-004;-6.743100937455893E-003;
2.402333333333334E+009;1.598834097385407E-001;6.889544427394867E-002;-8.169395150616765E-004;-6.647846195846796E-003;
2.402500000000000E+009;1.611085534095764E-001;6.627443432807922E-002;-1.342844334430993E-003;-6.529310718178749E-003;
2.402666666666667E+009;1.622129231691361E-001;6.393120437860489E-002;-1.927016186527908E-003;-6.301741115748882E-003;
2.402833333333334E+009;1.635777503252029E-001;6.157445535063744E-002;-2.146269893273711E-003;-6.088567897677422E-003;
2.403000000000000E+009;1.649207919836044E-001;5.927895754575729E-002;-2.398115582764149E-003;-6.102322135120630E-003;
2.403166666666667E+009;1.665837019681931E-001;5.724098533391953E-002;-2.724359743297100E-003;-5.659129936248064E-003;
2.403333333333334E+009;1.681015044450760E-001;5.487547442317009E-002;-3.054634900763631E-003;-5.665889941155911E-003;
2.403500000000000E+009;1.697708517313004E-001;5.316232889890671E-002;-3.313764929771423E-003;-5.318210925906897E-003;
2.403666666666667E+009;1.714132875204086E-001;5.111587047576904E-002;-3.569869091734290E-003;-4.873986355960369E-003;
2.403833333333334E+009;1.730357110500336E-001;4.916331171989441E-002;-2.189541235566139E-003;-4.674869589507580E-003;
2.404000000000000E+009;1.745955348014832E-001;4.774729534983635E-002;-4.113163333386183E-003;-3.920227289199829E-003;
2.404166666666667E+009;1.762042194604874E-001;4.610293358564377E-002;-3.346412908285856E-003;-4.330645315349102E-003;
2.404333333333334E+009;1.781264394521713E-001;4.480810090899468E-002;-5.100342910736799E-003;-2.837226493284106E-003;
2.404500000000000E+009;1.793888956308365E-001;4.329732060432434E-002;-3.337497357279062E-003;-4.001363646239042E-003;
2.404666666666667E+009;1.812582612037659E-001;4.243605211377144E-002;-3.852216759696603E-003;-3.353874664753676E-003;
2.404833333333334E+009;1.829425245523453E-001;4.130870103836060E-002;-4.058531951159239E-003;-1.713249483145773E-003;
2.405000000000000E+009;1.843303889036179E-001;4.081996530294418E-002;-3.978810273110867E-003;-1.967222662642598E-003;
2.405166666666667E+009;1.855231672525406E-001;3.989952802658081E-002;-3.076591528952122E-003;-3.207503352314234E-003;
2.405333333333334E+009;1.870067119598389E-001;3.935117274522781E-002;-3.101935377344489E-003;-2.157678129151464E-003;
2.405500000000000E+009;1.882795095443726E-001;3.917473927140236E-002;-3.110865131020546E-003;-2.293161815032363E-003;
2.405666666666667E+009;1.895517259836197E-001;3.876880556344986E-002;-3.225747961550951E-003;-2.124498831108213E-003;
2.405833333333334E+009;1.907135695219040E-001;3.855390846729279E-002;-2.990362932905555E-003;-2.170421183109283E-003;
2.406000000000000E+009;1.919249743223190E-001;3.825069963932037E-002;-2.920109545812011E-003;-2.179177012294531E-003;
2.406166666666667E+009;1.928137540817261E-001;3.810014948248863E-002;-2.787407720461488E-003;-2.098673488944769E-003;
2.406333333333334E+009;1.936476230621338E-001;3.811383992433548E-002;-2.690790221095085E-003;-1.943368581123650E-003;
2.406500000000000E+009;1.943853944540024E-001;3.809484839439392E-002;-2.607108326628804E-003;-1.822844613343477E-003;
2.406666666666667E+009;1.949597448110580E-001;3.808049485087395E-002;-2.696113660931587E-003;-1.567223458550870E-003;
2.406833333333334E+009;1.953646242618561E-001;3.795331716537476E-002;-2.643053652718663E-003;-1.732487813569605E-003;
2.407000000000000E+009;1.956277340650559E-001;3.837082907557488E-002;-2.495792927220464E-003;-1.603595796041191E-003;
2.407166666666667E+009;1.960773169994354E-001;3.808629140257835E-002;-2.457764931023121E-003;-1.625903300009668E-003;
2.407333333333334E+009;1.960208415985107E-001;3.811989352107048E-002;-2.291857032105327E-003;-1.595335430465639E-003;
2.407500000000000E+009;1.959335207939148E-001;3.820503503084183E-002;-2.325105015188456E-003;-1.486987457610667E-003;
2.407666666666667E+009;1.959066838026047E-001;3.809807449579239E-002;-2.245204057544470E-003;-1.636138302274048E-003;
2.407833333333334E+009;1.954742521047592E-001;3.793545812368393E-002;-1.996411941945553E-003;-1.577523769810796E-003;
2.408000000000000E+009;1.952516585588455E-001;3.767848759889603E-002;-1.833071699365974E-003;-1.710337237454951E-003;
2.408166666666667E+009;1.947150081396103E-001;3.741434589028359E-002;-1.798908924683929E-003;-1.727549941278994E-003;
2.408333333333334E+009;1.942690759897232E-001;3.683102130889893E-002;-1.907315454445779E-003;-1.908127218484879E-003;
2.408500000000000E+009;1.935633718967438E-001;3.639181330800057E-002;-1.821851590648294E-003;-1.969195203855634E-003;
2.408666666666667E+009;1.928238421678543E-001;3.589137643575668E-002;-1.885140314698219E-003;-2.172004664316773E-003;
2.408833333333334E+009;1.920781284570694E-001;3.504235297441483E-002;-1.763152424246073E-003;-2.263089874759316E-003;
2.409000000000000E+009;1.911205202341080E-001;3.415232151746750E-002;-1.963691553100944E-003;-2.429242013022304E-003;
2.409166666666667E+009;1.903796046972275E-001;3.292939439415932E-002;-2.116059651598334E-003;-2.460664138197899E-003;
2.409333333333334E+009;1.893372833728790E-001;3.204047307372093E-002;-2.053286880254746E-003;-2.685822313651443E-003;
2.409500000000000E+009;1.883429288864136E-001;3.075601719319820E-002;-2.162668853998184E-003;-2.741210861131549E-003;
2.409666666666667E+009;1.872464567422867E-001;2.934874035418034E-002;-2.250410849228501E-003;-2.811850747093558E-003;
2.409833333333334E+009;1.861782521009445E-001;2.779311500489712E-002;-2.639747923240066E-003;-2.953645074740052E-003;
2.410000000000000E+009;1.853514462709427E-001;2.612652443349361E-002;-2.734847133979201E-003;-2.902104984968901E-003;
2.410166666666667E+009;1.843742728233337E-001;2.430630847811699E-002;-2.859386848285794E-003;-2.895024372264743E-003;
2.410333333333334E+009;1.833128333091736E-001;2.244971320033073E-002;-3.057229332625866E-003;-2.923161722719669E-003;
2.410500000000000E+009;1.824592351913452E-001;2.054576575756073E-002;-3.111866535618901E-003;-2.939128084108234E-003;
2.410666666666667E+009;1.815841197967529E-001;1.813973858952522E-002;-3.171836026012898E-003;-2.866551978513598E-003;
2.410833333333334E+009;1.810196787118912E-001;1.614359021186829E-002;-3.581944853067398E-003;-2.917956793680787E-003;
2.411000000000000E+009;1.801743060350418E-001;1.390402019023895E-002;-3.601917997002602E-003;-3.061617724597454E-003;
2.411166666666667E+009;1.797102689743042E-001;1.165003795176745E-002;-3.931670915335417E-003;-2.914758631959558E-003;
2.411333333333334E+009;1.791228950023651E-001;9.142579510807991E-003;-4.029002040624619E-003;-2.659249352291226E-003;
2.411500000000000E+009;1.788895577192307E-001;6.773002445697784E-003;-4.419128410518169E-003;-2.892516087740660E-003;
2.411666666666667E+009;1.785814613103867E-001;4.352696239948273E-003;-4.475408699363470E-003;-2.873731777071953E-003;
2.411833333333334E+009;1.782917678356171E-001;1.999057363718748E-003;-4.821386188268662E-003;-2.692463109269738E-003;
2.412000000000000E+009;1.784142106771469E-001;-5.856839707121253E-004;-5.024523939937353E-003;-2.643400104716420E-003;
2.412166666666667E+009;1.784923076629639E-001;-2.921901876106858E-003;-5.275911185890436E-003;-2.552365418523550E-003;
2.412333333333334E+009;1.786853075027466E-001;-5.299347918480635E-003;-5.407879129052162E-003;-2.382703358307481E-003;
2.412500000000000E+009;1.790768057107925E-001;-7.683187257498503E-003;-5.613562650978565E-003;-2.181953517720103E-003;
2.412666666666667E+009;1.796796172857285E-001;-1.011680159717798E-002;-5.978951696306467E-003;-2.049947157502174E-003;
2.412833333333334E+009;1.804966777563095E-001;-1.243999600410461E-002;-6.237773690372706E-003;-1.543360529467464E-003;
2.413000000000000E+009;1.812453120946884E-001;-1.475402899086475E-002;-6.451920606195927E-003;-1.472687115892768E-003;
2.413166666666667E+009;1.819009929895401E-001;-1.710836216807365E-002;-6.710981950163841E-003;-1.088214921765029E-003;
2.413333333333334E+009;1.829879134893417E-001;-1.923042722046375E-002;-6.883210968226194E-003;-6.088388036005199E-004;
2.413500000000000E+009;1.838898062705994E-001;-2.151652984321117E-002;-6.999099161475897E-003;-3.952123224735260E-004;
2.413666666666667E+009;1.850676536560059E-001;-2.351059392094612E-002;-7.259111385792494E-003;2.598208375275135E-004;
2.413833333333334E+009;1.860177218914032E-001;-2.547334693372250E-002;-7.277224212884903E-003;5.693547427654266E-004;
2.414000000000000E+009;1.871989071369171E-001;-2.739031985402107E-002;-7.389233447611332E-003;9.331895271316171E-004;
2.414166666666667E+009;1.884399503469467E-001;-2.904476597905159E-002;-7.204755675047636E-003;1.654707011766732E-003;
2.414333333333334E+009;1.896118521690369E-001;-3.102410025894642E-002;-7.212753407657147E-003;2.027043839916587E-003;
2.414500000000000E+009;1.908555626869202E-001;-3.239158540964127E-002;-7.140616420656443E-003;2.538166707381606E-003;
2.414666666666667E+009;1.921577900648117E-001;-3.397516161203384E-002;-6.799465976655483E-003;2.932685194537044E-003;
2.414833333333334E+009;1.930987685918808E-001;-3.515943512320519E-002;-6.686309352517128E-003;3.271135501563549E-003;
2.415000000000000E+009;1.941498517990112E-001;-3.634714707732201E-002;-6.370962131768465E-003;3.610673360526562E-003;
2.415166666666667E+009;1.954438984394074E-001;-3.747652843594551E-002;-5.951252765953541E-003;3.923645708709955E-003;
2.415333333333334E+009;1.964041739702225E-001;-3.838882222771645E-002;-5.904518533498049E-003;4.246745724231005E-003;
2.415500000000000E+009;1.976458132266998E-001;-3.908950835466385E-002;-5.529608111828566E-003;4.484412260353565E-003;
2.415666666666667E+009;1.986602246761322E-001;-3.989469632506371E-002;-5.304534919559956E-003;4.507710225880146E-003;
2.415833333333334E+009;1.994379162788391E-001;-4.056070744991303E-002;-5.062656477093697E-003;4.814229905605316E-003;
2.416000000000000E+009;2.001729905605316E-001;-4.115667194128037E-002;-4.790474195033312E-003;4.846857395023108E-003;
2.416166666666667E+009;2.008987367153168E-001;-4.159129410982132E-002;-4.453020635992289E-003;5.154183134436607E-003;
2.416333333333334E+009;2.016007900238037E-001;-4.185700416564941E-002;-4.166321828961372E-003;5.449640098959208E-003;
2.416500000000000E+009;2.019515931606293E-001;-4.202182963490486E-002;-3.883754601702094E-003;5.301288329064846E-003;
2.416666666666667E+009;2.022398561239243E-001;-4.247929900884628E-002;-3.491486655548215E-003;5.586183164268732E-003;
2.416833333333334E+009;2.024933248758316E-001;-4.257849603891373E-002;-3.222038503736258E-003;5.748793948441744E-003;
2.417000000000000E+009;2.025742232799530E-001;-4.273001104593277E-002;-2.990724518895149E-003;5.625186488032341E-003;
2.417166666666667E+009;2.021989822387695E-001;-4.264312982559204E-002;-2.551050856709480E-003;5.819848272949457E-003;
2.417333333333334E+009;2.019331306219101E-001;-4.254389554262161E-002;-2.202781150117517E-003;5.884179845452309E-003;
2.417500000000000E+009;2.014967352151871E-001;-4.261570051312447E-002;-1.880384981632233E-003;5.825391970574856E-003;
2.417666666666667E+009;2.010190635919571E-001;-4.238345474004746E-002;-1.572947949171066E-003;5.791247356683016E-003;
2.417833333333334E+009;2.005877643823624E-001;-4.227169230580330E-002;-1.197212375700474E-003;5.640193819999695E-003;
2.418000000000000E+009;1.998229622840881E-001;-4.205971583724022E-002;-1.026367885060608E-003;5.374593194574118E-003;
2.418166666666667E+009;1.989805698394775E-001;-4.209413751959801E-002;-7.293634698726237E-004;5.406482610851526E-003;
2.418333333333334E+009;1.981728672981262E-001;-4.190958291292191E-002;-5.246669170446694E-004;5.223118700087071E-003;
2.418500000000000E+009;1.969970315694809E-001;-4.206961020827293E-002;-3.319000825285912E-004;5.197381600737572E-003;
2.418666666666667E+009;1.959788203239441E-001;-4.192019253969193E-002;-4.390929098008201E-005;4.846205934882164E-003;
2.418833333333334E+009;1.947352141141892E-001;-4.213630035519600E-002;2.080398189718835E-005;4.800226073712111E-003;
2.419000000000000E+009;1.934847533702850E-001;-4.236130043864250E-002;1.433573925169185E-004;4.674890544265509E-003;
2.419166666666667E+009;1.921287328004837E-001;-4.264036566019058E-002;3.485496854409576E-004;4.501637537032366E-003;
2.419333333333334E+009;1.906719803810120E-001;-4.324795678257942E-002;4.194693174213171E-004;4.330840893089771E-003;
2.419500000000000E+009;1.893146932125092E-001;-4.373412951827049E-002;4.760689043905586E-004;3.985037095844746E-003;
2.419666666666667E+009;1.876479387283325E-001;-4.447806999087334E-002;4.088370187673718E-004;3.935014363378286E-003;
2.419833333333334E+009;1.859795004129410E-001;-4.503953829407692E-002;5.842570681124926E-004;3.906498663127422E-003;
2.420000000000000E+009;1.845688670873642E-001;-4.600588604807854E-002;5.287178792059422E-004;3.588604740798473E-003;
2.420166666666667E+009;1.828563362360001E-001;-4.709891602396965E-002;4.937727353535593E-004;3.539265599101782E-003;
2.420333333333334E+009;1.812297403812408E-001;-4.817892611026764E-002;5.470504984259605E-004;3.389616962522268E-003;
2.420500000000000E+009;1.797709017992020E-001;-4.949522390961647E-002;5.672040279023349E-004;3.375151660293341E-003;
2.420666666666667E+009;1.781037151813507E-001;-5.057137086987495E-002;6.023657042533159E-004;3.470865543931723E-003;
2.420833333333334E+009;1.765282452106476E-001;-5.213611945509911E-002;5.754717858508229E-004;3.328953869640827E-003;
2.421000000000000E+009;1.752386391162872E-001;-5.367322638630867E-002;5.474123172461987E-004;3.088105702772737E-003;
2.421166666666667E+009;1.736760139465332E-001;-5.539484694600105E-002;5.514285876415670E-004;3.150292905047536E-003;
2.421333333333334E+009;1.719380319118500E-001;-5.713132396340370E-002;5.927287274971604E-004;3.142596222460270E-003;
2.421500000000000E+009;1.708483844995499E-001;-5.870421975851059E-002;6.561783957295120E-004;3.057289868593216E-003;
2.421666666666667E+009;1.695666164159775E-001;-6.056537851691246E-002;5.867526633664966E-004;2.999851945787668E-003;
2.421833333333334E+009;1.686391681432724E-001;-6.250461190938950E-002;5.487368907779455E-004;2.993900794535875E-003;
2.422000000000000E+009;1.676424741744995E-001;-6.434817612171173E-002;5.192027892917395E-004;3.042487893253565E-003;
2.422166666666667E+009;1.666826009750366E-001;-6.650283187627792E-002;4.886685637757182E-004;2.940584206953645E-003;
2.422333333333334E+009;1.655981689691544E-001;-6.849536299705505E-002;4.719266144093126E-004;2.947548869997263E-003;
2.422500000000000E+009;1.648563444614410E-001;-7.015699893236160E-002;5.336066242307425E-004;2.897285856306553E-003;
2.422666666666667E+009;1.643656939268112E-001;-7.232584059238434E-002;6.228301790542901E-004;2.691979054361582E-003;
2.422833333333334E+009;1.638756692409515E-001;-7.430001348257065E-002;6.528210942633450E-004;2.789798192679882E-003;
2.423000000000000E+009;1.634989827871323E-001;-7.624612003564835E-002;6.709365989081562E-004;2.730135107412934E-003;
2.423166666666667E+009;1.630259454250336E-001;-7.814779877662659E-002;4.682447761297226E-004;2.640043618157506E-003;
2.423333333333334E+009;1.628974378108978E-001;-8.013558387756348E-002;5.388464778661728E-004;2.751589287072420E-003;
2.423500000000000E+009;1.629129052162170E-001;-8.190889656543732E-002;5.739183980040252E-004;2.833036240190268E-003;
2.423666666666667E+009;1.629257202148438E-001;-8.379141241312027E-002;3.337142698001117E-004;2.862751483917236E-003;
2.423833333333334E+009;1.627690941095352E-001;-8.548624068498612E-002;2.852851175703108E-004;2.809478901326656E-003;
2.424000000000000E+009;1.630347222089768E-001;-8.732699602842331E-002;2.089950867230073E-004;2.841186244040728E-003;
2.424166666666667E+009;1.630058884620667E-001;-8.877564966678619E-002;2.606580383144319E-004;3.171344753354788E-003;
2.424333333333334E+009;1.632809340953827E-001;-9.019930660724640E-002;9.820592094911262E-005;3.293221350759268E-003;
2.424500000000000E+009;1.636010259389877E-001;-9.187223762273789E-002;2.419816446490586E-004;3.224673215299845E-003;
2.424666666666667E+009;1.639852672815323E-001;-9.328869730234146E-002;2.528349286876619E-004;3.477976191788912E-003;
2.424833333333334E+009;1.643985360860825E-001;-9.449007362127304E-002;4.177991650067270E-004;3.444370348006487E-003;
2.425000000000000E+009;1.648953706026077E-001;-9.559699147939682E-002;4.888002295047045E-004;3.620425006374717E-003;
2.425166666666667E+009;1.651592999696732E-001;-9.662120789289475E-002;5.156347178854048E-004;3.911871928721666E-003;
2.425333333333334E+009;1.654896289110184E-001;-9.745812416076660E-002;6.921513704583049E-004;3.950884565711021E-003;
2.425500000000000E+009;1.659911125898361E-001;-9.851981699466705E-002;8.705923683010042E-004;4.025135189294815E-003;
2.425666666666667E+009;1.663461178541184E-001;-9.913904964923859E-002;1.031955587677658E-003;4.201098810881376E-003;
2.425833333333334E+009;1.665963828563690E-001;-9.996163845062256E-002;1.145470771007240E-003;4.161463584750891E-003;
2.426000000000000E+009;1.669702529907227E-001;-1.003723964095116E-001;1.340689952485263E-003;4.336924757808447E-003;
2.426166666666667E+009;1.674364656209946E-001;-1.009345650672913E-001;1.608593389391899E-003;4.242449998855591E-003;
2.426333333333334E+009;1.674707531929016E-001;-1.013403534889221E-001;1.825219602324069E-003;4.249879624694586E-003;
2.426500000000000E+009;1.678787022829056E-001;-1.015271693468094E-001;2.180640352889895E-003;4.160635173320770E-003;
2.426666666666667E+009;1.679681241512299E-001;-1.019223108887672E-001;2.196867950260639E-003;4.198803100734949E-003;
2.426833333333334E+009;1.682694256305695E-001;-1.022695526480675E-001;2.464340999722481E-003;4.191103391349316E-003;
2.427000000000000E+009;1.683142036199570E-001;-1.023974791169167E-001;2.563545946031809E-003;3.994946368038654E-003;
2.427166666666667E+009;1.682639867067337E-001;-1.026043519377708E-001;2.835484687238932E-003;3.999899141490459E-003;
2.427333333333334E+009;1.680580228567123E-001;-1.028365641832352E-001;3.005396341904998E-003;3.887530649080873E-003;
2.427500000000000E+009;1.677559912204742E-001;-1.029600054025650E-001;3.190892981365323E-003;3.788433969020844E-003;
2.427666666666667E+009;1.674366891384125E-001;-1.030251756310463E-001;3.343861550092697E-003;3.723887261003256E-003;
