# Version 1.00
#
freq[Hz];re:Trc1_S11;im:Trc1_S11;re:Trc2_S21;im:Trc2_S21;
2.400000000000000E+009;1.551830321550369E-001;1.065902262926102E-001;2.171899192035198E-003;-5.934999324381352E-003;
2.400166666666667E+009;1.548483222723007E-001;1.041214168071747E-001;2.023436594754458E-003;-6.031150463968515E-003;
2.400333333333334E+009;1.550354063510895E-001;1.017903536558151E-001;2.010340103879571E-003;-5.831720773130655E-003;
2.400500000000000E+009;1.550302207469940E-001;9.893604367971420E-002;1.706012175418437E-003;-6.047885864973068E-003;
2.400666666666667E+009;1.551799029111862E-001;9.662645310163498E-002;1.660399255342782E-003;-6.092953961342573E-003;
2.400833333333334E+009;1.550435870885849E-001;9.370551258325577E-002;1.533412840217352E-003;-6.126666441559792E-003;
2.401000000000000E+009;1.553730517625809E-001;9.094960242509842E-002;1.326315803453326E-003;-6.323008798062801E-003;
2.401166666666667E+009;1.556508094072342E-001;8.805691450834274E-002;1.086568692699075E-003;-6.290968973189592E-003;
2.401333333333334E+009;1.559996604919434E-001;8.512236177921295E-002;8.586840122006834E-004;-6.556072738021612E-003;
2.401500000000000E+009;1.564551591873169E-001;8.230569213628769E-002;5.435080383904278E-004;-6.540465634316206E-003;
2.401666666666667E+009;1.568132042884827E-001;7.955391705036163E-002;3.257517528254539E-004;-6.625059060752392E-003;
2.401833333333334E+009;1.573454141616821E-001;7.681254297494888E-002;4.179258758085780E-005;-6.639996077865362E-003;
2.402000000000000E+009;1.583652645349503E-001;7.403356581926346E-002;-1.604423887329176E-004;-6.786342244595289E-003;
2.402166666666667E+009;1.589586436748505E-001;7.153410464525223E-002;-8.227190701290965E-004;-6.652087904512882E-003;
2.402333333333334E+009;1.601746678352356E-001;6.889981776475906E-002;-9.550398099236190E-004;-6.604626774787903E-003;
2.402500000000000E+009;1.610622704029083E-001;6.629759073257446E-002;-1.408936921507120E-003;-6.475502159446478E-003;
2.402666666666667E+009;1.623480618000031E-001;6.396256387233734E-002;-1.637330278754234E-003;-6.305628921836615E-003;
2.402833333333334E+009;1.637715548276901E-001;6.143517792224884E-002;-1.949100405909121E-003;-6.193229462951422E-003;
2.403000000000000E+009;1.652220338582993E-001;5.929029732942581E-002;-2.498570596799254E-003;-6.038172170519829E-003;
2.403166666666667E+009;1.667398661375046E-001;5.717451870441437E-002;-2.762480406090617E-003;-5.860665813088417E-003;
2.403333333333334E+009;1.682372242212296E-001;5.517531186342239E-002;-2.938582794740796E-003;-5.539804697036743E-003;
2.403500000000000E+009;1.700605154037476E-001;5.297375097870827E-002;-3.223297651857138E-003;-5.174222867935896E-003;
2.403666666666667E+009;1.716537326574326E-001;5.118469521403313E-002;-3.462655702605844E-003;-4.868233576416969E-003;
2.403833333333334E+009;1.731667816638947E-001;4.926035925745964E-002;-3.730805823579431E-003;-4.543451592326164E-003;
2.404000000000000E+009;1.748320758342743E-001;4.763309657573700E-002;-3.762897336855531E-003;-4.024306777864695E-003;
2.404166666666667E+009;1.765264421701431E-001;4.632595553994179E-002;-3.793118987232447E-003;-3.675164189189673E-003;
2.404333333333334E+009;1.781610101461411E-001;4.475457593798637E-002;-3.750092117115855E-003;-3.504818305373192E-003;
2.404500000000000E+009;1.798055171966553E-001;4.341826215386391E-002;-3.629464888945222E-003;-3.248316003009677E-003;
2.404666666666667E+009;1.813644170761108E-001;4.236901178956032E-002;-3.476414596661925E-003;-2.723978832364082E-003;
2.404833333333334E+009;1.829662621021271E-001;4.133001342415810E-002;-3.467311616986990E-003;-2.770292107015848E-003;
2.405000000000000E+009;1.843302845954895E-001;4.072285816073418E-002;-3.382398281246424E-003;-2.526266267523170E-003;
2.405166666666667E+009;1.857362538576126E-001;4.003592208027840E-002;-3.254650393500924E-003;-2.520509297028184E-003;
2.405333333333334E+009;1.870803385972977E-001;3.944053128361702E-002;-3.095774445682764E-003;-2.361592603847385E-003;
2.405500000000000E+009;1.885309815406799E-001;3.888393938541412E-002;-3.064353251829743E-003;-2.349246526136994E-003;
2.405666666666667E+009;1.896842867136002E-001;3.853685781359673E-002;-2.939936937764287E-003;-2.114434028044343E-003;
2.405833333333334E+009;1.910101920366287E-001;3.837490081787109E-002;-2.880801446735859E-003;-2.127597108483315E-003;
2.406000000000000E+009;1.919119060039520E-001;3.821492567658424E-002;-2.794994506984949E-003;-2.124305814504623E-003;
2.406166666666667E+009;1.927545666694641E-001;3.797695785760880E-002;-2.776709385216236E-003;-2.064493717625737E-003;
2.406333333333334E+009;1.937607526779175E-001;3.804030269384384E-002;-2.871860982850194E-003;-1.847086939960718E-003;
2.406500000000000E+009;1.944296509027481E-001;3.797007724642754E-002;-2.813733182847500E-003;-1.734875957481563E-003;
2.406666666666667E+009;1.950517445802689E-001;3.807468339800835E-002;-2.602251246571541E-003;-1.771936425939202E-003;
2.406833333333334E+009;1.955998688936234E-001;3.815803676843643E-002;-2.591243712231517E-003;-1.604554476216435E-003;
2.407000000000000E+009;1.958147734403610E-001;3.821853175759316E-002;-2.472383901476860E-003;-1.592665445059538E-003;
2.407166666666667E+009;1.960987448692322E-001;3.801045939326286E-002;-2.416824921965599E-003;-1.631101709790528E-003;
2.407333333333334E+009;1.960714310407639E-001;3.815336897969246E-002;-2.174284309148789E-003;-1.466227462515235E-003;
2.407500000000000E+009;1.959594637155533E-001;3.820428624749184E-002;-2.011675154790282E-003;-1.670692581683397E-003;
2.407666666666667E+009;1.960261911153793E-001;3.805464506149292E-002;-2.055132994428277E-003;-1.536336378194392E-003;
2.407833333333334E+009;1.954879462718964E-001;3.801662102341652E-002;-1.976882573217154E-003;-1.607377198524773E-003;
2.408000000000000E+009;1.953067034482956E-001;3.760090842843056E-002;-1.970957964658737E-003;-1.665091258473694E-003;
2.408166666666667E+009;1.947378814220429E-001;3.734223544597626E-002;-1.937076682224870E-003;-1.777815283276141E-003;
2.408333333333334E+009;1.944104433059692E-001;3.674707561731339E-002;-1.734513905830681E-003;-1.985200215131044E-003;
2.408500000000000E+009;1.935453712940216E-001;3.629520535469055E-002;-1.800369471311569E-003;-2.110371133312583E-003;
2.408666666666667E+009;1.928689181804657E-001;3.579715639352799E-002;-1.781850005500019E-003;-2.052642637863755E-003;
2.408833333333334E+009;1.921370029449463E-001;3.506994619965553E-002;-1.806771615520120E-003;-2.270649652928114E-003;
2.409000000000000E+009;1.912594884634018E-001;3.392562270164490E-002;-1.849346212111414E-003;-2.362049417570233E-003;
2.409166666666667E+009;1.902437955141068E-001;3.288180008530617E-002;-1.878987997770309E-003;-2.494835993275046E-003;
2.409333333333334E+009;1.894131302833557E-001;3.201158717274666E-002;-2.076874487102032E-003;-2.765713492408395E-003;
2.409500000000000E+009;1.883731931447983E-001;3.048247657716274E-002;-2.209130441769958E-003;-2.832173602655530E-003;
2.409666666666667E+009;1.873721629381180E-001;2.911710366606712E-002;-2.325331559404731E-003;-2.929952926933765E-003;
2.409833333333334E+009;1.862564533948898E-001;2.767268009483814E-002;-2.464452525600791E-003;-2.921196864917874E-003;
2.410000000000000E+009;1.853285133838654E-001;2.596024051308632E-002;-2.679175231605768E-003;-3.101455047726631E-003;
2.410166666666667E+009;1.843920201063156E-001;2.423770911991596E-002;-2.762211253866553E-003;-3.073988948017359E-003;
2.410333333333334E+009;1.833701133728027E-001;2.249068953096867E-002;-3.057797439396381E-003;-2.989324275404215E-003;
2.410500000000000E+009;1.824066638946533E-001;2.034281194210053E-002;-3.049856051802635E-003;-2.807373413816094E-003;
2.410666666666667E+009;1.815055310726166E-001;1.798188127577305E-002;-3.224234795197845E-003;-3.064437070861459E-003;
2.410833333333334E+009;1.808764338493347E-001;1.603297330439091E-002;-3.418148495256901E-003;-3.067271551117301E-003;
2.411000000000000E+009;1.803762316703796E-001;1.362719107419252E-002;-3.644280834123492E-003;-3.021353390067816E-003;
2.411166666666667E+009;1.796388626098633E-001;1.165854278951883E-002;-3.859450342133641E-003;-2.861751709133387E-003;
2.411333333333334E+009;1.792886406183243E-001;8.949718438088894E-003;-4.071802832186222E-003;-2.979188458994031E-003;
2.411500000000000E+009;1.787120997905731E-001;6.641651038080454E-003;-4.236655309796333E-003;-3.035842673853040E-003;
2.411666666666667E+009;1.785421520471573E-001;4.339027218520641E-003;-4.526196513324976E-003;-2.865899354219437E-003;
2.411833333333334E+009;1.782286465167999E-001;1.845725579187274E-003;-4.700633231550455E-003;-2.740747062489390E-003;
2.412000000000000E+009;1.784499287605286E-001;-7.518452475778759E-004;-4.944795742630959E-003;-2.511148108169437E-003;
2.412166666666667E+009;1.784130632877350E-001;-2.954687224701047E-003;-5.216164514422417E-003;-2.504474483430386E-003;
2.412333333333334E+009;1.786377131938934E-001;-5.596237257122994E-003;-5.365404766052961E-003;-2.487231278792024E-003;
2.412500000000000E+009;1.791821867227554E-001;-7.848992943763733E-003;-5.654067732393742E-003;-2.146987942978740E-003;
2.412666666666667E+009;1.796440631151199E-001;-1.024840679019690E-002;-5.832147318869829E-003;-1.915105967782438E-003;
2.412833333333334E+009;1.804113239049912E-001;-1.248238887637854E-002;-6.192768923938274E-003;-1.709381118416786E-003;
2.413000000000000E+009;1.810716688632965E-001;-1.490731723606587E-002;-6.429820787161589E-003;-1.449833624064922E-003;
2.413166666666667E+009;1.819328814744949E-001;-1.699825748801231E-002;-6.697562988847494E-003;-1.188795547932386E-003;
2.413333333333334E+009;1.829203367233276E-001;-1.924220100045204E-002;-6.949179805815220E-003;-7.910609128884971E-004;
2.413500000000000E+009;1.837169080972672E-001;-2.151007764041424E-002;-7.040257100015879E-003;-4.348937945906073E-004;
2.413666666666667E+009;1.849731802940369E-001;-2.359989844262600E-002;-7.283093873411417E-003;-3.043253127543721E-005;
2.413833333333334E+009;1.860009729862213E-001;-2.547363750636578E-002;-7.500303909182549E-003;5.752490833401680E-004;
2.414000000000000E+009;1.870996356010437E-001;-2.745378389954567E-002;-7.372200489044190E-003;1.190202892757952E-003;
2.414166666666667E+009;1.884553730487824E-001;-2.906853519380093E-002;-7.317419629544020E-003;1.587876584380865E-003;
2.414333333333334E+009;1.893888264894486E-001;-3.090685047209263E-002;-7.064117118716240E-003;2.011643489822745E-003;
2.414500000000000E+009;1.907058656215668E-001;-3.246426582336426E-002;-7.098126225173473E-003;2.356616547331214E-003;
2.414666666666667E+009;1.919384151697159E-001;-3.395812958478928E-002;-6.825487595051527E-003;3.002115525305271E-003;
2.414833333333334E+009;1.930566132068634E-001;-3.520955145359039E-002;-6.567268632352352E-003;3.288332605734468E-003;
2.415000000000000E+009;1.941864043474197E-001;-3.634055331349373E-002;-6.327018607407808E-003;3.638457739725709E-003;
2.415166666666667E+009;1.953197121620178E-001;-3.751620650291443E-002;-6.185059435665608E-003;3.810778493061662E-003;
2.415333333333334E+009;1.965091675519943E-001;-3.844543173909187E-002;-6.013273261487484E-003;4.188695922493935E-003;
2.415500000000000E+009;1.976150125265122E-001;-3.911071643233299E-002;-5.646267905831337E-003;4.334237426519394E-003;
2.415666666666667E+009;1.985374689102173E-001;-4.009552672505379E-002;-5.259954370558262E-003;4.617788828909397E-003;
2.415833333333334E+009;1.994134783744812E-001;-4.057862609624863E-002;-5.080476403236389E-003;4.621552303433418E-003;
2.416000000000000E+009;2.002339810132980E-001;-4.107790440320969E-002;-4.718956537544727E-003;5.120257381349802E-003;
2.416166666666667E+009;2.008353024721146E-001;-4.172147437930107E-002;-4.404644947499037E-003;5.202360451221466E-003;
2.416333333333334E+009;2.014727443456650E-001;-4.191266000270844E-002;-4.288838710635901E-003;5.302091129124165E-003;
2.416500000000000E+009;2.019281983375549E-001;-4.216439276933670E-002;-4.042183514684439E-003;5.402402486652136E-003;
2.416666666666667E+009;2.022111117839813E-001;-4.253578186035156E-002;-3.555669216439128E-003;5.553894210606813E-003;
2.416833333333334E+009;2.023077160120010E-001;-4.260355234146118E-002;-3.331406740471721E-003;5.680893547832966E-003;
2.417000000000000E+009;2.024668306112289E-001;-4.273598641157150E-002;-2.909640083089471E-003;5.747834220528603E-003;
2.417166666666667E+009;2.021915912628174E-001;-4.256049543619156E-002;-2.781494520604610E-003;5.875215865671635E-003;
2.417333333333334E+009;2.019788622856140E-001;-4.253490641713142E-002;-2.200964605435729E-003;5.717139225453138E-003;
2.417500000000000E+009;2.015664130449295E-001;-4.256818816065788E-002;-1.972415251657367E-003;5.838674493134022E-003;
2.417666666666667E+009;2.009842395782471E-001;-4.235418140888214E-002;-1.639574300497770E-003;5.666943732649088E-003;
2.417833333333334E+009;2.005002796649933E-001;-4.225034639239311E-002;-1.211132854223251E-003;5.742179229855537E-003;
2.418000000000000E+009;1.998208165168762E-001;-4.209283366799355E-002;-1.011810847558081E-003;5.473063793033361E-003;
2.418166666666667E+009;1.989665478467941E-001;-4.211564362049103E-002;-8.623292087577283E-004;5.463532172143459E-003;
2.418333333333334E+009;1.981174796819687E-001;-4.194051772356033E-002;-6.075940327718854E-004;5.212429910898209E-003;
2.418500000000000E+009;1.969851106405258E-001;-4.211118444800377E-002;-3.287756117060781E-004;5.142676644027233E-003;
2.418666666666667E+009;1.959794461727142E-001;-4.194258525967598E-002;-1.364835043204948E-004;4.973873030394316E-003;
2.418833333333334E+009;1.946873515844345E-001;-4.223752394318581E-002;1.839652250055224E-004;4.800669848918915E-003;
2.419000000000000E+009;1.934362500905991E-001;-4.230564087629318E-002;1.606761652510613E-004;4.596758168190718E-003;
2.419166666666667E+009;1.920510530471802E-001;-4.276116937398911E-002;3.985773655585945E-004;4.539884161204100E-003;
2.419333333333334E+009;1.906294226646423E-001;-4.319697991013527E-002;2.981346624437720E-004;4.226251505315304E-003;
2.419500000000000E+009;1.891494244337082E-001;-4.378032311797142E-002;4.860942717641592E-004;4.094520583748817E-003;
2.419666666666667E+009;1.875127404928207E-001;-4.449732974171639E-002;5.106184980832040E-004;3.914937376976013E-003;
2.419833333333334E+009;1.860507130622864E-001;-4.513971135020256E-002;5.561421858146787E-004;3.777073929086328E-003;
2.420000000000000E+009;1.845662444829941E-001;-4.600432515144348E-002;6.296184146776795E-004;3.612221451476216E-003;
2.420166666666667E+009;1.828615218400955E-001;-4.694677889347076E-002;5.029604653827846E-004;3.545507788658142E-003;
2.420333333333334E+009;1.813059151172638E-001;-4.813753068447113E-002;4.743773897644132E-004;3.457709215581417E-003;
2.420500000000000E+009;1.796433180570602E-001;-4.948345944285393E-002;4.550626908894628E-004;3.451315220445395E-003;
2.420666666666667E+009;1.779898703098297E-001;-5.051593855023384E-002;5.326657555997372E-004;3.255787305533886E-003;
2.420833333333334E+009;1.765092164278030E-001;-5.217745527625084E-002;4.650851769838482E-004;3.251180052757263E-003;
2.421000000000000E+009;1.750950217247009E-001;-5.371882021427155E-002;3.968754608649761E-004;3.259789664298296E-003;
2.421166666666667E+009;1.736994832754135E-001;-5.550280213356018E-002;6.043528555892408E-004;3.136490005999804E-003;
2.421333333333334E+009;1.720815598964691E-001;-5.706357210874558E-002;5.025265272706747E-004;3.162189386785030E-003;
2.421500000000000E+009;1.707229614257813E-001;-5.892284959554672E-002;5.746444221585989E-004;3.026245627552271E-003;
2.421666666666667E+009;1.697228997945786E-001;-6.053982302546501E-002;4.460029595065862E-004;3.005297388881445E-003;
2.421833333333334E+009;1.685001701116562E-001;-6.262457370758057E-002;5.965772434137762E-004;3.048272104933858E-003;
2.422000000000000E+009;1.674482822418213E-001;-6.430055201053619E-002;5.772396107204258E-004;2.932573435828090E-003;
2.422166666666667E+009;1.666185557842255E-001;-6.648460775613785E-002;5.786216934211552E-004;2.908991649746895E-003;
2.422333333333334E+009;1.656105518341065E-001;-6.831600517034531E-002;5.188068607822061E-004;2.847191412001848E-003;
2.422500000000000E+009;1.649952977895737E-001;-7.021223753690720E-002;4.781960451509804E-004;2.905559493228793E-003;
2.422666666666667E+009;1.644193828105927E-001;-7.221985608339310E-002;4.529749858193100E-004;2.947488101199269E-003;
2.422833333333334E+009;1.639167815446854E-001;-7.433988898992539E-002;5.500076222233474E-004;2.778465393930674E-003;
2.423000000000000E+009;1.632850468158722E-001;-7.629577815532684E-002;4.912303411401808E-004;2.714958740398288E-003;
2.423166666666667E+009;1.631256937980652E-001;-7.811188697814941E-002;3.956952132284641E-004;2.859220141544938E-003;
2.423333333333334E+009;1.628917753696442E-001;-8.007567375898361E-002;3.360598930157721E-004;2.737677190452814E-003;
2.423500000000000E+009;1.628772467374802E-001;-8.193446695804596E-002;3.015235997736454E-004;2.864654641598463E-003;
2.423666666666667E+009;1.629368215799332E-001;-8.386161923408508E-002;3.015642287209630E-004;2.805621828883886E-003;
2.423833333333334E+009;1.626589745283127E-001;-8.539046347141266E-002;2.859442320186645E-004;2.927577821537852E-003;
2.424000000000000E+009;1.630284935235977E-001;-8.709653466939926E-002;2.437650546198711E-004;2.899040235206485E-003;
2.424166666666667E+009;1.631491184234619E-001;-8.872229605913162E-002;2.618839207571000E-004;3.125128103420138E-003;
2.424333333333334E+009;1.633546799421310E-001;-9.022019058465958E-002;2.131430228473619E-004;3.188348375260830E-003;
2.424500000000000E+009;1.637132763862610E-001;-9.179239720106125E-002;2.747746766544879E-004;3.233254887163639E-003;
2.424666666666667E+009;1.639375984668732E-001;-9.309833496809006E-002;2.367659617448226E-004;3.538666060194373E-003;
2.424833333333334E+009;1.644725054502487E-001;-9.452179819345474E-002;3.118578752037138E-004;3.704306203871965E-003;
2.425000000000000E+009;1.647518724203110E-001;-9.545128047466278E-002;2.817549975588918E-004;3.719710046425462E-003;
2.425166666666667E+009;1.651955842971802E-001;-9.657956659793854E-002;6.485463818535209E-004;3.904800396412611E-003;
2.425333333333334E+009;1.655058115720749E-001;-9.747061878442764E-002;7.217070087790489E-004;3.967561759054661E-003;
2.425500000000000E+009;1.658861041069031E-001;-9.857260435819626E-002;8.963953587226570E-004;4.120248835533857E-003;
2.425666666666667E+009;1.663376986980438E-001;-9.925201535224915E-002;9.739475790411234E-004;4.213151987642050E-003;
2.425833333333334E+009;1.665672063827515E-001;-1.000326573848724E-001;1.358629669994116E-003;4.155957605689764E-003;
2.426000000000000E+009;1.669719666242600E-001;-1.003389358520508E-001;1.402924186550081E-003;4.261349793523550E-003;
2.426166666666667E+009;1.674279719591141E-001;-1.008185967803001E-001;1.646397286094725E-003;4.218204878270626E-003;
2.426333333333334E+009;1.674686968326569E-001;-1.013769060373306E-001;1.873835804872215E-003;4.265683703124523E-003;
2.426500000000000E+009;1.678151041269302E-001;-1.017203405499458E-001;1.968696713447571E-003;4.246912430971861E-003;
2.426666666666667E+009;1.679584980010986E-001;-1.019850075244904E-001;2.241335809230804E-003;4.189827013760805E-003;
2.426833333333334E+009;1.681897640228272E-001;-1.021871492266655E-001;2.245297422632575E-003;4.040332045406103E-003;
2.427000000000000E+009;1.680743545293808E-001;-1.024321690201759E-001;2.522947732359171E-003;4.054854623973370E-003;
2.427166666666667E+009;1.681636571884155E-001;-1.025519967079163E-001;2.804873045533896E-003;3.942696843296289E-003;
2.427333333333334E+009;1.680020093917847E-001;-1.027433946728706E-001;2.936113160103560E-003;3.889519255608320E-003;
2.427500000000000E+009;1.677299886941910E-001;-1.028918474912643E-001;3.149329917505384E-003;3.801844781264663E-003;
2.427666666666667E+009;1.674250811338425E-001;-1.030902191996574E-001;3.267618594691157E-003;3.791451686993241E-003;
