# Version 1.00
#
freq[Hz];re:Trc1_S11;im:Trc1_S11;re:Trc2_S21;im:Trc2_S21;
2.400000000000000E+009;1.550570875406265E-001;1.062764227390289E-001;2.249732846394181E-003;-6.014944519847632E-003;
2.400166666666667E+009;1.549184918403626E-001;1.039363071322441E-001;2.083240542560816E-003;-5.991774611175060E-003;
2.400333333333334E+009;1.549694240093231E-001;1.016445085406303E-001;1.938164234161377E-003;-5.905092228204012E-003;
2.400500000000000E+009;1.549691855907440E-001;9.898944199085236E-002;1.743760774843395E-003;-6.139462813735008E-003;
2.400666666666667E+009;1.550485342741013E-001;9.651141613721848E-002;1.757851103320718E-003;-6.167158484458923E-003;
2.400833333333334E+009;1.551983654499054E-001;9.359253197908402E-002;1.365335192531347E-003;-6.155148148536682E-003;
2.401000000000000E+009;1.553377658128738E-001;9.077005833387375E-002;1.367854885756970E-003;-6.330487783998251E-003;
2.401166666666667E+009;1.559966951608658E-001;8.758894354104996E-002;2.535151434130967E-004;-6.378162652254105E-003;
2.401333333333334E+009;1.558634191751480E-001;8.561220020055771E-002;1.172900665551424E-003;-6.856416817754507E-003;
2.401500000000000E+009;1.564198285341263E-001;8.231009542942047E-002;5.492775817401707E-004;-6.567460019141436E-003;
2.401666666666667E+009;1.567886173725128E-001;7.936596870422363E-002;4.516468034125865E-004;-6.707750726491213E-003;
2.401833333333334E+009;1.573451757431030E-001;7.664277404546738E-002;7.316011760849506E-005;-6.643278989940882E-003;
2.402000000000000E+009;1.583215147256851E-001;7.409225404262543E-002;-1.463850785512477E-004;-6.750126369297504E-003;
2.402166666666667E+009;1.590707302093506E-001;7.155580073595047E-002;-6.698004435747862E-004;-6.651025265455246E-003;
2.402333333333334E+009;1.599882394075394E-001;6.874028593301773E-002;-1.132296747528017E-003;-6.802252959460020E-003;
2.402500000000000E+009;1.612384617328644E-001;6.626231968402863E-002;-1.331055071204901E-003;-6.679551675915718E-003;
2.402666666666667E+009;1.624151170253754E-001;6.378602981567383E-002;-1.832378911785781E-003;-6.514601875096560E-003;
2.402833333333334E+009;1.636846959590912E-001;6.169991940259934E-002;-2.101688878610730E-003;-6.382549647241831E-003;
2.403000000000000E+009;1.652151495218277E-001;5.916725471615791E-002;-2.564610214903951E-003;-5.993520841002464E-003;
2.403166666666667E+009;1.667097359895706E-001;5.722182989120483E-002;-2.777710789814591E-003;-5.782936234027147E-003;
2.403333333333334E+009;1.681634187698364E-001;5.502603203058243E-002;-3.001834033057094E-003;-5.423437338322401E-003;
2.403500000000000E+009;1.699545830488205E-001;5.292906984686852E-002;-3.333693370223045E-003;-5.300677847117186E-003;
2.403666666666667E+009;1.716600954532623E-001;5.110504850745201E-002;-3.502217587083578E-003;-4.946703091263771E-003;
2.403833333333334E+009;1.731733530759811E-001;4.930719733238220E-002;-3.753668162971735E-003;-4.530888982117176E-003;
2.404000000000000E+009;1.747474670410156E-001;4.774344339966774E-002;-3.804846899583936E-003;-4.062106832861900E-003;
2.404166666666667E+009;1.765362769365311E-001;4.617698490619659E-002;-3.647139761596918E-003;-3.724215319380164E-003;
2.404333333333334E+009;1.779823154211044E-001;4.478318616747856E-002;-3.712077392265201E-003;-3.444346366450191E-003;
2.404500000000000E+009;1.797739714384079E-001;4.329925402998924E-002;-3.611189778894186E-003;-3.245851723477244E-003;
2.404666666666667E+009;1.811105906963348E-001;4.227242991328239E-002;-3.491367213428021E-003;-2.982777543365955E-003;
2.404833333333334E+009;1.828539222478867E-001;4.133342206478119E-002;-3.398338332772255E-003;-2.789211692288518E-003;
2.405000000000000E+009;1.839950978755951E-001;4.062914475798607E-002;-3.339041024446487E-003;-2.585194306448102E-003;
2.405166666666667E+009;1.856408566236496E-001;3.996232151985169E-002;-3.193963784724474E-003;-2.426261547952890E-003;
2.405333333333334E+009;1.869293898344040E-001;3.960390761494637E-002;-3.322384553030133E-003;-2.138459356501699E-003;
2.405500000000000E+009;1.883486956357956E-001;3.897761926054955E-002;-3.008419647812843E-003;-2.270827302709222E-003;
2.405666666666667E+009;1.894125640392304E-001;3.878466784954071E-002;-2.997241215780377E-003;-2.128198975697160E-003;
2.405833333333334E+009;1.908759474754334E-001;3.845369815826416E-002;-2.938874065876007E-003;-2.005045302212238E-003;
2.406000000000000E+009;1.917892247438431E-001;3.824565932154656E-002;-2.739061368629336E-003;-1.926223863847554E-003;
2.406166666666667E+009;1.927349865436554E-001;3.805388510227203E-002;-2.646342618390918E-003;-1.921029645018280E-003;
2.406333333333334E+009;1.935313940048218E-001;3.808915242552757E-002;-2.748357132077217E-003;-1.825765823014081E-003;
2.406500000000000E+009;1.941978931427002E-001;3.812323138117790E-002;-2.529526827856898E-003;-2.100238576531410E-003;
2.406666666666667E+009;1.950046420097351E-001;3.801431134343147E-002;-1.790148206055164E-003;-1.195033430121839E-003;
2.406833333333334E+009;1.954961866140366E-001;3.811089321970940E-002;-2.585178939625621E-003;-7.593155023641884E-004;
2.407000000000000E+009;1.958024948835373E-001;3.824021294713020E-002;-2.673642244189978E-003;-1.469484996050596E-003;
2.407166666666667E+009;1.960392445325851E-001;3.794968873262405E-002;-1.893948181532323E-003;-1.951357582584024E-003;
2.407333333333334E+009;1.960151940584183E-001;3.817186877131462E-002;-1.991450786590576E-003;-1.219030586071312E-003;
2.407500000000000E+009;1.957982927560806E-001;3.838843852281570E-002;-2.140092663466930E-003;-1.694720820523799E-003;
2.407666666666667E+009;1.959470510482788E-001;3.812026977539063E-002;-1.763129723258317E-003;-1.345970667898655E-003;
2.407833333333334E+009;1.953267008066177E-001;3.786275163292885E-002;-1.917187240906060E-003;-1.553452457301319E-003;
2.408000000000000E+009;1.952725201845169E-001;3.790459036827087E-002;-2.395827556028962E-003;-1.875166664831340E-003;
2.408166666666667E+009;1.947639137506485E-001;3.742171451449394E-002;-1.910755992867053E-003;-1.761389081366360E-003;
2.408333333333334E+009;1.941514760255814E-001;3.692467138171196E-002;-1.739930943585932E-003;-1.961546950042248E-003;
2.408500000000000E+009;1.934874802827835E-001;3.639734908938408E-002;-1.773997442796826E-003;-2.105100313201547E-003;
2.408666666666667E+009;1.929215341806412E-001;3.591197356581688E-002;-1.724041067063808E-003;-2.185578923672438E-003;
2.408833333333334E+009;1.921001970767975E-001;3.500692173838615E-002;-1.873390399850905E-003;-2.288090530782938E-003;
2.409000000000000E+009;1.912268698215485E-001;3.408661112189293E-002;-1.986690564081073E-003;-2.332531381398439E-003;
2.409166666666667E+009;1.904116123914719E-001;3.309803828597069E-002;-2.097981050610542E-003;-2.570901066064835E-003;
2.409333333333334E+009;1.893808990716934E-001;3.203974291682243E-002;-2.092671114951372E-003;-2.749563194811344E-003;
2.409500000000000E+009;1.882507055997849E-001;3.061724081635475E-002;-2.210827311500907E-003;-2.742917276918888E-003;
2.409666666666667E+009;1.873020529747009E-001;2.924583666026592E-002;-2.530960133299232E-003;-2.766493475064635E-003;
2.409833333333334E+009;1.863899528980255E-001;2.765723131597042E-002;-2.653599949553609E-003;-2.824150025844574E-003;
2.410000000000000E+009;1.852910071611404E-001;2.613225951790810E-002;-2.734114415943623E-003;-2.943400526419282E-003;
2.410166666666667E+009;1.842511296272278E-001;2.411694079637528E-002;-2.929361304268241E-003;-2.990243025124073E-003;
2.410333333333334E+009;1.833642125129700E-001;2.238249406218529E-002;-2.997642150148749E-003;-2.928835339844227E-003;
2.410500000000000E+009;1.824430227279663E-001;2.048574946820736E-002;-3.220813814550638E-003;-3.070086007937789E-003;
2.410666666666667E+009;1.817086338996887E-001;1.827521249651909E-002;-3.404737683013082E-003;-2.997294068336487E-003;
2.410833333333334E+009;1.810322105884552E-001;1.598138920962811E-002;-3.604621393606067E-003;-2.857790328562260E-003;
2.411000000000000E+009;1.801242977380753E-001;1.376003865152597E-002;-3.649290651082993E-003;-2.918388694524765E-003;
2.411166666666667E+009;1.795217841863632E-001;1.155145838856697E-002;-3.948748111724854E-003;-2.951547503471375E-003;
2.411333333333334E+009;1.790500283241272E-001;9.132306091487408E-003;-4.093657247722149E-003;-2.912866417318583E-003;
2.411500000000000E+009;1.787554025650024E-001;6.665189750492573E-003;-4.444356076419354E-003;-2.711440436542034E-003;
2.411666666666667E+009;1.785722821950913E-001;4.387792665511370E-003;-4.571999423205853E-003;-2.816208405420184E-003;
2.411833333333334E+009;1.782443523406982E-001;2.005505375564098E-003;-4.858779720962048E-003;-2.713134512305260E-003;
2.412000000000000E+009;1.784761101007462E-001;-7.039689808152616E-004;-5.020651035010815E-003;-2.487483900040388E-003;
2.412166666666667E+009;1.785897165536881E-001;-2.854077145457268E-003;-5.189481656998396E-003;-2.433774759992957E-003;
2.412333333333334E+009;1.787652820348740E-001;-5.396736785769463E-003;-5.567586980760098E-003;-2.354024443775415E-003;
2.412500000000000E+009;1.790726482868195E-001;-7.835482247173786E-003;-5.670807790011168E-003;-2.066698390990496E-003;
2.412666666666667E+009;1.796269118785858E-001;-1.024806313216686E-002;-6.116984412074089E-003;-1.939921639859676E-003;
2.412833333333334E+009;1.802359372377396E-001;-1.247560698539019E-002;-6.343262735754252E-003;-1.761517953127623E-003;
2.413000000000000E+009;1.810764372348785E-001;-1.493580639362335E-002;-6.471523549407721E-003;-1.473839045502245E-003;
2.413166666666667E+009;1.818364858627319E-001;-1.695591211318970E-002;-6.738966796547175E-003;-1.110917190089822E-003;
2.413333333333334E+009;1.830705255270004E-001;-1.922750100493431E-002;-6.970534566789866E-003;-7.005566731095314E-004;
2.413500000000000E+009;1.837780922651291E-001;-2.157214842736721E-002;-6.987800356000662E-003;-3.339413378853351E-004;
2.413666666666667E+009;1.850553452968597E-001;-2.356028743088245E-002;-7.138763088732958E-003;1.896089670481160E-004;
2.413833333333334E+009;1.860979944467545E-001;-2.546111121773720E-002;-7.331659086048603E-003;4.905571695417166E-004;
2.414000000000000E+009;1.871040910482407E-001;-2.733741886913776E-002;-7.366992533206940E-003;1.007919898256660E-003;
2.414166666666667E+009;1.884151846170425E-001;-2.904359437525272E-002;-7.423911709338427E-003;1.563787925988436E-003;
2.414333333333334E+009;1.896388530731201E-001;-3.095685690641403E-002;-7.128673605620861E-003;1.952158519998193E-003;
2.414500000000000E+009;1.908015161752701E-001;-3.247027099132538E-002;-6.970153190195561E-003;2.406113315373659E-003;
2.414666666666667E+009;1.919595003128052E-001;-3.383563831448555E-002;-6.836876273155212E-003;2.766664372757077E-003;
2.414833333333334E+009;1.931758522987366E-001;-3.515469655394554E-002;-6.651963572949171E-003;3.189075272530317E-003;
2.415000000000000E+009;1.941066831350327E-001;-3.642077371478081E-002;-6.510809529572725E-003;3.555329982191324E-003;
2.415166666666667E+009;1.954991072416306E-001;-3.749001771211624E-002;-6.138542201370001E-003;3.781914710998535E-003;
2.415333333333334E+009;1.965845227241516E-001;-3.844923153519630E-002;-5.838681478053331E-003;4.047416616231203E-003;
2.415500000000000E+009;1.976865530014038E-001;-3.905754536390305E-002;-5.676577333360910E-003;4.413635469973087E-003;
2.415666666666667E+009;1.987221837043762E-001;-3.983712196350098E-002;-5.331866908818483E-003;4.518189467489719E-003;
2.415833333333334E+009;1.995541900396347E-001;-4.050983861088753E-002;-4.999154713004828E-003;4.780103452503681E-003;
2.416000000000000E+009;2.003108561038971E-001;-4.094820469617844E-002;-4.775539971888065E-003;4.969520494341850E-003;
2.416166666666667E+009;2.009347081184387E-001;-4.166196286678314E-002;-4.525212571024895E-003;5.097981076687574E-003;
2.416333333333334E+009;2.015862911939621E-001;-4.198722913861275E-002;-4.217231180518866E-003;5.293541587889195E-003;
2.416500000000000E+009;2.020940035581589E-001;-4.217853397130966E-002;-3.802150022238493E-003;5.585982464253902E-003;
2.416666666666667E+009;2.022525370121002E-001;-4.261036589741707E-002;-3.506573382765055E-003;5.678502377122641E-003;
2.416833333333334E+009;2.024351954460144E-001;-4.246732965111733E-002;-3.355146851390600E-003;5.729423835873604E-003;
2.417000000000000E+009;2.025628238916397E-001;-4.264943674206734E-002;-2.886445028707385E-003;5.872198846191168E-003;
2.417166666666667E+009;2.022103816270828E-001;-4.260339960455895E-002;-2.448437036946416E-003;6.003121379762888E-003;
2.417333333333334E+009;2.019554078578949E-001;-4.240285977721214E-002;-2.118509262800217E-003;5.884516984224320E-003;
2.417500000000000E+009;2.016212642192841E-001;-4.254573583602905E-002;-1.734126359224320E-003;5.880540236830711E-003;
2.417666666666667E+009;2.011091262102127E-001;-4.249316081404686E-002;-1.625891891308129E-003;5.890218075364828E-003;
2.417833333333334E+009;2.005760669708252E-001;-4.230901226401329E-002;-1.267020590603352E-003;5.629529710859060E-003;
2.418000000000000E+009;1.998761147260666E-001;-4.205014184117317E-002;-1.079279347322881E-003;5.578937474638224E-003;
2.418166666666667E+009;1.990344226360321E-001;-4.199089109897614E-002;-6.765610305592418E-004;5.491063464432955E-003;
2.418333333333334E+009;1.980762183666229E-001;-4.191542789340019E-002;-3.735327627509832E-004;5.340050905942917E-003;
2.418500000000000E+009;1.970384269952774E-001;-4.197688773274422E-002;-3.075371787417680E-004;5.215348210185766E-003;
2.418666666666667E+009;1.960642039775848E-001;-4.199728742241859E-002;-2.833646476574359E-006;5.111216567456722E-003;
2.418833333333334E+009;1.947460323572159E-001;-4.217153042554855E-002;1.420382614014670E-004;4.729300271719694E-003;
2.419000000000000E+009;1.934496611356735E-001;-4.236110672354698E-002;2.881121763493866E-004;4.705057945102453E-003;
2.419166666666667E+009;1.921405792236328E-001;-4.267257824540138E-002;3.863621386699379E-004;4.454044159501791E-003;
2.419333333333334E+009;1.907669007778168E-001;-4.318633303046227E-002;3.253161557950079E-004;4.259702749550343E-003;
2.419500000000000E+009;1.892921626567841E-001;-4.378120601177216E-002;4.716392722912133E-004;4.129615612328053E-003;
2.419666666666667E+009;1.877125799655914E-001;-4.448148980736733E-002;5.655380664393306E-004;4.034453537315130E-003;
2.419833333333334E+009;1.860534846782684E-001;-4.508088529109955E-002;5.074577638879418E-004;3.753891913220286E-003;
2.420000000000000E+009;1.845178157091141E-001;-4.600169882178307E-002;5.550872301682830E-004;3.658093744888902E-003;
2.420166666666667E+009;1.830102801322937E-001;-4.692205786705017E-002;4.681400896515697E-004;3.397138556465507E-003;
2.420333333333334E+009;1.813065260648727E-001;-4.821756854653359E-002;5.359762581065297E-004;3.512164345011115E-003;
2.420500000000000E+009;1.796948611736298E-001;-4.952547326683998E-002;5.991274374537170E-004;3.402750007808209E-003;
2.420666666666667E+009;1.779949665069580E-001;-5.072205513715744E-002;5.360008217394352E-004;3.469601506367326E-003;
2.420833333333334E+009;1.764321625232697E-001;-5.222624167799950E-002;6.082154577597976E-004;3.237400203943253E-003;
2.421000000000000E+009;1.750030666589737E-001;-5.366870388388634E-002;4.618790117092431E-004;3.272165078669787E-003;
2.421166666666667E+009;1.736767292022705E-001;-5.529147386550903E-002;5.077833193354309E-004;3.181621897965670E-003;
2.421333333333334E+009;1.721519678831101E-001;-5.692323297262192E-002;4.986627609468997E-004;3.103001974523068E-003;
2.421500000000000E+009;1.709177196025848E-001;-5.866070836782455E-002;4.399264871608466E-004;3.091484773904085E-003;
2.421666666666667E+009;1.695294827222824E-001;-6.048553064465523E-002;4.859803593717516E-004;2.971125766634941E-003;
2.421833333333334E+009;1.685666292905808E-001;-6.244065240025520E-002;5.765227833762765E-004;2.840043976902962E-003;
2.422000000000000E+009;1.674859374761581E-001;-6.430235505104065E-002;4.830674733966589E-004;2.891479991376400E-003;
2.422166666666667E+009;1.666552722454071E-001;-6.631270051002502E-002;5.564752500504255E-004;2.850676421076059E-003;
2.422333333333334E+009;1.657287627458572E-001;-6.841102242469788E-002;5.057129310443997E-004;2.809076802805066E-003;
2.422500000000000E+009;1.650428920984268E-001;-7.030110061168671E-002;4.741969460155815E-004;2.958655124530196E-003;
2.422666666666667E+009;1.641718149185181E-001;-7.232423126697540E-002;4.727969353552908E-004;2.729127882048488E-003;
2.422833333333334E+009;1.639552861452103E-001;-7.432693988084793E-002;4.671706119552255E-004;2.816209569573402E-003;
2.423000000000000E+009;1.635073572397232E-001;-7.630742341279984E-002;4.616848600562662E-004;2.877684077247977E-003;
2.423166666666667E+009;1.630930155515671E-001;-7.812283188104630E-002;5.084091681055725E-004;2.920580329373479E-003;
2.423333333333334E+009;1.628283858299255E-001;-8.021906763315201E-002;5.034030764363706E-004;2.830049023032188E-003;
2.423500000000000E+009;1.628160327672958E-001;-8.181451261043549E-002;4.032674478366971E-004;2.754934597760439E-003;
2.423666666666667E+009;1.629733890295029E-001;-8.387058228254318E-002;2.416182833258063E-004;2.873492194339633E-003;
2.423833333333334E+009;1.628993600606918E-001;-8.549649268388748E-002;2.009428862947971E-004;2.831807592883706E-003;
2.424000000000000E+009;1.628634929656982E-001;-8.720010519027710E-002;1.847811072366312E-004;2.850107150152326E-003;
2.424166666666667E+009;1.629659980535507E-001;-8.871233463287354E-002;2.310420677531511E-004;3.015013411641121E-003;
2.424333333333334E+009;1.632987707853317E-001;-9.012514352798462E-002;2.387336717220023E-004;3.197386628016830E-003;
2.424500000000000E+009;1.635954380035400E-001;-9.187830984592438E-002;2.107374311890453E-004;3.305083140730858E-003;
2.424666666666667E+009;1.639229059219360E-001;-9.315887838602066E-002;9.263543324777857E-005;3.469495335593820E-003;
2.424833333333334E+009;1.646069437265396E-001;-9.444239735603333E-002;3.615391324274242E-004;3.493452677503228E-003;
2.425000000000000E+009;1.648569554090500E-001;-9.559677541255951E-002;4.072826704941690E-004;3.756591584533453E-003;
2.425166666666667E+009;1.651289016008377E-001;-9.657891094684601E-002;7.405600044876337E-004;3.753047902137041E-003;
2.425333333333334E+009;1.655758470296860E-001;-9.753316640853882E-002;7.700480055063963E-004;3.822873113676906E-003;
2.425500000000000E+009;1.659340858459473E-001;-9.847076982259750E-002;9.565493091940880E-004;4.105641506612301E-003;
2.425666666666667E+009;1.662295460700989E-001;-9.910415858030319E-002;1.085246680304408E-003;4.005481489002705E-003;
2.425833333333334E+009;1.666350811719894E-001;-9.991037100553513E-002;1.225553103722632E-003;4.093593917787075E-003;
2.426000000000000E+009;1.671697944402695E-001;-1.003909111022949E-001;1.329972874373198E-003;4.236169625073671E-003;
2.426166666666667E+009;1.673745959997177E-001;-1.009190455079079E-001;1.723334775306284E-003;4.193648230284452E-003;
2.426333333333334E+009;1.675073206424713E-001;-1.013808548450470E-001;1.907527330331504E-003;4.253197461366653E-003;
2.426500000000000E+009;1.679414361715317E-001;-1.016496419906616E-001;2.062358893454075E-003;4.173533990979195E-003;
2.426666666666667E+009;1.680339723825455E-001;-1.019665747880936E-001;2.223055576905608E-003;4.055469296872616E-003;
2.426833333333334E+009;1.682494431734085E-001;-1.022360920906067E-001;2.569596748799086E-003;4.053054843097925E-003;
2.427000000000000E+009;1.682869046926498E-001;-1.024278923869133E-001;2.697704825550318E-003;4.151630215346813E-003;
2.427166666666667E+009;1.682415157556534E-001;-1.026082113385201E-001;2.819806337356567E-003;4.004784394055605E-003;
2.427333333333334E+009;1.680823117494583E-001;-1.027558818459511E-001;2.966280560940504E-003;3.956563305109739E-003;
2.427500000000000E+009;1.678362041711807E-001;-1.030057594180107E-001;3.142590168863535E-003;3.833401016891003E-003;
2.427666666666667E+009;1.674908250570297E-001;-1.029694303870201E-001;3.285020356997848E-003;3.685322124511004E-003;
