# Version 1.00
#
freq[Hz];re:Trc1_S11;im:Trc1_S11;re:Trc2_S21;im:Trc2_S21;
2.400000000000000E+009;1.551314741373062E-001;1.066322773694992E-001;2.287932205945253E-003;-5.906037054955959E-003;
2.400166666666667E+009;1.549343317747116E-001;1.042820811271668E-001;2.020304091274738E-003;-5.878563039004803E-003;
2.400333333333334E+009;1.550744324922562E-001;1.019524261355400E-001;1.903374795801938E-003;-6.017587147653103E-003;
2.400500000000000E+009;1.550256013870239E-001;9.908811748027802E-002;1.706976909190416E-003;-5.987943615764380E-003;
2.400666666666667E+009;1.551444977521896E-001;9.674116224050522E-002;1.756712095811963E-003;-6.032146979123354E-003;
2.400833333333334E+009;1.553375720977783E-001;9.378916770219803E-002;1.395217841491103E-003;-6.121049635112286E-003;
2.401000000000000E+009;1.556342393159866E-001;9.102603793144226E-002;1.312897540628910E-003;-6.312628276646137E-003;
2.401166666666667E+009;1.554863005876541E-001;8.837191015481949E-002;1.170345116406679E-003;-6.414657458662987E-003;
2.401333333333334E+009;1.560043692588806E-001;8.545228838920593E-002;9.425282478332520E-004;-6.394129712134600E-003;
2.401500000000000E+009;1.564921736717224E-001;8.252184092998505E-002;7.571537862531841E-004;-6.474445573985577E-003;
2.401666666666667E+009;1.570299565792084E-001;7.963205128908157E-002;2.795629843603820E-004;-6.525276228785515E-003;
2.401833333333334E+009;1.576071977615356E-001;7.691092044115067E-002;4.822946721105836E-005;-6.661001592874527E-003;
2.402000000000000E+009;1.584897190332413E-001;7.421035319566727E-002;-3.123618371319026E-004;-6.722887977957726E-003;
2.402166666666667E+009;1.593342721462250E-001;7.158099114894867E-002;-5.627617356367409E-004;-6.783389952033758E-003;
2.402333333333334E+009;1.601495146751404E-001;6.888150423765183E-002;-9.464240283705294E-004;-6.598886102437973E-003;
2.402500000000000E+009;1.614728569984436E-001;6.649363040924072E-002;-1.212984207086265E-003;-6.527755875140429E-003;
2.402666666666667E+009;1.626116931438446E-001;6.412754207849503E-002;-1.651998958550394E-003;-6.546262186020613E-003;
2.402833333333334E+009;1.638215780258179E-001;6.173628196120262E-002;-2.013307530432940E-003;-6.378882564604282E-003;
2.403000000000000E+009;1.652139425277710E-001;5.933953821659088E-002;-2.416361821815372E-003;-6.098042707890272E-003;
2.403166666666667E+009;1.669730693101883E-001;5.711372941732407E-002;-2.646469045430422E-003;-5.817255005240440E-003;
2.403333333333334E+009;1.683879792690277E-001;5.501573160290718E-002;-3.017722861841321E-003;-5.640991963446140E-003;
2.403500000000000E+009;1.699078977108002E-001;5.303706973791122E-002;-3.065040800720453E-003;-5.418995395302773E-003;
2.403666666666667E+009;1.718045175075531E-001;5.117643624544144E-002;-3.312669228762388E-003;-4.924374632537365E-003;
2.403833333333334E+009;1.734416335821152E-001;4.948534443974495E-002;-3.446769202128053E-003;-4.455984570086002E-003;
2.404000000000000E+009;1.749008595943451E-001;4.749119654297829E-002;-3.563716309145093E-003;-4.063580650836229E-003;
2.404166666666667E+009;1.765904724597931E-001;4.624104499816895E-002;-3.714108141139150E-003;-3.864872967824340E-003;
2.404333333333334E+009;1.781276166439056E-001;4.469052329659462E-002;-3.724887734279037E-003;-3.615185618400574E-003;
2.404500000000000E+009;1.796962618827820E-001;4.332456737756729E-002;-3.570447908714414E-003;-3.261510049924254E-003;
2.404666666666667E+009;1.813162714242935E-001;4.233852773904800E-002;-3.522615879774094E-003;-2.949661808088422E-003;
2.404833333333334E+009;1.830489486455917E-001;4.124300181865692E-002;-3.480582963675261E-003;-2.890541683882475E-003;
2.405000000000000E+009;1.844696998596191E-001;4.064232483506203E-002;-3.420448163524270E-003;-2.616384299471974E-003;
2.405166666666667E+009;1.859088987112045E-001;4.004781320691109E-002;-3.148710122331977E-003;-2.440185518935323E-003;
2.405333333333334E+009;1.872408837080002E-001;3.941453620791435E-002;-3.160380059853196E-003;-2.390019828453660E-003;
2.405500000000000E+009;1.885147094726563E-001;3.911645710468292E-002;-3.021680749952793E-003;-2.171041909605265E-003;
2.405666666666667E+009;1.897255182266235E-001;3.869557008147240E-002;-3.066801233217120E-003;-2.296596299856901E-003;
2.405833333333334E+009;1.910484433174133E-001;3.843776136636734E-002;-2.827761694788933E-003;-2.116553252562881E-003;
2.406000000000000E+009;1.919455528259277E-001;3.830991312861443E-002;-2.829695586115122E-003;-2.080308506265283E-003;
2.406166666666667E+009;1.928538680076599E-001;3.813520446419716E-002;-2.921476727351546E-003;-1.910464721731842E-003;
2.406333333333334E+009;1.938526481389999E-001;3.804165124893189E-002;-2.765822457149625E-003;-2.047017682343721E-003;
2.406500000000000E+009;1.945660561323166E-001;3.817370906472206E-002;-2.628636080771685E-003;-1.739019062370062E-003;
2.406666666666667E+009;1.952551901340485E-001;3.810597956180573E-002;-2.617750316858292E-003;-1.636751228943467E-003;
2.406833333333334E+009;1.957121193408966E-001;3.808348625898361E-002;-2.562253270298243E-003;-1.597309485077858E-003;
2.407000000000000E+009;1.958777010440826E-001;3.834556415677071E-002;-2.515383763238788E-003;-1.692179124802351E-003;
2.407166666666667E+009;1.963015496730804E-001;3.805179148912430E-002;-2.409851644188166E-003;-1.521604019217193E-003;
2.407333333333334E+009;1.961193084716797E-001;3.817589208483696E-002;-2.298908773809671E-003;-1.492986571975052E-003;
2.407500000000000E+009;1.960274130105972E-001;3.824623674154282E-002;-2.220008289441466E-003;-1.478338846936822E-003;
2.407666666666667E+009;1.960968375205994E-001;3.813850879669190E-002;-1.935824635438621E-003;-1.658692257478833E-003;
2.407833333333334E+009;1.956142187118530E-001;3.794277459383011E-002;-1.984226284548640E-003;-1.564433798193932E-003;
2.408000000000000E+009;1.954426169395447E-001;3.762502968311310E-002;-1.873878063634038E-003;-1.869001425802708E-003;
2.408166666666667E+009;1.948470175266266E-001;3.741660714149475E-002;-1.887486665509641E-003;-1.872398890554905E-003;
2.408333333333334E+009;1.943502575159073E-001;3.675135970115662E-002;-1.797618228010833E-003;-2.104524057358503E-003;
2.408500000000000E+009;1.935993432998657E-001;3.634787723422051E-002;-1.727161463350058E-003;-2.093076007440686E-003;
2.408666666666667E+009;1.930626034736633E-001;3.580245748162270E-002;-1.700084307231009E-003;-2.244308590888977E-003;
2.408833333333334E+009;1.923388242721558E-001;3.500831872224808E-002;-1.833333517424762E-003;-2.371379407122731E-003;
2.409000000000000E+009;1.913161873817444E-001;3.402027115225792E-002;-1.808275119401515E-003;-2.446849830448628E-003;
2.409166666666667E+009;1.903747618198395E-001;3.292486444115639E-002;-2.013990422710776E-003;-2.585784066468477E-003;
2.409333333333334E+009;1.894803643226624E-001;3.203794360160828E-002;-2.071777358651161E-003;-2.689991146326065E-003;
2.409500000000000E+009;1.885583102703095E-001;3.059345670044422E-002;-2.173496177420020E-003;-2.884527668356895E-003;
2.409666666666667E+009;1.873462945222855E-001;2.911149710416794E-002;-2.516154665499926E-003;-2.965440973639488E-003;
2.409833333333334E+009;1.863044947385788E-001;2.765332721173763E-002;-2.628641901537776E-003;-2.971943235024810E-003;
2.410000000000000E+009;1.853388547897339E-001;2.585472539067268E-002;-2.741659991443157E-003;-3.051928710192442E-003;
2.410166666666667E+009;1.845397502183914E-001;2.418826892971993E-002;-2.868833253160119E-003;-2.998827723786235E-003;
2.410333333333334E+009;1.836279183626175E-001;2.230100892484188E-002;-2.989573869854212E-003;-3.026923630386591E-003;
2.410500000000000E+009;1.826465874910355E-001;2.019855938851833E-002;-3.359074704349041E-003;-2.922445069998503E-003;
2.410666666666667E+009;1.817599087953568E-001;1.804153434932232E-002;-3.459102474153042E-003;-3.027491504326463E-003;
2.410833333333334E+009;1.810464859008789E-001;1.593904756009579E-002;-3.488621441647410E-003;-2.892966615036130E-003;
2.411000000000000E+009;1.804903745651245E-001;1.366586983203888E-002;-3.727342234924436E-003;-2.951367525383830E-003;
2.411166666666667E+009;1.797116994857788E-001;1.143261883407831E-002;-3.989791497588158E-003;-3.070541424676776E-003;
2.411333333333334E+009;1.793043911457062E-001;8.783257566392422E-003;-4.098826088011265E-003;-2.878295723348856E-003;
2.411500000000000E+009;1.787664890289307E-001;6.473198067396879E-003;-4.297677427530289E-003;-2.853218466043472E-003;
2.411666666666667E+009;1.784659922122955E-001;4.333660006523132E-003;-4.439949057996273E-003;-2.995565533638001E-003;
2.411833333333334E+009;1.784930825233460E-001;1.749518327414990E-003;-4.857965745031834E-003;-2.748807426542044E-003;
2.412000000000000E+009;1.784843206405640E-001;-6.471195374615490E-004;-4.937836900353432E-003;-2.583068329840899E-003;
2.412166666666667E+009;1.786416918039322E-001;-2.998118521645665E-003;-5.227624904364348E-003;-2.581833396106958E-003;
2.412333333333334E+009;1.788110584020615E-001;-5.488429684191942E-003;-5.516809877008200E-003;-2.240338828414679E-003;
2.412500000000000E+009;1.792382895946503E-001;-7.963829673826695E-003;-5.791179370135069E-003;-2.136395545676351E-003;
2.412666666666667E+009;1.797232478857040E-001;-1.039331126958132E-002;-5.953814834356308E-003;-1.954262377694249E-003;
2.412833333333334E+009;1.805094331502914E-001;-1.260970998555422E-002;-6.336485501378775E-003;-1.775033539161086E-003;
2.413000000000000E+009;1.812244504690170E-001;-1.502423640340567E-002;-6.547233089804649E-003;-1.310929539613426E-003;
2.413166666666667E+009;1.820220500230789E-001;-1.717967726290226E-002;-6.747616920620203E-003;-1.251258188858628E-003;
2.413333333333334E+009;1.829796582460403E-001;-1.944584771990776E-002;-6.878094282001257E-003;-7.320496952161193E-004;
2.413500000000000E+009;1.838277578353882E-001;-2.158122323453426E-002;-7.229304872453213E-003;-4.230154154356569E-004;
2.413666666666667E+009;1.851385831832886E-001;-2.363315038383007E-002;-7.357467897236347E-003;-5.833909744978882E-005;
2.413833333333334E+009;1.860085576772690E-001;-2.556372992694378E-002;-7.450924254953861E-003;4.656133532989770E-004;
2.414000000000000E+009;1.871259510517120E-001;-2.757016941905022E-002;-7.335154805332422E-003;9.556038421578705E-004;
2.414166666666667E+009;1.884581595659256E-001;-2.920500002801418E-002;-7.384352851659060E-003;1.512759947218001E-003;
2.414333333333334E+009;1.895868778228760E-001;-3.124962933361530E-002;-7.153983693569899E-003;1.927535515278578E-003;
2.414500000000000E+009;1.908320188522339E-001;-3.250968456268311E-002;-7.051696535199881E-003;2.259893342852593E-003;
2.414666666666667E+009;1.918988078832626E-001;-3.403256833553314E-002;-6.821839138865471E-003;2.753157401457429E-003;
2.414833333333334E+009;1.931272000074387E-001;-3.534749895334244E-002;-6.752726156264544E-003;3.249215427786112E-003;
2.415000000000000E+009;1.942597776651382E-001;-3.658142685890198E-002;-6.391228642314673E-003;3.492413321509957E-003;
2.415166666666667E+009;1.955200135707855E-001;-3.773802891373634E-002;-6.006825249642134E-003;3.937243018299341E-003;
2.415333333333334E+009;1.967109143733978E-001;-3.861999139189720E-002;-5.870481487363577E-003;4.014110192656517E-003;
2.415500000000000E+009;1.976113468408585E-001;-3.927042707800865E-002;-5.579289514571428E-003;4.292609170079231E-003;
2.415666666666667E+009;1.986820995807648E-001;-4.004915431141853E-002;-5.297968164086342E-003;4.387585911899805E-003;
2.415833333333334E+009;1.993980705738068E-001;-4.056264460086823E-002;-5.131387151777744E-003;4.698283970355988E-003;
2.416000000000000E+009;2.002247422933579E-001;-4.123355075716972E-002;-4.753285553306341E-003;4.911179188638926E-003;
2.416166666666667E+009;2.009723782539368E-001;-4.179909825325012E-002;-4.614735487848520E-003;5.149675998836756E-003;
2.416333333333334E+009;2.016181200742722E-001;-4.195313155651093E-002;-4.315517842769623E-003;5.359523929655552E-003;
2.416500000000000E+009;2.020039111375809E-001;-4.228965938091278E-002;-4.027293995022774E-003;5.570414476096630E-003;
2.416666666666667E+009;2.022653520107269E-001;-4.262180626392365E-002;-3.707705531269312E-003;5.699595436453819E-003;
2.416833333333334E+009;2.023679912090302E-001;-4.263238981366158E-002;-3.176246536895633E-003;5.772843956947327E-003;
2.417000000000000E+009;2.023635059595108E-001;-4.284989833831787E-002;-2.972413087263703E-003;5.860365927219391E-003;
2.417166666666667E+009;2.021507024765015E-001;-4.273260757327080E-002;-2.581748878583312E-003;5.956506356596947E-003;
2.417333333333334E+009;2.019734829664230E-001;-4.266983270645142E-002;-2.156543079763651E-003;5.957042332738638E-003;
2.417500000000000E+009;2.016709297895432E-001;-4.274014011025429E-002;-1.969322795048356E-003;5.718457512557507E-003;
2.417666666666667E+009;2.010476142168045E-001;-4.253743216395378E-002;-1.600463525392115E-003;5.684180185198784E-003;
2.417833333333334E+009;2.005173116922379E-001;-4.243753477931023E-002;-1.300936448387802E-003;5.696430336683989E-003;
2.418000000000000E+009;1.997665166854858E-001;-4.221168160438538E-002;-8.910401957109571E-004;5.643194541335106E-003;
2.418166666666667E+009;1.990215331315994E-001;-4.213545843958855E-002;-7.005826337262988E-004;5.465534515678883E-003;
2.418333333333334E+009;1.980636119842529E-001;-4.208369180560112E-002;-4.454986774362624E-004;5.426113493740559E-003;
2.418500000000000E+009;1.970212310552597E-001;-4.211062192916870E-002;-4.419031029101461E-004;5.082926712930203E-003;
2.418666666666667E+009;1.960359215736389E-001;-4.207817465066910E-002;-6.945381755940616E-005;4.868465941399336E-003;
2.418833333333334E+009;1.948413997888565E-001;-4.234442487359047E-002;1.195283475681208E-004;4.789183847606182E-003;
2.419000000000000E+009;1.932854056358337E-001;-4.256892576813698E-002;1.445969683118165E-004;4.672193434089422E-003;
2.419166666666667E+009;1.921314448118210E-001;-4.292188957333565E-002;3.907798381987959E-004;4.314379766583443E-003;
2.419333333333334E+009;1.908337175846100E-001;-4.337316751480103E-002;4.021442146040499E-004;4.314448684453964E-003;
2.419500000000000E+009;1.891913712024689E-001;-4.378843680024147E-002;4.980699159204960E-004;4.064369015395641E-003;
2.419666666666667E+009;1.875601559877396E-001;-4.460630193352699E-002;5.184068577364087E-004;4.149014130234718E-003;
2.419833333333334E+009;1.859783530235291E-001;-4.528512433171272E-002;4.505938850343227E-004;3.702463582158089E-003;
2.420000000000000E+009;1.844464689493179E-001;-4.608035087585449E-002;5.321502103470266E-004;3.697467502206564E-003;
2.420166666666667E+009;1.828542649745941E-001;-4.721421748399735E-002;4.657987155951560E-004;3.528502536937594E-003;
2.420333333333334E+009;1.812555491924286E-001;-4.837026074528694E-002;4.462366923689842E-004;3.560333512723446E-003;
2.420500000000000E+009;1.796118617057800E-001;-4.965669661760330E-002;4.386991495266557E-004;3.469863208010793E-003;
2.420666666666667E+009;1.779514998197556E-001;-5.092617124319077E-002;5.586343468166888E-004;3.390025114640594E-003;
2.420833333333334E+009;1.764540076255798E-001;-5.240780487656593E-002;4.779757291544229E-004;3.243219805881381E-003;
2.421000000000000E+009;1.750759780406952E-001;-5.374196544289589E-002;5.660213646478951E-004;3.226191038265824E-003;
2.421166666666667E+009;1.736637204885483E-001;-5.546097084879875E-002;4.975746269337833E-004;3.182178363204002E-003;
2.421333333333334E+009;1.720065027475357E-001;-5.703805759549141E-002;4.527161363512278E-004;3.140785032883287E-003;
2.421500000000000E+009;1.706628650426865E-001;-5.908209830522537E-002;4.930724971927702E-004;3.071577753871679E-003;
2.421666666666667E+009;1.695633977651596E-001;-6.067174300551415E-002;5.733332363888621E-004;3.121782327070832E-003;
2.421833333333334E+009;1.683089137077332E-001;-6.261682510375977E-002;4.996687057428062E-004;2.975184237584472E-003;
2.422000000000000E+009;1.672853976488113E-001;-6.438948959112167E-002;4.458470793906599E-004;2.994181355461478E-003;
2.422166666666667E+009;1.665347069501877E-001;-6.643106043338776E-002;5.197514547035098E-004;2.921504899859428E-003;
2.422333333333334E+009;1.656587421894074E-001;-6.868256628513336E-002;4.753518442157656E-004;2.808431861922145E-003;
2.422500000000000E+009;1.648495495319367E-001;-7.048168033361435E-002;4.039096529595554E-004;2.896817168220878E-003;
2.422666666666667E+009;1.642101407051086E-001;-7.241289317607880E-002;5.281463381834328E-004;2.892089774832130E-003;
2.422833333333334E+009;1.637697219848633E-001;-7.444499433040619E-002;5.034304922446609E-004;2.896470716223121E-003;
2.423000000000000E+009;1.632048189640045E-001;-7.641746103763580E-002;4.746282356791198E-004;2.840725239366293E-003;
2.423166666666667E+009;1.627806872129440E-001;-7.836078107357025E-002;3.904367331415415E-004;2.819977933540940E-003;
2.423333333333334E+009;1.627121120691299E-001;-8.026656508445740E-002;3.389924240764231E-004;2.679897937923670E-003;
2.423500000000000E+009;1.626347750425339E-001;-8.188686519861221E-002;2.294725709361956E-004;2.783025847747922E-003;
2.423666666666667E+009;1.627982258796692E-001;-8.386100083589554E-002;2.906640293076634E-004;2.777224639430642E-003;
2.423833333333334E+009;1.625792086124420E-001;-8.569078892469406E-002;2.765772806014866E-004;2.843670314177871E-003;
2.424000000000000E+009;1.627270132303238E-001;-8.721139281988144E-002;3.333407221361995E-004;3.028295934200287E-003;
2.424166666666667E+009;1.629959195852280E-001;-8.887297660112381E-002;2.136499824700877E-004;3.103573573753238E-003;
2.424333333333334E+009;1.631809026002884E-001;-9.028690308332443E-002;1.412858546245843E-004;3.106480697169900E-003;
2.424500000000000E+009;1.635327786207199E-001;-9.196455776691437E-002;2.361063816351816E-004;3.346350742504001E-003;
2.424666666666667E+009;1.637457013130188E-001;-9.330973774194717E-002;2.371978334849700E-004;3.487782320007682E-003;
2.424833333333334E+009;1.644298583269119E-001;-9.448561817407608E-002;3.690630837809295E-004;3.805687185376883E-003;
2.425000000000000E+009;1.646446138620377E-001;-9.564622491598129E-002;4.391657130327076E-004;3.717533079907298E-003;
2.425166666666667E+009;1.650044023990631E-001;-9.670677036046982E-002;5.726938252337277E-004;3.815708449110389E-003;
2.425333333333334E+009;1.654413491487503E-001;-9.763040393590927E-002;7.541821687482297E-004;3.936122171580792E-003;
2.425500000000000E+009;1.657071560621262E-001;-9.854640066623688E-002;8.444919949397445E-004;4.096208140254021E-003;
2.425666666666667E+009;1.661639511585236E-001;-9.917303174734116E-002;9.981233160942793E-004;4.148096777498722E-003;
2.425833333333334E+009;1.663886606693268E-001;-1.000187918543816E-001;1.250463072210550E-003;4.137096926569939E-003;
2.426000000000000E+009;1.667884886264801E-001;-1.004154235124588E-001;1.489214948378503E-003;4.217735957354307E-003;
2.426166666666667E+009;1.673150360584259E-001;-1.009719148278236E-001;1.709496020339429E-003;4.328739829361439E-003;
2.426333333333334E+009;1.672892868518829E-001;-1.014365106821060E-001;1.854740898124874E-003;4.164502955973148E-003;
2.426500000000000E+009;1.675702184438705E-001;-1.016855984926224E-001;2.034527715295553E-003;4.221711307764053E-003;
2.426666666666667E+009;1.679155975580216E-001;-1.019984781742096E-001;2.121160039678216E-003;4.176129586994648E-003;
2.426833333333334E+009;1.680606603622437E-001;-1.023042649030685E-001;2.377079101279378E-003;4.145526792854071E-003;
2.427000000000000E+009;1.680184751749039E-001;-1.024806722998619E-001;2.577817533165216E-003;4.079584032297134E-003;
2.427166666666667E+009;1.679896712303162E-001;-1.026139184832573E-001;2.751556690782309E-003;3.937645815312862E-003;
2.427333333333334E+009;1.679015606641769E-001;-1.027881801128388E-001;2.905819099396467E-003;3.848763648420572E-003;
2.427500000000000E+009;1.675489097833633E-001;-1.029786467552185E-001;3.189366543665528E-003;3.854841692373157E-003;
2.427666666666667E+009;1.673136651515961E-001;-1.029635444283485E-001;3.148365067318082E-003;3.778364276513457E-003;
