# Version 1.00
#
freq[Hz];re:Trc1_S11;im:Trc1_S11;re:Trc2_S21;im:Trc2_S21;
2.400000000000000E+009;1.688002496957779E-001;4.629906266927719E-002;-3.030305728316307E-003;5.509071983397007E-003;
2.400166666666667E+009;1.699557155370712E-001;4.548710957169533E-002;-2.816683845594525E-003;5.629687570035458E-003;
2.400333333333334E+009;1.707357913255692E-001;4.415282979607582E-002;-2.571380930021405E-003;5.696792155504227E-003;
2.400500000000000E+009;1.718203574419022E-001;4.318818077445030E-002;-2.325700595974922E-003;5.835506599396467E-003;
2.400666666666667E+009;1.725775450468063E-001;4.221584275364876E-002;-1.962581649422646E-003;5.861363373696804E-003;
2.400833333333334E+009;1.736019402742386E-001;4.151190072298050E-002;-1.645391224883497E-003;5.879016593098640E-003;
2.401000000000000E+009;1.743389666080475E-001;4.070826992392540E-002;-1.227333210408688E-003;5.788325797766447E-003;
2.401166666666667E+009;1.751697510480881E-001;3.957048058509827E-002;-8.522653370164335E-004;5.877675022929907E-003;
2.401333333333334E+009;1.757371723651886E-001;3.921391814947128E-002;-6.326174479909241E-004;5.656624678522348E-003;
2.401500000000000E+009;1.765258759260178E-001;3.861898556351662E-002;-7.283794693648815E-004;5.756720900535584E-003;
2.401666666666667E+009;1.771383136510849E-001;3.793459385633469E-002;-6.704196130158380E-005;5.714300554245710E-003;
2.401833333333334E+009;1.774627864360809E-001;3.728510066866875E-002;1.623252173885703E-004;5.577897187322378E-003;
2.402000000000000E+009;1.778666228055954E-001;3.678287565708160E-002;2.424047270324081E-004;5.562096368521452E-003;
2.402166666666667E+009;1.785540729761124E-001;3.609204292297363E-002;5.919301183894277E-004;5.419699475169182E-003;
2.402333333333334E+009;1.787782907485962E-001;3.564814478158951E-002;8.685978827998042E-004;5.194703582674265E-003;
2.402500000000000E+009;1.792384237051010E-001;3.499756380915642E-002;1.039876951836050E-003;5.070975515991449E-003;
2.402666666666667E+009;1.794340312480927E-001;3.445760905742645E-002;1.517775352112949E-003;4.994059912860394E-003;
2.402833333333334E+009;1.794969886541367E-001;3.381947427988052E-002;1.577985240146518E-003;4.911174066364765E-003;
2.403000000000000E+009;1.795599609613419E-001;3.312962129712105E-002;1.840327982790768E-003;4.627608228474855E-003;
2.403166666666667E+009;1.794838011264801E-001;3.225224465131760E-002;1.971419900655747E-003;4.242828581482172E-003;
2.403333333333334E+009;1.794303506612778E-001;3.145037218928337E-002;2.100019250065088E-003;3.993846476078033E-003;
2.403500000000000E+009;1.791585683822632E-001;3.052140399813652E-002;2.294230973348022E-003;3.720200387760997E-003;
2.403666666666667E+009;1.788493394851685E-001;2.952973730862141E-002;2.460664371028543E-003;3.596581052988768E-003;
2.403833333333334E+009;1.787702143192291E-001;2.848732843995094E-002;2.370565431192517E-003;3.463788190856576E-003;
2.404000000000000E+009;1.783289462327957E-001;2.739103138446808E-002;2.415847498923540E-003;2.978200791403651E-003;
2.404166666666667E+009;1.779001206159592E-001;2.618090808391571E-002;2.386730629950762E-003;2.833284437656403E-003;
2.404333333333334E+009;1.775636374950409E-001;2.511919848620892E-002;2.404169412329793E-003;2.443644218146801E-003;
2.404500000000000E+009;1.768640577793121E-001;2.363158948719502E-002;2.419272204861045E-003;2.323894528672099E-003;
2.404666666666667E+009;1.765094101428986E-001;2.217320539057255E-002;2.261899178847671E-003;2.056162571534514E-003;
2.404833333333334E+009;1.760697662830353E-001;2.079645358026028E-002;2.303066896274686E-003;1.868158346042037E-003;
2.405000000000000E+009;1.755794435739517E-001;1.927951350808144E-002;2.027691341936588E-003;1.565476413816214E-003;
2.405166666666667E+009;1.751191467046738E-001;1.771191135048866E-002;1.850992324762046E-003;1.474541961215437E-003;
2.405333333333334E+009;1.746816337108612E-001;1.590255275368691E-002;1.525214407593012E-003;1.362819690257311E-003;
2.405500000000000E+009;1.741663962602615E-001;1.433038339018822E-002;1.858636387623847E-003;1.201844890601933E-003;
2.405666666666667E+009;1.737116575241089E-001;1.259887404739857E-002;1.435572747141123E-003;1.203309511765838E-003;
2.405833333333334E+009;1.733026951551437E-001;1.076356694102287E-002;1.381140784360468E-003;1.183413318358362E-003;
2.406000000000000E+009;1.730988323688507E-001;8.777960203588009E-003;1.060519949533045E-003;1.059688627719879E-003;
2.406166666666667E+009;1.726774573326111E-001;6.984075997024775E-003;1.017332659102976E-003;1.247738953679800E-003;
2.406333333333334E+009;1.725425422191620E-001;4.988716915249825E-003;8.625684422440827E-004;1.263040467165411E-003;
2.406500000000000E+009;1.724171191453934E-001;2.959362464025617E-003;6.309890886768699E-004;1.314959488809109E-003;
2.406666666666667E+009;1.721277087926865E-001;9.990113321691752E-004;6.689180736429989E-004;1.246686908416450E-003;
2.406833333333334E+009;1.722083538770676E-001;-1.092948950827122E-003;7.040289929136634E-004;1.319575589150190E-003;
2.407000000000000E+009;1.723336875438690E-001;-3.216955577954650E-003;5.964806769043207E-004;1.344813499599695E-003;
2.407166666666667E+009;1.725750863552094E-001;-5.156503058969975E-003;4.362867621239275E-004;1.578949042595923E-003;
2.407333333333334E+009;1.725528985261917E-001;-7.377436384558678E-003;6.353761418722570E-004;1.477761543355882E-003;
2.407500000000000E+009;1.727841049432755E-001;-9.534868411719799E-003;5.515801021829248E-004;1.658650347962976E-003;
2.407666666666667E+009;1.731912046670914E-001;-1.154556311666966E-002;5.440717795863748E-004;1.771883573383093E-003;
2.407833333333334E+009;1.733813285827637E-001;-1.362566277384758E-002;6.376382661983371E-004;1.873541972599924E-003;
2.408000000000000E+009;1.737059056758881E-001;-1.583289727568626E-002;4.723795864265412E-004;1.819673227146268E-003;
2.408166666666667E+009;1.741515249013901E-001;-1.755395904183388E-002;6.445687613449991E-004;2.074884949252009E-003;
2.408333333333334E+009;1.748555004596710E-001;-1.961843110620976E-002;7.133026956580579E-004;1.971181482076645E-003;
2.408500000000000E+009;1.750842332839966E-001;-2.156111039221287E-002;6.750690517947078E-004;2.182643627747893E-003;
2.408666666666667E+009;1.755330413579941E-001;-2.346759662032127E-002;8.422594401054084E-004;2.220218069851399E-003;
2.408833333333334E+009;1.758782416582108E-001;-2.518879994750023E-002;9.522120235487819E-004;2.232503611594439E-003;
2.409000000000000E+009;1.763163655996323E-001;-2.680749632418156E-002;9.110214305110276E-004;2.317891223356128E-003;
2.409166666666667E+009;1.768202632665634E-001;-2.840326726436615E-002;9.777555242180824E-004;2.238115528598428E-003;
2.409333333333334E+009;1.774457097053528E-001;-2.969897352159023E-002;1.072896295227110E-003;2.402431098744273E-003;
2.409500000000000E+009;1.779200434684753E-001;-3.135239705443382E-002;1.223272178322077E-003;2.536104992032051E-003;
2.409666666666667E+009;1.783503890037537E-001;-3.235871717333794E-002;1.270998152904213E-003;2.412650734186173E-003;
2.409833333333334E+009;1.788599789142609E-001;-3.330556675791740E-002;1.243203412741423E-003;2.401957986876369E-003;
2.410000000000000E+009;1.794323623180389E-001;-3.431100770831108E-002;1.482626423239708E-003;2.440147567540407E-003;
2.410166666666667E+009;1.797803193330765E-001;-3.521088510751724E-002;1.617952832020819E-003;2.509887097403407E-003;
2.410333333333334E+009;1.802747696638107E-001;-3.607353568077087E-002;1.711920020170510E-003;2.377328230068088E-003;
2.410500000000000E+009;1.806607246398926E-001;-3.694440051913261E-002;1.682815141975880E-003;2.583008492365480E-003;
2.410666666666667E+009;1.810254901647568E-001;-3.779212385416031E-002;1.892540953122079E-003;2.627081703394651E-003;
2.410833333333334E+009;1.814750730991364E-001;-3.809917345643044E-002;2.020285930484533E-003;2.714449074119330E-003;
2.411000000000000E+009;1.818345934152603E-001;-3.870351240038872E-002;2.105405321344733E-003;2.527314936742187E-003;
2.411166666666667E+009;1.819277703762054E-001;-3.933067247271538E-002;2.242858754470944E-003;2.454363275319338E-003;
2.411333333333334E+009;1.821353882551193E-001;-3.971550613641739E-002;2.490529324859381E-003;2.563670510426164E-003;
2.411500000000000E+009;1.822012066841126E-001;-4.015538096427918E-002;2.563166897743940E-003;2.443446777760983E-003;
2.411666666666667E+009;1.823244243860245E-001;-4.044827073812485E-002;2.742611570283771E-003;2.539305714890361E-003;
2.411833333333334E+009;1.820543408393860E-001;-4.082986339926720E-002;2.937256125733256E-003;2.241385402157903E-003;
2.412000000000000E+009;1.820053309202194E-001;-4.121163859963417E-002;3.234461881220341E-003;2.435188507661223E-003;
2.412166666666667E+009;1.815527379512787E-001;-4.162510484457016E-002;3.202442079782486E-003;2.062122337520123E-003;
2.412333333333334E+009;1.814797073602676E-001;-4.175208881497383E-002;3.304210025817156E-003;2.043762477114797E-003;
2.412500000000000E+009;1.807342022657394E-001;-4.211755841970444E-002;3.391438629478216E-003;2.092368900775909E-003;
2.412666666666667E+009;1.802485436201096E-001;-4.255586862564087E-002;3.669462166726589E-003;1.644998556002975E-003;
2.412833333333334E+009;1.797075271606445E-001;-4.276835173368454E-002;3.577144816517830E-003;1.663315226323903E-003;
2.413000000000000E+009;1.788813173770905E-001;-4.336984455585480E-002;3.818431869149208E-003;1.346171717159450E-003;
2.413166666666667E+009;1.780384629964829E-001;-4.346148669719696E-002;3.824994666501880E-003;1.326794852502644E-003;
2.413333333333334E+009;1.769763380289078E-001;-4.409201443195343E-002;3.626304678618908E-003;9.779466781765223E-004;
2.413500000000000E+009;1.761213988065720E-001;-4.458874464035034E-002;3.957376349717379E-003;8.030675817281008E-004;
2.413666666666667E+009;1.750771999359131E-001;-4.509604722261429E-002;3.836889052763581E-003;7.551123271696270E-004;
2.413833333333334E+009;1.738397330045700E-001;-4.560381919145584E-002;3.751962678506970E-003;6.984513020142913E-004;
2.414000000000000E+009;1.725997477769852E-001;-4.643677547574043E-002;3.735193284228444E-003;3.172856813762337E-004;
2.414166666666667E+009;1.715361773967743E-001;-4.692979902029038E-002;3.539315890520811E-003;3.704202827066183E-004;
2.414333333333334E+009;1.702446490526199E-001;-4.776263982057571E-002;3.577371826395392E-003;1.233834773302078E-004;
2.414500000000000E+009;1.693189889192581E-001;-4.865561798214912E-002;3.551241708919406E-003;1.642451679799706E-004;
2.414666666666667E+009;1.678674519062042E-001;-4.959112405776978E-002;3.636120818555355E-003;1.529499859316275E-004;
2.414833333333334E+009;1.665308475494385E-001;-5.057058855891228E-002;3.489968832582235E-003;9.219999810738955E-006;
2.415000000000000E+009;1.653362959623337E-001;-5.177913978695869E-002;3.666635369881988E-003;1.839012475102209E-005;
2.415166666666667E+009;1.640792042016983E-001;-5.296434462070465E-002;3.536021336913109E-003;-2.605472109280527E-004;
2.415333333333334E+009;1.630116403102875E-001;-5.426819995045662E-002;3.545485204085708E-003;-2.137221163138747E-004;
2.415500000000000E+009;1.617832332849503E-001;-5.565061047673225E-002;3.364096628502011E-003;-2.131145884050056E-004;
2.415666666666667E+009;1.605368852615356E-001;-5.716113373637199E-002;3.425643546506763E-003;-6.518189911730588E-005;
2.415833333333334E+009;1.594994068145752E-001;-5.881173163652420E-002;3.603636985644698E-003;-3.546255175024271E-004;
2.416000000000000E+009;1.582878082990646E-001;-6.049580499529839E-002;3.695728722959757E-003;-1.507732085883617E-004;
2.416166666666667E+009;1.575017422437668E-001;-6.215816363692284E-002;3.731004428118467E-003;-3.602860087994486E-004;
2.416333333333334E+009;1.563783288002014E-001;-6.402382254600525E-002;3.690199693664908E-003;-4.557826614473015E-004;
2.416500000000000E+009;1.554936617612839E-001;-6.588500738143921E-002;3.760729450732470E-003;-5.297668394632638E-004;
2.416666666666667E+009;1.545335799455643E-001;-6.786610931158066E-002;3.701602341607213E-003;-4.976885975338519E-004;
2.416833333333334E+009;1.539439260959625E-001;-6.987059861421585E-002;3.713328158482909E-003;-7.009682594798505E-004;
2.417000000000000E+009;1.528918743133545E-001;-7.181987911462784E-002;3.884406294673681E-003;-8.822160307317972E-004;
2.417166666666667E+009;1.522852778434753E-001;-7.370667159557343E-002;3.702915506437421E-003;-9.381353156641126E-004;
2.417333333333334E+009;1.516606956720352E-001;-7.560428977012634E-002;3.748651361092925E-003;-1.050980645231903E-003;
2.417500000000000E+009;1.511645615100861E-001;-7.773320376873016E-002;3.955418244004250E-003;-1.104003400541842E-003;
2.417666666666667E+009;1.507041752338409E-001;-7.959046959877014E-002;3.849241416901350E-003;-1.360678928904235E-003;
2.417833333333334E+009;1.502918452024460E-001;-8.153283596038818E-002;3.803701838478446E-003;-1.400424400344491E-003;
2.418000000000000E+009;1.499740928411484E-001;-8.346771448850632E-002;3.814261406660080E-003;-1.500521320849657E-003;
2.418166666666667E+009;1.496825218200684E-001;-8.496747910976410E-002;3.931378480046988E-003;-1.559075084514916E-003;
2.418333333333334E+009;1.497018635272980E-001;-8.680590987205505E-002;3.788309404626489E-003;-1.648620818741620E-003;
2.418500000000000E+009;1.494367718696594E-001;-8.845326304435730E-002;3.909547813236713E-003;-1.793006202206016E-003;
2.418666666666667E+009;1.495822966098785E-001;-9.001497179269791E-002;3.766749985516071E-003;-1.774404081515968E-003;
2.418833333333334E+009;1.493473351001740E-001;-9.161307662725449E-002;3.918072208762169E-003;-1.937108463607729E-003;
2.419000000000000E+009;1.493199318647385E-001;-9.299907833337784E-002;3.934556152671576E-003;-1.952531863935292E-003;
2.419166666666667E+009;1.495303660631180E-001;-9.410041570663452E-002;4.009319469332695E-003;-2.076997887343168E-003;
2.419333333333334E+009;1.495674997568131E-001;-9.502768516540527E-002;3.962886985391378E-003;-2.123953076079488E-003;
2.419500000000000E+009;1.497724205255508E-001;-9.635202586650848E-002;3.974577412009239E-003;-2.459899056702852E-003;
2.419666666666667E+009;1.501621603965759E-001;-9.712560474872589E-002;4.016250371932983E-003;-2.522060880437493E-003;
2.419833333333334E+009;1.502410918474197E-001;-9.792089462280273E-002;3.944844938814640E-003;-2.821420319378376E-003;
2.420000000000000E+009;1.507458984851837E-001;-9.856640547513962E-002;4.106047563254833E-003;-2.903895219787955E-003;
2.420166666666667E+009;1.508926153182983E-001;-9.923394769430161E-002;3.997385036200285E-003;-3.029450541362166E-003;
2.420333333333334E+009;1.512314528226852E-001;-9.969545900821686E-002;4.172395449131727E-003;-3.391622798517346E-003;
2.420500000000000E+009;1.516660153865814E-001;-9.988563507795334E-002;4.135468974709511E-003;-3.441700479015708E-003;
2.420666666666667E+009;1.518569886684418E-001;-1.000318825244904E-001;4.060451406985521E-003;-3.822365542873740E-003;
2.420833333333334E+009;1.521340161561966E-001;-1.003356501460075E-001;4.124597180634737E-003;-3.956999164074659E-003;
2.421000000000000E+009;1.522855162620544E-001;-1.004445180296898E-001;3.980248700827360E-003;-4.361338913440704E-003;
2.421166666666667E+009;1.528104990720749E-001;-1.003251075744629E-001;4.113067407160997E-003;-4.669339396059513E-003;
2.421333333333334E+009;1.529356539249420E-001;-1.003130972385407E-001;3.795135766267777E-003;-4.722050856798887E-003;
2.421500000000000E+009;1.529892534017563E-001;-1.003051549196243E-001;3.788070986047387E-003;-5.212099757045507E-003;
2.421666666666667E+009;1.529826968908310E-001;-1.001198068261147E-001;3.685156116262078E-003;-5.451152101159096E-003;
2.421833333333334E+009;1.530468612909317E-001;-9.967818111181259E-002;3.584396326914430E-003;-5.799043923616409E-003;
2.422000000000000E+009;1.526748836040497E-001;-9.932954609394074E-002;3.288707463070750E-003;-6.131220143288374E-003;
2.422166666666667E+009;1.526277810335159E-001;-9.923294931650162E-002;2.998899668455124E-003;-6.530798505991697E-003;
2.422333333333334E+009;1.523870080709457E-001;-9.878855198621750E-002;2.744934987276793E-003;-6.896314211189747E-003;
2.422500000000000E+009;1.518522650003433E-001;-9.838550537824631E-002;2.451299456879497E-003;-7.130966987460852E-003;
2.422666666666667E+009;1.511278450489044E-001;-9.802442789077759E-002;2.190251136198640E-003;-7.400213275104761E-003;
2.422833333333334E+009;1.505615264177322E-001;-9.770397096872330E-002;1.815801486372948E-003;-7.665832992643118E-003;
2.423000000000000E+009;1.497368514537811E-001;-9.717795252799988E-002;1.406105351634324E-003;-7.905662059783936E-003;
2.423166666666667E+009;1.490837931632996E-001;-9.688529372215271E-002;9.413548978045583E-004;-8.035307750105858E-003;
2.423333333333334E+009;1.480007618665695E-001;-9.634214639663696E-002;3.777052625082433E-004;-8.186565712094307E-003;
2.423500000000000E+009;1.470726430416107E-001;-9.608946740627289E-002;-2.469890932843555E-005;-8.398529142141342E-003;
2.423666666666667E+009;1.457802951335907E-001;-9.591671079397202E-002;-5.812232848256826E-004;-8.499382995069027E-003;
2.423833333333334E+009;1.445477902889252E-001;-9.568307548761368E-002;-1.074056955985725E-003;-8.336097002029419E-003;
2.424000000000000E+009;1.431267410516739E-001;-9.530605375766754E-002;-1.635312801226974E-003;-8.406566455960274E-003;
2.424166666666667E+009;1.418223530054092E-001;-9.527031332254410E-002;-2.167694503441453E-003;-8.437421172857285E-003;
2.424333333333334E+009;1.405717283487320E-001;-9.502349793910980E-002;-2.571507822722197E-003;-8.177624084055424E-003;
2.424500000000000E+009;1.390907168388367E-001;-9.515209496021271E-002;-3.010957967489958E-003;-8.217508904635906E-003;
2.424666666666667E+009;1.375443190336227E-001;-9.510426223278046E-002;-3.734386526048183E-003;-7.841413840651512E-003;
2.424833333333334E+009;1.359471678733826E-001;-9.528329968452454E-002;-4.011568613350391E-003;-7.684112060815096E-003;
2.425000000000000E+009;1.343936324119568E-001;-9.575155377388001E-002;-4.423961509019136E-003;-7.331000640988350E-003;
2.425166666666667E+009;1.328397244215012E-001;-9.609699249267578E-002;-4.908339120447636E-003;-7.166195660829544E-003;
2.425333333333334E+009;1.314011812210083E-001;-9.649699181318283E-002;-5.302940029650927E-003;-6.763277575373650E-003;
2.425500000000000E+009;1.298545449972153E-001;-9.738336503505707E-002;-5.703631322830916E-003;-6.305594928562641E-003;
2.425666666666667E+009;1.282451152801514E-001;-9.802732616662979E-002;-5.991944111883640E-003;-5.894151981920004E-003;
2.425833333333334E+009;1.267465949058533E-001;-9.889729321002960E-002;-6.358248181641102E-003;-5.592743866145611E-003;
2.426000000000000E+009;1.253163814544678E-001;-1.000804752111435E-001;-6.576155312359333E-003;-5.005569197237492E-003;
2.426166666666667E+009;1.240326240658760E-001;-1.012227013707161E-001;-6.684415973722935E-003;-4.572051577270031E-003;
2.426333333333334E+009;1.225847527384758E-001;-1.023331284523010E-001;-6.881274748593569E-003;-4.150010645389557E-003;
2.426500000000000E+009;1.212564855813980E-001;-1.036041676998138E-001;-7.038541603833437E-003;-3.721424145624042E-003;
2.426666666666667E+009;1.201872378587723E-001;-1.048898100852966E-001;-7.097318302839994E-003;-3.083212533965707E-003;
2.426833333333334E+009;1.189569085836411E-001;-1.064534857869148E-001;-7.041185628622770E-003;-2.775496104732156E-003;
2.427000000000000E+009;1.178236603736877E-001;-1.080318838357925E-001;-7.008938118815422E-003;-2.160954521968961E-003;
2.427166666666667E+009;1.167724579572678E-001;-1.095065400004387E-001;-6.959786172956228E-003;-1.689518219791353E-003;
2.427333333333334E+009;1.158415526151657E-001;-1.113144233822823E-001;-6.830487400293350E-003;-1.579278963617981E-003;
2.427500000000000E+009;1.150469183921814E-001;-1.129987612366676E-001;-6.650122348219156E-003;-1.140905194915831E-003;
2.427666666666667E+009;1.143014729022980E-001;-1.148524284362793E-001;-6.395529024302959E-003;-7.967364508658648E-004;
2.427833333333334E+009;1.135807558894157E-001;-1.165496036410332E-001;-6.182987242937088E-003;-5.744114750996232E-004;
