# Version 1.00
#
freq[Hz];re:Trc1_S11;im:Trc1_S11;re:Trc2_S21;im:Trc2_S21;
2.400000000000000E+009;1.688491553068161E-001;4.653711989521980E-002;-3.117256797850132E-003;5.498674698174000E-003;
2.400166666666667E+009;1.697986572980881E-001;4.543619602918625E-002;-2.893833909183741E-003;5.759011488407850E-003;
2.400333333333334E+009;1.706127971410751E-001;4.418295249342918E-002;-2.517714165151119E-003;5.781784188002348E-003;
2.400500000000000E+009;1.718514710664749E-001;4.322915151715279E-002;-2.227672608569264E-003;5.820221733301878E-003;
2.400666666666667E+009;1.726761758327484E-001;4.228623956441879E-002;-1.934763276949525E-003;5.834550131112337E-003;
2.400833333333334E+009;1.734734922647476E-001;4.163748770952225E-002;-1.783503568731248E-003;5.893554538488388E-003;
2.401000000000000E+009;1.741956919431686E-001;4.079389944672585E-002;-1.404912793077529E-003;5.817811936140060E-003;
2.401166666666667E+009;1.750237941741943E-001;3.988256677985191E-002;-1.032456988468766E-003;5.769378039985895E-003;
2.401333333333334E+009;1.755975186824799E-001;3.923370316624641E-002;-8.964394219219685E-004;5.791360978037119E-003;
2.401500000000000E+009;1.765765547752380E-001;3.861288353800774E-002;-5.191625677980483E-004;5.879569798707962E-003;
2.401666666666667E+009;1.770680397748947E-001;3.818241134285927E-002;-2.391704474575818E-004;5.695515777915716E-003;
2.401833333333334E+009;1.774738132953644E-001;3.731751814484596E-002;-6.046629277989268E-005;5.801444407552481E-003;
2.402000000000000E+009;1.779851466417313E-001;3.674791380763054E-002;3.724522830452770E-004;5.632158834487200E-003;
2.402166666666667E+009;1.785053759813309E-001;3.619692474603653E-002;6.629477138631046E-004;5.606958176940680E-003;
2.402333333333334E+009;1.787358224391937E-001;3.560198843479157E-002;7.362002506852150E-004;5.400466267019510E-003;
2.402500000000000E+009;1.791587322950363E-001;3.520369157195091E-002;1.108915428631008E-003;5.350756458938122E-003;
2.402666666666667E+009;1.792850345373154E-001;3.449529781937599E-002;1.326270052231848E-003;5.052308551967144E-003;
2.402833333333334E+009;1.795021742582321E-001;3.381167724728584E-002;1.600917195901275E-003;4.825892392545939E-003;
2.403000000000000E+009;1.795858442783356E-001;3.312112018465996E-002;1.724893809296191E-003;4.779839422553778E-003;
2.403166666666667E+009;1.795786768198013E-001;3.220445662736893E-002;1.883630873635411E-003;4.540364723652601E-003;
2.403333333333334E+009;1.795039474964142E-001;3.151614218950272E-002;2.071701921522617E-003;4.225721582770348E-003;
2.403500000000000E+009;1.791151762008667E-001;3.054949454963207E-002;2.222772222012281E-003;3.777177073061466E-003;
2.403666666666667E+009;1.791977286338806E-001;2.961190603673458E-002;2.442108001559973E-003;3.505722619593144E-003;
2.403833333333334E+009;1.788762658834457E-001;2.861338108778000E-002;2.366788452491164E-003;3.385386429727078E-003;
2.404000000000000E+009;1.785452514886856E-001;2.757123298943043E-002;2.469382714480162E-003;3.212289186194539E-003;
2.404166666666667E+009;1.779733598232269E-001;2.627328597009182E-002;2.314059063792229E-003;2.857818268239498E-003;
2.404333333333334E+009;1.775485724210739E-001;2.502379380166531E-002;2.415381139144301E-003;2.500901930034161E-003;
2.404500000000000E+009;1.770261824131012E-001;2.368525229394436E-002;2.519370289519429E-003;2.374553587287664E-003;
2.404666666666667E+009;1.767384260892868E-001;2.233005128800869E-002;2.445306163281202E-003;2.264748327434063E-003;
2.404833333333334E+009;1.761802434921265E-001;2.093896269798279E-002;2.195543842390180E-003;1.931607141159475E-003;
2.405000000000000E+009;1.755194216966629E-001;1.948701962828636E-002;2.075751777738333E-003;1.850009663030505E-003;
2.405166666666667E+009;1.751220077276230E-001;1.774272322654724E-002;2.098262077197433E-003;1.590883010067046E-003;
2.405333333333334E+009;1.747998446226120E-001;1.613458804786205E-002;1.874120556749404E-003;1.509216730482876E-003;
2.405500000000000E+009;1.743341982364655E-001;1.442434173077345E-002;1.968923490494490E-003;1.427768962457776E-003;
2.405666666666667E+009;1.739547848701477E-001;1.277853827923536E-002;1.678987639024854E-003;1.381447771564126E-003;
2.405833333333334E+009;1.734535545110703E-001;1.084742881357670E-002;1.530959736555815E-003;1.244607730768621E-003;
2.406000000000000E+009;1.733477711677551E-001;8.964556269347668E-003;1.553620793856680E-003;1.329891383647919E-003;
2.406166666666667E+009;1.728138923645020E-001;7.095543202012777E-003;1.272360677830875E-003;1.229376066476107E-003;
2.406333333333334E+009;1.728963851928711E-001;5.097314249724150E-003;1.182923442684114E-003;1.223984058015049E-003;
2.406500000000000E+009;1.726261973381043E-001;2.890623174607754E-003;1.144133857451379E-003;1.369119854643941E-003;
2.406666666666667E+009;1.723929047584534E-001;1.225980580784380E-003;9.577317978255451E-004;1.451844582334161E-003;
2.406833333333334E+009;1.724659055471420E-001;-1.046543125994504E-003;8.546451572328806E-004;1.404121168889105E-003;
2.407000000000000E+009;1.727229058742523E-001;-3.379370784386993E-003;8.221582975238562E-004;1.432641991414130E-003;
2.407166666666667E+009;1.726992428302765E-001;-5.307865329086781E-003;8.604375761933625E-004;1.392919337376952E-003;
2.407333333333334E+009;1.725949048995972E-001;-7.493682671338320E-003;7.705253083258867E-004;1.477743848226965E-003;
2.407500000000000E+009;1.729903519153595E-001;-9.494978934526444E-003;6.319484673440456E-004;1.671230071224272E-003;
2.407666666666667E+009;1.732439547777176E-001;-1.168157532811165E-002;5.598558345809579E-004;1.643622410483658E-003;
2.407833333333334E+009;1.733330786228180E-001;-1.381817180663347E-002;5.966722965240479E-004;1.787274144589901E-003;
2.408000000000000E+009;1.738181859254837E-001;-1.588890329003334E-002;5.321245989762247E-004;1.957912463694811E-003;
2.408166666666667E+009;1.742095649242401E-001;-1.765523850917816E-002;7.617659866809845E-004;1.906685880385339E-003;
2.408333333333334E+009;1.747177988290787E-001;-1.964542269706726E-002;8.511638152413070E-004;2.023025183007121E-003;
2.408500000000000E+009;1.750403344631195E-001;-2.157515473663807E-002;8.759660413488746E-004;2.063700696453452E-003;
2.408666666666667E+009;1.755188405513763E-001;-2.345876395702362E-002;8.720346377231181E-004;2.175553701817989E-003;
2.408833333333334E+009;1.759201735258102E-001;-2.517254650592804E-002;1.005624420940876E-003;2.448046579957008E-003;
2.409000000000000E+009;1.762999445199966E-001;-2.678935043513775E-002;1.017012982629240E-003;2.296962076798081E-003;
2.409166666666667E+009;1.768919974565506E-001;-2.826197631657124E-002;1.037304871715605E-003;2.259327564388514E-003;
2.409333333333334E+009;1.773782968521118E-001;-2.986031584441662E-002;1.234066789038479E-003;2.279191976413131E-003;
2.409500000000000E+009;1.778597831726074E-001;-3.129080310463905E-002;1.313911983743310E-003;2.311655320227146E-003;
2.409666666666667E+009;1.782687902450562E-001;-3.237246349453926E-002;1.230082474648953E-003;2.299614017829299E-003;
2.409833333333334E+009;1.788644194602966E-001;-3.337350487709045E-002;1.558661577291787E-003;2.483331598341465E-003;
2.410000000000000E+009;1.792644858360291E-001;-3.454247862100601E-002;1.527521060779691E-003;2.387746702879667E-003;
2.410166666666667E+009;1.798025816679001E-001;-3.538038954138756E-002;1.479501836001873E-003;2.500589936971664E-003;
2.410333333333334E+009;1.802127808332443E-001;-3.610999137163162E-002;1.668951124884188E-003;2.361725317314267E-003;
2.410500000000000E+009;1.807139962911606E-001;-3.690218925476074E-002;1.785047352313995E-003;2.530401572585106E-003;
2.410666666666667E+009;1.810492724180222E-001;-3.775424882769585E-002;1.927050412632525E-003;2.538261236622930E-003;
2.410833333333334E+009;1.815889477729797E-001;-3.826504945755005E-002;1.975588733330369E-003;2.519116271287203E-003;
2.411000000000000E+009;1.818441301584244E-001;-3.881416097283363E-002;2.234499901533127E-003;2.419885946437717E-003;
2.411166666666667E+009;1.819545179605484E-001;-3.923120722174645E-002;2.185112563893199E-003;2.530906349420548E-003;
2.411333333333334E+009;1.821595281362534E-001;-3.953582793474197E-002;2.512161387130618E-003;2.473847707733512E-003;
2.411500000000000E+009;1.822597533464432E-001;-4.017981886863709E-002;2.549453638494015E-003;2.547518815845251E-003;
2.411666666666667E+009;1.822843700647354E-001;-4.059103131294251E-002;2.739070449024439E-003;2.564739435911179E-003;
2.411833333333334E+009;1.821613013744354E-001;-4.104439541697502E-002;2.923425519838929E-003;2.453997032716870E-003;
2.412000000000000E+009;1.820861399173737E-001;-4.137137159705162E-002;3.079941030591726E-003;2.274808473885059E-003;
2.412166666666667E+009;1.814951449632645E-001;-4.158940538764000E-002;3.158097155392170E-003;2.055396093055606E-003;
2.412333333333334E+009;1.815775632858276E-001;-4.182249307632446E-002;3.334384644404054E-003;1.973962178453803E-003;
2.412500000000000E+009;1.806982904672623E-001;-4.217000305652618E-002;3.495350480079651E-003;1.712452271021903E-003;
2.412666666666667E+009;1.804003417491913E-001;-4.259705170989037E-002;3.527414752170444E-003;1.602050499059260E-003;
2.412833333333334E+009;1.796766668558121E-001;-4.274475574493408E-002;3.575483104214072E-003;1.556953415274620E-003;
2.413000000000000E+009;1.787662059068680E-001;-4.334164410829544E-002;3.844658844172955E-003;1.243867911398411E-003;
2.413166666666667E+009;1.778987050056458E-001;-4.372869431972504E-002;3.827648237347603E-003;1.114446902647615E-003;
2.413333333333334E+009;1.770743876695633E-001;-4.402571171522141E-002;3.791549941524863E-003;9.961000178009272E-004;
2.413500000000000E+009;1.759143173694611E-001;-4.452331736683846E-002;3.761651460081339E-003;7.076517213135958E-004;
2.413666666666667E+009;1.750691831111908E-001;-4.517607018351555E-002;3.628048114478588E-003;6.029942305758596E-004;
2.413833333333334E+009;1.737639307975769E-001;-4.572382941842079E-002;3.811130765825510E-003;6.213649758137763E-004;
2.414000000000000E+009;1.725085526704788E-001;-4.644701257348061E-002;3.660163143649697E-003;3.344969882164151E-004;
2.414166666666667E+009;1.714983582496643E-001;-4.712721705436707E-002;3.541945479810238E-003;3.194005112163723E-004;
2.414333333333334E+009;1.702913194894791E-001;-4.776481911540031E-002;3.599997842684388E-003;1.534830225864425E-004;
2.414500000000000E+009;1.690625697374344E-001;-4.865572601556778E-002;3.559367498382926E-003;6.619855412282050E-005;
2.414666666666667E+009;1.678127795457840E-001;-4.956952854990959E-002;3.517158329486847E-003;7.435065344907343E-005;
2.414833333333334E+009;1.664763540029526E-001;-5.078972131013870E-002;3.456451930105686E-003;7.349037332460284E-005;
2.415000000000000E+009;1.651950627565384E-001;-5.190819129347801E-002;3.454730845987797E-003;-5.271027475828305E-005;
2.415166666666667E+009;1.640486717224121E-001;-5.308683589100838E-002;3.506128210574389E-003;-1.088190329028294E-004;
2.415333333333334E+009;1.629124134778976E-001;-5.434815958142281E-002;3.369814017787576E-003;-2.091365313390270E-004;
2.415500000000000E+009;1.617105305194855E-001;-5.568464100360870E-002;3.399411216378212E-003;-2.143860037904233E-004;
2.415666666666667E+009;1.604980975389481E-001;-5.723309144377708E-002;3.451685188338161E-003;-2.745960664469749E-004;
2.415833333333334E+009;1.593946814537048E-001;-5.892277881503105E-002;3.473599208518863E-003;-1.594681089045480E-004;
2.416000000000000E+009;1.582297235727310E-001;-6.050677597522736E-002;3.447814146056771E-003;-1.494988100603223E-004;
2.416166666666667E+009;1.573848873376846E-001;-6.223586574196816E-002;3.697141306474805E-003;-3.793057694565505E-004;
2.416333333333334E+009;1.563603878021240E-001;-6.409097462892532E-002;3.408265998587012E-003;-4.558162763714790E-004;
2.416500000000000E+009;1.553294211626053E-001;-6.606997549533844E-002;3.639579750597477E-003;-4.878491745330393E-004;
2.416666666666667E+009;1.545862704515457E-001;-6.777820736169815E-002;3.502751933410764E-003;-6.472332170233131E-004;
2.416833333333334E+009;1.537992954254150E-001;-7.003838568925858E-002;3.701280103996396E-003;-6.811981438659132E-004;
2.417000000000000E+009;1.529843807220459E-001;-7.190622389316559E-002;3.886971157044172E-003;-7.085337419994175E-004;
2.417166666666667E+009;1.522363573312759E-001;-7.377653568983078E-002;3.753730328753591E-003;-9.165591909550130E-004;
2.417333333333334E+009;1.516752541065216E-001;-7.571492344141007E-002;3.682763548567891E-003;-9.882635204121471E-004;
2.417500000000000E+009;1.509904563426971E-001;-7.774809747934341E-002;3.906227182596922E-003;-1.152095734141767E-003;
2.417666666666667E+009;1.507259905338287E-001;-7.961486279964447E-002;3.784986212849617E-003;-1.127369585447013E-003;
2.417833333333334E+009;1.502718031406403E-001;-8.147685229778290E-002;3.965916577726603E-003;-1.184946740977466E-003;
2.418000000000000E+009;1.498507708311081E-001;-8.354861289262772E-002;3.850051434710622E-003;-1.354620326310396E-003;
2.418166666666667E+009;1.496411859989166E-001;-8.498899638652802E-002;3.841227153316140E-003;-1.555540016852319E-003;
2.418333333333334E+009;1.495662778615952E-001;-8.684109151363373E-002;3.772018477320671E-003;-1.614936743862927E-003;
2.418500000000000E+009;1.493248194456101E-001;-8.850887417793274E-002;3.854512004181743E-003;-1.885652076452971E-003;
2.418666666666667E+009;1.493318080902100E-001;-9.011472016572952E-002;3.942371346056461E-003;-1.817740965634584E-003;
2.418833333333334E+009;1.493077725172043E-001;-9.156780689954758E-002;3.813527524471283E-003;-1.978836953639984E-003;
2.419000000000000E+009;1.492912173271179E-001;-9.271604567766190E-002;3.820883808657527E-003;-2.025561640039086E-003;
2.419166666666667E+009;1.494884490966797E-001;-9.424335509538651E-002;3.877565031871200E-003;-2.140142256394029E-003;
2.419333333333334E+009;1.494162380695343E-001;-9.523704648017883E-002;3.902167547494173E-003;-2.263539470732212E-003;
2.419500000000000E+009;1.495659500360489E-001;-9.618681669235230E-002;4.018821753561497E-003;-2.254324732348323E-003;
2.419666666666667E+009;1.500900536775589E-001;-9.724566340446472E-002;3.806497203186154E-003;-2.424115315079689E-003;
2.419833333333334E+009;1.501664519309998E-001;-9.796322882175446E-002;3.841470694169402E-003;-2.702422440052033E-003;
2.420000000000000E+009;1.506181955337524E-001;-9.859849512577057E-002;3.962963819503784E-003;-2.749991836026311E-003;
2.420166666666667E+009;1.507959812879562E-001;-9.914587438106537E-002;4.092391580343247E-003;-2.843948546797037E-003;
2.420333333333334E+009;1.512586623430252E-001;-9.972847253084183E-002;3.944327123463154E-003;-3.163056215271354E-003;
2.420500000000000E+009;1.516205817461014E-001;-9.988074749708176E-002;4.063017200678587E-003;-3.444076282903552E-003;
2.420666666666667E+009;1.518662124872208E-001;-1.000903546810150E-001;4.171809181571007E-003;-3.746331203728914E-003;
2.420833333333334E+009;1.521378010511398E-001;-1.001739874482155E-001;4.058255814015865E-003;-4.060148727148771E-003;
2.421000000000000E+009;1.523518413305283E-001;-1.003703325986862E-001;4.035994876176119E-003;-4.180737771093845E-003;
2.421166666666667E+009;1.525922715663910E-001;-1.003617569804192E-001;3.998382017016411E-003;-4.494654946029186E-003;
2.421333333333334E+009;1.528355330228806E-001;-1.001621559262276E-001;3.875903319567442E-003;-4.737833514809609E-003;
2.421500000000000E+009;1.529467254877091E-001;-9.993053972721100E-002;3.741560271009803E-003;-5.088729318231344E-003;
2.421666666666667E+009;1.530155390501022E-001;-9.987016022205353E-002;3.649452701210976E-003;-5.367573350667954E-003;
2.421833333333334E+009;1.529499590396881E-001;-9.961488842964172E-002;3.568540094420314E-003;-5.761820357292891E-003;
2.422000000000000E+009;1.528201252222061E-001;-9.927547723054886E-002;3.430623328313232E-003;-6.013544742017984E-003;
2.422166666666667E+009;1.525049060583115E-001;-9.906890243291855E-002;3.133813384920359E-003;-6.365897133946419E-003;
2.422333333333334E+009;1.522869467735291E-001;-9.875036776065826E-002;2.791213802993298E-003;-6.681440863758326E-003;
2.422500000000000E+009;1.517949253320694E-001;-9.823451936244965E-002;2.537084510549903E-003;-6.863480899482966E-003;
2.422666666666667E+009;1.511604338884354E-001;-9.788300096988678E-002;2.110514556989074E-003;-7.355773821473122E-003;
2.422833333333334E+009;1.504951417446137E-001;-9.770237654447556E-002;1.817156793549657E-003;-7.482433691620827E-003;
2.423000000000000E+009;1.498398631811142E-001;-9.722031652927399E-002;1.283765654079616E-003;-7.967802695930004E-003;
2.423166666666667E+009;1.491125971078873E-001;-9.683216363191605E-002;1.059827394783497E-003;-8.032172918319702E-003;
2.423333333333334E+009;1.480888277292252E-001;-9.629050642251968E-002;6.282696849666536E-004;-8.159774355590344E-003;
2.423500000000000E+009;1.469826400279999E-001;-9.616137295961380E-002;-4.393773633637466E-005;-8.366146124899387E-003;
2.423666666666667E+009;1.457462012767792E-001;-9.585867077112198E-002;-5.714043509215117E-004;-8.438608609139919E-003;
2.423833333333334E+009;1.445131897926331E-001;-9.559518843889237E-002;-1.029043458402157E-003;-8.600096218287945E-003;
2.424000000000000E+009;1.432017832994461E-001;-9.529460966587067E-002;-1.475127879530191E-003;-8.508643135428429E-003;
2.424166666666667E+009;1.417152583599091E-001;-9.509702026844025E-002;-2.148064551874995E-003;-8.488909341394901E-003;
2.424333333333334E+009;1.404256373643875E-001;-9.498807042837143E-002;-2.743685385212302E-003;-8.237967267632484E-003;
2.424500000000000E+009;1.390203982591629E-001;-9.509011358022690E-002;-3.049391321837902E-003;-8.131001144647598E-003;
2.424666666666667E+009;1.377815306186676E-001;-9.508405625820160E-002;-3.659376176074147E-003;-7.890528067946434E-003;
2.424833333333334E+009;1.358876377344132E-001;-9.521185606718063E-002;-4.073196556419134E-003;-7.645064964890480E-003;
2.425000000000000E+009;1.345277726650238E-001;-9.564071148633957E-002;-4.440012853592634E-003;-7.404838688671589E-003;
2.425166666666667E+009;1.327728778123856E-001;-9.593108296394348E-002;-5.099543370306492E-003;-7.025280501693487E-003;
2.425333333333334E+009;1.313792914152145E-001;-9.653588384389877E-002;-5.537999793887138E-003;-6.674563512206078E-003;
2.425500000000000E+009;1.298394799232483E-001;-9.720973670482636E-002;-5.813373252749443E-003;-6.366987247020006E-003;
2.425666666666667E+009;1.282400339841843E-001;-9.791509062051773E-002;-6.014563143253326E-003;-6.053190212696791E-003;
2.425833333333334E+009;1.268071532249451E-001;-9.882423281669617E-002;-6.502665579319000E-003;-5.481959320604801E-003;
2.426000000000000E+009;1.253883987665176E-001;-9.986687451601028E-002;-6.658126600086689E-003;-4.946665838360786E-003;
2.426166666666667E+009;1.240700781345367E-001;-1.010700836777687E-001;-6.870233919471502E-003;-4.511740989983082E-003;
2.426333333333334E+009;1.226310506463051E-001;-1.021949797868729E-001;-7.040806114673615E-003;-4.135793074965477E-003;
2.426500000000000E+009;1.214155331254005E-001;-1.034606993198395E-001;-7.049993611872196E-003;-3.629688406363130E-003;
2.426666666666667E+009;1.202673017978668E-001;-1.049083769321442E-001;-7.144013419747353E-003;-3.196022240445018E-003;
2.426833333333334E+009;1.189424172043800E-001;-1.063874438405037E-001;-7.016733754426241E-003;-2.614012453705072E-003;
2.427000000000000E+009;1.178359687328339E-001;-1.080710887908936E-001;-6.866664625704289E-003;-2.180168405175209E-003;
2.427166666666667E+009;1.168709993362427E-001;-1.095272004604340E-001;-6.871734280139208E-003;-1.832352951169014E-003;
2.427333333333334E+009;1.158915981650353E-001;-1.112606823444367E-001;-6.742128171026707E-003;-1.428073039278388E-003;
2.427500000000000E+009;1.151786595582962E-001;-1.129612699151039E-001;-6.587202660739422E-003;-1.043920521624386E-003;
2.427666666666667E+009;1.143583208322525E-001;-1.148362606763840E-001;-6.504354067146778E-003;-8.906011353246868E-004;
2.427833333333334E+009;1.136327609419823E-001;-1.166223511099815E-001;-6.411647424101830E-003;-6.086509674787521E-004;
