# Version 1.00
#
freq[Hz];re:Trc1_S11;im:Trc1_S11;re:Trc2_S21;im:Trc2_S21;
2.400000000000000E+009;1.687881648540497E-001;4.628618434071541E-002;-2.937677083536983E-003;5.595474969595671E-003;
2.400166666666667E+009;1.697349101305008E-001;4.550177231431007E-002;-2.734559355303645E-003;5.761855281889439E-003;
2.400333333333334E+009;1.707552671432495E-001;4.442238435149193E-002;-2.514131134375930E-003;5.767713300883770E-003;
2.400500000000000E+009;1.718627363443375E-001;4.332057386636734E-002;-2.125882077962160E-003;5.761676933616400E-003;
2.400666666666667E+009;1.725022494792938E-001;4.228825122117996E-002;-1.937580294907093E-003;5.917379632592201E-003;
2.400833333333334E+009;1.736377775669098E-001;4.159514978528023E-002;-1.651729224249721E-003;5.892772693186998E-003;
2.401000000000000E+009;1.743818372488022E-001;4.085404053330421E-002;-1.221202663145959E-003;5.923809949308634E-003;
2.401166666666667E+009;1.752427369356155E-001;4.008970037102699E-002;-9.064229670912027E-004;5.903660319745541E-003;
2.401333333333334E+009;1.758053749799728E-001;3.922427445650101E-002;-8.149627246893942E-004;5.929676815867424E-003;
2.401500000000000E+009;1.765535026788712E-001;3.872856125235558E-002;-6.637418409809470E-004;5.839897319674492E-003;
2.401666666666667E+009;1.769310832023621E-001;3.818980604410172E-002;-3.021233133040369E-004;5.728995893150568E-003;
2.401833333333334E+009;1.775985956192017E-001;3.742984309792519E-002;1.089473589672707E-004;5.634344648569822E-003;
2.402000000000000E+009;1.780441999435425E-001;3.686205297708511E-002;2.383934479439631E-004;5.535253323614597E-003;
2.402166666666667E+009;1.785522401332855E-001;3.628993034362793E-002;4.503969103097916E-004;5.467612296342850E-003;
2.402333333333334E+009;1.788230538368225E-001;3.558197990059853E-002;9.307287400588393E-004;5.442102439701557E-003;
2.402500000000000E+009;1.793867051601410E-001;3.518808260560036E-002;9.828770998865366E-004;5.319170188158751E-003;
2.402666666666667E+009;1.794368326663971E-001;3.443609550595284E-002;1.370096462778747E-003;5.159953609108925E-003;
2.402833333333334E+009;1.795115768909454E-001;3.377967700362206E-002;1.595840207301080E-003;4.903579130768776E-003;
2.403000000000000E+009;1.795468628406525E-001;3.318095207214356E-002;1.727123744785786E-003;4.651122260838747E-003;
2.403166666666667E+009;1.795910298824310E-001;3.226491063833237E-002;1.875034649856389E-003;4.532075487077236E-003;
2.403333333333334E+009;1.795646846294403E-001;3.160747885704041E-002;2.224963856860995E-003;4.238374065607786E-003;
2.403500000000000E+009;1.792216151952744E-001;3.081759437918663E-002;2.219547051936388E-003;4.014577250927687E-003;
2.403666666666667E+009;1.791521906852722E-001;2.962351217865944E-002;2.443247241899371E-003;3.802352119237185E-003;
2.403833333333334E+009;1.789829283952713E-001;2.860426716506481E-002;2.459404524415731E-003;3.551989328116179E-003;
2.404000000000000E+009;1.784431636333466E-001;2.746091410517693E-002;2.504622098058462E-003;3.203516360372305E-003;
2.404166666666667E+009;1.781394481658936E-001;2.615611627697945E-002;2.492131665349007E-003;2.921082312241197E-003;
2.404333333333334E+009;1.776855587959290E-001;2.508942596614361E-002;2.561780856922269E-003;2.696842886507511E-003;
2.404500000000000E+009;1.772015243768692E-001;2.376736514270306E-002;2.361444290727377E-003;2.418241696432233E-003;
2.404666666666667E+009;1.766370385885239E-001;2.237371727824211E-002;2.387821208685637E-003;2.088308567181230E-003;
2.404833333333334E+009;1.761565953493118E-001;2.082983218133450E-002;2.291560405865312E-003;1.970922807231545E-003;
2.405000000000000E+009;1.757008731365204E-001;1.935734972357750E-002;2.136679366230965E-003;1.833807909861207E-003;
2.405166666666667E+009;1.752276271581650E-001;1.783615164458752E-002;2.140259835869074E-003;1.625363132916391E-003;
2.405333333333334E+009;1.747788488864899E-001;1.610871031880379E-002;1.968459924682975E-003;1.547701889649034E-003;
2.405500000000000E+009;1.742192357778549E-001;1.441631000488997E-002;1.859015552327037E-003;1.441826694644988E-003;
2.405666666666667E+009;1.739556044340134E-001;1.266720797866583E-002;1.803969731554389E-003;1.149335177615285E-003;
2.405833333333334E+009;1.735239773988724E-001;1.086167152971029E-002;1.588259940035641E-003;1.318403403274715E-003;
2.406000000000000E+009;1.733829826116562E-001;8.831047452986240E-003;1.544186263345182E-003;1.239610603079200E-003;
2.406166666666667E+009;1.728235632181168E-001;7.038889452815056E-003;1.313824323005974E-003;1.334007247351110E-003;
2.406333333333334E+009;1.728270053863525E-001;5.056472960859537E-003;1.162028522230685E-003;1.193622942082584E-003;
2.406500000000000E+009;1.726026237010956E-001;2.956969430670142E-003;9.972566040232778E-004;1.238430966623128E-003;
2.406666666666667E+009;1.723500937223434E-001;1.055518863722682E-003;1.052931882441044E-003;1.423976733349264E-003;
2.406833333333334E+009;1.724442094564438E-001;-1.248851651325822E-003;9.543824708089232E-004;1.377610373310745E-003;
2.407000000000000E+009;1.725186854600906E-001;-3.326271660625935E-003;9.212975855916739E-004;1.324941636994481E-003;
2.407166666666667E+009;1.727549135684967E-001;-5.265394225716591E-003;8.743029320612550E-004;1.511361217126250E-003;
2.407333333333334E+009;1.726706027984619E-001;-7.513631600886583E-003;8.105124579742551E-004;1.439979067072272E-003;
2.407500000000000E+009;1.729543358087540E-001;-9.668647311627865E-003;7.936682086437941E-004;1.576762413606048E-003;
2.407666666666667E+009;1.732839047908783E-001;-1.173322647809982E-002;8.140722638927400E-004;1.645251875743270E-003;
2.407833333333334E+009;1.734625399112701E-001;-1.384451705962420E-002;7.620749529451132E-004;1.766784698702395E-003;
2.408000000000000E+009;1.737617552280426E-001;-1.601839624345303E-002;7.880445336923003E-004;1.778032281436026E-003;
2.408166666666667E+009;1.742373853921890E-001;-1.768789626657963E-002;9.475303813815117E-004;1.852450892329216E-003;
2.408333333333334E+009;1.747634261846542E-001;-1.995634846389294E-002;9.568760287947953E-004;1.966851763427258E-003;
2.408500000000000E+009;1.750297099351883E-001;-2.170463092625141E-002;9.936499409377575E-004;2.047702902927995E-003;
2.408666666666667E+009;1.754683256149292E-001;-2.354853972792625E-002;9.483404573984444E-004;2.047420246526599E-003;
2.408833333333334E+009;1.758701354265213E-001;-2.526372484862804E-002;1.066996133886278E-003;2.068981062620878E-003;
2.409000000000000E+009;1.762771755456924E-001;-2.676430344581604E-002;1.122642774134874E-003;2.175872214138508E-003;
2.409166666666667E+009;1.768080890178680E-001;-2.836285904049873E-002;1.193602685816586E-003;2.190445316955447E-003;
2.409333333333334E+009;1.773260533809662E-001;-2.998561412096024E-002;1.073925173841417E-003;2.131418557837606E-003;
2.409500000000000E+009;1.777326613664627E-001;-3.131504729390144E-002;1.288670231588185E-003;2.247311640530825E-003;
2.409666666666667E+009;1.782732754945755E-001;-3.232688829302788E-002;1.358122564852238E-003;2.240047091618180E-003;
2.409833333333334E+009;1.786981076002121E-001;-3.324097767472267E-002;1.387019059620798E-003;2.225941279903054E-003;
2.410000000000000E+009;1.792896389961243E-001;-3.432106226682663E-002;1.487347413785756E-003;2.129557542502880E-003;
2.410166666666667E+009;1.797998398542404E-001;-3.535918518900871E-002;1.579577103257179E-003;2.308075549080968E-003;
2.410333333333334E+009;1.802953332662582E-001;-3.619052469730377E-002;1.666607218794525E-003;2.310214564204216E-003;
2.410500000000000E+009;1.807368546724320E-001;-3.680294752120972E-002;1.727125374600291E-003;2.387986518442631E-003;
2.410666666666667E+009;1.809972524642944E-001;-3.763684257864952E-002;1.880131545476615E-003;2.417060080915690E-003;
2.410833333333334E+009;1.814368516206741E-001;-3.816536068916321E-002;1.906008459627628E-003;2.413713838905096E-003;
2.411000000000000E+009;1.817786246538162E-001;-3.868686035275459E-002;2.188617130741477E-003;2.415985800325871E-003;
2.411166666666667E+009;1.818367093801498E-001;-3.932353854179382E-002;1.989178592339158E-003;2.396706258878112E-003;
2.411333333333334E+009;1.820714473724365E-001;-3.976498171687126E-002;2.379176439717412E-003;2.417052863165736E-003;
2.411500000000000E+009;1.820686608552933E-001;-4.010372981429100E-002;2.593183889985085E-003;2.380888676270843E-003;
2.411666666666667E+009;1.822010278701782E-001;-4.060101136565208E-002;2.865198533982039E-003;2.362659201025963E-003;
2.411833333333334E+009;1.821004003286362E-001;-4.093082621693611E-002;2.981943078339100E-003;2.343051834031940E-003;
2.412000000000000E+009;1.818768084049225E-001;-4.133405536413193E-002;2.964964369311929E-003;1.969550503417850E-003;
2.412166666666667E+009;1.814703643321991E-001;-4.146155714988709E-002;3.173236967995763E-003;2.010048832744360E-003;
2.412333333333334E+009;1.814048886299133E-001;-4.176548495888710E-002;3.173702396452427E-003;2.020110376179218E-003;
2.412500000000000E+009;1.807000488042831E-001;-4.223683848977089E-002;3.484169486910105E-003;1.797713572159410E-003;
2.412666666666667E+009;1.801876127719879E-001;-4.258930683135986E-002;3.450362943112850E-003;1.524481107480824E-003;
2.412833333333334E+009;1.796000450849533E-001;-4.285141825675964E-002;3.599523333832622E-003;1.468294882215560E-003;
2.413000000000000E+009;1.787080317735672E-001;-4.319018498063088E-002;3.666978329420090E-003;1.221258309669793E-003;
2.413166666666667E+009;1.779804974794388E-001;-4.363386705517769E-002;3.638997441157699E-003;1.073095365427434E-003;
2.413333333333334E+009;1.768135577440262E-001;-4.402758181095123E-002;3.695720573887229E-003;8.893256890587509E-004;
2.413500000000000E+009;1.759451776742935E-001;-4.450942575931549E-002;3.676174907013774E-003;6.690520094707608E-004;
2.413666666666667E+009;1.749620884656906E-001;-4.507386684417725E-002;3.642163472250104E-003;5.425112321972847E-004;
2.413833333333334E+009;1.738090664148331E-001;-4.558864980936050E-002;3.700713627040386E-003;5.518731195479631E-004;
2.414000000000000E+009;1.726318597793579E-001;-4.635015502572060E-002;3.590911393985152E-003;3.286633582320064E-004;
2.414166666666667E+009;1.714758872985840E-001;-4.700352624058723E-002;3.563944948837161E-003;1.742411404848099E-004;
2.414333333333334E+009;1.702968031167984E-001;-4.782076925039291E-002;3.561524208635092E-003;2.511571510694921E-004;
2.414500000000000E+009;1.692747175693512E-001;-4.859853535890579E-002;3.528411267325282E-003;8.416517630394083E-006;
2.414666666666667E+009;1.679297834634781E-001;-4.959463700652123E-002;3.278206568211317E-003;-8.713355782674626E-005;
2.414833333333334E+009;1.664293259382248E-001;-5.059629678726196E-002;3.414724254980683E-003;-1.133783589466475E-004;
2.415000000000000E+009;1.652052402496338E-001;-5.174951627850533E-002;3.232668619602919E-003;-2.882226226574858E-007;
2.415166666666667E+009;1.639777719974518E-001;-5.296106636524200E-002;3.386460477486253E-003;-6.906705039000372E-006;
2.415333333333334E+009;1.629410088062286E-001;-5.442729964852333E-002;3.245107363909483E-003;-1.251716457773000E-004;
2.415500000000000E+009;1.616947352886200E-001;-5.564488843083382E-002;3.314706031233072E-003;-6.033741738065146E-005;
2.415666666666667E+009;1.605057120323181E-001;-5.718038603663445E-002;3.220356069505215E-003;-2.051639785349835E-005;
2.415833333333334E+009;1.594922989606857E-001;-5.889090523123741E-002;3.290883265435696E-003;-2.354872849537060E-004;
2.416000000000000E+009;1.582527756690979E-001;-6.045696139335632E-002;3.279900643974543E-003;-2.080527192447335E-004;
2.416166666666667E+009;1.574611365795136E-001;-6.229531764984131E-002;3.493929281830788E-003;-2.475581422913820E-004;
2.416333333333334E+009;1.563630849123001E-001;-6.406868249177933E-002;3.439342603087425E-003;-3.943814954254776E-004;
2.416500000000000E+009;1.554940044879913E-001;-6.602627784013748E-002;3.685685340315104E-003;-4.115993215236813E-004;
2.416666666666667E+009;1.544943004846573E-001;-6.776114553213120E-002;3.660965710878372E-003;-5.341175710782409E-004;
2.416833333333334E+009;1.537998318672180E-001;-6.988173723220825E-002;3.661212744191289E-003;-6.754136993549764E-004;
2.417000000000000E+009;1.528224349021912E-001;-7.190719246864319E-002;3.679398912936449E-003;-6.043569301255047E-004;
2.417166666666667E+009;1.522666364908218E-001;-7.370184361934662E-002;3.664823481813073E-003;-7.949620485305786E-004;
2.417333333333334E+009;1.516067236661911E-001;-7.560724765062332E-002;3.838760312646627E-003;-1.019041053950787E-003;
2.417500000000000E+009;1.510952264070511E-001;-7.783579081296921E-002;3.787081222981215E-003;-1.052926178090274E-003;
2.417666666666667E+009;1.508083343505859E-001;-7.950431853532791E-002;3.788263769820333E-003;-1.151984906755388E-003;
2.417833333333334E+009;1.503196060657501E-001;-8.151188492774963E-002;3.780338214710355E-003;-1.303106895647943E-003;
2.418000000000000E+009;1.498707085847855E-001;-8.356375992298126E-002;3.814366413280368E-003;-1.430938602425158E-003;
2.418166666666667E+009;1.495819240808487E-001;-8.497935533523560E-002;3.713113022968173E-003;-1.527931541204453E-003;
2.418333333333334E+009;1.496846675872803E-001;-8.691683411598206E-002;3.594414098188281E-003;-1.623612828552723E-003;
2.418500000000000E+009;1.493505388498306E-001;-8.849143981933594E-002;3.748115850612521E-003;-1.708947704173625E-003;
2.418666666666667E+009;1.493778675794601E-001;-9.006880223751068E-002;3.660794114693999E-003;-1.653425744734705E-003;
2.418833333333334E+009;1.492639929056168E-001;-9.146586060523987E-002;3.700868459418416E-003;-1.950042671523988E-003;
2.419000000000000E+009;1.493465602397919E-001;-9.289152175188065E-002;3.897158429026604E-003;-1.876113587059081E-003;
2.419166666666667E+009;1.494361609220505E-001;-9.420102834701538E-002;3.841840894892812E-003;-2.064541215077043E-003;
2.419333333333334E+009;1.494624316692352E-001;-9.513165801763535E-002;3.923572134226561E-003;-2.186410827562213E-003;
2.419500000000000E+009;1.497751027345657E-001;-9.642372280359268E-002;3.885597456246615E-003;-2.275996841490269E-003;
2.419666666666667E+009;1.501999050378799E-001;-9.723231196403503E-002;4.046331625431776E-003;-2.474968321621418E-003;
2.419833333333334E+009;1.500931978225708E-001;-9.798096865415573E-002;3.936983179301024E-003;-2.609240124002099E-003;
2.420000000000000E+009;1.505131423473358E-001;-9.869778156280518E-002;4.124058876186609E-003;-2.679495839402080E-003;
2.420166666666667E+009;1.509295403957367E-001;-9.909385442733765E-002;4.004279617220163E-003;-2.850677352398634E-003;
2.420333333333334E+009;1.511724144220352E-001;-9.960382431745529E-002;4.026376642286778E-003;-3.059222130104899E-003;
2.420500000000000E+009;1.516631245613098E-001;-9.988167136907578E-002;4.119462333619595E-003;-3.381730755791068E-003;
2.420666666666667E+009;1.518254280090332E-001;-1.000065952539444E-001;4.122611600905657E-003;-3.580413293093443E-003;
2.420833333333334E+009;1.522031128406525E-001;-1.002466976642609E-001;4.057993646711111E-003;-3.980207722634077E-003;
2.421000000000000E+009;1.523621231317520E-001;-1.003978177905083E-001;4.042286425828934E-003;-4.237193148583174E-003;
2.421166666666667E+009;1.525620818138123E-001;-1.002414152026177E-001;4.037968348711729E-003;-4.392597358673811E-003;
2.421333333333334E+009;1.528974324464798E-001;-1.003525182604790E-001;3.954669926315546E-003;-4.650090821087360E-003;
2.421500000000000E+009;1.528764963150024E-001;-1.001289710402489E-001;3.912987187504768E-003;-5.066918209195137E-003;
2.421666666666667E+009;1.529906690120697E-001;-9.990844130516052E-002;3.762467997148633E-003;-5.424554459750652E-003;
2.421833333333334E+009;1.529565453529358E-001;-9.954984486103058E-002;3.545027459040284E-003;-5.612969398498535E-003;
2.422000000000000E+009;1.527764052152634E-001;-9.935788810253143E-002;3.305980237200856E-003;-5.973915103822947E-003;
2.422166666666667E+009;1.525694429874420E-001;-9.914842247962952E-002;3.255228279158473E-003;-6.241533439606428E-003;
2.422333333333334E+009;1.523482203483582E-001;-9.867870062589645E-002;2.908197231590748E-003;-6.751182954758406E-003;
2.422500000000000E+009;1.518171429634094E-001;-9.827814251184464E-002;2.451313426718116E-003;-6.952245254069567E-003;
2.422666666666667E+009;1.511045545339584E-001;-9.793744981288910E-002;2.277967985719442E-003;-7.221340201795101E-003;
2.422833333333334E+009;1.505181640386581E-001;-9.764050692319870E-002;1.844013575464487E-003;-7.621865253895521E-003;
2.423000000000000E+009;1.499599218368530E-001;-9.715384989976883E-002;1.470189308747649E-003;-7.706031203269959E-003;
2.423166666666667E+009;1.489408016204834E-001;-9.682789444923401E-002;9.593675495125353E-004;-7.925720885396004E-003;
2.423333333333334E+009;1.481372267007828E-001;-9.627518802881241E-002;5.742009961977601E-004;-8.164841681718826E-003;
2.423500000000000E+009;1.470002830028534E-001;-9.613015502691269E-002;1.740171319397632E-005;-8.322290144860745E-003;
2.423666666666667E+009;1.457726508378983E-001;-9.580247849225998E-002;-5.064543220214546E-004;-8.376691490411758E-003;
2.423833333333334E+009;1.447089463472366E-001;-9.569245576858521E-002;-9.797431994229555E-004;-8.448320440948010E-003;
2.424000000000000E+009;1.432560086250305E-001;-9.524434059858322E-002;-1.479425467550755E-003;-8.137885481119156E-003;
2.424166666666667E+009;1.417909562587738E-001;-9.505600482225418E-002;-1.986845396459103E-003;-8.264664560556412E-003;
2.424333333333334E+009;1.406147629022598E-001;-9.507215768098831E-002;-2.424424979835749E-003;-8.147523738443852E-003;
2.424500000000000E+009;1.389860957860947E-001;-9.520585089921951E-002;-2.935154130682349E-003;-8.032362908124924E-003;
2.424666666666667E+009;1.377392858266830E-001;-9.497829526662827E-002;-3.543186932802200E-003;-7.899587973952293E-003;
2.424833333333334E+009;1.360086202621460E-001;-9.531786292791367E-002;-3.993578720837832E-003;-7.681021001189947E-003;
2.425000000000000E+009;1.345445066690445E-001;-9.567053616046906E-002;-4.335909616202116E-003;-7.339439354836941E-003;
2.425166666666667E+009;1.327653229236603E-001;-9.599407762289047E-002;-4.894210025668144E-003;-6.944220513105393E-003;
2.425333333333334E+009;1.313793361186981E-001;-9.648885577917099E-002;-5.132546182721853E-003;-6.684355437755585E-003;
2.425500000000000E+009;1.299823969602585E-001;-9.725077450275421E-002;-5.586915183812380E-003;-6.375839002430439E-003;
2.425666666666667E+009;1.282571703195572E-001;-9.800564497709274E-002;-5.892331711947918E-003;-5.825779866427183E-003;
2.425833333333334E+009;1.267750412225723E-001;-9.894863516092300E-002;-6.326673086732626E-003;-5.468602292239666E-003;
2.426000000000000E+009;1.253167539834976E-001;-1.000444665551186E-001;-6.435205228626728E-003;-5.063450895249844E-003;
2.426166666666667E+009;1.240516453981400E-001;-1.010830104351044E-001;-6.776017136871815E-003;-4.709420260041952E-003;
2.426333333333334E+009;1.225965172052383E-001;-1.022259071469307E-001;-6.871911697089672E-003;-4.220186732709408E-003;
2.426500000000000E+009;1.213333830237389E-001;-1.034671962261200E-001;-6.941389292478561E-003;-3.532635280862451E-003;
2.426666666666667E+009;1.202705875039101E-001;-1.048105359077454E-001;-7.028555963188410E-003;-3.064250340685248E-003;
2.426833333333334E+009;1.191358193755150E-001;-1.063662692904472E-001;-6.952379830181599E-003;-2.600349951535463E-003;
2.427000000000000E+009;1.178665012121201E-001;-1.081445738673210E-001;-6.786562968045473E-003;-2.101427875459194E-003;
2.427166666666667E+009;1.169591248035431E-001;-1.095835864543915E-001;-6.819268688559532E-003;-1.778427511453629E-003;
2.427333333333334E+009;1.159282252192497E-001;-1.113130077719688E-001;-6.690252106636763E-003;-1.319949049502611E-003;
2.427500000000000E+009;1.150901466608048E-001;-1.129875332117081E-001;-6.480833515524864E-003;-1.094497274607420E-003;
2.427666666666667E+009;1.144036352634430E-001;-1.148507446050644E-001;-6.491630338132381E-003;-7.632161723449826E-004;
2.427833333333334E+009;1.137095838785172E-001;-1.165549904108048E-001;-6.106917280703783E-003;-4.746631602756679E-004;
