# Version 1.00
#
freq[Hz];re:Trc1_S11;im:Trc1_S11;re:Trc2_S21;im:Trc2_S21;
2.400000000000000E+009;1.631115823984146E-001;5.241604521870613E-002;-1.054652850143611E-003;4.288752097636461E-003;
2.400166666666667E+009;1.629516333341599E-001;5.083321779966354E-002;-1.385849667713046E-003;4.492196254432201E-003;
2.400333333333334E+009;1.627513617277145E-001;4.910831153392792E-002;-1.202133251354098E-003;4.331381991505623E-003;
2.400500000000000E+009;1.628728955984116E-001;4.743152111768723E-002;-9.107890655286610E-004;4.904304165393114E-003;
2.400666666666667E+009;1.626349240541458E-001;4.515755549073219E-002;-1.118165906518698E-003;4.318318795412779E-003;
2.400833333333334E+009;1.628570407629013E-001;4.343975707888603E-002;-1.280709053389728E-003;5.108969286084175E-003;
2.401000000000000E+009;1.626417785882950E-001;4.157449677586556E-002;-7.740240544080734E-004;5.181561224162579E-003;
2.401166666666667E+009;1.627158820629120E-001;3.951092064380646E-002;-6.303820991888642E-004;5.355271510779858E-003;
2.401333333333334E+009;1.628016531467438E-001;3.730910643935204E-002;-6.313576013781130E-004;5.318799521774054E-003;
2.401500000000000E+009;1.632349044084549E-001;3.551760688424110E-002;-4.651051131077111E-005;5.492452997714281E-003;
2.401666666666667E+009;1.632414013147354E-001;3.346541151404381E-002;-2.789921418298036E-004;5.713999271392822E-003;
2.401833333333334E+009;1.635048836469650E-001;3.145419806241989E-002;-5.037946903030388E-005;5.809196736663580E-003;
2.402000000000000E+009;1.636395156383514E-001;2.955797873437405E-002;3.698078799061477E-004;6.056027952581644E-003;
2.402166666666667E+009;1.640017926692963E-001;2.745196595788002E-002;4.691537469625473E-004;6.125200074166060E-003;
2.402333333333334E+009;1.646669507026672E-001;2.565622515976429E-002;1.205303356982768E-003;5.916449241340160E-003;
2.402500000000000E+009;1.651901602745056E-001;2.403439395129681E-002;1.216004369780421E-003;6.347150076180697E-003;
2.402666666666667E+009;1.657387316226959E-001;2.171130478382111E-002;1.272003981284797E-003;5.770109593868256E-003;
2.402833333333334E+009;1.662897616624832E-001;2.022206038236618E-002;1.875488786026835E-003;5.871351808309555E-003;
2.403000000000000E+009;1.668949127197266E-001;1.851338706910610E-002;2.116363029927015E-003;5.823700688779354E-003;
2.403166666666667E+009;1.676719486713409E-001;1.694381795823574E-002;2.526858588680625E-003;6.013533100485802E-003;
2.403333333333334E+009;1.684239059686661E-001;1.557298284024000E-002;2.665624720975757E-003;5.858076736330986E-003;
2.403500000000000E+009;1.690885573625565E-001;1.387007068842650E-002;3.024794626981020E-003;5.784766748547554E-003;
2.403666666666667E+009;1.697674542665482E-001;1.243177521973848E-002;3.246155334636569E-003;5.678275134414434E-003;
2.403833333333334E+009;1.706023663282394E-001;1.132108084857464E-002;3.760291729122400E-003;5.530820228159428E-003;
2.404000000000000E+009;1.713717877864838E-001;9.805467911064625E-003;4.081596154719591E-003;5.234141368418932E-003;
2.404166666666667E+009;1.722873896360397E-001;8.726156316697598E-003;4.285494796931744E-003;5.177232436835766E-003;
2.404333333333334E+009;1.729477494955063E-001;7.641837466508150E-003;4.558867309242487E-003;4.831371363252401E-003;
2.404500000000000E+009;1.736245751380920E-001;6.560591049492359E-003;4.899187479168177E-003;4.493589513003826E-003;
2.404666666666667E+009;1.744930446147919E-001;5.661107134073973E-003;5.253916140645742E-003;4.199787974357605E-003;
2.404833333333334E+009;1.751124411821365E-001;4.915616940706968E-003;5.391916260123253E-003;4.047867376357317E-003;
2.405000000000000E+009;1.758301556110382E-001;4.032613709568977E-003;5.483367014676333E-003;3.620931645855308E-003;
2.405166666666667E+009;1.766467541456223E-001;3.353991545736790E-003;5.604515783488751E-003;3.271710360422730E-003;
2.405333333333334E+009;1.772869080305100E-001;2.676516538485885E-003;5.872542969882488E-003;3.135110717266798E-003;
2.405500000000000E+009;1.779908537864685E-001;2.174406312406063E-003;6.026621442288160E-003;2.465940313413739E-003;
2.405666666666667E+009;1.784608364105225E-001;1.701244153082371E-003;5.988384597003460E-003;2.410252578556538E-003;
2.405833333333334E+009;1.787826418876648E-001;1.399877481162548E-003;6.103090010583401E-003;1.945311902090907E-003;
2.406000000000000E+009;1.793442964553833E-001;7.731697987765074E-004;6.146235857158899E-003;1.668687677010894E-003;
2.406166666666667E+009;1.796081960201263E-001;5.612577078863978E-004;6.094601470977068E-003;1.378092449158430E-003;
2.406333333333334E+009;1.802108436822891E-001;3.454903489910066E-004;6.146555766463280E-003;9.258155478164554E-004;
2.406500000000000E+009;1.802788823843002E-001;-5.821226295665838E-005;6.115800701081753E-003;6.387998000718653E-004;
2.406666666666667E+009;1.803023666143417E-001;-3.181170322932303E-004;5.913592875003815E-003;4.279000859241933E-004;
2.406833333333334E+009;1.806237697601318E-001;-5.769497947767377E-004;5.848843604326248E-003;1.196530138258822E-004;
2.407000000000000E+009;1.805839389562607E-001;-9.419259149581194E-004;5.783692002296448E-003;-1.359146699542180E-004;
2.407166666666667E+009;1.807318925857544E-001;-1.114810467697680E-003;5.772944074124098E-003;-3.861679579131305E-004;
2.407333333333334E+009;1.804194003343582E-001;-1.641689799726009E-003;5.639186128973961E-003;-5.821668892167509E-004;
2.407500000000000E+009;1.801180988550186E-001;-1.861912780441344E-003;5.561982747167349E-003;-7.179295062087476E-004;
2.407666666666667E+009;1.800269484519959E-001;-2.272193785756826E-003;5.368974991142750E-003;-1.124474103562534E-003;
2.407833333333334E+009;1.794676631689072E-001;-2.750300569459796E-003;5.122519563883543E-003;-1.377731328830123E-003;
2.408000000000000E+009;1.792127490043640E-001;-3.343089716508985E-003;5.163030698895454E-003;-1.479508238844574E-003;
2.408166666666667E+009;1.788401454687119E-001;-3.689394099637866E-003;4.899101797491312E-003;-1.689132768660784E-003;
2.408333333333334E+009;1.784551590681076E-001;-4.356995690613985E-003;4.703948739916086E-003;-1.768245128914714E-003;
2.408500000000000E+009;1.777208894491196E-001;-5.200947634875774E-003;4.559678025543690E-003;-2.242801012471318E-003;
2.408666666666667E+009;1.771276146173477E-001;-5.886400118470192E-003;4.441936034709215E-003;-2.121171215549111E-003;
2.408833333333334E+009;1.763565391302109E-001;-6.725644227117300E-003;4.346517380326986E-003;-2.414113143458962E-003;
2.409000000000000E+009;1.756954491138458E-001;-7.596493698656559E-003;4.049744922667742E-003;-2.494850661605597E-003;
2.409166666666667E+009;1.749796867370606E-001;-8.725374937057495E-003;3.833678318187594E-003;-2.597431186586618E-003;
2.409333333333334E+009;1.743366718292236E-001;-9.710338898003101E-003;3.763627028092742E-003;-2.795647131279111E-003;
2.409500000000000E+009;1.736101210117340E-001;-1.097830198705196E-002;3.458522725850344E-003;-2.786237280815840E-003;
2.409666666666667E+009;1.726956516504288E-001;-1.233485061675310E-002;3.244641702622175E-003;-2.886211732402444E-003;
2.409833333333334E+009;1.720162034034729E-001;-1.354089938104153E-002;3.150633070617914E-003;-2.910535084083676E-003;
2.410000000000000E+009;1.715569645166397E-001;-1.495816651731730E-002;2.729807747527957E-003;-2.938257064670324E-003;
2.410166666666667E+009;1.708230525255203E-001;-1.640676148235798E-002;2.708932617679238E-003;-2.888367511332035E-003;
2.410333333333334E+009;1.699942052364349E-001;-1.796806603670120E-002;2.546520205214620E-003;-3.002741141244769E-003;
2.410500000000000E+009;1.692177802324295E-001;-1.957609690725803E-002;2.508227480575442E-003;-3.040786134079099E-003;
2.410666666666667E+009;1.685791462659836E-001;-2.142366021871567E-002;2.283813431859016E-003;-3.008417086675763E-003;
2.410833333333334E+009;1.681677252054215E-001;-2.305277623236179E-002;2.162034856155515E-003;-3.078429028391838E-003;
2.411000000000000E+009;1.676525324583054E-001;-2.487220056355000E-002;2.087611472234130E-003;-2.954284893348813E-003;
2.411166666666667E+009;1.672377884387970E-001;-2.672823145985603E-002;1.857288880273700E-003;-2.981891389936209E-003;
2.411333333333334E+009;1.668341159820557E-001;-2.867631055414677E-002;1.834804425016046E-003;-2.946397755295038E-003;
2.411500000000000E+009;1.663884967565537E-001;-3.060668893158436E-002;1.688724732957780E-003;-2.827246673405170E-003;
2.411666666666667E+009;1.663193851709366E-001;-3.237704932689667E-002;1.583559205755591E-003;-2.938841469585896E-003;
2.411833333333334E+009;1.660847961902618E-001;-3.434259444475174E-002;1.490171416662633E-003;-2.985442522913218E-003;
2.412000000000000E+009;1.661189645528793E-001;-3.647613897919655E-002;1.419145148247480E-003;-2.886469010263681E-003;
2.412166666666667E+009;1.657207459211350E-001;-3.842001408338547E-002;1.508387504145503E-003;-2.908152760937810E-003;
2.412333333333334E+009;1.660864055156708E-001;-4.020395129919052E-002;1.198126818053424E-003;-2.901632804423571E-003;
2.412500000000000E+009;1.659746170043945E-001;-4.214911162853241E-002;1.076795044355094E-003;-3.045584773644805E-003;
2.412666666666667E+009;1.662438958883286E-001;-4.421322792768478E-002;1.128007192164660E-003;-2.942163730040193E-003;
2.412833333333334E+009;1.664090007543564E-001;-4.616173356771469E-002;8.950367919169366E-004;-3.052723594009876E-003;
2.413000000000000E+009;1.666506677865982E-001;-4.797628521919251E-002;9.254580945707858E-004;-2.955276286229491E-003;
2.413166666666667E+009;1.667644977569580E-001;-4.976582154631615E-002;7.245102315209806E-004;-2.969375113025308E-003;
2.413333333333334E+009;1.672006696462631E-001;-5.139993131160736E-002;6.569117540493608E-004;-3.056808141991496E-003;
2.413500000000000E+009;1.676402240991592E-001;-5.318940430879593E-002;6.260612281039357E-004;-3.070349572226405E-003;
2.413666666666667E+009;1.680934727191925E-001;-5.482183396816254E-002;4.232279025018215E-004;-2.959197387099266E-003;
2.413833333333334E+009;1.683845818042755E-001;-5.622056871652603E-002;1.730098447296768E-004;-3.070079954341054E-003;
2.414000000000000E+009;1.688908040523529E-001;-5.785970017313957E-002;1.620675466256216E-004;-3.029273357242346E-003;
2.414166666666667E+009;1.694649308919907E-001;-5.920092016458511E-002;1.820725592551753E-004;-2.910042414441705E-003;
2.414333333333334E+009;1.698501408100128E-001;-6.053084880113602E-002;-2.058380232483614E-005;-2.920286497101188E-003;
2.414500000000000E+009;1.704973280429840E-001;-6.153164803981781E-002;-1.775678974809125E-004;-2.860566833987832E-003;
2.414666666666667E+009;1.709803342819214E-001;-6.259413808584213E-002;-3.415085957385600E-004;-2.796362852677703E-003;
2.414833333333334E+009;1.712653487920761E-001;-6.382776796817780E-002;-4.397025040816516E-004;-2.808702643960714E-003;
2.415000000000000E+009;1.716729253530502E-001;-6.461298465728760E-002;-5.381130031310022E-004;-2.666566288098693E-003;
2.415166666666667E+009;1.720700711011887E-001;-6.557419896125794E-002;-6.000814610160887E-004;-2.483811462298036E-003;
2.415333333333334E+009;1.725920438766480E-001;-6.617816537618637E-002;-6.454794784076512E-004;-2.715049078688026E-003;
2.415500000000000E+009;1.728362143039703E-001;-6.693706661462784E-002;-7.757403654977679E-004;-2.618175698444247E-003;
2.415666666666667E+009;1.731253117322922E-001;-6.751178205013275E-002;-8.043496054597199E-004;-2.440421609207988E-003;
2.415833333333334E+009;1.733433604240418E-001;-6.802503764629364E-002;-1.117214327678084E-003;-2.482572337612510E-003;
2.416000000000000E+009;1.734068095684052E-001;-6.846930086612701E-002;-1.080268993973732E-003;-2.442705910652876E-003;
2.416166666666667E+009;1.737438440322876E-001;-6.883049011230469E-002;-1.236032810993493E-003;-2.240161178633571E-003;
2.416333333333334E+009;1.737198382616043E-001;-6.922864168882370E-002;-1.329899765551090E-003;-2.233806066215038E-003;
2.416500000000000E+009;1.736650168895721E-001;-6.952439993619919E-002;-1.386388670653105E-003;-1.980737783014774E-003;
2.416666666666667E+009;1.734397858381271E-001;-6.961436569690704E-002;-1.473426120355725E-003;-1.932317740283907E-003;
2.416833333333334E+009;1.733523309230804E-001;-7.000813633203507E-002;-1.277344534173608E-003;-1.788332825526595E-003;
2.417000000000000E+009;1.728524416685104E-001;-7.025159895420075E-002;-1.388283679261804E-003;-1.630493439733982E-003;
2.417166666666667E+009;1.725360602140427E-001;-7.029278576374054E-002;-1.507576438598335E-003;-1.445682602934539E-003;
2.417333333333334E+009;1.720528155565262E-001;-7.043405622243881E-002;-1.613891799934208E-003;-1.466988120228052E-003;
2.417500000000000E+009;1.713401824235916E-001;-7.074169814586639E-002;-1.425901195034385E-003;-1.339183654636145E-003;
2.417666666666667E+009;1.709005236625671E-001;-7.083953171968460E-002;-1.619967282749713E-003;-1.166951609775424E-003;
2.417833333333334E+009;1.700408756732941E-001;-7.093599438667297E-002;-1.519987126812339E-003;-1.077402383089066E-003;
2.418000000000000E+009;1.692142337560654E-001;-7.124236226081848E-002;-1.401439774781466E-003;-1.012221560813487E-003;
2.418166666666667E+009;1.683481037616730E-001;-7.138908654451370E-002;-1.588951912708581E-003;-7.844255887903273E-004;
2.418333333333334E+009;1.675890386104584E-001;-7.178065925836563E-002;-1.462496235035360E-003;-8.211559616029263E-004;
2.418500000000000E+009;1.663185060024262E-001;-7.203602045774460E-002;-1.335354754701257E-003;-7.493980810977519E-004;
2.418666666666667E+009;1.653268933296204E-001;-7.241639494895935E-002;-1.355403685010970E-003;-4.811351827811450E-004;
2.418833333333334E+009;1.641180813312531E-001;-7.290076464414597E-002;-1.412918674759567E-003;-5.802892846986651E-004;
2.419000000000000E+009;1.628002226352692E-001;-7.336165755987167E-002;-1.271506655029953E-003;-4.703439481090754E-004;
2.419166666666667E+009;1.617243289947510E-001;-7.397866249084473E-002;-1.276186201721430E-003;-5.651939427480102E-004;
2.419333333333334E+009;1.602878719568253E-001;-7.432647049427033E-002;-1.276056282222271E-003;-3.910053637810051E-004;
2.419500000000000E+009;1.592233926057816E-001;-7.531671226024628E-002;-1.150914235040546E-003;-2.562467125244439E-004;
2.419666666666667E+009;1.579711735248566E-001;-7.607573270797730E-002;-1.055989414453507E-003;-3.029445360880345E-004;
2.419833333333334E+009;1.566594690084457E-001;-7.673040777444840E-002;-1.004677033051848E-003;-2.459622337482870E-004;
2.420000000000000E+009;1.554094105958939E-001;-7.779753953218460E-002;-1.079347566701472E-003;-2.535785315558314E-004;
2.420166666666667E+009;1.542267352342606E-001;-7.879937440156937E-002;-9.310240857303143E-004;-2.805933472700417E-004;
2.420333333333334E+009;1.530709266662598E-001;-7.995810359716415E-002;-8.843847317621112E-004;-2.511143975425512E-005;
2.420500000000000E+009;1.519317328929901E-001;-8.079293370246887E-002;-7.886108360253274E-004;-8.130237256409600E-005;
2.420666666666667E+009;1.507994085550308E-001;-8.207785338163376E-002;-8.925907895900309E-004;-6.872903759358451E-005;
2.420833333333334E+009;1.497615277767181E-001;-8.355686068534851E-002;-7.993974140845239E-004;1.603915734449402E-004;
2.421000000000000E+009;1.486806273460388E-001;-8.503155410289764E-002;-6.563508650287986E-004;7.892239955253899E-005;
2.421166666666667E+009;1.477942168712616E-001;-8.635029196739197E-002;-5.651631508953869E-004;-3.692854079417884E-005;
2.421333333333334E+009;1.470763236284256E-001;-8.792308717966080E-002;-5.615460104309022E-004;6.900566950207576E-005;
2.421500000000000E+009;1.461882442235947E-001;-8.950305730104446E-002;-3.920567105524242E-004;1.537440693937242E-004;
2.421666666666667E+009;1.452918499708176E-001;-9.112762659788132E-002;-3.800576378125697E-004;-2.597896491352003E-005;
2.421833333333334E+009;1.449916213750839E-001;-9.272905439138413E-002;-2.555100945755839E-004;6.312791811069474E-005;
2.422000000000000E+009;1.442375779151917E-001;-9.443337470293045E-002;-2.231140533694997E-004;8.798153430689126E-005;
2.422166666666667E+009;1.438255310058594E-001;-9.630917757749558E-002;-5.847411375725642E-005;4.296267070458271E-005;
2.422333333333334E+009;1.434436589479446E-001;-9.783978015184403E-002;3.094040948781185E-005;8.587813499616459E-005;
2.422500000000000E+009;1.431648731231690E-001;-9.946323931217194E-002;8.544413867639378E-005;-7.721939618932083E-005;
2.422666666666667E+009;1.427630037069321E-001;-1.013315394520760E-001;-6.031593147781678E-005;-1.656922686379403E-004;
2.422833333333334E+009;1.429042816162109E-001;-1.032318323850632E-001;2.018688683165237E-004;-2.616529818624258E-004;
2.423000000000000E+009;1.427420973777771E-001;-1.048151254653931E-001;1.627805031603202E-004;-5.084807635284960E-004;
2.423166666666667E+009;1.429784893989563E-001;-1.065446212887764E-001;1.772560353856534E-004;-4.203542775940150E-004;
2.423333333333334E+009;1.430778801441193E-001;-1.080426797270775E-001;2.723381039686501E-004;-5.232000839896500E-004;
2.423500000000000E+009;1.431279629468918E-001;-1.097552254796028E-001;3.900766605511308E-004;-6.334538338705897E-004;
2.423666666666667E+009;1.432661861181259E-001;-1.114374324679375E-001;1.550755114294589E-004;-6.205955287441611E-004;
2.423833333333334E+009;1.435317844152451E-001;-1.129898205399513E-001;4.377770528662950E-004;-8.103046566247940E-004;
2.424000000000000E+009;1.437788754701614E-001;-1.142758205533028E-001;3.766585141420364E-004;-7.432798738591373E-004;
2.424166666666667E+009;1.441726535558701E-001;-1.157105863094330E-001;2.302314824191853E-004;-9.586401865817606E-004;
2.424333333333334E+009;1.445089578628540E-001;-1.170557960867882E-001;1.852466084528714E-004;-9.222577791661024E-004;
2.424500000000000E+009;1.449401080608368E-001;-1.184018850326538E-001;2.872139702958521E-005;-9.399591363035142E-004;
2.424666666666667E+009;1.455100476741791E-001;-1.193669736385346E-001;-8.692786650499329E-006;-1.086309668608010E-003;
2.424833333333334E+009;1.458110362291336E-001;-1.205518767237663E-001;-3.883655881509185E-005;-1.273862319067121E-003;
2.425000000000000E+009;1.462598890066147E-001;-1.215686053037643E-001;-1.452497963327915E-004;-1.285304664634168E-003;
2.425166666666667E+009;1.464953124523163E-001;-1.223633661866188E-001;-3.033765460713767E-005;-1.369008561596274E-003;
2.425333333333334E+009;1.469283849000931E-001;-1.231471747159958E-001;-1.726630580378696E-004;-1.458558253943920E-003;
2.425500000000000E+009;1.472980082035065E-001;-1.240002363920212E-001;-4.435347218532115E-004;-1.350059756077826E-003;
2.425666666666667E+009;1.474361121654511E-001;-1.245678812265396E-001;-3.118290042039007E-004;-1.381788402795792E-003;
2.425833333333334E+009;1.477630436420441E-001;-1.251020878553391E-001;-5.307347164489329E-004;-1.344898017123342E-003;
2.426000000000000E+009;1.479534804821014E-001;-1.255205273628235E-001;-6.067702197469771E-004;-1.513962168246508E-003;
2.426166666666667E+009;1.483949124813080E-001;-1.260270625352860E-001;-8.208180661313236E-004;-1.404818496666849E-003;
2.426333333333334E+009;1.482939124107361E-001;-1.262450665235519E-001;-7.175842765718699E-004;-1.395872095599771E-003;
2.426500000000000E+009;1.483093947172165E-001;-1.264905184507370E-001;-7.820758037269115E-004;-1.398650929331780E-003;
2.426666666666667E+009;1.485628634691238E-001;-1.264272779226303E-001;-8.756614406593144E-004;-1.381447887979448E-003;
2.426833333333334E+009;1.482079923152924E-001;-1.266859620809555E-001;-9.471038938499987E-004;-1.293743029236794E-003;
2.427000000000000E+009;1.479679793119431E-001;-1.269326657056809E-001;-1.042321557179093E-003;-1.336780493147671E-003;
2.427166666666667E+009;1.476509571075440E-001;-1.266912966966629E-001;-1.066973316483200E-003;-1.174806384369731E-003;
2.427333333333334E+009;1.472215503454208E-001;-1.267206221818924E-001;-1.218352699652314E-003;-1.257036346942186E-003;
2.427500000000000E+009;1.468591094017029E-001;-1.267366409301758E-001;-1.180044724605978E-003;-1.271497923880816E-003;
2.427666666666667E+009;1.462790518999100E-001;-1.266247332096100E-001;-1.138850464485586E-003;-1.198266865685582E-003;
