# Version 1.00
#
freq[Hz];re:Trc1_S11;im:Trc1_S11;re:Trc2_S21;im:Trc2_S21;
2.400000000000000E+009;1.631591767072678E-001;5.248402431607246E-002;-1.395191997289658E-003;4.526563454419375E-003;
2.400166666666667E+009;1.629173904657364E-001;5.102127417922020E-002;-1.330751925706863E-003;4.447869025170803E-003;
2.400333333333334E+009;1.628143638372421E-001;4.914326593279839E-002;-1.381804700940847E-003;4.680741112679243E-003;
2.400500000000000E+009;1.628812551498413E-001;4.738185554742813E-002;-1.420293236151338E-003;4.759210161864758E-003;
2.400666666666667E+009;1.626940667629242E-001;4.528147727251053E-002;-1.141071552410722E-003;4.916431847959757E-003;
2.400833333333334E+009;1.626373976469040E-001;4.344813525676727E-002;-1.140903797931969E-003;4.853427875787020E-003;
2.401000000000000E+009;1.627469658851624E-001;4.148243740200996E-002;-9.002650040201843E-004;5.261238198727369E-003;
2.401166666666667E+009;1.628420650959015E-001;3.938878327608109E-002;-7.910300628282130E-004;5.275927949696779E-003;
2.401333333333334E+009;1.629178225994110E-001;3.722577169537544E-002;-6.921005551703274E-004;5.422953050583601E-003;
2.401500000000000E+009;1.631461083889008E-001;3.534411638975143E-002;-4.315888218116015E-004;5.637868773192167E-003;
2.401666666666667E+009;1.634281873703003E-001;3.350777551531792E-002;-2.622951578814536E-004;5.820558406412602E-003;
2.401833333333334E+009;1.636444628238678E-001;3.144799545407295E-002;3.773852586164139E-005;5.788765382021666E-003;
2.402000000000000E+009;1.638776808977127E-001;2.944896556437016E-002;2.476354420650750E-004;5.972960963845253E-003;
2.402166666666667E+009;1.640364378690720E-001;2.748467773199081E-002;6.699680234305561E-004;5.897329654544592E-003;
2.402333333333334E+009;1.644646972417831E-001;2.559533901512623E-002;8.897513034753501E-004;6.053971592336893E-003;
2.402500000000000E+009;1.651498377323151E-001;2.366702817380428E-002;1.287771505303681E-003;6.124924402683973E-003;
2.402666666666667E+009;1.656433343887329E-001;2.196034416556358E-002;1.533546601422131E-003;6.143353879451752E-003;
2.402833333333334E+009;1.662161350250244E-001;2.026845514774323E-002;1.629154081456363E-003;6.101927720010281E-003;
2.403000000000000E+009;1.668742746114731E-001;1.859393157064915E-002;2.116908552125096E-003;6.223487202078104E-003;
2.403166666666667E+009;1.675090789794922E-001;1.692083477973938E-002;2.261370653286576E-003;6.127970293164253E-003;
2.403333333333334E+009;1.682858616113663E-001;1.549420785158873E-002;2.870255848392844E-003;6.001472938805819E-003;
2.403500000000000E+009;1.690376996994019E-001;1.401134580373764E-002;3.166486276313663E-003;6.012981757521629E-003;
2.403666666666667E+009;1.696792393922806E-001;1.242201309651136E-002;3.367297351360321E-003;5.664207041263580E-003;
2.403833333333334E+009;1.706710904836655E-001;1.106938440352678E-002;3.825800027698278E-003;5.605876445770264E-003;
2.404000000000000E+009;1.714015603065491E-001;9.956595487892628E-003;4.009900614619255E-003;5.336112808436155E-003;
2.404166666666667E+009;1.721143722534180E-001;8.759332820773125E-003;4.474552813917399E-003;5.213922355324030E-003;
2.404333333333334E+009;1.729611158370972E-001;7.692874874919653E-003;4.651161842048168E-003;4.843661095947027E-003;
2.404500000000000E+009;1.735807359218597E-001;6.539987865835428E-003;4.883216228336096E-003;4.718837793916464E-003;
2.404666666666667E+009;1.744256764650345E-001;5.784155800938606E-003;5.006973631680012E-003;4.372026771306992E-003;
2.404833333333334E+009;1.752487570047379E-001;4.882585257291794E-003;5.428357981145382E-003;4.114581737667322E-003;
2.405000000000000E+009;1.759175360202789E-001;4.112693481147289E-003;5.565010476857424E-003;3.684386378154159E-003;
2.405166666666667E+009;1.766493469476700E-001;3.344834782183170E-003;5.720401648432016E-003;3.382410388439894E-003;
2.405333333333334E+009;1.774261891841888E-001;2.654236741364002E-003;5.759857594966888E-003;3.089466597884893E-003;
2.405500000000000E+009;1.779313534498215E-001;2.131370129063726E-003;5.893305409699678E-003;2.652072813361883E-003;
2.405666666666667E+009;1.785488873720169E-001;1.757118036039174E-003;5.931538529694080E-003;2.278474858030677E-003;
2.405833333333334E+009;1.787937432527542E-001;1.211111550219357E-003;6.081887520849705E-003;2.054160227999091E-003;
2.406000000000000E+009;1.794002354145050E-001;8.259339374490082E-004;5.866013467311859E-003;1.628641737625003E-003;
2.406166666666667E+009;1.797086745500565E-001;6.802815478295088E-004;6.262949667870998E-003;1.274829846806824E-003;
2.406333333333334E+009;1.801377832889557E-001;2.220496971858665E-004;5.858371965587139E-003;9.036984993144870E-004;
2.406500000000000E+009;1.802102923393250E-001;-1.365396165056154E-004;6.027972325682640E-003;7.732082158327103E-004;
2.406666666666667E+009;1.803323626518250E-001;-2.759956114459783E-004;5.940153729170561E-003;3.178611805196852E-004;
2.406833333333334E+009;1.805646419525147E-001;-7.995469495654106E-004;5.506586283445358E-003;2.790374855976552E-004;
2.407000000000000E+009;1.807623803615570E-001;-9.340144461020827E-004;5.909478757530451E-003;-3.534449788276106E-004;
2.407166666666667E+009;1.807959675788879E-001;-1.211302471347153E-003;5.729451309889555E-003;-5.132477381266654E-004;
2.407333333333334E+009;1.804344207048416E-001;-1.590001280419529E-003;5.555327050387859E-003;-3.828980843536556E-004;
2.407500000000000E+009;1.801693886518478E-001;-1.982889370992780E-003;5.477386061102152E-003;-1.010953099466860E-003;
2.407666666666667E+009;1.800615936517716E-001;-2.285689814016223E-003;5.423369351774454E-003;-1.179763465188444E-003;
2.407833333333334E+009;1.796196401119232E-001;-2.822062931954861E-003;5.366983823478222E-003;-1.368290511891246E-003;
2.408000000000000E+009;1.792519986629486E-001;-3.432356985285878E-003;5.271260626614094E-003;-1.577494665980339E-003;
2.408166666666667E+009;1.787528991699219E-001;-3.685479518026114E-003;5.148923024535179E-003;-1.786736305803061E-003;
2.408333333333334E+009;1.783615946769714E-001;-4.285877104848623E-003;4.934041760861874E-003;-1.600694027729332E-003;
2.408500000000000E+009;1.778654307126999E-001;-5.167957860976458E-003;4.665019921958447E-003;-1.962959999218583E-003;
2.408666666666667E+009;1.771390587091446E-001;-5.995580460876226E-003;4.477628972381353E-003;-1.950683654285967E-003;
2.408833333333334E+009;1.764233559370041E-001;-6.894460413604975E-003;4.158574622124434E-003;-2.425524638965726E-003;
2.409000000000000E+009;1.756695955991745E-001;-7.719509303569794E-003;4.097148776054382E-003;-2.522824332118034E-003;
2.409166666666667E+009;1.750794500112534E-001;-8.600068278610706E-003;3.831459907814860E-003;-2.742464421316981E-003;
2.409333333333334E+009;1.743147969245911E-001;-9.870004840195179E-003;3.672616556286812E-003;-2.535038860514760E-003;
2.409500000000000E+009;1.735468208789825E-001;-1.108201313763857E-002;3.530229674652219E-003;-2.753882668912411E-003;
2.409666666666667E+009;1.726688593626022E-001;-1.225234568119049E-002;3.367673140019178E-003;-2.702029887586832E-003;
2.409833333333334E+009;1.719217747449875E-001;-1.352616492658854E-002;3.095223102718592E-003;-2.856565639376640E-003;
2.410000000000000E+009;1.714446991682053E-001;-1.488948240876198E-002;2.893065800890327E-003;-2.787112258374691E-003;
2.410166666666667E+009;1.706987768411636E-001;-1.659468188881874E-002;2.748631639406085E-003;-3.048094222322106E-003;
2.410333333333334E+009;1.700148433446884E-001;-1.802326925098896E-002;2.542617265135050E-003;-3.036568872630596E-003;
2.410500000000000E+009;1.694153100252152E-001;-1.962048187851906E-002;2.497357316315174E-003;-3.036399604752660E-003;
2.410666666666667E+009;1.687226295471191E-001;-2.150912024080753E-002;2.356229349970818E-003;-2.979147713631392E-003;
2.410833333333334E+009;1.681941151618958E-001;-2.304971031844616E-002;1.976080238819122E-003;-3.078511217609048E-003;
2.411000000000000E+009;1.677822321653366E-001;-2.477771230041981E-002;2.103265142068267E-003;-3.076081862673163E-003;
2.411166666666667E+009;1.672065258026123E-001;-2.675384096801281E-002;1.964710652828217E-003;-2.937682671472430E-003;
2.411333333333334E+009;1.667488068342209E-001;-2.864878252148628E-002;1.840257202275097E-003;-2.963640959933400E-003;
2.411500000000000E+009;1.665672212839127E-001;-3.056759759783745E-002;1.689373515546322E-003;-2.914897399023175E-003;
2.411666666666667E+009;1.662968844175339E-001;-3.261182457208633E-002;1.643778523430228E-003;-2.963511273264885E-003;
2.411833333333334E+009;1.661634892225266E-001;-3.423910215497017E-002;1.541970297694206E-003;-2.924319822341204E-003;
2.412000000000000E+009;1.660208851099014E-001;-3.653587400913239E-002;1.526713487692177E-003;-2.994795795530081E-003;
2.412166666666667E+009;1.658049523830414E-001;-3.838970512151718E-002;1.342437695711851E-003;-2.928876783698797E-003;
2.412333333333334E+009;1.662521511316299E-001;-4.021091386675835E-002;1.332169165834785E-003;-2.978738397359848E-003;
2.412500000000000E+009;1.661305278539658E-001;-4.222810640931130E-002;1.172511838376522E-003;-3.006075508892536E-003;
2.412666666666667E+009;1.661230921745300E-001;-4.426977038383484E-002;1.158917322754860E-003;-2.984629245474935E-003;
2.412833333333334E+009;1.665238738059998E-001;-4.603298008441925E-002;1.106964889913797E-003;-3.063280368223786E-003;
2.413000000000000E+009;1.666550934314728E-001;-4.784303903579712E-002;9.163588983938098E-004;-3.037371439859271E-003;
2.413166666666667E+009;1.669548749923706E-001;-4.978849738836289E-002;7.944477838464081E-004;-3.078933572396636E-003;
2.413333333333334E+009;1.671957969665527E-001;-5.149332061409950E-002;6.456564879044890E-004;-3.103725844994187E-003;
2.413500000000000E+009;1.676468849182129E-001;-5.318054184317589E-002;4.620960098691285E-004;-3.077479777857661E-003;
2.413666666666667E+009;1.680499911308289E-001;-5.474603176116943E-002;4.400163306854665E-004;-3.063061740249395E-003;
2.413833333333334E+009;1.684858500957489E-001;-5.623482540249825E-002;3.487561189103872E-004;-2.987792482599616E-003;
2.414000000000000E+009;1.688361018896103E-001;-5.777155607938767E-002;1.845198858063668E-004;-3.020668402314186E-003;
2.414166666666667E+009;1.694785803556442E-001;-5.908443778753281E-002;7.450227712979540E-005;-2.934325020760298E-003;
2.414333333333334E+009;1.698101162910461E-001;-6.051214039325714E-002;5.613471330434550E-006;-2.900635823607445E-003;
2.414500000000000E+009;1.705088764429092E-001;-6.162608414888382E-002;-9.054916881723329E-005;-2.900168299674988E-003;
2.414666666666667E+009;1.708791255950928E-001;-6.273919343948364E-002;-3.107469819951803E-004;-2.939039142802358E-003;
2.414833333333334E+009;1.712426096200943E-001;-6.376543641090393E-002;-4.296736151445657E-004;-2.918545622378588E-003;
2.415000000000000E+009;1.717407554388046E-001;-6.478749960660934E-002;-4.456527240108699E-004;-2.749264938756824E-003;
2.415166666666667E+009;1.722271740436554E-001;-6.560643762350082E-002;-5.721944617107511E-004;-2.527168020606041E-003;
2.415333333333334E+009;1.726445108652115E-001;-6.630908697843552E-002;-6.796091329306364E-004;-2.638258039951325E-003;
2.415500000000000E+009;1.729167997837067E-001;-6.699026376008987E-002;-8.383261738345027E-004;-2.485347446054220E-003;
2.415666666666667E+009;1.731254905462265E-001;-6.755651533603668E-002;-8.583809831179678E-004;-2.393866656348109E-003;
2.415833333333334E+009;1.733746528625488E-001;-6.802950054407120E-002;-1.006242702715099E-003;-2.432070905342698E-003;
2.416000000000000E+009;1.735029816627502E-001;-6.863395124673843E-002;-1.183504238724709E-003;-2.341630402952433E-003;
2.416166666666667E+009;1.737940460443497E-001;-6.887213885784149E-002;-1.113863429054618E-003;-2.184654586017132E-003;
2.416333333333334E+009;1.736890226602554E-001;-6.915638595819473E-002;-1.267956686206162E-003;-2.016734797507525E-003;
2.416500000000000E+009;1.736407428979874E-001;-6.966381520032883E-002;-1.180893741548061E-003;-2.033948199823499E-003;
2.416666666666667E+009;1.733507066965103E-001;-6.978966295719147E-002;-1.319822040386498E-003;-1.841358141973615E-003;
2.416833333333334E+009;1.733407229185104E-001;-7.011421024799347E-002;-1.236289041116834E-003;-1.770274364389479E-003;
2.417000000000000E+009;1.728612780570984E-001;-7.025797665119171E-002;-1.541065867058933E-003;-1.796369557268918E-003;
2.417166666666667E+009;1.724276244640350E-001;-7.044088840484619E-002;-1.480577397160232E-003;-1.591159263625741E-003;
2.417333333333334E+009;1.719668954610825E-001;-7.051484286785126E-002;-1.543348422273994E-003;-1.482701860368252E-003;
2.417500000000000E+009;1.714309602975845E-001;-7.085730135440826E-002;-1.576506765559316E-003;-1.443423563614488E-003;
2.417666666666667E+009;1.708388626575470E-001;-7.085470855236054E-002;-1.524828257970512E-003;-1.197751844301820E-003;
2.417833333333334E+009;1.700301170349121E-001;-7.104523479938507E-002;-1.470532733947039E-003;-1.147131202742457E-003;
2.418000000000000E+009;1.691325753927231E-001;-7.141211628913879E-002;-1.629769802093506E-003;-1.101273344829679E-003;
2.418166666666667E+009;1.683118194341660E-001;-7.144964486360550E-002;-1.444068155251443E-003;-9.778521489351988E-004;
2.418333333333334E+009;1.674738228321075E-001;-7.186873257160187E-002;-1.393425161950290E-003;-8.788531995378435E-004;
2.418500000000000E+009;1.663626879453659E-001;-7.218207418918610E-002;-1.446326961740851E-003;-8.874117629602552E-004;
2.418666666666667E+009;1.654082089662552E-001;-7.240623235702515E-002;-1.349996891804040E-003;-7.890266715548933E-004;
2.418833333333334E+009;1.640191823244095E-001;-7.285261154174805E-002;-1.254673115909100E-003;-6.672262097708881E-004;
2.419000000000000E+009;1.627632975578308E-001;-7.342386990785599E-002;-1.222527120262384E-003;-4.917598562315106E-004;
2.419166666666667E+009;1.618753224611282E-001;-7.392877340316773E-002;-1.254254137165844E-003;-5.350009887479246E-004;
2.419333333333334E+009;1.604233682155609E-001;-7.444403320550919E-002;-1.230017398484051E-003;-2.745827951002866E-004;
2.419500000000000E+009;1.591734141111374E-001;-7.530635595321655E-002;-1.163049833849073E-003;-3.618336922954768E-004;
2.419666666666667E+009;1.579667478799820E-001;-7.602564245462418E-002;-1.149355550296605E-003;-2.923664287663996E-004;
2.419833333333334E+009;1.567082256078720E-001;-7.662620395421982E-002;-1.110411714762449E-003;-1.683477457845584E-004;
2.420000000000000E+009;1.555562764406204E-001;-7.777335494756699E-002;-9.524231427349150E-004;-1.716995466267690E-004;
2.420166666666667E+009;1.543848961591721E-001;-7.882929593324661E-002;-9.368780301883817E-004;-5.659682938130572E-005;
2.420333333333334E+009;1.530937403440476E-001;-7.987125962972641E-002;-8.913961355574429E-004;-1.252716810995480E-005;
2.420500000000000E+009;1.520036309957504E-001;-8.090228587388992E-002;-7.437793537974358E-004;1.613001586520113E-005;
2.420666666666667E+009;1.510135531425476E-001;-8.212045580148697E-002;-7.495405734516680E-004;2.114723974955268E-005;
2.420833333333334E+009;1.499280333518982E-001;-8.358419686555862E-002;-6.809295737184584E-004;-7.871465641073883E-005;
2.421000000000000E+009;1.488744169473648E-001;-8.488854020833969E-002;-5.954701919108629E-004;1.435863850929309E-006;
2.421166666666667E+009;1.478011459112167E-001;-8.633922040462494E-002;-5.328149418346584E-004;8.104408334475011E-005;
2.421333333333334E+009;1.471294313669205E-001;-8.806494623422623E-002;-3.721800749190152E-004;1.764414446370211E-005;
2.421500000000000E+009;1.462903767824173E-001;-8.956170082092285E-002;-3.596486640162766E-004;2.521692949812859E-004;
2.421666666666667E+009;1.455128192901611E-001;-9.119941294193268E-002;-3.306834842078388E-004;1.173829950857908E-004;
2.421833333333334E+009;1.450549662113190E-001;-9.267035126686096E-002;-2.350886788917705E-004;1.104422481148504E-004;
2.422000000000000E+009;1.443500220775604E-001;-9.452818334102631E-002;-2.322499785805121E-004;6.172633584355936E-005;
2.422166666666667E+009;1.438726037740707E-001;-9.628823399543762E-002;-4.780851304531097E-005;1.539727236377075E-004;
2.422333333333334E+009;1.437675058841705E-001;-9.788757562637329E-002;-7.269411435117945E-005;4.168994482967037E-009;
2.422500000000000E+009;1.432178467512131E-001;-9.964798390865326E-002;9.105572098633274E-005;2.081710135826143E-006;
2.422666666666667E+009;1.429675817489624E-001;-1.012776941061020E-001;1.981242530746386E-005;-1.231340866070241E-004;
2.422833333333334E+009;1.427670866250992E-001;-1.033847332000732E-001;1.425929658580571E-004;-2.991341752931476E-004;
2.423000000000000E+009;1.427853405475617E-001;-1.049267426133156E-001;1.805258943932131E-004;-2.013683115364984E-004;
2.423166666666667E+009;1.428376436233521E-001;-1.066459864377976E-001;3.264360420871526E-004;-3.939906600862742E-004;
2.423333333333334E+009;1.430804580450058E-001;-1.081243231892586E-001;2.430412714602426E-004;-5.047439481131733E-004;
2.423500000000000E+009;1.431791484355927E-001;-1.099160835146904E-001;2.180547162424773E-004;-6.464087637141347E-004;
2.423666666666667E+009;1.433068066835403E-001;-1.115005239844322E-001;3.175081801600754E-004;-7.424665964208543E-004;
2.423833333333334E+009;1.438060700893402E-001;-1.130885183811188E-001;3.129166725557298E-004;-6.991139962337911E-004;
2.424000000000000E+009;1.437758356332779E-001;-1.142672821879387E-001;2.917980018537492E-004;-1.065954566001892E-003;
2.424166666666667E+009;1.441316157579422E-001;-1.158169806003571E-001;2.555773826315999E-004;-9.371858905069530E-004;
2.424333333333334E+009;1.446484923362732E-001;-1.170405521988869E-001;2.175101253669709E-004;-1.107085030525923E-003;
2.424500000000000E+009;1.450075805187225E-001;-1.184313446283341E-001;1.405660441378132E-004;-1.218923716805875E-003;
2.424666666666667E+009;1.455132216215134E-001;-1.194014474749565E-001;1.493182353442535E-004;-1.392408274114132E-003;
2.424833333333334E+009;1.457875221967697E-001;-1.204546168446541E-001;8.936160156736150E-005;-1.237889984622598E-003;
2.425000000000000E+009;1.462062001228333E-001;-1.216016113758087E-001;-7.902304059825838E-005;-1.390481833368540E-003;
2.425166666666667E+009;1.465062201023102E-001;-1.224439516663551E-001;-1.765279885148630E-004;-1.404502429068089E-003;
2.425333333333334E+009;1.468557268381119E-001;-1.232197806239128E-001;-2.448269806336612E-004;-1.240367651917040E-003;
2.425500000000000E+009;1.473821103572846E-001;-1.239650174975395E-001;-3.481347521301359E-004;-1.338469330221415E-003;
2.425666666666667E+009;1.474298685789108E-001;-1.245400011539459E-001;-3.997730673290789E-004;-1.557257142849267E-003;
2.425833333333334E+009;1.478637754917145E-001;-1.251603364944458E-001;-5.047117010690272E-004;-1.531521091237664E-003;
2.426000000000000E+009;1.479717344045639E-001;-1.256159245967865E-001;-5.821223021484911E-004;-1.421414781361818E-003;
2.426166666666667E+009;1.483578234910965E-001;-1.260307133197784E-001;-5.611552624031901E-004;-1.448190771043301E-003;
2.426333333333334E+009;1.483286023139954E-001;-1.262841671705246E-001;-7.174447528086603E-004;-1.393763348460197E-003;
2.426500000000000E+009;1.483341157436371E-001;-1.264064908027649E-001;-8.724301005713642E-004;-1.478224294260144E-003;
2.426666666666667E+009;1.485041826963425E-001;-1.265856027603149E-001;-9.734380291774869E-004;-1.328041427768767E-003;
2.426833333333334E+009;1.482916027307510E-001;-1.266751587390900E-001;-1.043371390551329E-003;-1.402964815497398E-003;
2.427000000000000E+009;1.480161547660828E-001;-1.268165558576584E-001;-9.296126663684845E-004;-1.358445268124342E-003;
2.427166666666667E+009;1.476481556892395E-001;-1.266869455575943E-001;-9.834278607740998E-004;-1.286390237510204E-003;
2.427333333333334E+009;1.471764296293259E-001;-1.267314702272415E-001;-1.086810720153153E-003;-1.258452772162855E-003;
2.427500000000000E+009;1.468268185853958E-001;-1.267630010843277E-001;-1.150193973444402E-003;-1.286563347093761E-003;
2.427666666666667E+009;1.462391763925552E-001;-1.267214566469193E-001;-1.235248520970345E-003;-1.372845727019012E-003;
