# Version 1.00
#
freq[Hz];re:Trc1_S11;im:Trc1_S11;re:Trc2_S21;im:Trc2_S21;
2.400000000000000E+009;1.630680114030838E-001;5.258353799581528E-002;-1.433054334484041E-003;4.616007674485445E-003;
2.400166666666667E+009;1.629989892244339E-001;5.099938809871674E-002;-1.539000426419079E-003;4.583278205245733E-003;
2.400333333333334E+009;1.628117412328720E-001;4.916058480739594E-002;-1.238246564753354E-003;4.834623076021671E-003;
2.400500000000000E+009;1.629920005798340E-001;4.723856225609779E-002;-1.127426861785352E-003;4.797640256583691E-003;
2.400666666666667E+009;1.627421081066132E-001;4.524588212370873E-002;-1.265239086933434E-003;4.972714465111494E-003;
2.400833333333334E+009;1.626676619052887E-001;4.353030025959015E-002;-1.013994333334267E-003;5.050059873610735E-003;
2.401000000000000E+009;1.627210080623627E-001;4.138996824622154E-002;-9.255993645638228E-004;5.364062730222940E-003;
2.401166666666667E+009;1.627412587404251E-001;3.944858536124229E-002;-7.633062195964158E-004;5.447883624583483E-003;
2.401333333333334E+009;1.626988947391510E-001;3.744321689009666E-002;-6.319599924609065E-004;5.519334692507982E-003;
2.401500000000000E+009;1.631500422954559E-001;3.529049828648567E-002;-4.923981614410877E-004;5.703574977815151E-003;
2.401666666666667E+009;1.633848994970322E-001;3.342309594154358E-002;-7.135741179808974E-005;5.827405489981175E-003;
2.401833333333334E+009;1.635450273752213E-001;3.142758458852768E-002;5.736414095736109E-005;5.828066729009152E-003;
2.402000000000000E+009;1.637009382247925E-001;2.947802096605301E-002;3.336886293254793E-004;5.975800566375256E-003;
2.402166666666667E+009;1.640250980854034E-001;2.743798308074474E-002;6.414962117560208E-004;6.010552402585745E-003;
2.402333333333334E+009;1.645843833684921E-001;2.565396204590797E-002;9.581534541212022E-004;6.067474838346243E-003;
2.402500000000000E+009;1.652550399303436E-001;2.383806742727757E-002;1.114099519327283E-003;6.125734187662602E-003;
2.402666666666667E+009;1.656738072633743E-001;2.193355374038220E-002;1.444049412384629E-003;6.200538482517004E-003;
2.402833333333334E+009;1.662105172872543E-001;2.026933617889881E-002;1.791192218661308E-003;6.219624076038599E-003;
2.403000000000000E+009;1.668869554996491E-001;1.849644631147385E-002;2.094748429954052E-003;6.259107496589422E-003;
2.403166666666667E+009;1.674267351627350E-001;1.698856987059116E-002;2.454366534948349E-003;6.001648958772421E-003;
2.403333333333334E+009;1.683500856161118E-001;1.542616449296475E-002;2.734693931415677E-003;5.998553708195686E-003;
2.403500000000000E+009;1.689911633729935E-001;1.389200706034899E-002;3.127340925857425E-003;5.733423866331577E-003;
2.403666666666667E+009;1.697486042976379E-001;1.248051412403584E-002;3.581099910661578E-003;5.730346310883761E-003;
2.403833333333334E+009;1.706737279891968E-001;1.125328708440065E-002;3.841707948595285E-003;5.408236756920815E-003;
2.404000000000000E+009;1.713774353265762E-001;9.969977661967278E-003;4.033155273646116E-003;5.481833126395941E-003;
2.404166666666667E+009;1.722157001495361E-001;8.746403269469738E-003;4.381010308861733E-003;5.247851368039846E-003;
2.404333333333334E+009;1.728660017251968E-001;7.710563950240612E-003;4.662321880459786E-003;4.846133291721344E-003;
2.404500000000000E+009;1.737419217824936E-001;6.679330486804247E-003;5.127075593918562E-003;4.642159212380648E-003;
2.404666666666667E+009;1.744982600212097E-001;5.643295589834452E-003;5.287594161927700E-003;4.240816459059715E-003;
2.404833333333334E+009;1.751517057418823E-001;4.842334892600775E-003;5.472521763294935E-003;4.064520820975304E-003;
2.405000000000000E+009;1.758878976106644E-001;4.050614312291145E-003;5.573371890932322E-003;3.597391769289970E-003;
2.405166666666667E+009;1.764730662107468E-001;3.396269865334034E-003;5.779062863439322E-003;3.300134791061282E-003;
2.405333333333334E+009;1.772987842559815E-001;2.597499871626496E-003;5.900798831135035E-003;3.083956427872181E-003;
2.405500000000000E+009;1.779898107051849E-001;2.043652115389705E-003;5.969473160803318E-003;2.884847577661276E-003;
2.405666666666667E+009;1.785560697317123E-001;1.746722613461316E-003;5.927529186010361E-003;2.393326722085476E-003;
2.405833333333334E+009;1.787894815206528E-001;1.304656849242747E-003;6.148891989141703E-003;1.959582557901740E-003;
2.406000000000000E+009;1.793709695339203E-001;7.870452827773988E-004;6.147904787212610E-003;1.727078226394951E-003;
2.406166666666667E+009;1.797343641519547E-001;6.404713494703174E-004;6.068124901503325E-003;1.412417273968458E-003;
2.406333333333334E+009;1.801008135080338E-001;2.949754125438631E-004;6.002418231219053E-003;1.084605697542429E-003;
2.406500000000000E+009;1.803600341081619E-001;-1.127628129324876E-004;6.160154007375240E-003;6.728715379722416E-004;
2.406666666666667E+009;1.803233623504639E-001;-2.858185325749219E-004;6.003650836646557E-003;5.499225808307529E-004;
2.406833333333334E+009;1.806268841028214E-001;-6.599465268664062E-004;5.993779748678207E-003;2.824852417688817E-004;
2.407000000000000E+009;1.806225776672363E-001;-9.219045168720186E-004;5.844513885676861E-003;-5.363221862353385E-005;
2.407166666666667E+009;1.806264966726303E-001;-1.160187763161957E-003;5.854737944900990E-003;-2.408481668680906E-004;
2.407333333333334E+009;1.804544031620026E-001;-1.607636921107769E-003;5.724003538489342E-003;-6.512839463539422E-004;
2.407500000000000E+009;1.802769750356674E-001;-1.969107426702976E-003;5.509620998054743E-003;-8.087262976914644E-004;
2.407666666666667E+009;1.799980998039246E-001;-2.235424006357789E-003;5.415221210569143E-003;-1.175494398921728E-003;
2.407833333333334E+009;1.795857846736908E-001;-2.888536313548684E-003;5.224414635449648E-003;-1.306235091760755E-003;
2.408000000000000E+009;1.791374832391739E-001;-3.350686980411410E-003;5.067445337772369E-003;-1.467775204218924E-003;
2.408166666666667E+009;1.787451356649399E-001;-3.745811991393566E-003;4.896264988929033E-003;-1.702544628642499E-003;
2.408333333333334E+009;1.784524172544479E-001;-4.419970791786909E-003;4.794737324118614E-003;-2.056738361716270E-003;
2.408500000000000E+009;1.777470260858536E-001;-5.078036803752184E-003;4.685718100517988E-003;-2.059090882539749E-003;
2.408666666666667E+009;1.770574897527695E-001;-5.987134296447039E-003;4.345062654465437E-003;-2.198420232161880E-003;
2.408833333333334E+009;1.763692349195480E-001;-6.771283689886332E-003;4.210028331726790E-003;-2.297380473464727E-003;
2.409000000000000E+009;1.757478564977646E-001;-7.702961098402739E-003;4.202218726277351E-003;-2.497670706361532E-003;
2.409166666666667E+009;1.750357300043106E-001;-8.676690980792046E-003;3.800993785262108E-003;-2.719478681683540E-003;
2.409333333333334E+009;1.744287759065628E-001;-9.838191792368889E-003;3.654896514490247E-003;-2.737850416451693E-003;
2.409500000000000E+009;1.735117584466934E-001;-1.106756087392569E-002;3.523695748299360E-003;-2.837146166712046E-003;
2.409666666666667E+009;1.726304590702057E-001;-1.222254242748022E-002;3.297282848507166E-003;-2.871317090466619E-003;
2.409833333333334E+009;1.719273626804352E-001;-1.351431943476200E-002;3.035801229998469E-003;-2.925489330664277E-003;
2.410000000000000E+009;1.713933199644089E-001;-1.493530627340078E-002;3.016091650351882E-003;-2.986740553751588E-003;
2.410166666666667E+009;1.706230491399765E-001;-1.636454649269581E-002;2.727983752265573E-003;-3.047052305191755E-003;
2.410333333333334E+009;1.699346899986267E-001;-1.785338483750820E-002;2.573931589722633E-003;-3.002480370923877E-003;
2.410500000000000E+009;1.693811863660812E-001;-1.960514672100544E-002;2.415569731965661E-003;-3.114733146503568E-003;
2.410666666666667E+009;1.687695384025574E-001;-2.148936130106449E-002;2.315984340384603E-003;-2.959577599540353E-003;
2.410833333333334E+009;1.680778115987778E-001;-2.299843728542328E-002;2.272759797051549E-003;-3.113488666713238E-003;
2.411000000000000E+009;1.677646189928055E-001;-2.486743032932282E-002;2.128286752849817E-003;-2.876821905374527E-003;
2.411166666666667E+009;1.672009676694870E-001;-2.690738067030907E-002;1.875204616226256E-003;-3.006102051585913E-003;
2.411333333333334E+009;1.667678952217102E-001;-2.861080504953861E-002;1.852955087088049E-003;-3.004601458087564E-003;
2.411500000000000E+009;1.664000451564789E-001;-3.066239878535271E-002;1.805739942938089E-003;-2.901106374338269E-003;
2.411666666666667E+009;1.663826256990433E-001;-3.256080299615860E-002;1.566536608152092E-003;-2.891630865633488E-003;
2.411833333333334E+009;1.661982834339142E-001;-3.447075188159943E-002;1.621643081307411E-003;-3.057043999433518E-003;
2.412000000000000E+009;1.660126894712448E-001;-3.634224832057953E-002;1.555391587316990E-003;-3.013944486156106E-003;
2.412166666666667E+009;1.659633964300156E-001;-3.840607777237892E-002;1.371146412566304E-003;-2.922266256064177E-003;
2.412333333333334E+009;1.661657691001892E-001;-4.026503115892410E-002;1.472378615289927E-003;-2.847978146746755E-003;
2.412500000000000E+009;1.660102903842926E-001;-4.212736710906029E-002;1.188731403090060E-003;-3.099566325545311E-003;
2.412666666666667E+009;1.661355048418045E-001;-4.432838410139084E-002;1.127878553234041E-003;-2.974562114104629E-003;
2.412833333333334E+009;1.664303690195084E-001;-4.606208577752113E-002;1.083134906366468E-003;-2.980503253638744E-003;
2.413000000000000E+009;1.665521711111069E-001;-4.811218380928040E-002;9.376864181831479E-004;-3.121767425909638E-003;
2.413166666666667E+009;1.668470650911331E-001;-4.979634657502174E-002;8.761511999182403E-004;-3.103801514953375E-003;
2.413333333333334E+009;1.672440469264984E-001;-5.140898376703262E-002;6.529388483613730E-004;-3.034195862710476E-003;
2.413500000000000E+009;1.676245927810669E-001;-5.322954803705216E-002;6.083506159484386E-004;-2.979231299832463E-003;
2.413666666666667E+009;1.681319475173950E-001;-5.481808632612228E-002;3.781108825933188E-004;-2.950053196400404E-003;
2.413833333333334E+009;1.685734987258911E-001;-5.625874176621437E-002;4.173673223704100E-004;-3.067723475396633E-003;
2.414000000000000E+009;1.687448322772980E-001;-5.778804793953896E-002;2.884189016185701E-004;-2.973168389871717E-003;
2.414166666666667E+009;1.695280075073242E-001;-5.907286331057549E-002;1.480388018535450E-004;-2.992442110553384E-003;
2.414333333333334E+009;1.699791550636292E-001;-6.053960695862770E-002;-1.072761224349961E-004;-2.924755681306124E-003;
2.414500000000000E+009;1.704848110675812E-001;-6.158226355910301E-002;-1.412465499015525E-004;-2.860555658116937E-003;
2.414666666666667E+009;1.709634810686112E-001;-6.269502639770508E-002;-1.965556439245120E-004;-2.858872525393963E-003;
2.414833333333334E+009;1.712564826011658E-001;-6.373310089111328E-002;-3.409614146221429E-004;-2.809100085869432E-003;
2.415000000000000E+009;1.717415750026703E-001;-6.471364945173264E-002;-4.864379006903619E-004;-2.722184173762798E-003;
2.415166666666667E+009;1.720706224441528E-001;-6.551948189735413E-002;-6.146425148472190E-004;-2.807474695146084E-003;
2.415333333333334E+009;1.727067679166794E-001;-6.631281226873398E-002;-5.810210132040083E-004;-2.580112311989069E-003;
2.415500000000000E+009;1.728548705577850E-001;-6.694301962852478E-002;-7.556717027910054E-004;-2.542310860008001E-003;
2.415666666666667E+009;1.731420755386353E-001;-6.742177158594132E-002;-8.567555923946202E-004;-2.537120832130313E-003;
2.415833333333334E+009;1.734755337238312E-001;-6.805477291345596E-002;-9.817227255553007E-004;-2.417062874883413E-003;
2.416000000000000E+009;1.734273135662079E-001;-6.853584200143814E-002;-1.148718409240246E-003;-2.262298949062824E-003;
2.416166666666667E+009;1.737892031669617E-001;-6.887955963611603E-002;-1.097932690754533E-003;-2.323458669707179E-003;
2.416333333333334E+009;1.737575083971024E-001;-6.920845806598663E-002;-1.179200713522732E-003;-2.253586659207940E-003;
2.416500000000000E+009;1.736231595277786E-001;-6.956584751605988E-002;-1.212550094351172E-003;-2.168726408854127E-003;
2.416666666666667E+009;1.733411997556686E-001;-6.970379501581192E-002;-1.409724703989923E-003;-2.061952836811543E-003;
2.416833333333334E+009;1.733339428901672E-001;-7.002702355384827E-002;-1.387648168019950E-003;-1.789763802662492E-003;
2.417000000000000E+009;1.727748364210129E-001;-7.032616436481476E-002;-1.389589044265449E-003;-1.744576147757471E-003;
2.417166666666667E+009;1.724506020545960E-001;-7.024689763784409E-002;-1.371777034364641E-003;-1.625079661607742E-003;
2.417333333333334E+009;1.720902025699616E-001;-7.045652717351914E-002;-1.415426377207041E-003;-1.484529930166900E-003;
2.417500000000000E+009;1.714614629745483E-001;-7.071577012538910E-002;-1.410263474099338E-003;-1.581961289048195E-003;
2.417666666666667E+009;1.708814501762390E-001;-7.083926349878311E-002;-1.402647467330098E-003;-1.313756220042706E-003;
2.417833333333334E+009;1.700965762138367E-001;-7.109718024730682E-002;-1.510807313024998E-003;-1.175644225440919E-003;
2.418000000000000E+009;1.692005991935730E-001;-7.126748561859131E-002;-1.512637361884117E-003;-1.092007267288864E-003;
2.418166666666667E+009;1.683924496173859E-001;-7.134983688592911E-002;-1.632004044950008E-003;-1.003340468741953E-003;
2.418333333333334E+009;1.675792634487152E-001;-7.162054628133774E-002;-1.492223585955799E-003;-7.695996901020408E-004;
2.418500000000000E+009;1.664011776447296E-001;-7.198856770992279E-002;-1.443599117919803E-003;-8.408502326346934E-004;
2.418666666666667E+009;1.654695123434067E-001;-7.239608466625214E-002;-1.476344186812639E-003;-7.874970906414092E-004;
2.418833333333334E+009;1.641534715890884E-001;-7.292243093252182E-002;-1.403064350597560E-003;-6.139533361420035E-004;
2.419000000000000E+009;1.627669930458069E-001;-7.328110933303833E-002;-1.319248927757144E-003;-4.347414651419967E-004;
2.419166666666667E+009;1.617054343223572E-001;-7.378531992435455E-002;-1.237741671502590E-003;-4.990080487914383E-004;
2.419333333333334E+009;1.603330075740814E-001;-7.425016164779663E-002;-1.240124925971031E-003;-3.621078503783792E-004;
2.419500000000000E+009;1.593819707632065E-001;-7.526197284460068E-002;-1.364791067317128E-003;-2.863529662135989E-004;
2.419666666666667E+009;1.580224335193634E-001;-7.601766288280487E-002;-1.191571122035384E-003;-1.874393346952274E-004;
2.419833333333334E+009;1.566424965858460E-001;-7.678672671318054E-002;-1.035052235238254E-003;-2.469139290042222E-004;
2.420000000000000E+009;1.555531919002533E-001;-7.784610986709595E-002;-9.854855015873909E-004;-1.784669730113819E-004;
2.420166666666667E+009;1.542855650186539E-001;-7.879083603620529E-002;-9.742970578372479E-004;-1.609908213140443E-004;
2.420333333333334E+009;1.530894041061401E-001;-7.999175786972046E-002;-9.562931954860687E-004;-1.275901740882546E-004;
2.420500000000000E+009;1.520605236291885E-001;-8.085516840219498E-002;-7.109162979759276E-004;-1.345358759863302E-004;
2.420666666666667E+009;1.507523506879807E-001;-8.220489323139191E-002;-8.543906151317060E-004;-6.000772555125877E-005;
2.420833333333334E+009;1.498186290264130E-001;-8.344037085771561E-002;-7.457095198333263E-004;1.230699854204431E-004;
2.421000000000000E+009;1.488639414310455E-001;-8.500669151544571E-002;-6.604603840969503E-004;2.338207013963256E-005;
2.421166666666667E+009;1.478487253189087E-001;-8.646932244300842E-002;-6.147009553387761E-004;2.860365930246189E-005;
2.421333333333334E+009;1.472812294960022E-001;-8.802106976509094E-002;-5.470608011819422E-004;3.703114634845406E-005;
2.421500000000000E+009;1.461008340120316E-001;-8.939547836780548E-002;-5.248803063295782E-004;-3.726353315869346E-005;
2.421666666666667E+009;1.455539166927338E-001;-9.112158417701721E-002;-4.091331793460995E-004;-9.460059663979337E-005;
2.421833333333334E+009;1.448031067848206E-001;-9.266083687543869E-002;-3.300711396150291E-004;1.209615293191746E-004;
2.422000000000000E+009;1.442756950855255E-001;-9.435019642114639E-002;-3.720319364219904E-004;2.689747634576634E-005;
2.422166666666667E+009;1.438648253679276E-001;-9.629021584987640E-002;-6.658580969087780E-005;-9.485721420787741E-006;
2.422333333333334E+009;1.436489522457123E-001;-9.793116897344589E-002;4.390052345115691E-005;-1.245555031346157E-004;
2.422500000000000E+009;1.431498676538467E-001;-9.963601827621460E-002;1.208096800837666E-004;-1.330155355390161E-004;
2.422666666666667E+009;1.429550200700760E-001;-1.013009324669838E-001;5.778402555733919E-005;-5.178363062441349E-005;
2.422833333333334E+009;1.426640450954437E-001;-1.032473891973496E-001;1.673786318860948E-004;-1.884273515315726E-004;
2.423000000000000E+009;1.427417844533920E-001;-1.048323288559914E-001;1.524992549093440E-004;-3.599543706513941E-004;
2.423166666666667E+009;1.428392082452774E-001;-1.066113188862801E-001;2.759812632575631E-004;-3.840723657049239E-004;
2.423333333333334E+009;1.428959667682648E-001;-1.081728562712669E-001;3.905381308868527E-004;-3.823147853836417E-004;
2.423500000000000E+009;1.431555002927780E-001;-1.098003238439560E-001;3.108796081505716E-004;-5.680717877112329E-004;
2.423666666666667E+009;1.431229263544083E-001;-1.115270406007767E-001;2.540498680900782E-004;-6.781068514101207E-004;
2.423833333333334E+009;1.437083035707474E-001;-1.129864752292633E-001;1.929734135046601E-004;-8.324179798364639E-004;
2.424000000000000E+009;1.439213454723358E-001;-1.142666190862656E-001;2.008929877774790E-004;-9.676337358541787E-004;
2.424166666666667E+009;1.441277116537094E-001;-1.158091500401497E-001;1.209915499202907E-004;-9.761920082382858E-004;
2.424333333333334E+009;1.445996612310410E-001;-1.170879304409027E-001;1.506647531641647E-004;-1.095561659894884E-003;
2.424500000000000E+009;1.450859457254410E-001;-1.183785721659660E-001;1.457868347642943E-004;-1.133587677031755E-003;
2.424666666666667E+009;1.454115360975266E-001;-1.193536594510078E-001;1.526938867755234E-004;-1.161006512120366E-003;
2.424833333333334E+009;1.457099467515945E-001;-1.205001622438431E-001;-1.195939839817584E-004;-1.275676069781184E-003;
2.425000000000000E+009;1.462004780769348E-001;-1.214053258299828E-001;-2.119186974596232E-004;-1.232087146490812E-003;
2.425166666666667E+009;1.464575827121735E-001;-1.223106235265732E-001;-2.319917693967000E-004;-1.309036160819233E-003;
2.425333333333334E+009;1.469370275735855E-001;-1.231224536895752E-001;-3.710665914695710E-004;-1.372895319946110E-003;
2.425500000000000E+009;1.472444683313370E-001;-1.239742040634155E-001;-4.385981592349708E-004;-1.345388940535486E-003;
2.425666666666667E+009;1.474724709987640E-001;-1.245411857962608E-001;-3.167476679664105E-004;-1.424635644070804E-003;
2.425833333333334E+009;1.478168070316315E-001;-1.249215155839920E-001;-5.201656022109091E-004;-1.575188594870269E-003;
2.426000000000000E+009;1.480271965265274E-001;-1.256111413240433E-001;-5.902252160012722E-004;-1.330403960309923E-003;
2.426166666666667E+009;1.482646316289902E-001;-1.260408014059067E-001;-7.934108725748956E-004;-1.514261122792959E-003;
2.426333333333334E+009;1.483194231987000E-001;-1.262109875679016E-001;-7.644285215064883E-004;-1.414382248185575E-003;
2.426500000000000E+009;1.483736932277679E-001;-1.264432966709137E-001;-9.116575820371509E-004;-1.415970386005938E-003;
2.426666666666667E+009;1.484545320272446E-001;-1.265145093202591E-001;-8.382264059036970E-004;-1.298151910305023E-003;
2.426833333333334E+009;1.482908427715302E-001;-1.266964673995972E-001;-9.125607903115451E-004;-1.376535510644317E-003;
2.427000000000000E+009;1.479810774326325E-001;-1.268562376499176E-001;-1.071729580871761E-003;-1.391072175465524E-003;
2.427166666666667E+009;1.477833688259125E-001;-1.266330331563950E-001;-9.920590091496706E-004;-1.299895695410669E-003;
2.427333333333334E+009;1.472487449645996E-001;-1.266996413469315E-001;-1.271368935704231E-003;-1.409615622833371E-003;
2.427500000000000E+009;1.468625068664551E-001;-1.266929209232330E-001;-1.092032296583056E-003;-1.195276156067848E-003;
2.427666666666667E+009;1.461924314498901E-001;-1.266629844903946E-001;-1.247896580025554E-003;-1.174154924228787E-003;
