# Version 1.00
#
freq[Hz];re:Trc1_S11;im:Trc1_S11;re:Trc2_S21;im:Trc2_S21;
2.400000000000000E+009;1.585115045309067E-001;6.277678161859512E-002;-5.104161682538688E-004;2.359817735850811E-003;
2.400166666666667E+009;1.583658009767532E-001;6.114489212632179E-002;-3.749458410311490E-004;2.376978052780032E-003;
2.400333333333334E+009;1.582125723361969E-001;5.924573540687561E-002;-2.838658401742578E-004;2.396420342847705E-003;
2.400500000000000E+009;1.581193059682846E-001;5.742192640900612E-002;-1.472873118473217E-004;2.434290945529938E-003;
2.400666666666667E+009;1.578684896230698E-001;5.537332966923714E-002;-6.231469160411507E-005;2.447043079882860E-003;
2.400833333333334E+009;1.580437868833542E-001;5.345369875431061E-002;-4.529052603174932E-005;2.516899257898331E-003;
2.401000000000000E+009;1.578895151615143E-001;5.152941122651100E-002;-2.067220484605059E-004;2.641251776367426E-003;
2.401166666666667E+009;1.580927371978760E-001;4.918621852993965E-002;-1.238822551385965E-005;2.555479062721133E-003;
2.401333333333334E+009;1.581978797912598E-001;4.731669649481773E-002;-1.654817242524587E-005;2.663837745785713E-003;
2.401500000000000E+009;1.585326939821243E-001;4.536027461290360E-002;2.781189396046102E-004;2.703325357288122E-003;
2.401666666666667E+009;1.586936563253403E-001;4.317557811737061E-002;3.528374654706568E-004;2.910368377342820E-003;
2.401833333333334E+009;1.590439230203629E-001;4.095954447984695E-002;3.402097208891064E-004;2.864877693355084E-003;
2.402000000000000E+009;1.593077033758164E-001;3.915317729115486E-002;3.071692772209644E-004;2.646652515977621E-003;
2.402166666666667E+009;1.597756445407867E-001;3.712191805243492E-002;5.725029041059315E-004;2.884511603042483E-003;
2.402333333333334E+009;1.603200882673264E-001;3.540068864822388E-002;6.898962892591953E-004;2.871005330234766E-003;
2.402500000000000E+009;1.610554009675980E-001;3.335736691951752E-002;5.994437378831208E-004;2.911250805482268E-003;
2.402666666666667E+009;1.616367250680924E-001;3.150298073887825E-002;9.253431344404817E-004;3.044877899810672E-003;
2.402833333333334E+009;1.624872535467148E-001;2.987212687730789E-002;8.511114283464849E-004;2.906422829255462E-003;
2.403000000000000E+009;1.631300151348114E-001;2.812523953616619E-002;1.147293834947050E-003;2.924065571278334E-003;
2.403166666666667E+009;1.641039848327637E-001;2.645857259631157E-002;1.334947184659541E-003;3.048647427931428E-003;
2.403333333333334E+009;1.648440510034561E-001;2.499790489673615E-002;1.508355606347323E-003;3.098370041698217E-003;
2.403500000000000E+009;1.656841784715653E-001;2.349063195288181E-002;1.563081168569624E-003;2.919203601777554E-003;
2.403666666666667E+009;1.667615473270416E-001;2.223041281104088E-002;1.736996462568641E-003;3.165700007230043E-003;
2.403833333333334E+009;1.676594018936157E-001;2.088574133813381E-002;1.843799371272326E-003;2.952834125608206E-003;
2.404000000000000E+009;1.686876565217972E-001;1.957233250141144E-002;2.029732801020145E-003;3.123958827927709E-003;
2.404166666666667E+009;1.697118282318115E-001;1.835210807621479E-002;2.202267060056329E-003;2.908184891566634E-003;
2.404333333333334E+009;1.706488877534866E-001;1.748203486204147E-002;2.196565503254533E-003;2.915122313424945E-003;
2.404500000000000E+009;1.714682728052139E-001;1.650233753025532E-002;2.609654795378447E-003;2.752867992967367E-003;
2.404666666666667E+009;1.724535971879959E-001;1.554698962718248E-002;2.606873633340001E-003;2.766084857285023E-003;
2.404833333333334E+009;1.733471751213074E-001;1.488988753408194E-002;2.785032615065575E-003;2.657335484400392E-003;
2.405000000000000E+009;1.743528693914414E-001;1.394510082900524E-002;3.048544283956289E-003;2.605862449854612E-003;
2.405166666666667E+009;1.753021627664566E-001;1.336012873798609E-002;3.145153867080808E-003;2.542003523558378E-003;
2.405333333333334E+009;1.761212050914764E-001;1.270940806716681E-002;3.143280278891325E-003;2.580033149570227E-003;
2.405500000000000E+009;1.768615543842316E-001;1.215808279812336E-002;3.498127683997154E-003;2.386153908446431E-003;
2.405666666666667E+009;1.776381582021713E-001;1.182830985635519E-002;3.541427897289395E-003;2.125708153471351E-003;
2.405833333333334E+009;1.781397163867950E-001;1.144452299922705E-002;3.691331250593066E-003;1.947126467712224E-003;
2.406000000000000E+009;1.788567006587982E-001;1.093272585421801E-002;3.731707576662302E-003;1.917566405609250E-003;
2.406166666666667E+009;1.792185902595520E-001;1.070038229227066E-002;4.037665668874979E-003;1.696127234026790E-003;
2.406333333333334E+009;1.798344403505325E-001;1.037671696394682E-002;4.078092519193888E-003;1.638365210965276E-003;
2.406500000000000E+009;1.802398115396500E-001;9.960518218576908E-003;4.138527903705835E-003;1.421252964064479E-003;
2.406666666666667E+009;1.803146749734879E-001;9.773596189916134E-003;4.201389383524656E-003;1.376987900584936E-003;
2.406833333333334E+009;1.807597279548645E-001;9.437068365514278E-003;4.247657023370266E-003;1.095757936127484E-003;
2.407000000000000E+009;1.808302998542786E-001;9.094819426536560E-003;4.359327256679535E-003;9.703677496872842E-004;
2.407166666666667E+009;1.810616403818131E-001;8.953049778938294E-003;4.268268588930368E-003;8.722000056877732E-004;
2.407333333333334E+009;1.810220927000046E-001;8.409685455262661E-003;4.362800624221563E-003;6.146671366877854E-004;
2.407500000000000E+009;1.807064116001129E-001;8.090536110103130E-003;4.481285344809294E-003;4.601845867000520E-004;
2.407666666666667E+009;1.806919127702713E-001;7.699853740632534E-003;4.417990334331989E-003;2.005645073950291E-004;
2.407833333333334E+009;1.802274286746979E-001;7.125184871256352E-003;4.471047315746546E-003;5.068103564553894E-005;
2.408000000000000E+009;1.799585223197937E-001;6.430860608816147E-003;4.519646521657705E-003;-2.738945295277517E-005;
2.408166666666667E+009;1.795929074287415E-001;6.034792866557837E-003;4.588214680552483E-003;-1.945486437762156E-004;
2.408333333333334E+009;1.792315542697907E-001;5.176445003598929E-003;4.754239693284035E-003;-3.477013087831438E-004;
2.408500000000000E+009;1.787296533584595E-001;4.415392410010099E-003;4.673005081713200E-003;-6.455443217419088E-004;
2.408666666666667E+009;1.782484799623489E-001;3.632660256698728E-003;4.624160006642342E-003;-7.397104054689407E-004;
2.408833333333334E+009;1.774041652679443E-001;2.643478335812688E-003;4.653153009712696E-003;-7.047546096146107E-004;
2.409000000000000E+009;1.766994148492813E-001;1.735795638523996E-003;4.705356899648905E-003;-1.130287768319249E-003;
2.409166666666667E+009;1.761151850223541E-001;5.736150196753442E-004;4.684531129896641E-003;-1.420230022631586E-003;
2.409333333333334E+009;1.755557954311371E-001;-5.883308476768434E-004;4.628542345017195E-003;-1.310509978793562E-003;
2.409500000000000E+009;1.747751533985138E-001;-1.897331560030580E-003;4.602764267474413E-003;-1.644687028601766E-003;
2.409666666666667E+009;1.739454269409180E-001;-3.292358713224530E-003;4.670972935855389E-003;-1.670019933953881E-003;
2.409833333333334E+009;1.732578724622726E-001;-4.591758362948895E-003;4.627545364201069E-003;-2.069670939818025E-003;
2.410000000000000E+009;1.726062893867493E-001;-6.229187361896038E-003;4.643587861210108E-003;-2.128063002601266E-003;
2.410166666666667E+009;1.720868200063705E-001;-7.667128928005695E-003;4.613576456904411E-003;-2.362148603424430E-003;
2.410333333333334E+009;1.715727597475052E-001;-9.303734637796879E-003;4.620335530489683E-003;-2.484044525772333E-003;
2.410500000000000E+009;1.708869487047195E-001;-1.100014336407185E-002;4.458572715520859E-003;-2.737879054620862E-003;
2.410666666666667E+009;1.701952368021011E-001;-1.276393607258797E-002;4.317729268223047E-003;-3.047065576538444E-003;
2.410833333333334E+009;1.699004918336868E-001;-1.445380225777626E-002;4.338914062827826E-003;-3.244237508624792E-003;
2.411000000000000E+009;1.695126444101334E-001;-1.623163186013699E-002;4.037695005536079E-003;-3.444251371547580E-003;
2.411166666666667E+009;1.691048443317413E-001;-1.830978132784367E-002;4.047664813697338E-003;-3.610801883041859E-003;
2.411333333333334E+009;1.686896383762360E-001;-2.008551917970181E-002;3.943237941712141E-003;-3.875428112223744E-003;
2.411500000000000E+009;1.683792918920517E-001;-2.202109992504120E-002;3.703358815982938E-003;-4.126236774027348E-003;
2.411666666666667E+009;1.684167236089706E-001;-2.411654777824879E-002;3.642338095232844E-003;-4.218985792249441E-003;
2.411833333333334E+009;1.683318614959717E-001;-2.594868093729019E-002;3.463979111984372E-003;-4.409040790051222E-003;
2.412000000000000E+009;1.684197783470154E-001;-2.790436893701553E-002;3.368049161508679E-003;-4.516917280852795E-003;
2.412166666666667E+009;1.681768894195557E-001;-2.986842766404152E-002;2.899682847782970E-003;-4.740203730762005E-003;
2.412333333333334E+009;1.686377078294754E-001;-3.180057182908058E-002;2.742687473073602E-003;-4.945940803736448E-003;
2.412500000000000E+009;1.684412062168121E-001;-3.388534113764763E-002;2.587087219581008E-003;-5.134417209774256E-003;
2.412666666666667E+009;1.689914315938950E-001;-3.592664375901222E-002;2.415085677057505E-003;-5.012847948819399E-003;
2.412833333333334E+009;1.692757308483124E-001;-3.774183988571167E-002;2.216255525127053E-003;-5.231601186096668E-003;
2.413000000000000E+009;1.695946902036667E-001;-3.945050761103630E-002;1.856751623563469E-003;-5.331427790224552E-003;
2.413166666666667E+009;1.700057238340378E-001;-4.133192077279091E-002;1.645518117584288E-003;-5.487779155373573E-003;
2.413333333333334E+009;1.703740805387497E-001;-4.295562952756882E-002;1.340924878604710E-003;-5.497655365616083E-003;
2.413500000000000E+009;1.707733869552612E-001;-4.472220689058304E-002;1.068011508323252E-003;-5.514524877071381E-003;
2.413666666666667E+009;1.713163405656815E-001;-4.620037600398064E-002;8.871539612300694E-004;-5.639486946165562E-003;
2.413833333333334E+009;1.717736721038818E-001;-4.772519320249558E-002;6.908799987286329E-004;-5.647079553455114E-003;
2.414000000000000E+009;1.723518222570419E-001;-4.931027442216873E-002;2.959693665616214E-004;-5.695933010429144E-003;
2.414166666666667E+009;1.728244572877884E-001;-5.062866583466530E-002;-8.208699728129432E-005;-5.636121612042189E-003;
2.414333333333334E+009;1.732827723026276E-001;-5.190736800432205E-002;-3.225547552574426E-004;-5.633259657770395E-003;
2.414500000000000E+009;1.742217540740967E-001;-5.307045578956604E-002;-5.179364816285670E-004;-5.573225673288107E-003;
2.414666666666667E+009;1.746630221605301E-001;-5.415651574730873E-002;-7.213436765596271E-004;-5.548979621380568E-003;
2.414833333333334E+009;1.749973595142365E-001;-5.516278743743897E-002;-9.561199694871903E-004;-5.471568088978529E-003;
2.415000000000000E+009;1.754135936498642E-001;-5.606155097484589E-002;-1.264474703930318E-003;-5.405402742326260E-003;
2.415166666666667E+009;1.759200990200043E-001;-5.692759528756142E-002;-1.242232276126742E-003;-5.267710424959660E-003;
2.415333333333334E+009;1.763505041599274E-001;-5.763678252696991E-002;-1.708529307506979E-003;-5.118713714182377E-003;
2.415500000000000E+009;1.766911298036575E-001;-5.832733958959580E-002;-1.746494672261179E-003;-4.889543633908033E-003;
2.415666666666667E+009;1.769096404314041E-001;-5.888121202588081E-002;-1.957268454134464E-003;-4.803965333849192E-003;
2.415833333333334E+009;1.772055476903915E-001;-5.925306677818298E-002;-2.250952646136284E-003;-4.775696434080601E-003;
2.416000000000000E+009;1.773106604814529E-001;-5.987950414419174E-002;-2.240964444354177E-003;-4.694933537393808E-003;
2.416166666666667E+009;1.775440871715546E-001;-6.028020009398460E-002;-2.509566023945808E-003;-4.388731904327869E-003;
2.416333333333334E+009;1.774128377437592E-001;-6.051024422049522E-002;-2.654607873409987E-003;-4.299794789403677E-003;
2.416500000000000E+009;1.774424910545349E-001;-6.086484342813492E-002;-2.723881741985679E-003;-4.276320803910494E-003;
2.416666666666667E+009;1.772013157606125E-001;-6.103137135505676E-002;-2.753211185336113E-003;-4.042211454361677E-003;
2.416833333333334E+009;1.770659685134888E-001;-6.152335554361343E-002;-2.963617444038391E-003;-3.825971391052008E-003;
2.417000000000000E+009;1.766017526388168E-001;-6.172951683402062E-002;-3.158255945891142E-003;-3.840846475213766E-003;
2.417166666666667E+009;1.761116087436676E-001;-6.186538562178612E-002;-3.165183123201132E-003;-3.635078435763717E-003;
2.417333333333334E+009;1.755872815847397E-001;-6.190413609147072E-002;-3.325353376567364E-003;-3.516637720167637E-003;
2.417500000000000E+009;1.751390248537064E-001;-6.241213530302048E-002;-3.315861569717526E-003;-3.338399110361934E-003;
2.417666666666667E+009;1.745439320802689E-001;-6.240531057119370E-002;-3.251170273870230E-003;-3.277175594121218E-003;
2.417833333333334E+009;1.737430840730667E-001;-6.265049427747726E-002;-3.447030903771520E-003;-3.093036124482751E-003;
2.418000000000000E+009;1.728709787130356E-001;-6.299317628145218E-002;-3.497556550428271E-003;-3.015230875462294E-003;
2.418166666666667E+009;1.719375252723694E-001;-6.327766925096512E-002;-3.499197773635387E-003;-2.788138808682561E-003;
2.418333333333334E+009;1.711001098155975E-001;-6.367515772581101E-002;-3.617388894781470E-003;-2.744097495451570E-003;
2.418500000000000E+009;1.701117157936096E-001;-6.399681419134140E-002;-3.735158592462540E-003;-2.721606055274606E-003;
2.418666666666667E+009;1.691661626100540E-001;-6.443857401609421E-002;-3.666922450065613E-003;-2.419404918327928E-003;
2.418833333333334E+009;1.678691208362579E-001;-6.500159204006195E-002;-3.836809657514095E-003;-2.288040472194552E-003;
2.419000000000000E+009;1.666280627250671E-001;-6.552942097187042E-002;-3.706270596012473E-003;-2.418445423245430E-003;
2.419166666666667E+009;1.654627472162247E-001;-6.615923345088959E-002;-3.856195835396648E-003;-2.268734388053417E-003;
2.419333333333334E+009;1.641336083412170E-001;-6.665782630443573E-002;-3.891698084771633E-003;-2.022402361035347E-003;
2.419500000000000E+009;1.630761325359345E-001;-6.767119467258453E-002;-3.850567853078246E-003;-1.859953976236284E-003;
2.419666666666667E+009;1.618850678205490E-001;-6.847893446683884E-002;-3.945541102439165E-003;-1.953118364326656E-003;
2.419833333333334E+009;1.606416106224060E-001;-6.923342496156693E-002;-3.930638078600168E-003;-1.973853679373860E-003;
2.420000000000000E+009;1.595345884561539E-001;-7.044354826211929E-002;-3.991658799350262E-003;-1.733007957227528E-003;
2.420166666666667E+009;1.583898514509201E-001;-7.139602303504944E-002;-4.072072450071573E-003;-1.843452919274569E-003;
2.420333333333334E+009;1.572993695735931E-001;-7.264209538698196E-002;-4.233850166201592E-003;-1.604080433025956E-003;
2.420500000000000E+009;1.563261747360230E-001;-7.365081459283829E-002;-4.366126842796803E-003;-1.378168584778905E-003;
2.420666666666667E+009;1.553353518247604E-001;-7.479181140661240E-002;-4.146225750446320E-003;-1.413165125995874E-003;
2.420833333333334E+009;1.543732136487961E-001;-7.630042731761932E-002;-4.400157835334539E-003;-1.289416104555130E-003;
2.421000000000000E+009;1.533995717763901E-001;-7.776371389627457E-002;-4.416009411215782E-003;-1.126663177274168E-003;
2.421166666666667E+009;1.526757627725601E-001;-7.912491261959076E-002;-4.506585188210011E-003;-1.001227414235473E-003;
2.421333333333334E+009;1.520271003246307E-001;-8.075182139873505E-002;-4.506232682615519E-003;-8.811188745312393E-004;
2.421500000000000E+009;1.511230170726776E-001;-8.226801455020905E-002;-4.636630881577730E-003;-6.648935959674418E-004;
2.421666666666667E+009;1.507755219936371E-001;-8.403465151786804E-002;-4.650261253118515E-003;-5.625564954243600E-004;
2.421833333333334E+009;1.503074914216995E-001;-8.551879227161408E-002;-4.850154276937246E-003;-4.862134228460491E-004;
2.422000000000000E+009;1.497746258974075E-001;-8.707862347364426E-002;-4.791134502738714E-003;-2.549712371546775E-004;
2.422166666666667E+009;1.496285051107407E-001;-8.914902061223984E-002;-4.865491762757301E-003;-3.966049177961395E-007;
2.422333333333334E+009;1.495255082845688E-001;-9.069542586803436E-002;-4.815980326384306E-003;8.002990944078192E-005;
2.422500000000000E+009;1.491609364748001E-001;-9.213081002235413E-002;-4.940451122820377E-003;3.934804408345372E-004;
2.422666666666667E+009;1.489034146070480E-001;-9.384968876838684E-002;-4.911303054541349E-003;6.089195376262069E-004;
2.422833333333334E+009;1.491538733243942E-001;-9.569579362869263E-002;-4.967013839632273E-003;7.327291532419622E-004;
2.423000000000000E+009;1.492599695920944E-001;-9.732963889837265E-002;-5.076762754470110E-003;1.027130638249219E-003;
2.423166666666667E+009;1.496039330959320E-001;-9.908241778612137E-002;-4.904486238956451E-003;1.327730715274811E-003;
2.423333333333334E+009;1.497886180877686E-001;-1.004929617047310E-001;-5.000122357159853E-003;1.406406983733177E-003;
2.423500000000000E+009;1.501472294330597E-001;-1.021347567439079E-001;-4.861589055508375E-003;1.782378880307078E-003;
2.423666666666667E+009;1.503922343254089E-001;-1.037158593535423E-001;-4.805416334420443E-003;2.030669478699565E-003;
2.423833333333334E+009;1.509448587894440E-001;-1.052912250161171E-001;-4.569680429995060E-003;2.216581022366881E-003;
2.424000000000000E+009;1.511854678392410E-001;-1.063945814967156E-001;-4.542013630270958E-003;2.417246345430613E-003;
2.424166666666667E+009;1.515505611896515E-001;-1.077856719493866E-001;-4.371386487036943E-003;2.736031776294112E-003;
2.424333333333334E+009;1.523426771163940E-001;-1.089920848608017E-001;-4.179185722023249E-003;2.956297947093844E-003;
2.424500000000000E+009;1.526818573474884E-001;-1.103366985917091E-001;-4.123815335333347E-003;3.194435965269804E-003;
2.424666666666667E+009;1.531960815191269E-001;-1.113316491246223E-001;-4.030568525195122E-003;3.184974193572998E-003;
2.424833333333334E+009;1.534601747989655E-001;-1.123958528041840E-001;-3.672423539683223E-003;3.542705439031124E-003;
2.425000000000000E+009;1.540507823228836E-001;-1.133227199316025E-001;-3.538075368851423E-003;3.519313875585794E-003;
2.425166666666667E+009;1.543812006711960E-001;-1.142530217766762E-001;-3.318653441965580E-003;3.662112634629011E-003;
2.425333333333334E+009;1.548224985599518E-001;-1.150893718004227E-001;-3.172910306602716E-003;3.669746918603778E-003;
2.425500000000000E+009;1.553695499897003E-001;-1.158041879534721E-001;-2.757911570370197E-003;3.887476632371545E-003;
2.425666666666667E+009;1.554808765649796E-001;-1.163812428712845E-001;-2.531145233660936E-003;4.107366781681776E-003;
2.425833333333334E+009;1.557582914829254E-001;-1.169486939907074E-001;-2.487296704202890E-003;4.059557337313891E-003;
2.426000000000000E+009;1.560387760400772E-001;-1.175138950347900E-001;-2.010669792070985E-003;4.080211743712425E-003;
2.426166666666667E+009;1.563702970743179E-001;-1.178543418645859E-001;-1.904371078126133E-003;4.160665441304445E-003;
2.426333333333334E+009;1.562119275331497E-001;-1.182271763682365E-001;-1.685688854195178E-003;4.037675447762013E-003;
2.426500000000000E+009;1.563113629817963E-001;-1.184745877981186E-001;-1.427649753168225E-003;3.931180573999882E-003;
2.426666666666667E+009;1.564661711454392E-001;-1.186703965067864E-001;-1.164969638921320E-003;4.139938391745091E-003;
2.426833333333334E+009;1.561538279056549E-001;-1.189110353589058E-001;-9.608627296984196E-004;3.954580519348383E-003;
2.427000000000000E+009;1.560202389955521E-001;-1.191815510392189E-001;-7.501083309762180E-004;3.919739276170731E-003;
2.427166666666667E+009;1.555884629487991E-001;-1.191326826810837E-001;-6.580624612979591E-004;3.896747250109911E-003;
2.427333333333334E+009;1.551860570907593E-001;-1.192779242992401E-001;-5.106698954477906E-004;3.796880599111319E-003;
2.427500000000000E+009;1.546628922224045E-001;-1.194304078817368E-001;-4.100468358956277E-004;3.679908812046051E-003;
2.427666666666667E+009;1.539617627859116E-001;-1.195773482322693E-001;-1.925517863128334E-004;3.713225247338414E-003;
