# Version 1.00
#
freq[Hz];re:Trc1_S11;im:Trc1_S11;re:Trc2_S21;im:Trc2_S21;
2.400000000000000E+009;1.587953269481659E-001;6.280227750539780E-002;-5.282807396724820E-004;2.397065982222557E-003;
2.400166666666667E+009;1.583724468946457E-001;6.115204840898514E-002;-4.230977792758495E-004;2.463908167555928E-003;
2.400333333333334E+009;1.582517325878143E-001;5.920512601733208E-002;-3.245004627387971E-004;2.535134088248015E-003;
2.400500000000000E+009;1.579795479774475E-001;5.739118158817291E-002;-2.176034904550761E-004;2.490349812433124E-003;
2.400666666666667E+009;1.579658091068268E-001;5.537425354123116E-002;-3.461535961832851E-004;2.501408569514751E-003;
2.400833333333334E+009;1.581369936466217E-001;5.361857265233994E-002;-8.351689757546410E-005;2.654716605320573E-003;
2.401000000000000E+009;1.580742299556732E-001;5.139026418328285E-002;2.054294054687489E-005;2.672945614904165E-003;
2.401166666666667E+009;1.581880599260330E-001;4.949593916535378E-002;1.645046540943440E-005;2.642691135406494E-003;
2.401333333333334E+009;1.581560373306274E-001;4.732412472367287E-002;2.028387098107487E-004;2.818675013259053E-003;
2.401500000000000E+009;1.585510522127152E-001;4.538759216666222E-002;2.930687915068120E-004;2.775642322376370E-003;
2.401666666666667E+009;1.587889939546585E-001;4.327760636806488E-002;3.384052834007889E-004;2.817994449287653E-003;
2.401833333333334E+009;1.589926332235336E-001;4.119389504194260E-002;4.424919607117772E-004;2.906910609453917E-003;
2.402000000000000E+009;1.593476384878159E-001;3.921480104327202E-002;5.551831563934684E-004;2.849626587703824E-003;
2.402166666666667E+009;1.598825901746750E-001;3.703872114419937E-002;7.008441025391221E-004;3.049686783924699E-003;
2.402333333333334E+009;1.603362411260605E-001;3.516026213765144E-002;8.580439607612789E-004;2.914319979026914E-003;
2.402500000000000E+009;1.612734049558640E-001;3.340532630681992E-002;8.043681737035513E-004;2.918162383139134E-003;
2.402666666666667E+009;1.616938561201096E-001;3.149472922086716E-002;9.622076177038252E-004;3.090860787779093E-003;
2.402833333333334E+009;1.624368429183960E-001;2.983474917709827E-002;1.149933668784797E-003;2.834928222000599E-003;
2.403000000000000E+009;1.631196290254593E-001;2.820513397455216E-002;1.244810293428600E-003;3.081486793234944E-003;
2.403166666666667E+009;1.641052365303040E-001;2.650974690914154E-002;1.411522040143609E-003;3.099749097600579E-003;
2.403333333333334E+009;1.649960428476334E-001;2.508782595396042E-002;1.455113640986383E-003;3.266386687755585E-003;
2.403500000000000E+009;1.656652987003326E-001;2.372444979846478E-002;1.627185964025557E-003;2.985605271533132E-003;
2.403666666666667E+009;1.667228788137436E-001;2.221617102622986E-002;1.770601375028491E-003;2.955555450171232E-003;
2.403833333333334E+009;1.677915304899216E-001;2.082797139883041E-002;2.018170431256294E-003;3.006248269230127E-003;
2.404000000000000E+009;1.686452627182007E-001;1.968963444232941E-002;2.053353935480118E-003;2.938134362921119E-003;
2.404166666666667E+009;1.696293801069260E-001;1.854308135807514E-002;2.211792161688209E-003;2.724343910813332E-003;
2.404333333333334E+009;1.705986708402634E-001;1.753412000834942E-002;2.578453859314323E-003;3.001395845785737E-003;
2.404500000000000E+009;1.715056002140045E-001;1.648223958909512E-002;2.651362912729383E-003;2.825828734785318E-003;
2.404666666666667E+009;1.725829839706421E-001;1.560675445944071E-002;2.803235314786434E-003;2.606930211186409E-003;
2.404833333333334E+009;1.734498888254166E-001;1.488946098834276E-002;2.979628741741180E-003;2.763095544651151E-003;
2.405000000000000E+009;1.744270622730255E-001;1.396989822387695E-002;3.276538103818893E-003;2.465906552970409E-003;
2.405166666666667E+009;1.752792149782181E-001;1.334446016699076E-002;3.332914318889380E-003;2.498173853382468E-003;
2.405333333333334E+009;1.762530952692032E-001;1.263016462326050E-002;3.266550833359361E-003;2.300715306773782E-003;
2.405500000000000E+009;1.769656687974930E-001;1.221666205674410E-002;3.463393310084939E-003;2.088641049340367E-003;
2.405666666666667E+009;1.776421070098877E-001;1.183397043496370E-002;3.515930380672216E-003;2.181415446102619E-003;
2.405833333333334E+009;1.783231794834137E-001;1.150051411241293E-002;3.697154810652137E-003;1.960280817002058E-003;
2.406000000000000E+009;1.790183484554291E-001;1.084807887673378E-002;3.756886580958962E-003;1.859963871538639E-003;
2.406166666666667E+009;1.792964041233063E-001;1.073315087705851E-002;3.858409821987152E-003;1.675321836955845E-003;
2.406333333333334E+009;1.799354255199432E-001;1.033613365143538E-002;4.000693093985319E-003;1.551635097712278E-003;
2.406500000000000E+009;1.802861243486404E-001;9.974591434001923E-003;4.115877673029900E-003;1.517134718596935E-003;
2.406666666666667E+009;1.804649978876114E-001;9.651585482060909E-003;4.158861003816128E-003;1.288732863031328E-003;
2.406833333333334E+009;1.808519363403320E-001;9.257629513740540E-003;4.207339137792587E-003;1.070440281182528E-003;
2.407000000000000E+009;1.808788627386093E-001;8.930261246860027E-003;4.231737460941076E-003;9.163102949969471E-004;
2.407166666666667E+009;1.809767186641693E-001;8.773907087743282E-003;4.410817753523588E-003;7.721240399405360E-004;
2.407333333333334E+009;1.809875071048737E-001;8.263011462986469E-003;4.400478675961494E-003;6.175953894853592E-004;
2.407500000000000E+009;1.808568239212036E-001;7.976001128554344E-003;4.426775965839624E-003;4.592239565681666E-004;
2.407666666666667E+009;1.807067990303040E-001;7.607363630086184E-003;4.511309321969748E-003;2.777607878670096E-004;
2.407833333333334E+009;1.801889389753342E-001;6.917146500200033E-003;4.566499963402748E-003;9.697337372926995E-005;
2.408000000000000E+009;1.800337284803391E-001;6.265593692660332E-003;4.667703993618488E-003;-1.484711247030646E-004;
2.408166666666667E+009;1.796161234378815E-001;6.094481796026230E-003;4.692608024924994E-003;-1.785222702892497E-004;
2.408333333333334E+009;1.792723089456558E-001;5.310733802616596E-003;4.678822122514248E-003;-3.190436691511422E-004;
2.408500000000000E+009;1.787318438291550E-001;4.478798247873783E-003;4.711795598268509E-003;-5.690575926564634E-004;
2.408666666666667E+009;1.780982762575150E-001;3.540105884894729E-003;4.691600333899260E-003;-9.113723062910140E-004;
2.408833333333334E+009;1.775148063898087E-001;2.618031576275826E-003;4.495736211538315E-003;-8.997753029689193E-004;
2.409000000000000E+009;1.768235564231873E-001;1.721029751934111E-003;4.624317400157452E-003;-1.037945272400975E-003;
2.409166666666667E+009;1.762116104364395E-001;6.190484855324030E-004;4.689890891313553E-003;-1.192213501781225E-003;
2.409333333333334E+009;1.757652461528778E-001;-7.188697927631438E-004;4.744876641780138E-003;-1.370851648971438E-003;
2.409500000000000E+009;1.747082322835922E-001;-1.979599473997951E-003;4.740181379020214E-003;-1.579525531269610E-003;
2.409666666666667E+009;1.741480529308319E-001;-3.183254273608327E-003;4.625737201422453E-003;-1.753660966642201E-003;
2.409833333333334E+009;1.733155399560928E-001;-4.649504087865353E-003;4.566247109323740E-003;-2.090000547468662E-003;
2.410000000000000E+009;1.729473471641541E-001;-6.250259466469288E-003;4.658945370465517E-003;-2.304525813087821E-003;
2.410166666666667E+009;1.722250878810883E-001;-7.498617283999920E-003;4.546477459371090E-003;-2.448417944833636E-003;
2.410333333333334E+009;1.714529246091843E-001;-9.240644052624703E-003;4.517198540270329E-003;-2.695892937481403E-003;
2.410500000000000E+009;1.708518266677856E-001;-1.085396297276020E-002;4.400858655571938E-003;-2.833210164681077E-003;
2.410666666666667E+009;1.703569591045380E-001;-1.270932704210281E-002;4.381536971777678E-003;-2.965166000649333E-003;
2.410833333333334E+009;1.700178980827332E-001;-1.440179534256458E-002;4.332507029175758E-003;-3.256343305110931E-003;
2.411000000000000E+009;1.694587171077728E-001;-1.628678105771542E-002;4.193581175059080E-003;-3.555779345333576E-003;
2.411166666666667E+009;1.690019518136978E-001;-1.815606653690338E-002;4.005374386906624E-003;-3.676445223391056E-003;
2.411333333333334E+009;1.686896681785584E-001;-2.014847844839096E-002;3.914003260433674E-003;-3.993253689259291E-003;
2.411500000000000E+009;1.684875339269638E-001;-2.223434858024120E-002;3.654585918411613E-003;-4.173218272626400E-003;
2.411666666666667E+009;1.685873717069626E-001;-2.404428645968437E-002;3.554429160431027E-003;-4.282907117158175E-003;
2.411833333333334E+009;1.683650761842728E-001;-2.593581378459930E-002;3.431710880249739E-003;-4.722390789538622E-003;
2.412000000000000E+009;1.682873517274857E-001;-2.786170132458210E-002;3.258736571297050E-003;-4.739950411021709E-003;
2.412166666666667E+009;1.682724505662918E-001;-2.988014370203018E-002;3.166671842336655E-003;-4.866057541221380E-003;
2.412333333333334E+009;1.687273681163788E-001;-3.193622827529907E-002;2.801303053274751E-003;-5.051958840340376E-003;
2.412500000000000E+009;1.687103062868118E-001;-3.367938473820686E-002;2.612203592434526E-003;-5.154652055352926E-003;
2.412666666666667E+009;1.689840108156204E-001;-3.579077124595642E-002;2.297133905813098E-003;-5.221112631261349E-003;
2.412833333333334E+009;1.692682504653931E-001;-3.768836334347725E-002;2.071250230073929E-003;-5.493806675076485E-003;
2.413000000000000E+009;1.695510447025299E-001;-3.927006945014000E-002;1.818562275730074E-003;-5.432669073343277E-003;
2.413166666666667E+009;1.700952649116516E-001;-4.118769988417625E-002;1.708592171780765E-003;-5.564022343605757E-003;
2.413333333333334E+009;1.703784614801407E-001;-4.293835163116455E-002;1.190594513900578E-003;-5.519234109669924E-003;
2.413500000000000E+009;1.708259880542755E-001;-4.478203505277634E-002;9.101003524847329E-004;-5.569658242166042E-003;
2.413666666666667E+009;1.715397834777832E-001;-4.642950743436813E-002;7.429746910929680E-004;-5.648372694849968E-003;
2.413833333333334E+009;1.719330698251724E-001;-4.777508229017258E-002;4.615810757968575E-004;-5.616507027298212E-003;
2.414000000000000E+009;1.723414808511734E-001;-4.927502945065498E-002;3.772724303416908E-004;-5.584792234003544E-003;
2.414166666666667E+009;1.730329990386963E-001;-5.066154897212982E-002;-5.083850919618271E-005;-5.749858450144529E-003;
2.414333333333334E+009;1.734181195497513E-001;-5.205382406711578E-002;-2.904176653828472E-004;-5.736634600907564E-003;
2.414500000000000E+009;1.741137653589249E-001;-5.305478721857071E-002;-4.397192969918251E-004;-5.624151788651943E-003;
2.414666666666667E+009;1.745250970125198E-001;-5.406878143548966E-002;-8.472118643112481E-004;-5.366452503949404E-003;
2.414833333333334E+009;1.749328821897507E-001;-5.521050840616226E-002;-1.162422588095069E-003;-5.453422665596008E-003;
2.415000000000000E+009;1.754019856452942E-001;-5.607920885086060E-002;-1.133942627348006E-003;-5.426703952252865E-003;
2.415166666666667E+009;1.758501380681992E-001;-5.691245198249817E-002;-1.364164520055056E-003;-5.207602865993977E-003;
2.415333333333334E+009;1.763840466737747E-001;-5.769146978855133E-002;-1.577500137500465E-003;-5.299272015690804E-003;
2.415500000000000E+009;1.766761690378189E-001;-5.830143019556999E-002;-1.697069266811013E-003;-5.014440976083279E-003;
2.415666666666667E+009;1.768569648265839E-001;-5.884375050663948E-002;-1.982905203476548E-003;-4.849348682910204E-003;
2.415833333333334E+009;1.771613657474518E-001;-5.930803343653679E-002;-2.091671805828810E-003;-4.959465935826302E-003;
2.416000000000000E+009;1.772594451904297E-001;-5.986816063523293E-002;-2.351348055526614E-003;-4.789834376424551E-003;
2.416166666666667E+009;1.775381863117218E-001;-6.032756343483925E-002;-2.537995809689164E-003;-4.507740959525108E-003;
2.416333333333334E+009;1.774390488862991E-001;-6.055410578846932E-002;-2.757393987849355E-003;-4.480388015508652E-003;
2.416500000000000E+009;1.774787604808807E-001;-6.090691685676575E-002;-2.822446404024959E-003;-4.253707826137543E-003;
2.416666666666667E+009;1.771441698074341E-001;-6.107271462678909E-002;-2.875755541026592E-003;-4.082242026925087E-003;
2.416833333333334E+009;1.770914345979691E-001;-6.144813075661659E-002;-3.077128436416388E-003;-4.020695108920336E-003;
2.417000000000000E+009;1.765710711479187E-001;-6.172062084078789E-002;-3.033073619008064E-003;-3.803704632446170E-003;
2.417166666666667E+009;1.761778891086578E-001;-6.179482489824295E-002;-3.173443721607328E-003;-3.631306113675237E-003;
2.417333333333334E+009;1.756872981786728E-001;-6.199195235967636E-002;-3.348581492900848E-003;-3.562276251614094E-003;
2.417500000000000E+009;1.751695275306702E-001;-6.238173320889473E-002;-3.370331367477775E-003;-3.306566737592220E-003;
2.417666666666667E+009;1.744932234287262E-001;-6.240772083401680E-002;-3.382057882845402E-003;-3.288148902356625E-003;
2.417833333333334E+009;1.737244576215744E-001;-6.266598403453827E-002;-3.539311233907938E-003;-3.062522038817406E-003;
2.418000000000000E+009;1.727859675884247E-001;-6.306303292512894E-002;-3.575843526050448E-003;-2.859837375581265E-003;
2.418166666666667E+009;1.718477010726929E-001;-6.314720958471298E-002;-3.557110438123345E-003;-2.830619690939784E-003;
2.418333333333334E+009;1.712232083082199E-001;-6.363258510828018E-002;-3.586427541449666E-003;-2.646125387400389E-003;
2.418500000000000E+009;1.700153499841690E-001;-6.396175920963287E-002;-3.693100763484836E-003;-2.670596819370985E-003;
2.418666666666667E+009;1.690270006656647E-001;-6.456112116575241E-002;-3.774841316044331E-003;-2.478890819475055E-003;
2.418833333333334E+009;1.676927953958511E-001;-6.502190232276917E-002;-3.785499604418874E-003;-2.279884181916714E-003;
2.419000000000000E+009;1.665672808885574E-001;-6.550801545381546E-002;-3.877581795677543E-003;-2.354958793148398E-003;
2.419166666666667E+009;1.654823869466782E-001;-6.593447923660278E-002;-3.757343394681811E-003;-2.313276287168264E-003;
2.419333333333334E+009;1.640016138553619E-001;-6.674423813819885E-002;-3.904069075360894E-003;-2.118429867550731E-003;
2.419500000000000E+009;1.629266738891602E-001;-6.757905334234238E-002;-3.940498456358910E-003;-1.900716451928020E-003;
2.419666666666667E+009;1.619297266006470E-001;-6.838145852088928E-002;-4.035186488181353E-003;-1.771982992067933E-003;
2.419833333333334E+009;1.605506092309952E-001;-6.935101002454758E-002;-4.176537506282330E-003;-1.880214316770434E-003;
2.420000000000000E+009;1.595536768436432E-001;-7.034873962402344E-002;-3.981375601142645E-003;-1.599007169716060E-003;
2.420166666666667E+009;1.584278792142868E-001;-7.143910974264145E-002;-4.094470292329788E-003;-1.641844981350005E-003;
2.420333333333334E+009;1.573730856180191E-001;-7.250044494867325E-002;-4.011489450931549E-003;-1.533481758087874E-003;
2.420500000000000E+009;1.563767641782761E-001;-7.363039255142212E-002;-4.244165960699320E-003;-1.478140242397785E-003;
2.420666666666667E+009;1.552922576665878E-001;-7.486522942781448E-002;-4.378261975944042E-003;-1.262878533452749E-003;
2.420833333333334E+009;1.544723063707352E-001;-7.631022483110428E-002;-4.378105048090220E-003;-1.171305542811751E-003;
2.421000000000000E+009;1.534117162227631E-001;-7.764247059822083E-002;-4.384347703307867E-003;-9.752808255143464E-004;
2.421166666666667E+009;1.526757776737213E-001;-7.920083403587341E-002;-4.566492047160864E-003;-9.849090129137039E-004;
2.421333333333334E+009;1.521909385919571E-001;-8.082610368728638E-002;-4.490217659622431E-003;-7.564882398582995E-004;
2.421500000000000E+009;1.513346433639526E-001;-8.229255676269531E-002;-4.752516280859709E-003;-7.002475904300809E-004;
2.421666666666667E+009;1.508581638336182E-001;-8.396981656551361E-002;-4.688974935561419E-003;-5.819944781251252E-004;
2.421833333333334E+009;1.503507494926453E-001;-8.566580712795258E-002;-4.719327203929424E-003;-4.709267814178020E-004;
2.422000000000000E+009;1.499278992414475E-001;-8.712949603796005E-002;-4.856142681092024E-003;-1.928779965965077E-004;
2.422166666666667E+009;1.497191190719605E-001;-8.905740827322006E-002;-4.863140173256397E-003;-3.115934669040144E-005;
2.422333333333334E+009;1.495301425457001E-001;-9.062760323286057E-002;-4.959964659065008E-003;2.270800032420084E-004;
2.422500000000000E+009;1.491795033216476E-001;-9.236960858106613E-002;-4.965092986822128E-003;5.201133899390698E-004;
2.422666666666667E+009;1.491797715425491E-001;-9.394448995590210E-002;-4.922181833535433E-003;6.602094508707523E-004;
2.422833333333334E+009;1.492456644773483E-001;-9.583149105310440E-002;-4.836403764784336E-003;8.119499543681741E-004;
2.423000000000000E+009;1.492332369089127E-001;-9.737145155668259E-002;-4.862347617745400E-003;1.269620377570391E-003;
2.423166666666667E+009;1.495064496994019E-001;-9.913926571607590E-002;-4.983153194189072E-003;1.244067563675344E-003;
2.423333333333334E+009;1.499161124229431E-001;-1.004339233040810E-001;-4.746203776448965E-003;1.522052800282836E-003;
2.423500000000000E+009;1.500779986381531E-001;-1.022247448563576E-001;-4.700360819697380E-003;1.824404927901924E-003;
2.423666666666667E+009;1.504168510437012E-001;-1.038440689444542E-001;-4.741778131574392E-003;1.984518487006426E-003;
2.423833333333334E+009;1.508325040340424E-001;-1.053174138069153E-001;-4.492178093641996E-003;2.251912141218782E-003;
2.424000000000000E+009;1.512315124273300E-001;-1.064939126372337E-001;-4.558729007840157E-003;2.527826000005007E-003;
2.424166666666667E+009;1.516474932432175E-001;-1.079363748431206E-001;-4.331516101956368E-003;2.749959705397487E-003;
2.424333333333334E+009;1.521033346652985E-001;-1.089823842048645E-001;-4.103501792997122E-003;2.861169166862965E-003;
2.424500000000000E+009;1.525257229804993E-001;-1.103913336992264E-001;-3.998825326561928E-003;3.085484029725194E-003;
2.424666666666667E+009;1.532063931226730E-001;-1.112791746854782E-001;-3.769035683944821E-003;3.273337846621871E-003;
2.424833333333334E+009;1.535685211420059E-001;-1.124811172485352E-001;-3.526135347783566E-003;3.483406733721495E-003;
2.425000000000000E+009;1.541439443826675E-001;-1.134190261363983E-001;-3.332985797896981E-003;3.691977355629206E-003;
2.425166666666667E+009;1.544302999973297E-001;-1.141884773969650E-001;-3.100561210885644E-003;3.714235499501228E-003;
2.425333333333334E+009;1.548337638378143E-001;-1.149718090891838E-001;-3.024661447852850E-003;3.873731009662151E-003;
2.425500000000000E+009;1.553301811218262E-001;-1.158496215939522E-001;-2.675323048606515E-003;3.947154153138399E-003;
2.425666666666667E+009;1.554974913597107E-001;-1.163853481411934E-001;-2.498049754649401E-003;4.025010857731104E-003;
2.425833333333334E+009;1.558368355035782E-001;-1.169500052928925E-001;-2.274426864460111E-003;4.038684535771608E-003;
2.426000000000000E+009;1.561137586832047E-001;-1.174617111682892E-001;-1.963828224688768E-003;4.120310768485069E-003;
2.426166666666667E+009;1.563571095466614E-001;-1.179034933447838E-001;-1.830208231694996E-003;4.214815795421600E-003;
2.426333333333334E+009;1.563790738582611E-001;-1.181526333093643E-001;-1.599767012521625E-003;4.193624015897512E-003;
2.426500000000000E+009;1.563976407051086E-001;-1.185083538293839E-001;-1.553847338072956E-003;3.946036100387573E-003;
2.426666666666667E+009;1.564407199621201E-001;-1.186107695102692E-001;-1.102406298741698E-003;4.208837635815144E-003;
2.426833333333334E+009;1.562780141830444E-001;-1.189099401235580E-001;-8.501559495925903E-004;3.969895187765360E-003;
2.427000000000000E+009;1.560040265321732E-001;-1.191104874014854E-001;-6.793537177145481E-004;3.903084900230169E-003;
2.427166666666667E+009;1.556742042303085E-001;-1.190887689590454E-001;-5.749419797211886E-004;3.882238408550620E-003;
2.427333333333334E+009;1.551238000392914E-001;-1.192804053425789E-001;-6.317633087746799E-004;3.823901992291212E-003;
2.427500000000000E+009;1.547155678272247E-001;-1.193904876708984E-001;-2.737794129643589E-004;3.702800488099456E-003;
2.427666666666667E+009;1.539000123739243E-001;-1.194974258542061E-001;-2.656433789525181E-004;3.698366461321712E-003;
