# Version 1.00
#
freq[Hz];re:Trc1_S11;im:Trc1_S11;re:Trc2_S21;im:Trc2_S21;
2.400000000000000E+009;1.585654169321060E-001;6.265308707952499E-002;-5.158935091458261E-004;2.471114974468947E-003;
2.400166666666667E+009;1.584092825651169E-001;6.113869324326515E-002;-5.898539093323052E-004;2.417533425614238E-003;
2.400333333333334E+009;1.582044959068298E-001;5.916522815823555E-002;-3.852512745652348E-004;2.500847680494189E-003;
2.400500000000000E+009;1.581507921218872E-001;5.744382366538048E-002;-4.125424020458013E-004;2.537504304200411E-003;
2.400666666666667E+009;1.579918116331101E-001;5.542884021997452E-002;-1.931113802129403E-004;2.399518387392163E-003;
2.400833333333334E+009;1.580024957656860E-001;5.339869111776352E-002;1.460313887946541E-005;2.603524830192328E-003;
2.401000000000000E+009;1.580098867416382E-001;5.162426456809044E-002;-6.567555101355538E-005;2.599258674308658E-003;
2.401166666666667E+009;1.581126004457474E-001;4.946624115109444E-002;-6.234217289602384E-005;2.764686010777950E-003;
2.401333333333334E+009;1.580926328897476E-001;4.731829836964607E-002;5.063519711256959E-005;2.622276777401567E-003;
2.401500000000000E+009;1.586716175079346E-001;4.540554061532021E-002;1.408688112860546E-004;2.848552307114005E-003;
2.401666666666667E+009;1.587596684694290E-001;4.340364411473274E-002;2.824231632985175E-004;2.680390840396285E-003;
2.401833333333334E+009;1.590746343135834E-001;4.120793193578720E-002;5.136407562531531E-004;2.808879362419248E-003;
2.402000000000000E+009;1.591307520866394E-001;3.908424824476242E-002;3.937944711651653E-004;2.938952064141631E-003;
2.402166666666667E+009;1.599092930555344E-001;3.704774007201195E-002;5.160180735401809E-004;3.035445464774966E-003;
2.402333333333334E+009;1.604311764240265E-001;3.533579036593437E-002;7.348880753852427E-004;2.973636379465461E-003;
2.402500000000000E+009;1.611400246620178E-001;3.337524831295013E-002;7.776521961204708E-004;2.863523084670305E-003;
2.402666666666667E+009;1.616338640451431E-001;3.171819821000099E-002;8.271221886388958E-004;2.944947686046362E-003;
2.402833333333334E+009;1.625057458877564E-001;2.986584603786469E-002;1.244058483280242E-003;3.165801754221320E-003;
2.403000000000000E+009;1.632412821054459E-001;2.823174558579922E-002;1.270977314561606E-003;2.965266117826104E-003;
2.403166666666667E+009;1.641273945569992E-001;2.662548236548901E-002;1.422784174792469E-003;3.103154944255948E-003;
2.403333333333334E+009;1.647618710994721E-001;2.512994967401028E-002;1.461603213101625E-003;3.071947721764445E-003;
2.403500000000000E+009;1.658355593681335E-001;2.382980287075043E-002;1.620852272026241E-003;2.929898910224438E-003;
2.403666666666667E+009;1.668054312467575E-001;2.216171100735664E-002;1.774017699062824E-003;2.886413363739848E-003;
2.403833333333334E+009;1.677619367837906E-001;2.091534622013569E-002;1.961133675649762E-003;3.148360876366496E-003;
2.404000000000000E+009;1.686934381723404E-001;1.977356337010860E-002;2.043708693236113E-003;2.979345852509141E-003;
2.404166666666667E+009;1.696775853633881E-001;1.861897483468056E-002;2.200123388320208E-003;2.733061090111733E-003;
2.404333333333334E+009;1.706625968217850E-001;1.751407235860825E-002;2.357113175094128E-003;2.993242349475622E-003;
2.404500000000000E+009;1.715408861637116E-001;1.641102135181427E-002;2.590400865301490E-003;2.701492747291923E-003;
2.404666666666667E+009;1.727728396654129E-001;1.567625254392624E-002;2.617258112877607E-003;2.844307571649551E-003;
2.404833333333334E+009;1.735699772834778E-001;1.486373785883188E-002;2.740968950092793E-003;2.716043498367071E-003;
2.405000000000000E+009;1.744916439056397E-001;1.406811363995075E-002;2.948919776827097E-003;2.629097085446119E-003;
2.405166666666667E+009;1.754235327243805E-001;1.336546987295151E-002;3.179456572979689E-003;2.254205290228128E-003;
2.405333333333334E+009;1.762727797031403E-001;1.253151800483465E-002;3.362643532454968E-003;2.372396877035499E-003;
2.405500000000000E+009;1.769997328519821E-001;1.221023220568895E-002;3.301226068288088E-003;2.242563758045435E-003;
2.405666666666667E+009;1.775989234447479E-001;1.180690620094538E-002;3.544387873262167E-003;2.094606636092067E-003;
2.405833333333334E+009;1.781300306320190E-001;1.134378835558891E-002;3.606659825891256E-003;1.932185026817024E-003;
2.406000000000000E+009;1.789473891258240E-001;1.079716533422470E-002;3.853531321510673E-003;1.806148211471736E-003;
2.406166666666667E+009;1.793278157711029E-001;1.072445046156645E-002;3.985456191003323E-003;1.727824681438506E-003;
2.406333333333334E+009;1.798410713672638E-001;1.023973990231752E-002;3.988446667790413E-003;1.554794842377305E-003;
2.406500000000000E+009;1.802828907966614E-001;9.987591765820980E-003;4.053124226629734E-003;1.382777001708746E-003;
2.406666666666667E+009;1.803365945816040E-001;9.674166329205036E-003;4.115138202905655E-003;1.226046122610569E-003;
2.406833333333334E+009;1.807082444429398E-001;9.329193271696568E-003;4.335857462137938E-003;1.176440506242216E-003;
2.407000000000000E+009;1.808529645204544E-001;9.045542217791081E-003;4.354875069111586E-003;1.046558958478272E-003;
2.407166666666667E+009;1.810277551412582E-001;8.847891353070736E-003;4.313781857490540E-003;6.862856098450720E-004;
2.407333333333334E+009;1.808921098709106E-001;8.354214020073414E-003;4.284082911908627E-003;6.472807144746184E-004;
2.407500000000000E+009;1.808471381664276E-001;8.018800988793373E-003;4.461791832000017E-003;4.210337647236884E-004;
2.407666666666667E+009;1.806608438491821E-001;7.632320281118155E-003;4.450554959475994E-003;2.877107181120664E-004;
2.407833333333334E+009;1.803151220083237E-001;7.116442080587149E-003;4.619649611413479E-003;1.392971898894757E-004;
2.408000000000000E+009;1.799790114164352E-001;6.418471690267324E-003;4.661892540752888E-003;-9.657801274443045E-005;
2.408166666666667E+009;1.796701252460480E-001;5.966892000287771E-003;4.578341729938984E-003;-1.448561379220337E-004;
2.408333333333334E+009;1.792840659618378E-001;5.271328613162041E-003;4.639775026589632E-003;-4.118638753425330E-004;
2.408500000000000E+009;1.787542700767517E-001;4.376210272312164E-003;4.802709911018610E-003;-4.699080018326640E-004;
2.408666666666667E+009;1.781386286020279E-001;3.641307586804032E-003;4.810953047126532E-003;-7.237948593683541E-004;
2.408833333333334E+009;1.775039434432983E-001;2.716229297220707E-003;4.660350270569325E-003;-9.928899817168713E-004;
2.409000000000000E+009;1.767650395631790E-001;1.648618374019861E-003;4.824648145586252E-003;-1.010557520203292E-003;
2.409166666666667E+009;1.762683391571045E-001;7.270237547345460E-004;4.812441766262054E-003;-1.279489020816982E-003;
2.409333333333334E+009;1.755508780479431E-001;-6.349319010041654E-004;4.705184139311314E-003;-1.379776862449944E-003;
2.409500000000000E+009;1.748490184545517E-001;-1.942090690135956E-003;4.722612444311380E-003;-1.623535528779030E-003;
2.409666666666667E+009;1.741087287664414E-001;-3.164991037920117E-003;4.598981700837612E-003;-1.817252603359520E-003;
2.409833333333334E+009;1.734876185655594E-001;-4.537303932011128E-003;4.714945796877146E-003;-2.097446238622069E-003;
2.410000000000000E+009;1.728557646274567E-001;-6.070350296795368E-003;4.673257470130920E-003;-2.379619283601642E-003;
2.410166666666667E+009;1.721250414848328E-001;-7.691149599850178E-003;4.690199624747038E-003;-2.441810443997383E-003;
2.410333333333334E+009;1.714153885841370E-001;-9.266201406717300E-003;4.645620007067919E-003;-2.613158896565437E-003;
2.410500000000000E+009;1.709659844636917E-001;-1.094585750252008E-002;4.540751222521067E-003;-3.017715178430080E-003;
2.410666666666667E+009;1.703608334064484E-001;-1.279785763472319E-002;4.304013215005398E-003;-3.180068219080567E-003;
2.410833333333334E+009;1.699119806289673E-001;-1.450824923813343E-002;4.350421018898487E-003;-3.445702372118831E-003;
2.411000000000000E+009;1.695235520601273E-001;-1.638604141771793E-002;4.116633906960487E-003;-3.624977311119437E-003;
2.411166666666667E+009;1.691281050443649E-001;-1.828899793326855E-002;4.015095531940460E-003;-3.670938545837998E-003;
2.411333333333334E+009;1.688607335090637E-001;-2.015160396695137E-002;3.987680189311504E-003;-3.865441074594855E-003;
2.411500000000000E+009;1.686334013938904E-001;-2.219168096780777E-002;3.683603135868907E-003;-4.121020436286926E-003;
2.411666666666667E+009;1.684337705373764E-001;-2.402528375387192E-002;3.598015056923032E-003;-4.331059288233519E-003;
2.411833333333334E+009;1.684132814407349E-001;-2.588020078837872E-002;3.537184093147516E-003;-4.486309830099344E-003;
2.412000000000000E+009;1.685137748718262E-001;-2.795599400997162E-002;3.157857106998563E-003;-4.751605447381735E-003;
2.412166666666667E+009;1.682423800230026E-001;-3.008460253477097E-002;2.992851892486215E-003;-4.872569814324379E-003;
2.412333333333334E+009;1.685809344053268E-001;-3.179992362856865E-002;2.876404905691743E-003;-4.992398899048567E-003;
2.412500000000000E+009;1.685882508754730E-001;-3.369843959808350E-002;2.552855527028441E-003;-5.222076550126076E-003;
2.412666666666667E+009;1.690317392349243E-001;-3.581586107611656E-002;2.076885895803571E-003;-5.283401347696781E-003;
2.412833333333334E+009;1.692911833524704E-001;-3.781148418784142E-002;2.109055873006582E-003;-5.391424521803856E-003;
2.413000000000000E+009;1.696017533540726E-001;-3.932103142142296E-002;1.935439882799983E-003;-5.517487414181233E-003;
2.413166666666667E+009;1.698056608438492E-001;-4.118792340159416E-002;1.588472980074585E-003;-5.641846451908350E-003;
2.413333333333334E+009;1.704571247100830E-001;-4.301247373223305E-002;1.480517094023526E-003;-5.541705526411533E-003;
2.413500000000000E+009;1.708450615406036E-001;-4.472693800926209E-002;1.081045251339674E-003;-5.679130554199219E-003;
2.413666666666667E+009;1.714482009410858E-001;-4.637015610933304E-002;7.825471693649888E-004;-5.647480953484774E-003;
2.413833333333334E+009;1.718590259552002E-001;-4.783981293439865E-002;3.660694055724889E-004;-5.739488638937473E-003;
2.414000000000000E+009;1.722474247217178E-001;-4.926110059022903E-002;3.358981630299240E-004;-5.665582604706287E-003;
2.414166666666667E+009;1.730029881000519E-001;-5.056076496839523E-002;-1.104731563827954E-004;-5.641894415020943E-003;
2.414333333333334E+009;1.734394878149033E-001;-5.196500197052956E-002;-1.732549280859530E-004;-5.603065248578787E-003;
2.414500000000000E+009;1.741325557231903E-001;-5.299670249223709E-002;-4.490062419790775E-004;-5.631783511489630E-003;
2.414666666666667E+009;1.745230555534363E-001;-5.416252464056015E-002;-7.961263181641698E-004;-5.646561272442341E-003;
2.414833333333334E+009;1.749581396579742E-001;-5.515863746404648E-002;-9.429333149455488E-004;-5.360816605389118E-003;
2.415000000000000E+009;1.754838526248932E-001;-5.607604607939720E-002;-1.159538980573416E-003;-5.417114589363337E-003;
2.415166666666667E+009;1.758264750242233E-001;-5.696862563490868E-002;-1.415061648003757E-003;-5.271441303193569E-003;
2.415333333333334E+009;1.762328147888184E-001;-5.771269649267197E-002;-1.586809637956321E-003;-5.270707886666060E-003;
2.415500000000000E+009;1.767995357513428E-001;-5.826003104448319E-002;-1.936076558195055E-003;-5.057279020547867E-003;
2.415666666666667E+009;1.770000457763672E-001;-5.887231230735779E-002;-2.002565888687968E-003;-4.952116869390011E-003;
2.415833333333334E+009;1.771117448806763E-001;-5.948662757873535E-002;-2.183753065764904E-003;-5.010405089706183E-003;
2.416000000000000E+009;1.773034930229187E-001;-5.994038283824921E-002;-2.239205874502659E-003;-4.709916654974222E-003;
2.416166666666667E+009;1.774323880672455E-001;-6.036621704697609E-002;-2.492624567821622E-003;-4.508467391133308E-003;
2.416333333333334E+009;1.774406433105469E-001;-6.051400303840637E-002;-2.605981891974807E-003;-4.475500434637070E-003;
2.416500000000000E+009;1.773587912321091E-001;-6.094664707779884E-002;-2.803701441735029E-003;-4.168911371380091E-003;
2.416666666666667E+009;1.771868467330933E-001;-6.097307801246643E-002;-3.040533978492022E-003;-4.061986226588488E-003;
2.416833333333334E+009;1.770213693380356E-001;-6.145498529076576E-002;-2.972375834360719E-003;-3.999537322670221E-003;
2.417000000000000E+009;1.765173971652985E-001;-6.165629252791405E-002;-3.071151208132505E-003;-3.707860596477985E-003;
2.417166666666667E+009;1.761099100112915E-001;-6.188189983367920E-002;-3.196859732270241E-003;-3.649414982646704E-003;
2.417333333333334E+009;1.757416129112244E-001;-6.200385838747025E-002;-3.344716969877482E-003;-3.578515024855733E-003;
2.417500000000000E+009;1.750964075326920E-001;-6.230226159095764E-002;-3.395213047042489E-003;-3.345450619235635E-003;
2.417666666666667E+009;1.744202226400375E-001;-6.246130540966988E-002;-3.537558717653155E-003;-3.266459563747048E-003;
2.417833333333334E+009;1.737012863159180E-001;-6.269154697656632E-002;-3.639226779341698E-003;-3.065046388655901E-003;
2.418000000000000E+009;1.728255599737167E-001;-6.300543993711472E-002;-3.507415996864438E-003;-3.013032022863627E-003;
2.418166666666667E+009;1.718974560499191E-001;-6.319237500429153E-002;-3.533617360517383E-003;-2.805681433528662E-003;
2.418333333333334E+009;1.711560338735580E-001;-6.363208591938019E-002;-3.747497918084264E-003;-2.785458462312818E-003;
2.418500000000000E+009;1.699440479278565E-001;-6.389241665601730E-002;-3.629325423389673E-003;-2.731929766014218E-003;
2.418666666666667E+009;1.690626591444016E-001;-6.445872038602829E-002;-3.595404792577028E-003;-2.517105313017964E-003;
2.418833333333334E+009;1.678466349840164E-001;-6.496751308441162E-002;-3.914818633347750E-003;-2.390385838225484E-003;
2.419000000000000E+009;1.665383875370026E-001;-6.554540246725082E-002;-3.867736784741283E-003;-2.310659736394882E-003;
2.419166666666667E+009;1.654735356569290E-001;-6.611155718564987E-002;-3.874049754813314E-003;-2.129027154296637E-003;
2.419333333333334E+009;1.640698015689850E-001;-6.653212010860443E-002;-3.849437460303307E-003;-2.126620849594474E-003;
2.419500000000000E+009;1.630185246467590E-001;-6.749147921800613E-002;-3.949332050979137E-003;-1.947692711837590E-003;
2.419666666666667E+009;1.620531529188156E-001;-6.847272813320160E-002;-3.963448572903872E-003;-2.022338565438986E-003;
2.419833333333334E+009;1.606837958097458E-001;-6.922322511672974E-002;-3.971832338720560E-003;-1.816404866985977E-003;
2.420000000000000E+009;1.597676575183868E-001;-7.031180709600449E-002;-4.034868441522121E-003;-1.662380993366242E-003;
2.420166666666667E+009;1.585218012332916E-001;-7.136610895395279E-002;-4.136307630687952E-003;-1.532958587631583E-003;
2.420333333333334E+009;1.573395729064941E-001;-7.254632562398911E-002;-4.140908364206553E-003;-1.388357602991164E-003;
2.420500000000000E+009;1.566174775362015E-001;-7.358201593160629E-002;-4.239382687956095E-003;-1.477136276662350E-003;
2.420666666666667E+009;1.554761826992035E-001;-7.487810403108597E-002;-4.268388729542494E-003;-1.345314085483551E-003;
2.420833333333334E+009;1.544117480516434E-001;-7.618844509124756E-002;-4.385094624012709E-003;-1.211475930176675E-003;
2.421000000000000E+009;1.534497141838074E-001;-7.780951261520386E-002;-4.384422209113836E-003;-1.157607184723020E-003;
2.421166666666667E+009;1.527418643236160E-001;-7.924317568540573E-002;-4.503145813941956E-003;-8.477051742374897E-004;
2.421333333333334E+009;1.521858423948288E-001;-8.082281053066254E-002;-4.519096110016108E-003;-8.546247263439000E-004;
2.421500000000000E+009;1.512844115495682E-001;-8.237062394618988E-002;-4.714933689683676E-003;-6.657287012785673E-004;
2.421666666666667E+009;1.508735865354538E-001;-8.379258215427399E-002;-4.598452243953943E-003;-5.735533195547760E-004;
2.421833333333334E+009;1.504965722560883E-001;-8.559577912092209E-002;-4.825986456125975E-003;-2.342988736927509E-004;
2.422000000000000E+009;1.499715298414230E-001;-8.728282153606415E-002;-4.775893874466419E-003;-2.516668173484504E-004;
2.422166666666667E+009;1.496510952711105E-001;-8.893764019012451E-002;-4.865493625402451E-003;7.375962013611570E-005;
2.422333333333334E+009;1.494381129741669E-001;-9.056324511766434E-002;-4.904269240796566E-003;3.022786986548454E-004;
2.422500000000000E+009;1.492619216442108E-001;-9.222047775983810E-002;-4.916430916637182E-003;4.432726709637791E-004;
2.422666666666667E+009;1.490625888109207E-001;-9.402595460414887E-002;-5.064178723841906E-003;6.706452695652843E-004;
2.422833333333334E+009;1.492674350738525E-001;-9.585946798324585E-002;-5.000508856028318E-003;9.105126373469830E-004;
2.423000000000000E+009;1.492494046688080E-001;-9.736424684524536E-002;-5.095353350043297E-003;1.061122282408178E-003;
2.423166666666667E+009;1.494528055191040E-001;-9.903606772422791E-002;-4.806531127542257E-003;1.388739445246756E-003;
2.423333333333334E+009;1.498333960771561E-001;-1.004259735345841E-001;-4.877212457358837E-003;1.622173818759620E-003;
2.423500000000000E+009;1.500083953142166E-001;-1.021347790956497E-001;-4.872096702456474E-003;1.711189281195402E-003;
2.423666666666667E+009;1.502927541732788E-001;-1.038155332207680E-001;-4.708566237241030E-003;1.931682811118662E-003;
2.423833333333334E+009;1.507803201675415E-001;-1.052027419209480E-001;-4.527057986706495E-003;2.227310556918383E-003;
2.424000000000000E+009;1.511565446853638E-001;-1.064700335264206E-001;-4.527406767010689E-003;2.386778127402067E-003;
2.424166666666667E+009;1.515700370073319E-001;-1.079080104827881E-001;-4.266378935426474E-003;2.666271757334471E-003;
2.424333333333334E+009;1.521587222814560E-001;-1.090786755084992E-001;-4.204052966088057E-003;2.827350981533527E-003;
2.424500000000000E+009;1.525558382272720E-001;-1.102847233414650E-001;-4.093946423381567E-003;3.053697990253568E-003;
2.424666666666667E+009;1.530755907297134E-001;-1.112616807222366E-001;-3.994246944785118E-003;3.324729623273015E-003;
2.424833333333334E+009;1.536865681409836E-001;-1.122687384486198E-001;-3.559585660696030E-003;3.474868368357420E-003;
2.425000000000000E+009;1.541309952735901E-001;-1.131889894604683E-001;-3.429764648899436E-003;3.579756943508983E-003;
2.425166666666667E+009;1.545056104660034E-001;-1.142698526382446E-001;-3.102958668023348E-003;3.728925716131926E-003;
2.425333333333334E+009;1.549571156501770E-001;-1.148936748504639E-001;-3.038270166143775E-003;3.700867993757129E-003;
2.425500000000000E+009;1.553871631622315E-001;-1.156973317265511E-001;-2.805764321237803E-003;3.921986557543278E-003;
2.425666666666667E+009;1.555217653512955E-001;-1.162918135523796E-001;-2.515777014195919E-003;4.015666432678700E-003;
2.425833333333334E+009;1.558638513088226E-001;-1.168694943189621E-001;-2.169159473851323E-003;4.153023008257151E-003;
2.426000000000000E+009;1.560437381267548E-001;-1.174726858735085E-001;-2.031609648838639E-003;4.255490377545357E-003;
2.426166666666667E+009;1.563822925090790E-001;-1.178558468818665E-001;-1.806174288503826E-003;4.154135007411242E-003;
2.426333333333334E+009;1.564444005489349E-001;-1.181379631161690E-001;-1.593404682353139E-003;4.179676063358784E-003;
2.426500000000000E+009;1.565008163452148E-001;-1.184606775641441E-001;-1.414975617080927E-003;4.087104462087154E-003;
2.426666666666667E+009;1.564573049545288E-001;-1.185748651623726E-001;-1.329519203864038E-003;3.952262923121452E-003;
2.426833333333334E+009;1.562382280826569E-001;-1.188625842332840E-001;-1.093753846362233E-003;4.033952020108700E-003;
2.427000000000000E+009;1.559551209211350E-001;-1.191139817237854E-001;-8.420065860264003E-004;3.985252231359482E-003;
2.427166666666667E+009;1.556487381458283E-001;-1.191484853625298E-001;-5.809028516523540E-004;3.864852245897055E-003;
2.427333333333334E+009;1.551199257373810E-001;-1.192335337400436E-001;-4.161456890869886E-004;3.915279172360897E-003;
2.427500000000000E+009;1.547342836856842E-001;-1.193847432732582E-001;-3.126416122540832E-004;3.692565020173788E-003;
2.427666666666667E+009;1.539777815341950E-001;-1.195356622338295E-001;-2.320507483091205E-004;3.687449032440782E-003;
