# Version 1.00
#
freq[Hz];re:Trc1_S11;im:Trc1_S11;re:Trc2_S21;im:Trc2_S21;
2.400000000000000E+009;1.586191952228546E-001;6.274320930242539E-002;-5.722537753172219E-004;2.395597053691745E-003;
2.400166666666667E+009;1.583254486322403E-001;6.120089069008827E-002;-4.000294720754027E-004;2.547454088926315E-003;
2.400333333333334E+009;1.582092940807343E-001;5.916052684187889E-002;-3.280961536802352E-004;2.442181576043367E-003;
2.400500000000000E+009;1.579257845878601E-001;5.756547674536705E-002;-3.721037064678967E-004;2.586991991847754E-003;
2.400666666666667E+009;1.579912602901459E-001;5.540397018194199E-002;-2.165709302062169E-004;2.597585553303361E-003;
2.400833333333334E+009;1.580909043550491E-001;5.340238660573959E-002;-5.237307050265372E-005;2.532832790166140E-003;
2.401000000000000E+009;1.579435765743256E-001;5.138059332966805E-002;-7.567565626231954E-005;2.756897360086441E-003;
2.401166666666667E+009;1.581584364175797E-001;4.927648976445198E-002;1.240921556018293E-004;2.655927557498217E-003;
2.401333333333334E+009;1.582476198673248E-001;4.729485511779785E-002;1.468318660045043E-004;2.810534322634339E-003;
2.401500000000000E+009;1.586692631244659E-001;4.519190266728401E-002;2.454460081935395E-005;2.801542403176427E-003;
2.401666666666667E+009;1.588618010282517E-001;4.315903410315514E-002;1.608099846635014E-004;2.783096628263593E-003;
2.401833333333334E+009;1.591084301471710E-001;4.108886048197746E-002;2.914129290729761E-004;2.871419768780470E-003;
2.402000000000000E+009;1.593111902475357E-001;3.922879695892334E-002;4.427194071467966E-004;2.901467261835933E-003;
2.402166666666667E+009;1.598606258630753E-001;3.701404109597206E-002;4.717081028502435E-004;3.162404987961054E-003;
2.402333333333334E+009;1.602908819913864E-001;3.530555218458176E-002;8.891295292414725E-004;3.035378176718950E-003;
2.402500000000000E+009;1.611962616443634E-001;3.346752375364304E-002;8.017787477001548E-004;3.067666897550225E-003;
2.402666666666667E+009;1.615995019674301E-001;3.169125691056252E-002;9.810777846723795E-004;2.929199254140258E-003;
2.402833333333334E+009;1.623762845993042E-001;2.993394993245602E-002;1.035572029650211E-003;3.122781636193395E-003;
2.403000000000000E+009;1.632097065448761E-001;2.817195095121861E-002;1.273850561119616E-003;3.094548126682639E-003;
2.403166666666667E+009;1.640205532312393E-001;2.653477899730206E-002;1.356403110548854E-003;3.192358184605837E-003;
2.403333333333334E+009;1.648414582014084E-001;2.517384104430676E-002;1.481164363212884E-003;3.118777647614479E-003;
2.403500000000000E+009;1.656245142221451E-001;2.364220097661018E-002;1.754877739585936E-003;3.184966975823045E-003;
2.403666666666667E+009;1.667850911617279E-001;2.222130075097084E-002;1.725147129036486E-003;2.947023604065180E-003;
2.403833333333334E+009;1.676868945360184E-001;2.099465765058994E-002;1.853910507634282E-003;2.942242193967104E-003;
2.404000000000000E+009;1.686720401048660E-001;1.967351697385311E-002;2.201940165832639E-003;2.975827315822244E-003;
2.404166666666667E+009;1.697509437799454E-001;1.858337968587875E-002;2.224627416580916E-003;2.960487036034465E-003;
2.404333333333334E+009;1.706399768590927E-001;1.756310649216175E-002;2.438295166939497E-003;2.897182479500771E-003;
2.404500000000000E+009;1.716419756412506E-001;1.644681952893734E-002;2.504979027435184E-003;2.932480769231916E-003;
2.404666666666667E+009;1.725293248891830E-001;1.546068023890257E-002;2.661511069163680E-003;2.774612279608846E-003;
2.404833333333334E+009;1.736264079809189E-001;1.472491119056940E-002;2.923542866483331E-003;2.457249443978071E-003;
2.405000000000000E+009;1.742982566356659E-001;1.400779001414776E-002;3.029156941920519E-003;2.579459687694907E-003;
2.405166666666667E+009;1.753229796886444E-001;1.326448097825050E-002;3.187669906765223E-003;2.472807653248310E-003;
2.405333333333334E+009;1.762363463640213E-001;1.270397938787937E-002;3.260830184444785E-003;2.302239183336496E-003;
2.405500000000000E+009;1.770257353782654E-001;1.214408967643976E-002;3.321065101772547E-003;2.164499601349235E-003;
2.405666666666667E+009;1.777079403400421E-001;1.185016240924597E-002;3.554700873792172E-003;1.966329524293542E-003;
2.405833333333334E+009;1.782096028327942E-001;1.138423103839159E-002;3.741747932508588E-003;1.853843568824232E-003;
2.406000000000000E+009;1.789478957653046E-001;1.078012678772211E-002;3.690531942993403E-003;1.990784192457795E-003;
2.406166666666667E+009;1.793945133686066E-001;1.066452171653509E-002;3.934846259653568E-003;1.624628668650985E-003;
2.406333333333334E+009;1.800658553838730E-001;1.030899770557880E-002;3.824801184237003E-003;1.581550342962146E-003;
2.406500000000000E+009;1.803179681301117E-001;9.914245456457138E-003;4.138662479817867E-003;1.492877257987857E-003;
2.406666666666667E+009;1.803370267152786E-001;9.695721790194511E-003;4.155762493610382E-003;1.285241916775703E-003;
2.406833333333334E+009;1.807280182838440E-001;9.301291778683662E-003;4.255617968738079E-003;1.109850592911243E-003;
2.407000000000000E+009;1.808651089668274E-001;9.025444276630878E-003;4.369196016341448E-003;7.653643842786551E-004;
2.407166666666667E+009;1.810089349746704E-001;8.932437747716904E-003;4.344206769019365E-003;7.523466483689845E-004;
2.407333333333334E+009;1.809453219175339E-001;8.340159431099892E-003;4.438994452357292E-003;6.096917786635459E-004;
2.407500000000000E+009;1.809541434049606E-001;8.057559840381146E-003;4.430396016687155E-003;5.593408714048564E-004;
2.407666666666667E+009;1.806366890668869E-001;7.613855414092541E-003;4.485400393605232E-003;2.885638969019055E-004;
2.407833333333334E+009;1.801988035440445E-001;7.016517221927643E-003;4.693707916885614E-003;1.640865812078118E-004;
2.408000000000000E+009;1.800331324338913E-001;6.413124036043882E-003;4.553387407213450E-003;1.316414181928849E-005;
2.408166666666667E+009;1.795524954795837E-001;5.996336694806814E-003;4.587500821799040E-003;-2.886489091906697E-004;
2.408333333333334E+009;1.792542189359665E-001;5.287513136863709E-003;4.743034951388836E-003;-3.196064790245146E-004;
2.408500000000000E+009;1.786964088678360E-001;4.343609325587750E-003;4.662940744310617E-003;-5.100100534036756E-004;
2.408666666666667E+009;1.782114952802658E-001;3.591350978240371E-003;4.748379345983267E-003;-9.240722283720970E-004;
2.408833333333334E+009;1.772846877574921E-001;2.565693575888872E-003;4.689197055995464E-003;-8.496020454913378E-004;
2.409000000000000E+009;1.767448186874390E-001;1.705197850242257E-003;4.701276309788227E-003;-1.011139829643071E-003;
2.409166666666667E+009;1.763549894094467E-001;6.883143796585500E-004;4.670005291700363E-003;-1.163478824310005E-003;
2.409333333333334E+009;1.755937635898590E-001;-6.156151066534221E-004;4.668192937970161E-003;-1.460763509385288E-003;
2.409500000000000E+009;1.746931523084641E-001;-2.049129689112306E-003;4.716100636869669E-003;-1.630492508411408E-003;
2.409666666666667E+009;1.740099191665649E-001;-3.146862844005227E-003;4.812448751181364E-003;-1.898208400234580E-003;
2.409833333333334E+009;1.734638810157776E-001;-4.552468191832304E-003;4.619757179170847E-003;-2.141969045624137E-003;
2.410000000000000E+009;1.727853268384934E-001;-5.970385856926441E-003;4.704259335994721E-003;-2.244150498881936E-003;
2.410166666666667E+009;1.721459925174713E-001;-7.640501949936152E-003;4.578559193760157E-003;-2.416193950921297E-003;
2.410333333333334E+009;1.715628653764725E-001;-9.144812822341919E-003;4.533098544925451E-003;-2.640758873894811E-003;
2.410500000000000E+009;1.708657145500183E-001;-1.073901355266571E-002;4.534574225544930E-003;-3.042110241949558E-003;
2.410666666666667E+009;1.703562438488007E-001;-1.283425837755203E-002;4.420268349349499E-003;-3.147390671074390E-003;
2.410833333333334E+009;1.700064986944199E-001;-1.442800555378199E-002;4.228835459798574E-003;-3.406737232580781E-003;
2.411000000000000E+009;1.694111377000809E-001;-1.636625826358795E-002;4.078140482306480E-003;-3.427996998652816E-003;
2.411166666666667E+009;1.690773218870163E-001;-1.831350103020668E-002;4.157095681875944E-003;-3.800974227488041E-003;
2.411333333333334E+009;1.686979532241821E-001;-2.010913379490376E-002;3.875615075230598E-003;-4.058979451656342E-003;
2.411500000000000E+009;1.685094982385635E-001;-2.223330363631249E-002;3.933912143111229E-003;-4.146900959312916E-003;
2.411666666666667E+009;1.684740334749222E-001;-2.413181588053703E-002;3.659235779196024E-003;-4.328821785748005E-003;
2.411833333333334E+009;1.684045344591141E-001;-2.603536844253540E-002;3.607094055041671E-003;-4.477468784898520E-003;
2.412000000000000E+009;1.686240434646606E-001;-2.807286009192467E-002;3.299046074971557E-003;-4.669424146413803E-003;
2.412166666666667E+009;1.684864014387131E-001;-2.984873391687870E-002;3.037956077605486E-003;-4.889398813247681E-003;
2.412333333333334E+009;1.686520427465439E-001;-3.180870786309242E-002;2.760051283985376E-003;-5.093640647828579E-003;
2.412500000000000E+009;1.686612665653229E-001;-3.358911350369453E-002;2.576269442215562E-003;-5.136850290000439E-003;
2.412666666666667E+009;1.690774261951447E-001;-3.591658547520638E-002;2.384802093729377E-003;-5.242202430963516E-003;
2.412833333333334E+009;1.693560481071472E-001;-3.769051656126976E-002;2.156751230359078E-003;-5.399728659540415E-003;
2.413000000000000E+009;1.696940064430237E-001;-3.937039524316788E-002;1.950990641489625E-003;-5.571578163653612E-003;
2.413166666666667E+009;1.700894832611084E-001;-4.128969088196755E-002;1.590878586284816E-003;-5.631628446280956E-003;
2.413333333333334E+009;1.703435480594635E-001;-4.308811947703362E-002;1.312758540734649E-003;-5.720079410821199E-003;
2.413500000000000E+009;1.709424257278442E-001;-4.463067278265953E-002;1.094882958568633E-003;-5.734239704906941E-003;
2.413666666666667E+009;1.713772863149643E-001;-4.619253054261208E-002;7.600330864079297E-004;-5.721207708120346E-003;
2.413833333333334E+009;1.718008518218994E-001;-4.774707928299904E-002;5.537143442779779E-004;-5.755146499723196E-003;
2.414000000000000E+009;1.722127199172974E-001;-4.928364604711533E-002;2.475096553098410E-004;-5.737832747399807E-003;
2.414166666666667E+009;1.729536801576614E-001;-5.063119530677795E-002;1.233168004546315E-004;-5.701036192476749E-003;
2.414333333333334E+009;1.733896881341934E-001;-5.190214514732361E-002;-2.278261817991734E-004;-5.770426243543625E-003;
2.414500000000000E+009;1.742021292448044E-001;-5.308748781681061E-002;-3.469903895165771E-004;-5.679672583937645E-003;
2.414666666666667E+009;1.745032221078873E-001;-5.414154380559921E-002;-7.995976484380662E-004;-5.529392044991255E-003;
2.414833333333334E+009;1.751023977994919E-001;-5.520207807421684E-002;-9.972158586606383E-004;-5.441822577267885E-003;
2.415000000000000E+009;1.755632311105728E-001;-5.605476722121239E-002;-1.385103329084814E-003;-5.435622297227383E-003;
2.415166666666667E+009;1.758007258176804E-001;-5.688874796032906E-002;-1.407778938300908E-003;-5.281372461467981E-003;
2.415333333333334E+009;1.763614118099213E-001;-5.781867727637291E-002;-1.650367630645633E-003;-5.230021197348833E-003;
2.415500000000000E+009;1.766847372055054E-001;-5.828970670700073E-002;-1.859931158833206E-003;-5.055532325059176E-003;
2.415666666666667E+009;1.769600063562393E-001;-5.874486267566681E-002;-1.970797544345260E-003;-4.931945819407702E-003;
2.415833333333334E+009;1.773065924644470E-001;-5.932937562465668E-002;-2.035135403275490E-003;-4.914655350148678E-003;
2.416000000000000E+009;1.772850453853607E-001;-5.991771072149277E-002;-2.362333936616778E-003;-4.699361976236105E-003;
2.416166666666667E+009;1.774573475122452E-001;-6.031807512044907E-002;-2.392578171566129E-003;-4.503188189119101E-003;
2.416333333333334E+009;1.774234473705292E-001;-6.050225347280502E-002;-2.657317789271474E-003;-4.345248918980360E-003;
2.416500000000000E+009;1.773864775896072E-001;-6.084823980927467E-002;-2.681964077055454E-003;-4.325125366449356E-003;
2.416666666666667E+009;1.771849691867828E-001;-6.122051551938057E-002;-3.053216962143779E-003;-4.026331007480621E-003;
2.416833333333334E+009;1.770677268505096E-001;-6.146959587931633E-002;-3.030942985787988E-003;-3.980549983680248E-003;
2.417000000000000E+009;1.764858663082123E-001;-6.163201853632927E-002;-3.180541330948472E-003;-3.855498274788261E-003;
2.417166666666667E+009;1.761826425790787E-001;-6.181124597787857E-002;-3.248638240620494E-003;-3.584428923204541E-003;
2.417333333333334E+009;1.756971627473831E-001;-6.201668456196785E-002;-3.367534838616848E-003;-3.453656798228622E-003;
2.417500000000000E+009;1.751228272914887E-001;-6.232527643442154E-002;-3.488464048132300E-003;-3.410453675314784E-003;
2.417666666666667E+009;1.745178997516632E-001;-6.241611763834953E-002;-3.415301209315658E-003;-3.335074754431844E-003;
2.417833333333334E+009;1.736284047365189E-001;-6.265250593423843E-002;-3.595527261495590E-003;-3.110073506832123E-003;
2.418000000000000E+009;1.728353798389435E-001;-6.304325163364410E-002;-3.429250093176961E-003;-2.849271520972252E-003;
2.418166666666667E+009;1.719195097684860E-001;-6.319532543420792E-002;-3.473330289125443E-003;-2.914248500019312E-003;
2.418333333333334E+009;1.712508052587509E-001;-6.366457790136337E-002;-3.679857356473804E-003;-2.632774179801345E-003;
2.418500000000000E+009;1.699467897415161E-001;-6.403797119855881E-002;-3.764952532947063E-003;-2.723166253417730E-003;
2.418666666666667E+009;1.690345555543900E-001;-6.441876292228699E-002;-3.823728766292334E-003;-2.555225742980838E-003;
2.418833333333334E+009;1.677800863981247E-001;-6.501282751560211E-002;-3.826177446171641E-003;-2.476770896464586E-003;
2.419000000000000E+009;1.666550785303116E-001;-6.557173281908035E-002;-3.712344681844115E-003;-2.444796497002244E-003;
2.419166666666667E+009;1.655330508947372E-001;-6.612703204154968E-002;-3.884351579472423E-003;-2.095124218612909E-003;
2.419333333333334E+009;1.640705913305283E-001;-6.659724563360214E-002;-3.841497469693422E-003;-2.135306829586625E-003;
2.419500000000000E+009;1.629988402128220E-001;-6.755116581916809E-002;-3.885441692546010E-003;-1.963779563084245E-003;
2.419666666666667E+009;1.618459224700928E-001;-6.849322468042374E-002;-3.985730465501547E-003;-1.900463597849011E-003;
2.419833333333334E+009;1.605373919010162E-001;-6.931903958320618E-002;-3.961998503655195E-003;-1.695782179012895E-003;
2.420000000000000E+009;1.595626920461655E-001;-7.027205824851990E-002;-4.037884064018726E-003;-1.783243147656322E-003;
2.420166666666667E+009;1.584811657667160E-001;-7.130666077136993E-002;-4.035780671983957E-003;-1.718763378448784E-003;
2.420333333333334E+009;1.573839187622070E-001;-7.247344404459000E-002;-4.256539978086948E-003;-1.553107635118067E-003;
2.420500000000000E+009;1.563993990421295E-001;-7.373700290918350E-002;-4.260036628693342E-003;-1.457348465919495E-003;
2.420666666666667E+009;1.553844362497330E-001;-7.479154318571091E-002;-4.398335702717304E-003;-1.326099154539406E-003;
2.420833333333334E+009;1.545321643352509E-001;-7.639472931623459E-002;-4.353881813585758E-003;-1.347799086943269E-003;
2.421000000000000E+009;1.535953432321549E-001;-7.771421223878861E-002;-4.519519396126270E-003;-1.110003096982837E-003;
2.421166666666667E+009;1.528031080961227E-001;-7.937707006931305E-002;-4.569079261273146E-003;-1.161044812761247E-003;
2.421333333333334E+009;1.520635336637497E-001;-8.081872016191483E-002;-4.694424569606781E-003;-7.941639050841332E-004;
2.421500000000000E+009;1.514979600906372E-001;-8.229154348373413E-002;-4.676200449466705E-003;-6.530532264150679E-004;
2.421666666666667E+009;1.507206559181213E-001;-8.390519767999649E-002;-4.749960266053677E-003;-5.816351622343063E-004;
2.421833333333334E+009;1.505889743566513E-001;-8.555576205253601E-002;-4.826744552701712E-003;-4.289812350180000E-004;
2.422000000000000E+009;1.498614251613617E-001;-8.722950518131256E-002;-4.958859644830227E-003;-2.046409790636972E-004;
2.422166666666667E+009;1.495738923549652E-001;-8.920354396104813E-002;-4.827228374779224E-003;-4.863646972808056E-005;
2.422333333333334E+009;1.494520306587219E-001;-9.056060761213303E-002;-4.942273255437613E-003;2.172311942558736E-004;
2.422500000000000E+009;1.492195129394531E-001;-9.217621386051178E-002;-5.048501305282116E-003;4.313539247959852E-004;
2.422666666666667E+009;1.490905433893204E-001;-9.403876215219498E-002;-5.075587425380945E-003;5.316259921528399E-004;
2.422833333333334E+009;1.492520719766617E-001;-9.584075212478638E-002;-5.065562669187784E-003;9.044412290677428E-004;
2.423000000000000E+009;1.492569893598557E-001;-9.739121049642563E-002;-4.920960403978825E-003;1.101874397136271E-003;
2.423166666666667E+009;1.495705693960190E-001;-9.902449697256088E-002;-4.895021207630634E-003;1.302404096350074E-003;
2.423333333333334E+009;1.498751044273377E-001;-1.004796326160431E-001;-4.965858999639750E-003;1.588368671946228E-003;
2.423500000000000E+009;1.500144600868225E-001;-1.022166311740875E-001;-4.753911867737770E-003;1.753878430463374E-003;
2.423666666666667E+009;1.502706855535507E-001;-1.036262512207031E-001;-4.786435514688492E-003;1.962618436664343E-003;
2.423833333333334E+009;1.507583111524582E-001;-1.052762418985367E-001;-4.571544937789440E-003;2.135002752766013E-003;
2.424000000000000E+009;1.512375622987747E-001;-1.063483655452728E-001;-4.429519642144442E-003;2.404194790869951E-003;
2.424166666666667E+009;1.515481919050217E-001;-1.077959313988686E-001;-4.389348905533552E-003;2.769709564745426E-003;
2.424333333333334E+009;1.522410511970520E-001;-1.090201586484909E-001;-4.319437779486179E-003;2.836068160831928E-003;
2.424500000000000E+009;1.527111679315567E-001;-1.103598475456238E-001;-3.979356959462166E-003;3.251051530241966E-003;
2.424666666666667E+009;1.532661318778992E-001;-1.112894266843796E-001;-3.887504804879427E-003;3.440246451646090E-003;
2.424833333333334E+009;1.535778045654297E-001;-1.123128533363342E-001;-3.785908222198486E-003;3.530910704284906E-003;
2.425000000000000E+009;1.542183309793472E-001;-1.133795082569122E-001;-3.491621464490891E-003;3.633226733654738E-003;
2.425166666666667E+009;1.543896198272705E-001;-1.142957210540772E-001;-3.251759335398674E-003;3.746018046513200E-003;
2.425333333333334E+009;1.548211276531220E-001;-1.149884164333344E-001;-2.998557640239596E-003;3.874515881761909E-003;
2.425500000000000E+009;1.553729474544525E-001;-1.158006340265274E-001;-2.745349425822496E-003;3.900953568518162E-003;
2.425666666666667E+009;1.555635631084442E-001;-1.164047271013260E-001;-2.642437582835555E-003;4.051675554364920E-003;
2.425833333333334E+009;1.558751761913300E-001;-1.168965771794319E-001;-2.382586942985654E-003;3.974688239395618E-003;
2.426000000000000E+009;1.559921801090241E-001;-1.173461824655533E-001;-1.966889714822173E-003;4.169214516878128E-003;
2.426166666666667E+009;1.564211994409561E-001;-1.178738996386528E-001;-1.844875048846006E-003;3.999843262135983E-003;
2.426333333333334E+009;1.564371734857559E-001;-1.182476952672005E-001;-1.669561956077814E-003;4.249663092195988E-003;
2.426500000000000E+009;1.565181761980057E-001;-1.184505745768547E-001;-1.343393581919372E-003;4.295590799301863E-003;
2.426666666666667E+009;1.564199775457382E-001;-1.185406371951103E-001;-1.195662771351636E-003;4.004361107945442E-003;
2.426833333333334E+009;1.562770158052445E-001;-1.188717857003212E-001;-9.197636973112822E-004;4.124545957893133E-003;
2.427000000000000E+009;1.559468060731888E-001;-1.190819516777992E-001;-7.384680793620646E-004;4.064391832798719E-003;
2.427166666666667E+009;1.557312011718750E-001;-1.190625801682472E-001;-5.975127569399774E-004;3.950023557990789E-003;
2.427333333333334E+009;1.551264822483063E-001;-1.193190887570381E-001;-4.801622708328068E-004;3.996076062321663E-003;
2.427500000000000E+009;1.547879129648209E-001;-1.194595322012901E-001;-2.191409002989531E-004;3.841259283944964E-003;
2.427666666666667E+009;1.540680229663849E-001;-1.195410788059235E-001;-1.340514863841236E-004;3.706339048221707E-003;
