# Version 1.00
#
freq[Hz];re:Trc1_S11;im:Trc1_S11;re:Trc2_S21;im:Trc2_S21;
2.400000000000000E+009;1.638418734073639E-001;5.173796415328980E-002;-1.134499092586339E-003;2.728069666773081E-003;
2.400166666666667E+009;1.638088077306747E-001;5.019472911953926E-002;-9.300322853960097E-004;3.017072100192308E-003;
2.400333333333334E+009;1.636501401662827E-001;4.840752109885216E-002;-1.020112191326916E-003;3.103582188487053E-003;
2.400500000000000E+009;1.635492444038391E-001;4.658857360482216E-002;-9.473479003645480E-004;3.269835142418742E-003;
2.400666666666667E+009;1.634723991155624E-001;4.466565698385239E-002;-8.104472653940320E-004;3.273890586569905E-003;
2.400833333333334E+009;1.636019051074982E-001;4.292375594377518E-002;-6.487740320153534E-004;3.451979719102383E-003;
2.401000000000000E+009;1.636890023946762E-001;4.083462804555893E-002;-6.494932458736002E-004;3.460155799984932E-003;
2.401166666666667E+009;1.637902855873108E-001;3.891430050134659E-002;-3.243868413846940E-004;3.681155154481530E-003;
2.401333333333334E+009;1.637520343065262E-001;3.711729124188423E-002;-3.421677683945745E-004;3.695720341056585E-003;
2.401500000000000E+009;1.640446037054062E-001;3.513283282518387E-002;-1.286858459934592E-004;3.797975135967135E-003;
2.401666666666667E+009;1.642762869596481E-001;3.310048207640648E-002;1.970813027583063E-004;3.827514592558146E-003;
2.401833333333334E+009;1.644129455089569E-001;3.102781251072884E-002;3.386046155355871E-004;4.077970515936613E-003;
2.402000000000000E+009;1.644973158836365E-001;2.914880029857159E-002;5.572887021116912E-004;4.103236831724644E-003;
2.402166666666667E+009;1.649136990308762E-001;2.715278975665569E-002;6.742246332578361E-004;3.988937009125948E-003;
2.402333333333334E+009;1.652875691652298E-001;2.519520372152329E-002;1.049792859703302E-003;3.917438443750143E-003;
2.402500000000000E+009;1.659285128116608E-001;2.376421727240086E-002;1.244618440978229E-003;4.009794443845749E-003;
2.402666666666667E+009;1.664539426565170E-001;2.185967750847340E-002;1.488338341005147E-003;3.963102586567402E-003;
2.402833333333334E+009;1.666828244924545E-001;2.014140039682388E-002;1.779765123501420E-003;3.883644472807646E-003;
2.403000000000000E+009;1.673988848924637E-001;1.855068653821945E-002;1.906095189042389E-003;3.806399414315820E-003;
2.403166666666667E+009;1.680205464363098E-001;1.689356006681919E-002;2.060220576822758E-003;3.664578776806593E-003;
2.403333333333334E+009;1.686190664768219E-001;1.535249687731266E-002;2.261253073811531E-003;3.414424834772945E-003;
2.403500000000000E+009;1.693105697631836E-001;1.407733280211687E-002;2.559771994128823E-003;3.363472642377019E-003;
2.403666666666667E+009;1.699800342321396E-001;1.243107113987207E-002;2.704704180359840E-003;3.264860482886434E-003;
2.403833333333334E+009;1.708025783300400E-001;1.122998073697090E-002;2.828539814800024E-003;3.056732937693596E-003;
2.404000000000000E+009;1.715045720338821E-001;9.915178641676903E-003;3.076877212151885E-003;2.873125020414591E-003;
2.404166666666667E+009;1.720808744430542E-001;8.762337267398834E-003;3.154927166178823E-003;2.623232314363122E-003;
2.404333333333334E+009;1.729464232921600E-001;7.663687225431204E-003;3.260391764342785E-003;2.314048819243908E-003;
2.404500000000000E+009;1.733243763446808E-001;6.567809730768204E-003;3.344260854646564E-003;2.282513305544853E-003;
2.404666666666667E+009;1.741770356893539E-001;5.796257406473160E-003;3.359619295224547E-003;2.051248680800200E-003;
2.404833333333334E+009;1.748965531587601E-001;4.831557627767324E-003;3.460757900029421E-003;2.000540029257536E-003;
2.405000000000000E+009;1.756032854318619E-001;4.090063739567995E-003;3.520592581480742E-003;1.628415076993406E-003;
2.405166666666667E+009;1.763099730014801E-001;3.330198116600514E-003;3.396279644221067E-003;1.446526497602463E-003;
2.405333333333334E+009;1.769043058156967E-001;2.487985417246819E-003;3.487000009045005E-003;1.218219520524144E-003;
2.405500000000000E+009;1.773295551538467E-001;2.124441321939230E-003;3.240065183490515E-003;1.078284229151905E-003;
2.405666666666667E+009;1.779208630323410E-001;1.592796877957881E-003;3.253264119848609E-003;1.002575270831585E-003;
2.405833333333334E+009;1.782894730567932E-001;1.079178298823535E-003;3.250172594562173E-003;7.152699399739504E-004;
2.406000000000000E+009;1.788838803768158E-001;5.228656227700412E-004;3.072129329666495E-003;7.012111600488424E-004;
2.406166666666667E+009;1.790459901094437E-001;2.787470875773579E-004;3.342310665175319E-003;5.349272978492081E-004;
2.406333333333334E+009;1.795694082975388E-001;-6.896772538311780E-005;2.911500167101622E-003;3.720556851476431E-004;
2.406500000000000E+009;1.797089725732803E-001;-4.768936487380415E-004;2.976410789415240E-003;2.971698995679617E-004;
2.406666666666667E+009;1.796014010906220E-001;-7.095520850270987E-004;2.950924215838313E-003;3.045181219931692E-004;
2.406833333333334E+009;1.798050403594971E-001;-1.202355721034110E-003;2.743837190791965E-003;1.719315623631701E-004;
2.407000000000000E+009;1.798532903194428E-001;-1.528894877992570E-003;2.849609823897481E-003;6.947053771000356E-005;
2.407166666666667E+009;1.800164282321930E-001;-1.854778500273824E-003;2.732872497290373E-003;2.108462067553774E-004;
2.407333333333334E+009;1.798519194126129E-001;-2.300803549587727E-003;2.881151856854558E-003;-2.149674401152879E-006;
2.407500000000000E+009;1.796431094408035E-001;-2.645526314154267E-003;2.643323503434658E-003;-1.030309940688312E-004;
2.407666666666667E+009;1.794174611568451E-001;-2.997636795043945E-003;2.651836024597287E-003;-8.406845154240727E-005;
2.407833333333334E+009;1.790177524089813E-001;-3.654942847788334E-003;2.600039355456829E-003;-1.418295141775161E-004;
2.408000000000000E+009;1.786724627017975E-001;-4.191931337118149E-003;2.520726993680000E-003;-3.134735452476889E-004;
2.408166666666667E+009;1.782376766204834E-001;-4.567012656480074E-003;2.530412981286645E-003;-1.993350888369605E-004;
2.408333333333334E+009;1.779665350914002E-001;-5.252785515040159E-003;2.373744733631611E-003;-1.473291049478576E-004;
2.408500000000000E+009;1.774860322475433E-001;-5.991698708385229E-003;2.465669997036457E-003;-2.929133770521730E-004;
2.408666666666667E+009;1.767075657844544E-001;-6.889555137604475E-003;2.376158954575658E-003;-5.279532633721829E-004;
2.408833333333334E+009;1.761464327573776E-001;-7.662367075681686E-003;2.280453918501735E-003;-5.081233102828264E-004;
2.409000000000000E+009;1.755501329898834E-001;-8.601570501923561E-003;2.325378591194749E-003;-6.098011508584023E-004;
2.409166666666667E+009;1.748410910367966E-001;-9.605804458260536E-003;2.180261304602027E-003;-5.947070894762874E-004;
2.409333333333334E+009;1.744144260883331E-001;-1.075289212167263E-002;2.120703924447298E-003;-5.090975319035351E-004;
2.409500000000000E+009;1.735063642263413E-001;-1.197537686675787E-002;2.114225178956986E-003;-4.321541055105627E-004;
2.409666666666667E+009;1.726163327693939E-001;-1.309823803603649E-002;2.004457637667656E-003;-5.481079570017755E-004;
2.409833333333334E+009;1.721158772706986E-001;-1.426563784480095E-002;2.210575621575117E-003;-4.914863384328783E-004;
2.410000000000000E+009;1.715212911367416E-001;-1.568397693336010E-002;2.044103806838393E-003;-4.833662242162973E-004;
2.410166666666667E+009;1.708093881607056E-001;-1.714948937296867E-002;2.058658050373197E-003;-5.265502841211855E-004;
2.410333333333334E+009;1.702102273702622E-001;-1.876455731689930E-002;1.955358078703284E-003;-6.188431289047003E-004;
2.410500000000000E+009;1.695673614740372E-001;-2.035756036639214E-002;2.145924139767885E-003;-6.133781280368567E-004;
2.410666666666667E+009;1.689294725656509E-001;-2.210860513150692E-002;2.204225631430745E-003;-5.527129978872836E-004;
2.410833333333334E+009;1.685183644294739E-001;-2.354788966476917E-002;2.111007226631045E-003;-6.874986574985087E-004;
2.411000000000000E+009;1.679200828075409E-001;-2.541314065456390E-002;2.156931208446622E-003;-6.673662574030459E-004;
2.411166666666667E+009;1.675846427679062E-001;-2.730881609022617E-002;2.099034609273076E-003;-7.468389812856913E-004;
2.411333333333334E+009;1.672807782888413E-001;-2.901000529527664E-002;2.250492805615068E-003;-5.934702930971980E-004;
2.411500000000000E+009;1.669428497552872E-001;-3.108412027359009E-002;2.427463419735432E-003;-7.325067999772728E-004;
2.411666666666667E+009;1.666936874389648E-001;-3.284254297614098E-002;2.311155665665865E-003;-7.797254365868866E-004;
2.411833333333334E+009;1.664941608905792E-001;-3.471852466464043E-002;2.213310915976763E-003;-8.656929130665958E-004;
2.412000000000000E+009;1.665204465389252E-001;-3.663793206214905E-002;2.409943379461765E-003;-8.191029191948474E-004;
2.412166666666667E+009;1.662821471691132E-001;-3.856743499636650E-002;2.476364141330123E-003;-1.061489223502576E-003;
2.412333333333334E+009;1.665394455194473E-001;-4.033552855253220E-002;2.451019361615181E-003;-1.068228972144425E-003;
2.412500000000000E+009;1.664334684610367E-001;-4.216854646801949E-002;2.617971738800407E-003;-1.224198611453176E-003;
2.412666666666667E+009;1.666820794343948E-001;-4.429083317518234E-002;2.489547012373805E-003;-1.481236540712416E-003;
2.412833333333334E+009;1.669648736715317E-001;-4.603785648941994E-002;2.449163934215903E-003;-1.472268020734191E-003;
2.413000000000000E+009;1.671218872070313E-001;-4.789538681507111E-002;2.444906858727336E-003;-1.720960135571659E-003;
2.413166666666667E+009;1.672935038805008E-001;-4.961861670017242E-002;2.371583832427859E-003;-1.728496048599482E-003;
2.413333333333334E+009;1.675354242324829E-001;-5.130157247185707E-002;2.342867897823453E-003;-1.924142125062645E-003;
2.413500000000000E+009;1.680075526237488E-001;-5.289211496710777E-002;2.230189973488450E-003;-2.115884330123663E-003;
2.413666666666667E+009;1.683461517095566E-001;-5.469944700598717E-002;2.123411512002349E-003;-2.180421724915505E-003;
2.413833333333334E+009;1.686706244945526E-001;-5.604289099574089E-002;1.983259571716189E-003;-2.439863048493862E-003;
2.414000000000000E+009;1.690218746662140E-001;-5.762606114149094E-002;1.743503031320870E-003;-2.481672214344144E-003;
2.414166666666667E+009;1.696603000164032E-001;-5.896313861012459E-002;1.611219136975706E-003;-2.526056021451950E-003;
2.414333333333334E+009;1.699506640434265E-001;-6.033163145184517E-002;1.608322723768652E-003;-2.570973243564367E-003;
2.414500000000000E+009;1.706032007932663E-001;-6.144028529524803E-002;1.402017893269658E-003;-2.574570477008820E-003;
2.414666666666667E+009;1.709580570459366E-001;-6.241044774651527E-002;1.366623793728650E-003;-2.739049028605223E-003;
2.414833333333334E+009;1.711824089288712E-001;-6.350328028202057E-002;1.265670638531447E-003;-2.701510908082128E-003;
2.415000000000000E+009;1.717960238456726E-001;-6.448718905448914E-002;9.072926477529109E-004;-2.651301678270102E-003;
2.415166666666667E+009;1.721138656139374E-001;-6.542963534593582E-002;9.439254645258188E-004;-2.752638421952725E-003;
2.415333333333334E+009;1.724558621644974E-001;-6.624035537242889E-002;7.172593032009900E-004;-2.820138353854418E-003;
2.415500000000000E+009;1.727392226457596E-001;-6.683205068111420E-002;5.183082539588213E-004;-2.863614819943905E-003;
2.415666666666667E+009;1.730773895978928E-001;-6.740269064903259E-002;3.978623135481030E-004;-2.705672755837441E-003;
2.415833333333334E+009;1.732912957668304E-001;-6.801470369100571E-002;2.188397484133020E-004;-2.745108678936958E-003;
2.416000000000000E+009;1.732231229543686E-001;-6.849113106727600E-002;6.015881808707491E-005;-2.710291417315602E-003;
2.416166666666667E+009;1.736183017492294E-001;-6.887415796518326E-002;-5.822793536935933E-005;-2.571320394054055E-003;
2.416333333333334E+009;1.734649091959000E-001;-6.929685920476914E-002;-1.454485318390653E-004;-2.505847951397300E-003;
2.416500000000000E+009;1.733895093202591E-001;-6.979418545961380E-002;-2.832250320352614E-004;-2.456096466630697E-003;
2.416666666666667E+009;1.732363849878311E-001;-6.990695744752884E-002;-4.236353561282158E-004;-2.396689727902412E-003;
2.416833333333334E+009;1.730931997299194E-001;-7.029961049556732E-002;-3.881351440213621E-004;-2.345089334994555E-003;
2.417000000000000E+009;1.724775135517120E-001;-7.067894935607910E-002;-4.180958203505725E-004;-2.191255800426006E-003;
2.417166666666667E+009;1.720980554819107E-001;-7.062368094921112E-002;-6.757085793651640E-004;-2.026040805503726E-003;
2.417333333333334E+009;1.717453896999359E-001;-7.086949795484543E-002;-6.401515565812588E-004;-1.900710398331285E-003;
2.417500000000000E+009;1.710916310548782E-001;-7.132632285356522E-002;-7.448714459314942E-004;-1.833365065976977E-003;
2.417666666666667E+009;1.705272495746613E-001;-7.135246694087982E-002;-6.694624316878617E-004;-1.672567217610776E-003;
2.417833333333334E+009;1.698277443647385E-001;-7.154555618762970E-002;-7.812608382664621E-004;-1.547407126054168E-003;
2.418000000000000E+009;1.689895987510681E-001;-7.201702892780304E-002;-6.394335650838912E-004;-1.458891434594989E-003;
2.418166666666667E+009;1.679993420839310E-001;-7.209796458482742E-002;-6.501466268673539E-004;-1.532365335151553E-003;
2.418333333333334E+009;1.673578321933746E-001;-7.249647378921509E-002;-6.971838301979005E-004;-1.236050622537732E-003;
2.418500000000000E+009;1.663204133510590E-001;-7.292087376117706E-002;-6.872378871776164E-004;-1.173509866930544E-003;
2.418666666666667E+009;1.651604175567627E-001;-7.328668236732483E-002;-6.590041448362172E-004;-1.205544453114271E-003;
2.418833333333334E+009;1.639170497655869E-001;-7.385989278554916E-002;-6.088157533667982E-004;-9.957035072147846E-004;
2.419000000000000E+009;1.627440601587296E-001;-7.425221055746079E-002;-4.903753288090229E-004;-1.079895533621311E-003;
2.419166666666667E+009;1.616500318050385E-001;-7.485374063253403E-002;-4.334611003287137E-004;-1.011701417155564E-003;
2.419333333333334E+009;1.601925790309906E-001;-7.534397393465042E-002;-3.747500595636666E-004;-1.002785866148770E-003;
2.419500000000000E+009;1.590434163808823E-001;-7.610440999269486E-002;-3.489305381663144E-004;-9.771133773028851E-004;
2.419666666666667E+009;1.580545604228973E-001;-7.694419473409653E-002;-3.024555044248700E-004;-1.049449318088591E-003;
2.419833333333334E+009;1.565463542938232E-001;-7.778888195753098E-002;-3.209775604773313E-004;-8.712711278349161E-004;
2.420000000000000E+009;1.555023938417435E-001;-7.878268510103226E-002;-2.911487536039203E-004;-8.884523995220661E-004;
2.420166666666667E+009;1.544491946697235E-001;-7.979734241962433E-002;-3.691185847856104E-004;-8.883244590833783E-004;
2.420333333333334E+009;1.531147956848145E-001;-8.075726032257080E-002;-1.441968051949516E-004;-8.644806221127510E-004;
2.420500000000000E+009;1.520884782075882E-001;-8.192642033100128E-002;-8.935431105783209E-005;-7.832099799998105E-004;
2.420666666666667E+009;1.509076207876205E-001;-8.305007964372635E-002;-4.421548874233849E-005;-6.921633612364531E-004;
2.420833333333334E+009;1.499098390340805E-001;-8.445875346660614E-002;-2.662579390744213E-006;-8.318049949593842E-004;
2.421000000000000E+009;1.487365961074829E-001;-8.579088747501373E-002;3.418607957428321E-005;-7.650317857041955E-004;
2.421166666666667E+009;1.480102539062500E-001;-8.711179345846176E-002;7.067885599099100E-005;-8.716380689293146E-004;
2.421333333333334E+009;1.471085846424103E-001;-8.865185827016830E-002;9.659441275289282E-005;-8.541977731510997E-004;
2.421500000000000E+009;1.462692469358444E-001;-9.018895775079727E-002;2.134558308171108E-004;-8.972894866019487E-004;
2.421666666666667E+009;1.456337273120880E-001;-9.161525964736939E-002;9.854621021077037E-005;-9.847176261246204E-004;
2.421833333333334E+009;1.450585424900055E-001;-9.327366948127747E-002;4.463298537302762E-004;-9.698535432107747E-004;
2.422000000000000E+009;1.444913297891617E-001;-9.505867213010788E-002;4.333441320341080E-004;-1.136831822805107E-003;
2.422166666666667E+009;1.440792977809906E-001;-9.687631577253342E-002;4.708139458671212E-004;-1.242350786924362E-003;
2.422333333333334E+009;1.435888260602951E-001;-9.833546727895737E-002;4.432474961504340E-004;-1.239211997017264E-003;
2.422500000000000E+009;1.432178169488907E-001;-9.987077116966248E-002;5.800394574180245E-004;-1.305537996813655E-003;
2.422666666666667E+009;1.429741978645325E-001;-1.016921177506447E-001;4.666268359869719E-004;-1.509745023213327E-003;
2.422833333333334E+009;1.429155319929123E-001;-1.035828739404678E-001;5.525316228158772E-004;-1.679580309428275E-003;
2.423000000000000E+009;1.428606361150742E-001;-1.052317023277283E-001;3.966069489251822E-004;-1.762781408615410E-003;
2.423166666666667E+009;1.428419947624207E-001;-1.068040877580643E-001;6.506625795736909E-004;-1.909206621348858E-003;
2.423333333333334E+009;1.430669277906418E-001;-1.084515526890755E-001;4.968161229044199E-004;-2.099904930219054E-003;
2.423500000000000E+009;1.431506425142288E-001;-1.100244596600533E-001;4.452198336366564E-004;-2.102315425872803E-003;
2.423666666666667E+009;1.431111395359039E-001;-1.116320639848709E-001;2.502611023373902E-004;-2.342030638828874E-003;
2.423833333333334E+009;1.435905843973160E-001;-1.133011877536774E-001;1.455800811527297E-004;-2.410911722108722E-003;
2.424000000000000E+009;1.437095701694489E-001;-1.145869269967079E-001;5.545204840018414E-005;-2.438434399664402E-003;
2.424166666666667E+009;1.440141797065735E-001;-1.159823834896088E-001;-2.233204286312684E-004;-2.574875950813294E-003;
2.424333333333334E+009;1.444652676582336E-001;-1.171454787254334E-001;-2.368157001910731E-004;-2.635812852531672E-003;
2.424500000000000E+009;1.448137164115906E-001;-1.183625981211662E-001;-3.456160193309188E-004;-2.570728771388531E-003;
2.424666666666667E+009;1.452483832836151E-001;-1.193968057632446E-001;-5.092265200801194E-004;-2.680005272850394E-003;
2.424833333333334E+009;1.454726606607437E-001;-1.205211207270622E-001;-7.893563015386462E-004;-2.638104604557157E-003;
2.425000000000000E+009;1.459100544452667E-001;-1.216709315776825E-001;-8.855109917931259E-004;-2.700279233977199E-003;
2.425166666666667E+009;1.461151093244553E-001;-1.225652098655701E-001;-1.018607872538269E-003;-2.757501089945436E-003;
2.425333333333334E+009;1.465942263603210E-001;-1.232449039816856E-001;-1.151612959802151E-003;-2.619413658976555E-003;
2.425500000000000E+009;1.469828039407730E-001;-1.240342557430267E-001;-1.356168417260051E-003;-2.512432634830475E-003;
2.425666666666667E+009;1.469518989324570E-001;-1.246384829282761E-001;-1.462200190871954E-003;-2.613055752590299E-003;
2.425833333333334E+009;1.473576128482819E-001;-1.252193897962570E-001;-1.543510006740689E-003;-2.478567184880376E-003;
2.426000000000000E+009;1.474890410900116E-001;-1.257045567035675E-001;-1.703608199022710E-003;-2.408912172541022E-003;
2.426166666666667E+009;1.477968245744705E-001;-1.261389404535294E-001;-1.677658408880234E-003;-2.428909530863166E-003;
2.426333333333334E+009;1.477822959423065E-001;-1.264964491128922E-001;-1.939721754752100E-003;-2.257284242659807E-003;
2.426500000000000E+009;1.478866785764694E-001;-1.267733573913574E-001;-2.050882438197732E-003;-2.096768002957106E-003;
2.426666666666667E+009;1.478088647127152E-001;-1.267896294593811E-001;-2.066697692498565E-003;-2.166862599551678E-003;
2.426833333333334E+009;1.477168202400208E-001;-1.270553022623062E-001;-2.102193888276815E-003;-1.954329665750265E-003;
2.427000000000000E+009;1.475207060575485E-001;-1.271235346794128E-001;-2.313466276973486E-003;-1.916739856824279E-003;
2.427166666666667E+009;1.471159756183624E-001;-1.270447522401810E-001;-2.417652634903789E-003;-1.853723195381463E-003;
2.427333333333334E+009;1.465512067079544E-001;-1.271372735500336E-001;-2.302549546584487E-003;-1.717493985779584E-003;
2.427500000000000E+009;1.462568342685700E-001;-1.271174252033234E-001;-2.277989871799946E-003;-1.637066015973687E-003;
2.427666666666667E+009;1.455478668212891E-001;-1.271854043006897E-001;-2.397009637206793E-003;-1.480176113545895E-003;
