# Version 1.00
#
freq[Hz];re:Trc1_S11;im:Trc1_S11;re:Trc2_S21;im:Trc2_S21;
2.400000000000000E+009;1.711834371089935E-001;4.015453159809113E-002;2.792898332700133E-003;-1.487244036979973E-003;
2.400166666666667E+009;1.717160642147064E-001;3.974315896630287E-002;2.795142354443669E-003;-1.734062447212637E-003;
2.400333333333334E+009;1.721672117710114E-001;3.896330669522286E-002;2.930356888100505E-003;-1.767949899658561E-003;
2.400500000000000E+009;1.726370453834534E-001;3.847497701644898E-002;2.722301753237844E-003;-1.781891915015876E-003;
2.400666666666667E+009;1.729839891195297E-001;3.770705312490463E-002;2.784083830192685E-003;-2.108798129484057E-003;
2.400833333333334E+009;1.733364015817642E-001;3.730303049087524E-002;2.577603794634342E-003;-2.165873069316149E-003;
2.401000000000000E+009;1.736315190792084E-001;3.668570518493652E-002;2.521515591070056E-003;-2.276855288073421E-003;
2.401166666666667E+009;1.735341846942902E-001;3.612424060702324E-002;2.448161598294973E-003;-2.333807758986950E-003;
2.401333333333334E+009;1.734621375799179E-001;3.551357239484787E-002;2.236616332083941E-003;-2.461347728967667E-003;
2.401500000000000E+009;1.735577434301376E-001;3.481562435626984E-002;2.217055996879935E-003;-2.743989229202271E-003;
2.401666666666667E+009;1.736025959253311E-001;3.417117893695831E-002;2.064504195004702E-003;-2.602598164230585E-003;
2.401833333333334E+009;1.734186857938767E-001;3.337469696998596E-002;1.953325467184186E-003;-2.593947341665626E-003;
2.402000000000000E+009;1.730837374925613E-001;3.257287293672562E-002;1.811626716516912E-003;-2.721117576584220E-003;
2.402166666666667E+009;1.729410141706467E-001;3.168610483407974E-002;1.803769380785525E-003;-2.650269540026784E-003;
2.402333333333334E+009;1.726896911859512E-001;3.103799931704998E-002;1.645827782340348E-003;-2.648481400683522E-003;
2.402500000000000E+009;1.724976897239685E-001;3.018301725387573E-002;1.499524572864175E-003;-2.689410233870149E-003;
2.402666666666667E+009;1.722161769866943E-001;2.919555641710758E-002;1.539061311632395E-003;-2.950716763734818E-003;
2.402833333333334E+009;1.718748360872269E-001;2.828052267432213E-002;1.510942121967673E-003;-2.732399618253112E-003;
2.403000000000000E+009;1.714452952146530E-001;2.714947052299976E-002;1.492848852649331E-003;-2.818861044943333E-003;
2.403166666666667E+009;1.710744500160217E-001;2.584757469594479E-002;1.590864965692163E-003;-2.861892338842154E-003;
2.403333333333334E+009;1.708005666732788E-001;2.469221502542496E-002;1.340160844847560E-003;-2.922810846939683E-003;
2.403500000000000E+009;1.704137027263641E-001;2.352193184196949E-002;1.348105026409030E-003;-3.161347238346934E-003;
2.403666666666667E+009;1.699773222208023E-001;2.208674512803555E-002;1.250484376214445E-003;-3.273783717304468E-003;
2.403833333333334E+009;1.697733551263809E-001;2.059964463114739E-002;1.259328098967671E-003;-3.325885627418757E-003;
2.404000000000000E+009;1.693120300769806E-001;1.925301365554333E-002;9.393153013661504E-004;-3.416943596675992E-003;
2.404166666666667E+009;1.691119223833084E-001;1.768850162625313E-002;8.968201582320035E-004;-3.711757017299533E-003;
2.404333333333334E+009;1.685700416564941E-001;1.618737727403641E-002;7.229660986922681E-004;-3.665342228487134E-003;
2.404500000000000E+009;1.684054285287857E-001;1.452886220067740E-002;5.614223191514611E-004;-3.515186021104455E-003;
2.404666666666667E+009;1.681824177503586E-001;1.301955338567495E-002;2.667460648808628E-004;-3.751925192773342E-003;
2.404833333333334E+009;1.680143624544144E-001;1.114966627210379E-002;2.042029082076624E-004;-3.725380636751652E-003;
2.405000000000000E+009;1.678385436534882E-001;9.533877484500408E-003;-1.407870877301320E-005;-3.542521037161350E-003;
2.405166666666667E+009;1.677172780036926E-001;7.743680849671364E-003;-2.593001991044730E-004;-3.612735541537404E-003;
2.405333333333334E+009;1.678690016269684E-001;5.942472256720066E-003;-4.777833528351039E-004;-3.467795904725790E-003;
2.405500000000000E+009;1.677441745996475E-001;4.060348030179739E-003;-3.534897114150226E-004;-3.285987768322229E-003;
2.405666666666667E+009;1.678110212087631E-001;2.336666220799089E-003;-4.058105405420065E-004;-3.461256623268127E-003;
2.405833333333334E+009;1.676678955554962E-001;4.433617286849767E-004;-7.408865494653583E-004;-3.358054207637906E-003;
2.406000000000000E+009;1.677229255437851E-001;-1.574851805344224E-003;-7.138486835174263E-004;-3.067508339881897E-003;
2.406166666666667E+009;1.676651537418366E-001;-3.295282134786248E-003;-8.258102461695671E-004;-3.124985843896866E-003;
2.406333333333334E+009;1.679186224937439E-001;-5.103139206767082E-003;-1.040461356751621E-003;-3.168534720316529E-003;
2.406500000000000E+009;1.678472459316254E-001;-6.955192424356937E-003;-1.081843394786120E-003;-2.916951430961490E-003;
2.406666666666667E+009;1.676684021949768E-001;-8.662103675305843E-003;-1.210726913996041E-003;-2.716460963711143E-003;
2.406833333333334E+009;1.678100675344467E-001;-1.042099576443434E-002;-1.236738055013120E-003;-2.875607926398516E-003;
2.407000000000000E+009;1.678184121847153E-001;-1.218190696090460E-002;-1.258098287507892E-003;-2.736843889579177E-003;
2.407166666666667E+009;1.681082099676132E-001;-1.358731742948294E-002;-1.197237754240632E-003;-2.774701453745365E-003;
2.407333333333334E+009;1.679891943931580E-001;-1.515156030654907E-002;-1.348673831671476E-003;-2.613563556224108E-003;
2.407500000000000E+009;1.680496931076050E-001;-1.656164228916168E-002;-1.347442041151226E-003;-2.576483879238367E-003;
2.407666666666667E+009;1.682827323675156E-001;-1.775027997791767E-002;-1.415301463566721E-003;-2.540075452998281E-003;
2.407833333333334E+009;1.682761907577515E-001;-1.914384029805660E-002;-1.590146101079881E-003;-2.381100319325924E-003;
2.408000000000000E+009;1.684781610965729E-001;-2.007652819156647E-002;-1.685956958681345E-003;-2.278199652209878E-003;
2.408166666666667E+009;1.686116904020309E-001;-2.095259539783001E-002;-1.590416650287807E-003;-2.185724209994078E-003;
2.408333333333334E+009;1.690993756055832E-001;-2.198698557913303E-002;-1.792242284864187E-003;-2.090552123263478E-003;
2.408500000000000E+009;1.690732836723328E-001;-2.300228178501129E-002;-1.879540970548987E-003;-2.005382673814893E-003;
2.408666666666667E+009;1.694628745317459E-001;-2.360519208014011E-002;-1.908553880639374E-003;-1.913891755975783E-003;
2.408833333333334E+009;1.696158498525620E-001;-2.459240145981312E-002;-1.757213496603072E-003;-1.833433168940246E-003;
2.409000000000000E+009;1.700360625982285E-001;-2.516884170472622E-002;-1.765900989994407E-003;-1.671360456384718E-003;
2.409166666666667E+009;1.705476492643356E-001;-2.601686120033264E-002;-1.643045106902719E-003;-1.590923639014363E-003;
2.409333333333334E+009;1.709437519311905E-001;-2.671116031706333E-002;-1.730043441057205E-003;-1.349203172139823E-003;
2.409500000000000E+009;1.712692230939865E-001;-2.753369510173798E-002;-1.578826573677361E-003;-1.469709328375757E-003;
2.409666666666667E+009;1.713364571332932E-001;-2.814966067671776E-002;-1.312300097197294E-003;-1.422158209607005E-003;
2.409833333333334E+009;1.717005968093872E-001;-2.866170182824135E-002;-1.455120160244405E-003;-1.427844748832285E-003;
2.410000000000000E+009;1.719950586557388E-001;-2.942613139748573E-002;-1.312513952143490E-003;-1.530807465314865E-003;
2.410166666666667E+009;1.720522493124008E-001;-3.017167374491692E-002;-1.151250791735947E-003;-1.368153491057456E-003;
2.410333333333334E+009;1.719791144132614E-001;-3.085854090750217E-002;-1.377797336317599E-003;-1.433001365512610E-003;
2.410500000000000E+009;1.721416264772415E-001;-3.149950504302979E-002;-1.351470011286438E-003;-1.498442841693759E-003;
2.410666666666667E+009;1.717751473188400E-001;-3.234836459159851E-002;-1.159749110229313E-003;-1.587874721735716E-003;
2.410833333333334E+009;1.719980090856552E-001;-3.279025107622147E-002;-1.266539911739528E-003;-1.609016791917384E-003;
2.411000000000000E+009;1.716225445270538E-001;-3.342203050851822E-002;-9.991135448217392E-004;-1.633922569453716E-003;
2.411166666666667E+009;1.714581400156021E-001;-3.414514288306236E-002;-1.129579264670610E-003;-1.764207147061825E-003;
2.411333333333334E+009;1.712225973606110E-001;-3.459603339433670E-002;-1.277804258279502E-003;-1.816331176087260E-003;
2.411500000000000E+009;1.707361936569214E-001;-3.552688285708427E-002;-1.226000371389091E-003;-1.864983933046460E-003;
2.411666666666667E+009;1.706337034702301E-001;-3.605652973055840E-002;-1.420363783836365E-003;-2.062538173049688E-003;
2.411833333333334E+009;1.700043380260468E-001;-3.668729960918427E-002;-1.258568023331463E-003;-2.049115253612399E-003;
2.412000000000000E+009;1.697228848934174E-001;-3.736049309372902E-002;-1.520193764008582E-003;-2.197659108787775E-003;
2.412166666666667E+009;1.691078990697861E-001;-3.832735493779182E-002;-1.688287826254964E-003;-2.198082162067294E-003;
2.412333333333334E+009;1.687878519296646E-001;-3.890025615692139E-002;-1.700742868706584E-003;-2.494530752301216E-003;
2.412500000000000E+009;1.679587811231613E-001;-3.965221717953682E-002;-1.940508256666362E-003;-2.494031330570579E-003;
2.412666666666667E+009;1.675320416688919E-001;-4.077953845262528E-002;-2.183709992095828E-003;-2.350555732846260E-003;
2.412833333333334E+009;1.667788177728653E-001;-4.155184701085091E-002;-2.246690448373556E-003;-2.247812459245324E-003;
2.413000000000000E+009;1.661201566457748E-001;-4.259188100695610E-002;-2.500932430848479E-003;-2.305367495864630E-003;
2.413166666666667E+009;1.654652506113052E-001;-4.349392279982567E-002;-2.599565777927637E-003;-2.330708317458630E-003;
2.413333333333334E+009;1.646101176738739E-001;-4.443666338920593E-002;-2.623285632580519E-003;-2.354399999603629E-003;
2.413500000000000E+009;1.640101820230484E-001;-4.571207985281944E-002;-2.979753771796823E-003;-2.250904683023691E-003;
2.413666666666667E+009;1.632904112339020E-001;-4.661996290087700E-002;-3.065388416871429E-003;-2.156884176656604E-003;
2.413833333333334E+009;1.626949310302734E-001;-4.760870710015297E-002;-3.418190404772759E-003;-1.928532263264060E-003;
2.414000000000000E+009;1.617693752050400E-001;-4.878526926040649E-002;-3.423352725803852E-003;-1.922426046803594E-003;
2.414166666666667E+009;1.612953841686249E-001;-4.976943135261536E-002;-3.561147022992373E-003;-1.652875682339072E-003;
2.414333333333334E+009;1.605567187070847E-001;-5.095947161316872E-002;-3.682527691125870E-003;-1.588605809956789E-003;
2.414500000000000E+009;1.602383255958557E-001;-5.216615274548531E-002;-3.871224122121930E-003;-1.399012980982661E-003;
2.414666666666667E+009;1.595906019210815E-001;-5.334400385618210E-002;-4.101688973605633E-003;-1.348372665233910E-003;
2.414833333333334E+009;1.591632664203644E-001;-5.458069965243340E-002;-4.244938958436251E-003;-1.129586482420564E-003;
2.415000000000000E+009;1.587647646665573E-001;-5.586557835340500E-002;-4.271853715181351E-003;-7.744940812699497E-004;
2.415166666666667E+009;1.584379076957703E-001;-5.712782964110375E-002;-4.431366920471191E-003;-6.106494111008942E-004;
2.415333333333334E+009;1.582554578781128E-001;-5.856512114405632E-002;-4.396859556436539E-003;-3.335319925099611E-004;
2.415500000000000E+009;1.579369604587555E-001;-5.969636887311935E-002;-4.582761321216822E-003;-2.759380149655044E-004;
2.415666666666667E+009;1.578427255153656E-001;-6.100504100322723E-002;-4.492625128477812E-003;1.579987147124484E-004;
2.415833333333334E+009;1.577385962009430E-001;-6.262154132127762E-002;-4.487304948270321E-003;3.622419899329543E-004;
2.416000000000000E+009;1.574745178222656E-001;-6.402405351400375E-002;-4.630725830793381E-003;5.588392959907651E-004;
2.416166666666667E+009;1.574853211641312E-001;-6.549458950757980E-002;-4.514291416853666E-003;6.918745930306613E-004;
2.416333333333334E+009;1.571360081434250E-001;-6.681724637746811E-002;-4.211255814880133E-003;1.036109053529799E-003;
2.416500000000000E+009;1.570370942354202E-001;-6.838610768318176E-002;-4.277578555047512E-003;1.366899581626058E-003;
2.416666666666667E+009;1.568615287542343E-001;-6.980061531066895E-002;-4.130082204937935E-003;1.515423296950758E-003;
2.416833333333334E+009;1.568129956722260E-001;-7.129433751106262E-002;-4.053120967000723E-003;1.714943442493677E-003;
2.417000000000000E+009;1.564601212739945E-001;-7.257127761840820E-002;-3.898843890056014E-003;1.820568344555795E-003;
2.417166666666667E+009;1.563299894332886E-001;-7.380597293376923E-002;-3.840258577838540E-003;1.902722869999707E-003;
2.417333333333334E+009;1.561019718647003E-001;-7.491659373044968E-002;-3.618630813434720E-003;2.082297345623374E-003;
2.417500000000000E+009;1.559332609176636E-001;-7.617687433958054E-002;-3.507872112095356E-003;2.224466530606151E-003;
2.417666666666667E+009;1.560048013925552E-001;-7.713966816663742E-002;-3.304394427686930E-003;2.348393667489290E-003;
2.417833333333334E+009;1.558746695518494E-001;-7.810884714126587E-002;-3.198398975655437E-003;2.548889257013798E-003;
2.418000000000000E+009;1.557422578334808E-001;-7.919142395257950E-002;-3.092859406024218E-003;2.645693719387054E-003;
2.418166666666667E+009;1.557350754737854E-001;-7.997178286314011E-002;-2.938781399279833E-003;2.678352175280452E-003;
2.418333333333334E+009;1.558533012866974E-001;-8.085855096578598E-002;-2.654601819813252E-003;2.804915886372328E-003;
2.418500000000000E+009;1.556981950998306E-001;-8.167026937007904E-002;-2.447024220600724E-003;2.743805758655071E-003;
2.418666666666667E+009;1.557337641716003E-001;-8.244287222623825E-002;-2.261279383674264E-003;2.994444454088807E-003;
2.418833333333334E+009;1.554825007915497E-001;-8.309753984212875E-002;-2.125428058207035E-003;2.851360244676471E-003;
2.419000000000000E+009;1.554025858640671E-001;-8.371430635452271E-002;-1.933459076099098E-003;3.055778332054615E-003;
2.419166666666667E+009;1.553137451410294E-001;-8.436296880245209E-002;-1.797225908376277E-003;2.839360618963838E-003;
2.419333333333334E+009;1.549991220235825E-001;-8.468673378229141E-002;-1.677913125604391E-003;2.967497799545527E-003;
2.419500000000000E+009;1.549583673477173E-001;-8.546787500381470E-002;-1.449467614293098E-003;2.798306522890925E-003;
2.419666666666667E+009;1.547849923372269E-001;-8.584447205066681E-002;-1.269672531634569E-003;2.808718942105770E-003;
2.419833333333334E+009;1.543837040662766E-001;-8.622068166732788E-002;-1.147081959061325E-003;2.642584498971701E-003;
2.420000000000000E+009;1.542252302169800E-001;-8.650897443294525E-002;-1.110673416405916E-003;2.623371779918671E-003;
2.420166666666667E+009;1.539952754974365E-001;-8.682902902364731E-002;-1.013503875583410E-003;2.589481649920344E-003;
2.420333333333334E+009;1.537739634513855E-001;-8.723118156194687E-002;-9.791973279789090E-004;2.590174088254571E-003;
2.420500000000000E+009;1.535252630710602E-001;-8.722454309463501E-002;-9.541541221551597E-004;2.372252987697721E-003;
2.420666666666667E+009;1.531311124563217E-001;-8.768496662378311E-002;-8.966539753600955E-004;2.367073204368353E-003;
2.420833333333334E+009;1.528488695621491E-001;-8.815214782953262E-002;-8.221489842981100E-004;2.337164711207151E-003;
2.421000000000000E+009;1.523735672235489E-001;-8.851061761379242E-002;-8.894482161849737E-004;2.181307878345251E-003;
2.421166666666667E+009;1.519410610198975E-001;-8.872136473655701E-002;-8.351137512363493E-004;2.154797315597534E-003;
2.421333333333334E+009;1.514938175678253E-001;-8.933273702859879E-002;-9.260741644538939E-004;2.057345584034920E-003;
2.421500000000000E+009;1.509680300951004E-001;-8.971360325813294E-002;-1.013874192722142E-003;2.194745698943734E-003;
2.421666666666667E+009;1.503771543502808E-001;-9.025656431913376E-002;-1.037787413224578E-003;1.924271346069872E-003;
2.421833333333334E+009;1.496827751398087E-001;-9.059751033782959E-002;-1.052023260854185E-003;2.133778296411037E-003;
2.422000000000000E+009;1.489780843257904E-001;-9.108972549438477E-002;-1.057120505720377E-003;2.111471258103848E-003;
2.422166666666667E+009;1.481758505105972E-001;-9.200040996074677E-002;-1.132248784415424E-003;2.058004261925817E-003;
2.422333333333334E+009;1.474259048700333E-001;-9.254727512598038E-002;-1.178511884063482E-003;2.176222158595920E-003;
2.422500000000000E+009;1.466857343912125E-001;-9.281958639621735E-002;-1.312242471612990E-003;2.218638546764851E-003;
2.422666666666667E+009;1.457849442958832E-001;-9.361135959625244E-002;-1.317231450229883E-003;2.414858201518655E-003;
2.422833333333334E+009;1.449647992849350E-001;-9.431215375661850E-002;-1.532057649455965E-003;2.451707143336535E-003;
2.423000000000000E+009;1.442517340183258E-001;-9.516176581382752E-002;-1.530912471935153E-003;2.758743241429329E-003;
2.423166666666667E+009;1.433077603578568E-001;-9.614448994398117E-002;-1.297243521548808E-003;2.648937748745084E-003;
2.423333333333334E+009;1.425573825836182E-001;-9.671632945537567E-002;-1.230860827490687E-003;3.009863430634141E-003;
2.423500000000000E+009;1.415832042694092E-001;-9.777785092592239E-002;-1.218303805217147E-003;3.053675871342421E-003;
2.423666666666667E+009;1.404255926609039E-001;-9.878999739885330E-002;-1.034808694384992E-003;3.288668347522616E-003;
2.423833333333334E+009;1.398380547761917E-001;-9.970923513174057E-002;-1.017567468807101E-003;3.549335291609168E-003;
2.424000000000000E+009;1.387110054492950E-001;-1.004656404256821E-001;-9.196099708788097E-004;3.606407670304179E-003;
2.424166666666667E+009;1.379041075706482E-001;-1.015349254012108E-001;-5.659440066665411E-004;3.740452462807298E-003;
2.424333333333334E+009;1.372079402208328E-001;-1.027320399880409E-001;-3.284216218162328E-004;3.909969702363014E-003;
2.424500000000000E+009;1.363490968942642E-001;-1.037338525056839E-001;-1.862182252807543E-004;3.976322244852781E-003;
2.424666666666667E+009;1.356004327535629E-001;-1.047252044081688E-001;9.204530215356499E-005;4.057107027620077E-003;
2.424833333333334E+009;1.347862929105759E-001;-1.059239581227303E-001;3.726830764207989E-004;3.998238593339920E-003;
2.425000000000000E+009;1.341111958026886E-001;-1.071761026978493E-001;6.423882441595197E-004;4.062928259372711E-003;
2.425166666666667E+009;1.332849562168121E-001;-1.083290129899979E-001;8.902564877644181E-004;4.089186433702707E-003;
2.425333333333334E+009;1.327698230743408E-001;-1.095113307237625E-001;1.047028927132487E-003;3.779924474656582E-003;
2.425500000000000E+009;1.322559416294098E-001;-1.107935085892677E-001;1.327785430476070E-003;3.743195906281471E-003;
2.425666666666667E+009;1.315427869558334E-001;-1.119220852851868E-001;1.529655652120709E-003;3.684944473206997E-003;
2.425833333333334E+009;1.311340928077698E-001;-1.131158769130707E-001;1.705208211205900E-003;3.442033659666777E-003;
2.426000000000000E+009;1.306136399507523E-001;-1.143932938575745E-001;1.951588201336563E-003;3.226560307666659E-003;
2.426166666666667E+009;1.302749216556549E-001;-1.156389638781548E-001;1.964472699910402E-003;3.070851787924767E-003;
2.426333333333334E+009;1.298427134752274E-001;-1.166751459240913E-001;2.152968198060989E-003;2.859860658645630E-003;
2.426500000000000E+009;1.295092850923538E-001;-1.178519949316979E-001;2.227250253781676E-003;2.646391047164798E-003;
2.426666666666667E+009;1.291736364364624E-001;-1.189006045460701E-001;2.386434935033321E-003;2.500369446352124E-003;
2.426833333333334E+009;1.288719475269318E-001;-1.200650855898857E-001;2.471246989443898E-003;2.089973771944642E-003;
2.427000000000000E+009;1.285270303487778E-001;-1.210403144359589E-001;2.403029007837176E-003;1.954165985807777E-003;
2.427166666666667E+009;1.283264607191086E-001;-1.218772456049919E-001;2.354685217142105E-003;1.843986101448536E-003;
2.427333333333334E+009;1.280513554811478E-001;-1.228328496217728E-001;2.321408363059163E-003;1.553166308440268E-003;
2.427500000000000E+009;1.281601786613464E-001;-1.238028854131699E-001;2.276063896715641E-003;1.380457193590701E-003;
2.427666666666667E+009;1.279269158840179E-001;-1.246466487646103E-001;2.083143685013056E-003;1.122348476201296E-003;
