# Version 1.00
#
freq[Hz];re:Trc1_S11;im:Trc1_S11;re:Trc2_S21;im:Trc2_S21;
2.400000000000000E+009;1.579834669828415E-001;6.248367950320244E-002;-3.337212605401874E-003;-5.897766095586121E-004;
2.400166666666667E+009;1.579514145851135E-001;6.087512522935867E-002;-3.316565416753292E-003;-5.539173143915832E-004;
2.400333333333334E+009;1.578185409307480E-001;5.898964032530785E-002;-3.345551434904337E-003;-3.850742941722274E-004;
2.400500000000000E+009;1.577284634113312E-001;5.709861591458321E-002;-3.204129636287689E-003;-3.412570804357529E-004;
2.400666666666667E+009;1.576481163501740E-001;5.508271604776382E-002;-3.211709437891841E-003;-4.400681518745842E-006;
2.400833333333334E+009;1.579893827438355E-001;5.312584340572357E-002;-3.306277794763446E-003;-1.074927058652975E-004;
2.401000000000000E+009;1.578962057828903E-001;5.116186663508415E-002;-3.173111006617546E-003;-1.082733724615537E-004;
2.401166666666667E+009;1.579928249120712E-001;4.890170693397522E-002;-3.108138684183359E-003;-3.245287189201918E-006;
2.401333333333334E+009;1.581764221191406E-001;4.705717787146568E-002;-2.934008603915572E-003;7.379257294815034E-005;
2.401500000000000E+009;1.587599813938141E-001;4.482787102460861E-002;-2.898784587159753E-003;-1.574108500790317E-005;
2.401666666666667E+009;1.589596569538117E-001;4.295558109879494E-002;-2.888042014092207E-003;2.095614909194410E-004;
2.401833333333334E+009;1.593278199434280E-001;4.080834984779358E-002;-3.019913332536817E-003;2.213841507909820E-004;
2.402000000000000E+009;1.595712751150131E-001;3.878294304013252E-002;-2.952137729153037E-003;2.091281203320250E-004;
2.402166666666667E+009;1.602353155612946E-001;3.676774352788925E-002;-2.889576600864530E-003;2.133758243871853E-004;
2.402333333333334E+009;1.607141196727753E-001;3.488682955503464E-002;-2.936223987489939E-003;4.091572482138872E-004;
2.402500000000000E+009;1.615463048219681E-001;3.314273804426193E-002;-2.882373752072454E-003;3.697804640978575E-004;
2.402666666666667E+009;1.621168404817581E-001;3.135081008076668E-002;-2.776214852929115E-003;4.621896368917078E-004;
2.402833333333334E+009;1.629318594932556E-001;2.964168041944504E-002;-2.878040540963411E-003;4.856755258515477E-004;
2.403000000000000E+009;1.637459397315979E-001;2.807105891406536E-002;-2.796954941004515E-003;5.060399998910725E-004;
2.403166666666667E+009;1.646906286478043E-001;2.645942382514477E-002;-2.762286458164454E-003;6.364917499013245E-004;
2.403333333333334E+009;1.654441654682159E-001;2.494090422987938E-002;-2.851824043318629E-003;6.420051213353872E-004;
2.403500000000000E+009;1.665117889642716E-001;2.345749549567699E-002;-2.746782731264830E-003;6.125824875198305E-004;
2.403666666666667E+009;1.674121022224426E-001;2.202488109469414E-002;-2.770473947748542E-003;7.789746741764247E-004;
2.403833333333334E+009;1.684684008359909E-001;2.089186944067478E-002;-2.902119886130095E-003;9.193400619551539E-004;
2.404000000000000E+009;1.693388372659683E-001;1.977229304611683E-002;-2.646832261234522E-003;8.838690118864179E-004;
2.404166666666667E+009;1.703722774982452E-001;1.849397271871567E-002;-2.844614675268531E-003;9.214611491188407E-004;
2.404333333333334E+009;1.714001446962357E-001;1.751620136201382E-002;-2.933975541964173E-003;9.770154720172286E-004;
2.404500000000000E+009;1.721673905849457E-001;1.645520143210888E-002;-2.860752632841468E-003;1.322930678725243E-003;
2.404666666666667E+009;1.732318699359894E-001;1.563261635601521E-002;-2.783635398373008E-003;1.194715267047286E-003;
2.404833333333334E+009;1.742120236158371E-001;1.493915729224682E-002;-2.532566664740443E-003;1.509930822066963E-003;
2.405000000000000E+009;1.751167327165604E-001;1.407122984528542E-002;-2.636757912114263E-003;1.536443945951760E-003;
2.405166666666667E+009;1.758130341768265E-001;1.349626574665308E-002;-2.527155913412571E-003;1.707108225673437E-003;
2.405333333333334E+009;1.766861081123352E-001;1.266896724700928E-002;-2.383923856541514E-003;1.684642513282597E-003;
2.405500000000000E+009;1.773485690355301E-001;1.241105608642101E-002;-2.374046016484499E-003;1.776611781679094E-003;
2.405666666666667E+009;1.781204044818878E-001;1.211242377758026E-002;-2.295725978910923E-003;1.937296241521835E-003;
2.405833333333334E+009;1.785913556814194E-001;1.160564739257097E-002;-2.228290773928165E-003;1.790370792150497E-003;
2.406000000000000E+009;1.791867613792419E-001;1.107485871762037E-002;-2.081105951219797E-003;2.068775240331888E-003;
2.406166666666667E+009;1.795976459980011E-001;1.096355449408293E-002;-2.033868571743369E-003;1.942554023116827E-003;
2.406333333333334E+009;1.801414489746094E-001;1.062217261642218E-002;-1.920298673212528E-003;2.055892022326589E-003;
2.406500000000000E+009;1.803334653377533E-001;1.032600272446871E-002;-1.898505142889917E-003;2.235115505754948E-003;
2.406666666666667E+009;1.804014891386032E-001;9.941187687218189E-003;-1.610003295354545E-003;2.145926002413034E-003;
2.406833333333334E+009;1.807849109172821E-001;9.695827960968018E-003;-1.516755437478423E-003;2.267294097691774E-003;
2.407000000000000E+009;1.808041483163834E-001;9.432574734091759E-003;-1.580879325047135E-003;2.329289680346847E-003;
2.407166666666667E+009;1.810462474822998E-001;9.127218276262283E-003;-1.399529282934964E-003;2.299810294061899E-003;
2.407333333333334E+009;1.806060373783112E-001;8.524194359779358E-003;-1.270667184144259E-003;2.186558675020933E-003;
2.407500000000000E+009;1.806063652038574E-001;8.248195052146912E-003;-1.215384691022337E-003;2.299117622897029E-003;
2.407666666666667E+009;1.804592162370682E-001;7.827233523130417E-003;-1.156687852926552E-003;2.237328793853521E-003;
2.407833333333334E+009;1.799633204936981E-001;7.252479903399944E-003;-1.133401645347476E-003;2.192123560234904E-003;
2.408000000000000E+009;1.796204000711441E-001;6.559523753821850E-003;-1.121703418903053E-003;2.149181673303247E-003;
2.408166666666667E+009;1.791360229253769E-001;6.070746574550867E-003;-1.122531248256564E-003;2.205676166340709E-003;
2.408333333333334E+009;1.789552420377731E-001;5.251319147646427E-003;-1.014712033793330E-003;2.027778653427959E-003;
2.408500000000000E+009;1.782684773206711E-001;4.564594943076372E-003;-8.296382147818804E-004;1.993980957195163E-003;
2.408666666666667E+009;1.776466071605682E-001;3.547491272911429E-003;-9.371201158501208E-004;2.085939282551408E-003;
2.408833333333334E+009;1.768770962953568E-001;2.737586619332433E-003;-9.236169862560928E-004;2.068315399810672E-003;
2.409000000000000E+009;1.762234419584274E-001;1.543813035823405E-003;-1.091565703973174E-003;2.125873928889632E-003;
2.409166666666667E+009;1.756981462240219E-001;4.024391819257289E-004;-9.192425641231239E-004;2.108684275299311E-003;
2.409333333333334E+009;1.748574823141098E-001;-9.405959863215685E-004;-8.716699085198343E-004;2.139172283932567E-003;
2.409500000000000E+009;1.741363108158112E-001;-2.146306680515409E-003;-8.663837215863168E-004;1.977617619559169E-003;
2.409666666666667E+009;1.733400076627731E-001;-3.535292111337185E-003;-9.389510378241539E-004;2.096968702971935E-003;
2.409833333333334E+009;1.727262735366821E-001;-4.888733848929405E-003;-7.747270865365863E-004;2.055280609056354E-003;
2.410000000000000E+009;1.720308959484100E-001;-6.502193864434958E-003;-8.751357090659440E-004;2.148047089576721E-003;
2.410166666666667E+009;1.714002043008804E-001;-7.993184961378574E-003;-8.707227534614503E-004;2.095564268529415E-003;
2.410333333333334E+009;1.707340925931931E-001;-9.621768258512020E-003;-9.215750033035874E-004;2.202484058216214E-003;
2.410500000000000E+009;1.701299697160721E-001;-1.142728608101606E-002;-7.355028646998107E-004;2.304816152900457E-003;
2.410666666666667E+009;1.695395410060883E-001;-1.321457792073488E-002;-7.245326996780932E-004;2.302737906575203E-003;
2.410833333333334E+009;1.691727340221405E-001;-1.490883808583021E-002;-8.205942576751113E-004;2.254447899758816E-003;
2.411000000000000E+009;1.686950176954269E-001;-1.674424670636654E-002;-6.731419125571847E-004;2.217593602836132E-003;
2.411166666666667E+009;1.684178113937378E-001;-1.880570314824581E-002;-6.104558124206960E-004;2.398737939074636E-003;
2.411333333333334E+009;1.682126820087433E-001;-2.069948241114616E-002;-6.266086129471660E-004;2.431543776765466E-003;
2.411500000000000E+009;1.680525690317154E-001;-2.280478551983833E-002;-4.652576462831348E-004;2.492820611223579E-003;
2.411666666666667E+009;1.680006980895996E-001;-2.469133213162422E-002;-3.721558605320752E-004;2.710162196308374E-003;
2.411833333333334E+009;1.679153591394424E-001;-2.656773850321770E-002;-4.179310053586960E-004;2.799405483528972E-003;
2.412000000000000E+009;1.680457741022110E-001;-2.861567214131355E-002;-2.449109742883593E-004;2.655607881024480E-003;
2.412166666666667E+009;1.678822934627533E-001;-3.049861267209053E-002;-1.791045360732824E-004;2.703684847801924E-003;
2.412333333333334E+009;1.682301163673401E-001;-3.241197392344475E-002;-5.936728121014312E-005;2.666798187419772E-003;
2.412500000000000E+009;1.683680564165115E-001;-3.435380384325981E-002;-6.443023448809981E-005;2.939016325399280E-003;
2.412666666666667E+009;1.686764061450958E-001;-3.634635731577873E-002;-3.957930312026292E-005;2.888789167627692E-003;
2.412833333333334E+009;1.690748333930969E-001;-3.838842362165451E-002;2.507805475033820E-004;2.848760690540075E-003;
2.413000000000000E+009;1.696345061063767E-001;-3.990763798356056E-002;3.487392095848918E-004;2.962004160508514E-003;
2.413166666666667E+009;1.699160188436508E-001;-4.170400649309158E-002;4.019746556878090E-004;2.907917834818363E-003;
2.413333333333334E+009;1.703190356492996E-001;-4.335699602961540E-002;6.369813345372677E-004;3.048906568437815E-003;
2.413500000000000E+009;1.708699315786362E-001;-4.499419033527374E-002;7.057287730276585E-004;2.848507836461067E-003;
2.413666666666667E+009;1.715066581964493E-001;-4.669410735368729E-002;8.710137917660177E-004;2.934477292001247E-003;
2.413833333333334E+009;1.719401031732559E-001;-4.804439842700958E-002;1.022234675474465E-003;2.870003925636411E-003;
2.414000000000000E+009;1.724018454551697E-001;-4.952327534556389E-002;9.420262067578733E-004;2.865428570657969E-003;
2.414166666666667E+009;1.730052381753922E-001;-5.093372240662575E-002;1.088825403712690E-003;2.811465878039599E-003;
2.414333333333334E+009;1.733731329441071E-001;-5.217355117201805E-002;1.320153591223061E-003;2.762614749372006E-003;
2.414500000000000E+009;1.743095964193344E-001;-5.319853872060776E-002;1.452999305911362E-003;2.641102764755487E-003;
2.414666666666667E+009;1.747709214687347E-001;-5.420327186584473E-002;1.779070938937366E-003;2.428508829325438E-003;
2.414833333333334E+009;1.752657741308212E-001;-5.511319264769554E-002;1.795105519704521E-003;2.494718879461289E-003;
2.415000000000000E+009;1.757465898990631E-001;-5.595333129167557E-002;1.861072843894362E-003;2.399184741079807E-003;
2.415166666666667E+009;1.761893182992935E-001;-5.689891427755356E-002;1.828126027248800E-003;2.263624686747789E-003;
2.415333333333334E+009;1.766157597303391E-001;-5.759561061859131E-002;1.898974529467523E-003;2.118474105373025E-003;
2.415500000000000E+009;1.769961863756180E-001;-5.801756307482719E-002;2.030803589150310E-003;2.056487137451768E-003;
2.415666666666667E+009;1.772355735301971E-001;-5.842293426394463E-002;2.123910933732987E-003;1.868606079369783E-003;
2.415833333333334E+009;1.776481419801712E-001;-5.905364453792572E-002;2.312628552317619E-003;1.872254419140518E-003;
2.416000000000000E+009;1.775950491428375E-001;-5.936734378337860E-002;2.185705816373229E-003;1.858065719716251E-003;
2.416166666666667E+009;1.777510493993759E-001;-5.990346521139145E-002;2.170971594750881E-003;1.501547871157527E-003;
2.416333333333334E+009;1.777878552675247E-001;-6.005152314901352E-002;2.132811583578587E-003;1.337331719696522E-003;
2.416500000000000E+009;1.777217388153076E-001;-6.043406203389168E-002;2.109740860760212E-003;1.526729087345302E-003;
2.416666666666667E+009;1.774794012308121E-001;-6.059243530035019E-002;2.232605125755072E-003;1.198227168060839E-003;
2.416833333333334E+009;1.773649007081986E-001;-6.089694052934647E-002;2.315152902156115E-003;1.255835755728185E-003;
2.417000000000000E+009;1.768946945667267E-001;-6.108419224619865E-002;2.278261352330446E-003;8.470943430438638E-004;
2.417166666666667E+009;1.763881444931030E-001;-6.119298562407494E-002;2.222825307399035E-003;1.022601500153542E-003;
2.417333333333334E+009;1.759179681539536E-001;-6.132613867521286E-002;2.116641495376825E-003;9.192818542942405E-004;
2.417500000000000E+009;1.752590090036392E-001;-6.180064380168915E-002;2.134458394721150E-003;8.300186018459499E-004;
2.417666666666667E+009;1.746415048837662E-001;-6.182456761598587E-002;2.057927194982767E-003;7.278425036929548E-004;
2.417833333333334E+009;1.738936305046082E-001;-6.207424774765968E-002;2.096763113513589E-003;9.172683930955827E-004;
2.418000000000000E+009;1.729064881801605E-001;-6.250735372304916E-002;2.176940441131592E-003;7.221066625788808E-004;
2.418166666666667E+009;1.720235794782639E-001;-6.258921325206757E-002;1.963814254850149E-003;6.862796144559979E-004;
2.418333333333334E+009;1.712130755186081E-001;-6.304164975881577E-002;1.955256331712008E-003;6.315126083791256E-004;
2.418500000000000E+009;1.701551973819733E-001;-6.338319927453995E-002;1.962948124855757E-003;7.715912070125341E-004;
2.418666666666667E+009;1.690475344657898E-001;-6.390804052352905E-002;1.932960120029748E-003;6.512543768621981E-004;
2.418833333333334E+009;1.677861064672470E-001;-6.444809585809708E-002;1.707619288936257E-003;5.916763911955059E-004;
2.419000000000000E+009;1.665998697280884E-001;-6.514012068510056E-002;1.999208005145192E-003;6.616302416659892E-004;
2.419166666666667E+009;1.654153913259506E-001;-6.575363874435425E-002;1.896095112897456E-003;6.182973738759756E-004;
2.419333333333334E+009;1.641692519187927E-001;-6.624829769134522E-002;1.934177824296057E-003;5.463633569888771E-004;
2.419500000000000E+009;1.629732251167297E-001;-6.725218147039414E-002;1.883132965303958E-003;7.827767403796315E-004;
2.419666666666667E+009;1.617853641510010E-001;-6.815992295742035E-002;1.836148439906538E-003;7.437032763846219E-004;
2.419833333333334E+009;1.605414599180222E-001;-6.907609105110169E-002;1.854214235208929E-003;6.234295433387160E-004;
2.420000000000000E+009;1.595021039247513E-001;-7.010332494974136E-002;2.041017403826118E-003;6.765103898942471E-004;
2.420166666666667E+009;1.582315564155579E-001;-7.130014896392822E-002;1.987190451472998E-003;5.115448147989810E-004;
2.420333333333334E+009;1.571245342493057E-001;-7.233207672834396E-002;2.127775456756353E-003;5.338696646504104E-004;
2.420500000000000E+009;1.562443971633911E-001;-7.361587882041931E-002;2.231269376352429E-003;6.848812918178737E-004;
2.420666666666667E+009;1.551605015993118E-001;-7.490572333335877E-002;2.381082857027650E-003;5.075849476270378E-004;
2.420833333333334E+009;1.542046070098877E-001;-7.631383091211319E-002;2.224487951025367E-003;5.385971744544804E-004;
2.421000000000000E+009;1.533980816602707E-001;-7.779506593942642E-002;2.372305141761899E-003;4.913910524919629E-004;
2.421166666666667E+009;1.526525467634201E-001;-7.937479019165039E-002;2.290555508807302E-003;3.756867663469166E-004;
2.421333333333334E+009;1.521830260753632E-001;-8.113288134336472E-002;2.414038870483637E-003;3.654560423456132E-004;
2.421500000000000E+009;1.512575596570969E-001;-8.255200088024139E-002;2.654339652508497E-003;1.641369017306715E-004;
2.421666666666667E+009;1.508481353521347E-001;-8.416450023651123E-002;2.523225732147694E-003;1.851825800258666E-004;
2.421833333333334E+009;1.503975391387940E-001;-8.585757762193680E-002;2.735610352829099E-003;1.555610797367990E-004;
2.422000000000000E+009;1.499707102775574E-001;-8.765748143196106E-002;3.006488550454378E-003;1.639707625145093E-004;
2.422166666666667E+009;1.495694071054459E-001;-8.953242003917694E-002;2.863419242203236E-003;6.208594277268276E-005;
2.422333333333334E+009;1.493746191263199E-001;-9.114951640367508E-002;2.900996478274465E-003;-3.220147045794874E-004;
2.422500000000000E+009;1.492611467838287E-001;-9.275382757186890E-002;2.755041234195232E-003;-2.604135370347649E-004;
2.422666666666667E+009;1.491827666759491E-001;-9.446775913238525E-002;2.779701957479119E-003;-4.689460911322385E-004;
2.422833333333334E+009;1.492098420858383E-001;-9.631041437387466E-002;2.948622917756438E-003;-5.131724174134433E-004;
2.423000000000000E+009;1.493050903081894E-001;-9.797704219818115E-002;2.889326307922602E-003;-7.390666869468987E-004;
2.423166666666667E+009;1.496675014495850E-001;-9.959860891103745E-002;3.060512477532029E-003;-8.859172812663019E-004;
2.423333333333334E+009;1.499250829219818E-001;-1.012656092643738E-001;2.858824329450727E-003;-9.006825275719166E-004;
2.423500000000000E+009;1.502482593059540E-001;-1.028827205300331E-001;2.857466693967581E-003;-1.239529345184565E-003;
2.423666666666667E+009;1.504775136709213E-001;-1.044195219874382E-001;2.847210969775915E-003;-1.323451404459775E-003;
2.423833333333334E+009;1.509373486042023E-001;-1.059345528483391E-001;2.739163348451257E-003;-1.378055079840124E-003;
2.424000000000000E+009;1.513188779354096E-001;-1.071579605340958E-001;2.821255940943956E-003;-1.750239520333707E-003;
2.424166666666667E+009;1.516671925783157E-001;-1.085889413952828E-001;2.696126932278276E-003;-1.663834322243929E-003;
2.424333333333334E+009;1.523099839687347E-001;-1.098478659987450E-001;2.626660279929638E-003;-1.793833100236952E-003;
2.424500000000000E+009;1.527634263038635E-001;-1.108103469014168E-001;2.590422984212637E-003;-2.145945094525814E-003;
2.424666666666667E+009;1.532526612281799E-001;-1.119458600878716E-001;2.469336381182075E-003;-2.065603155642748E-003;
2.424833333333334E+009;1.535511463880539E-001;-1.129496395587921E-001;2.312778495252132E-003;-2.194826258346438E-003;
2.425000000000000E+009;1.542147696018219E-001;-1.138874366879463E-001;2.171061234548688E-003;-2.282398054376245E-003;
2.425166666666667E+009;1.543404012918472E-001;-1.149046644568443E-001;1.948951394297183E-003;-2.489611972123385E-003;
2.425333333333334E+009;1.548613458871841E-001;-1.154165193438530E-001;1.777632511220872E-003;-2.386825159192085E-003;
2.425500000000000E+009;1.553410440683365E-001;-1.162109822034836E-001;1.665898365899921E-003;-2.485927427187562E-003;
2.425666666666667E+009;1.554019153118134E-001;-1.167652532458305E-001;1.496603479608893E-003;-2.478351816534996E-003;
2.425833333333334E+009;1.557524353265762E-001;-1.172685027122498E-001;1.456104102544487E-003;-2.712500281631947E-003;
2.426000000000000E+009;1.558982431888580E-001;-1.178401112556458E-001;1.256669871509075E-003;-2.776633948087692E-003;
2.426166666666667E+009;1.563857197761536E-001;-1.180713474750519E-001;1.238241442479193E-003;-2.751102903857827E-003;
2.426333333333334E+009;1.563007831573486E-001;-1.184394955635071E-001;9.485213086009026E-004;-2.810548292472959E-003;
2.426500000000000E+009;1.563275903463364E-001;-1.186155229806900E-001;9.324622806161642E-004;-2.777186688035727E-003;
2.426666666666667E+009;1.563451737165451E-001;-1.187812834978104E-001;6.284267874434590E-004;-2.819843124598265E-003;
2.426833333333334E+009;1.562697142362595E-001;-1.190122291445732E-001;5.765803507529199E-004;-2.790295286104083E-003;
2.427000000000000E+009;1.558559536933899E-001;-1.191357076168060E-001;5.622238386422396E-004;-2.770987572148442E-003;
2.427166666666667E+009;1.556387692689896E-001;-1.191831752657890E-001;3.570175613276660E-004;-2.623560838401318E-003;
2.427333333333334E+009;1.550597250461578E-001;-1.192208826541901E-001;2.443319826852530E-004;-2.700011478736997E-003;
2.427500000000000E+009;1.545899659395218E-001;-1.194055974483490E-001;-3.517803997965530E-005;-2.529483754187822E-003;
2.427666666666667E+009;1.539207249879837E-001;-1.194358468055725E-001;1.023243603412993E-004;-2.560640918090940E-003;
2.427833333333334E+009;1.531340181827545E-001;-1.194724440574646E-001;-2.559604472480714E-004;-2.581067383289337E-003;
