# Version 1.00
#
freq[Hz];re:Trc1_S11;im:Trc1_S11;re:Trc2_S21;im:Trc2_S21;
2.400000000000000E+009;1.581672877073288E-001;6.243440136313438E-002;-3.395044011995196E-003;-6.694889743812382E-004;
2.400166666666667E+009;1.581234484910965E-001;6.086574122309685E-002;-3.289257176220417E-003;-5.819590296596289E-004;
2.400333333333334E+009;1.578439027070999E-001;5.902866274118424E-002;-3.383915172889829E-003;-5.052348715253174E-004;
2.400500000000000E+009;1.578267663717270E-001;5.700465664267540E-002;-3.201072569936514E-003;-4.626969748642296E-004;
2.400666666666667E+009;1.577803194522858E-001;5.509866401553154E-002;-3.174032783135772E-003;-2.692463167477399E-004;
2.400833333333334E+009;1.579117476940155E-001;5.326701328158379E-002;-3.106781747192144E-003;-2.644071064423770E-004;
2.401000000000000E+009;1.578719913959503E-001;5.107120051980019E-002;-2.968180691823363E-003;-1.822336926124990E-004;
2.401166666666667E+009;1.581823378801346E-001;4.912966489791870E-002;-3.064838238060474E-003;-1.311058294959366E-004;
2.401333333333334E+009;1.581963598728180E-001;4.702116921544075E-002;-2.972021698951721E-003;5.998464621370658E-005;
2.401500000000000E+009;1.586694121360779E-001;4.487852752208710E-002;-3.000887343659997E-003;6.479729199782014E-005;
2.401666666666667E+009;1.588987261056900E-001;4.305576533079147E-002;-2.928408328443766E-003;6.942707113921642E-005;
2.401833333333334E+009;1.592337340116501E-001;4.090604186058044E-002;-3.038122784346342E-003;3.661381197161973E-005;
2.402000000000000E+009;1.597313135862351E-001;3.876159712672234E-002;-2.970467554405332E-003;-2.700933146115858E-005;
2.402166666666667E+009;1.601194441318512E-001;3.668604791164398E-002;-2.847211901098490E-003;1.580872049089521E-004;
2.402333333333334E+009;1.608325242996216E-001;3.496056795120239E-002;-2.941541839390993E-003;2.068995090667158E-004;
2.402500000000000E+009;1.616955697536469E-001;3.318352997303009E-002;-2.716670976951718E-003;1.286591141251847E-004;
2.402666666666667E+009;1.621641963720322E-001;3.141496330499649E-002;-2.938835648819804E-003;6.026192204444669E-005;
2.402833333333334E+009;1.630281209945679E-001;2.958264388144016E-002;-2.736703958362341E-003;2.024330169660971E-004;
2.403000000000000E+009;1.639357656240463E-001;2.822488173842430E-002;-2.877570223063231E-003;3.955441934522241E-004;
2.403166666666667E+009;1.647370457649231E-001;2.660050429403782E-002;-2.911254763603210E-003;4.154841590207070E-004;
2.403333333333334E+009;1.655945330858231E-001;2.515139058232307E-002;-2.872572978958488E-003;5.023230914957821E-004;
2.403500000000000E+009;1.666956096887589E-001;2.360762283205986E-002;-2.816425869241357E-003;6.964427302591503E-004;
2.403666666666667E+009;1.675443053245544E-001;2.216977253556252E-002;-2.740292577072978E-003;5.361438379622996E-004;
2.403833333333334E+009;1.685608625411987E-001;2.090606652200222E-002;-2.733405912294984E-003;8.808950078673661E-004;
2.404000000000000E+009;1.696335673332214E-001;1.970601454377174E-002;-2.903704298660159E-003;6.996134761720896E-004;
2.404166666666667E+009;1.705352663993835E-001;1.858166977763176E-002;-3.052069572731853E-003;8.642527973279357E-004;
2.404333333333334E+009;1.715179234743118E-001;1.756218262016773E-002;-2.874244470149279E-003;8.934022043831646E-004;
2.404500000000000E+009;1.724020540714264E-001;1.650694943964481E-002;-2.873976016417146E-003;9.762045810930431E-004;
2.404666666666667E+009;1.734077036380768E-001;1.567744649946690E-002;-2.834595274180174E-003;1.270075794309378E-003;
2.404833333333334E+009;1.744175404310226E-001;1.507147587835789E-002;-2.691648202016950E-003;1.263323705643416E-003;
2.405000000000000E+009;1.751471906900406E-001;1.422757189720869E-002;-2.589569892734289E-003;1.393475919030607E-003;
2.405166666666667E+009;1.759714186191559E-001;1.351710036396980E-002;-2.567155053839088E-003;1.495392876677215E-003;
2.405333333333334E+009;1.768843382596970E-001;1.273593865334988E-002;-2.453449415042996E-003;1.635911758057773E-003;
2.405500000000000E+009;1.775696277618408E-001;1.236178260296583E-002;-2.547877142205834E-003;1.672675251029432E-003;
2.405666666666667E+009;1.782289892435074E-001;1.203163247555494E-002;-2.406678395345807E-003;1.843405771069229E-003;
2.405833333333334E+009;1.785973161458969E-001;1.154631376266480E-002;-2.465381519868970E-003;1.864164252765477E-003;
2.406000000000000E+009;1.793695390224457E-001;1.121968310326338E-002;-2.237823558971286E-003;2.015795558691025E-003;
2.406166666666667E+009;1.797464787960053E-001;1.098965108394623E-002;-1.945607597008348E-003;2.019474282860756E-003;
2.406333333333334E+009;1.802901327610016E-001;1.061688270419836E-002;-2.047984628006816E-003;2.067921916022897E-003;
2.406500000000000E+009;1.804934144020081E-001;1.025886368006468E-002;-1.811630208976567E-003;2.084515290334821E-003;
2.406666666666667E+009;1.805941462516785E-001;9.979521855711937E-003;-1.938923145644367E-003;2.251938916742802E-003;
2.406833333333334E+009;1.807291805744171E-001;9.584976360201836E-003;-1.762019121088088E-003;2.323609776794910E-003;
2.407000000000000E+009;1.809351295232773E-001;9.381153620779514E-003;-1.722737099044025E-003;2.223379211500287E-003;
2.407166666666667E+009;1.811349242925644E-001;9.045428596436977E-003;-1.494652475230396E-003;2.072896109893918E-003;
2.407333333333334E+009;1.808371394872665E-001;8.493146859109402E-003;-1.572515233419836E-003;1.995598198845983E-003;
2.407500000000000E+009;1.806262582540512E-001;8.292222395539284E-003;-1.392209785990417E-003;2.276813378557563E-003;
2.407666666666667E+009;1.804361939430237E-001;7.957994937896729E-003;-1.365758362226188E-003;2.135552698746324E-003;
2.407833333333334E+009;1.799976974725723E-001;7.133734412491322E-003;-1.314138644374907E-003;2.221294213086367E-003;
2.408000000000000E+009;1.797698438167572E-001;6.651127710938454E-003;-1.105050439946353E-003;2.146188169717789E-003;
2.408166666666667E+009;1.792779713869095E-001;6.108192261308432E-003;-1.200743135996163E-003;2.162946853786707E-003;
2.408333333333334E+009;1.789413839578629E-001;5.371568258851767E-003;-1.240337151102722E-003;2.053108997642994E-003;
2.408500000000000E+009;1.781786829233170E-001;4.530894104391336E-003;-1.094126491807401E-003;1.960502471774817E-003;
2.408666666666667E+009;1.776313334703445E-001;3.520359983667731E-003;-1.030807150527835E-003;2.129146130755544E-003;
2.408833333333334E+009;1.768597215414047E-001;2.585409674793482E-003;-9.782845154404640E-004;2.009097021073103E-003;
2.409000000000000E+009;1.763314306735992E-001;1.753785414621234E-003;-8.856953936628997E-004;2.153595443814993E-003;
2.409166666666667E+009;1.756423562765122E-001;4.429893160704523E-004;-9.247986017726362E-004;2.096476498991251E-003;
2.409333333333334E+009;1.750452816486359E-001;-9.050604421645403E-004;-9.996532462537289E-004;2.094099065288901E-003;
2.409500000000000E+009;1.742702424526215E-001;-2.284562215209007E-003;-8.508434984833002E-004;1.967610325664282E-003;
2.409666666666667E+009;1.734721809625626E-001;-3.406515810638666E-003;-8.376252953894436E-004;2.007428556680679E-003;
2.409833333333334E+009;1.726335436105728E-001;-4.725937265902758E-003;-1.126235583797097E-003;2.112305490300059E-003;
2.410000000000000E+009;1.721286326646805E-001;-6.317637860774994E-003;-9.065787889994681E-004;2.148087136447430E-003;
2.410166666666667E+009;1.715810000896454E-001;-8.061873726546764E-003;-9.973715059459209E-004;2.108398359268904E-003;
2.410333333333334E+009;1.709305495023727E-001;-9.708020836114883E-003;-8.550173952244222E-004;2.232696628198028E-003;
2.410500000000000E+009;1.704017668962479E-001;-1.131625566631556E-002;-9.251692099496722E-004;2.240256406366825E-003;
2.410666666666667E+009;1.697658002376556E-001;-1.338272541761398E-002;-6.925658672116697E-004;2.402240643277764E-003;
2.410833333333334E+009;1.693767756223679E-001;-1.486044470220804E-002;-7.552900933660567E-004;2.389522967860103E-003;
2.411000000000000E+009;1.689356118440628E-001;-1.695149578154087E-002;-7.304764585569501E-004;2.385722473263741E-003;
2.411166666666667E+009;1.687385141849518E-001;-1.880393922328949E-002;-6.983771454542875E-004;2.539165318012238E-003;
2.411333333333334E+009;1.682705432176590E-001;-2.080601640045643E-002;-8.272774866782129E-004;2.570716198533773E-003;
2.411500000000000E+009;1.680950224399567E-001;-2.272178046405315E-002;-4.820539907086641E-004;2.614668337628245E-003;
2.411666666666667E+009;1.681656986474991E-001;-2.467432245612145E-002;-6.883600144647062E-004;2.699767705053091E-003;
2.411833333333334E+009;1.679484695196152E-001;-2.661744877696037E-002;-3.901824238710105E-004;2.707130741328001E-003;
2.412000000000000E+009;1.681638509035111E-001;-2.860675379633904E-002;-3.680922091007233E-004;2.807978773489595E-003;
2.412166666666667E+009;1.681360304355621E-001;-3.073773160576820E-002;-2.239711902802810E-004;2.743854420259595E-003;
2.412333333333334E+009;1.685179620981216E-001;-3.249331191182137E-002;-2.250673715025187E-004;2.859436441212893E-003;
2.412500000000000E+009;1.686106324195862E-001;-3.439630195498467E-002;-4.769035876961425E-005;2.863598754629493E-003;
2.412666666666667E+009;1.687693148851395E-001;-3.641252964735031E-002;3.350517363287509E-005;2.814427483826876E-003;
2.412833333333334E+009;1.692340672016144E-001;-3.824144229292870E-002;1.898783521028236E-004;2.950959838926792E-003;
2.413000000000000E+009;1.693649888038635E-001;-3.995579108595848E-002;2.581067674327642E-004;3.061348339542747E-003;
2.413166666666667E+009;1.698281466960907E-001;-4.173054918646812E-002;4.035533638671041E-004;2.900306833907962E-003;
2.413333333333334E+009;1.704800426959992E-001;-4.347191751003265E-002;4.951209411956370E-004;2.883155364543200E-003;
2.413500000000000E+009;1.708563715219498E-001;-4.525570571422577E-002;5.724007496610284E-004;2.972467569634318E-003;
2.413666666666667E+009;1.715276241302490E-001;-4.678595066070557E-002;7.205667207017541E-004;2.935243304818869E-003;
2.413833333333334E+009;1.720027774572372E-001;-4.825255274772644E-002;9.598493925295770E-004;2.835280494764447E-003;
2.414000000000000E+009;1.725136041641235E-001;-4.952865466475487E-002;1.229808083735406E-003;3.036872018128634E-003;
2.414166666666667E+009;1.730998009443283E-001;-5.098367482423782E-002;1.300940988585353E-003;2.907987916842103E-003;
2.414333333333334E+009;1.735766381025314E-001;-5.207842960953713E-002;1.468367176130414E-003;2.851665485650301E-003;
2.414500000000000E+009;1.743828505277634E-001;-5.319218710064888E-002;1.613381202332676E-003;2.898035105317831E-003;
2.414666666666667E+009;1.747904270887375E-001;-5.417610332369804E-002;1.717423438094556E-003;2.647284884005785E-003;
2.414833333333334E+009;1.751759946346283E-001;-5.526396632194519E-002;1.694141421467066E-003;2.592165255919099E-003;
2.415000000000000E+009;1.758114844560623E-001;-5.599473416805267E-002;1.790622132830322E-003;2.518767490983009E-003;
2.415166666666667E+009;1.761692613363266E-001;-5.674792081117630E-002;1.866535632871091E-003;2.496987814083695E-003;
2.415333333333334E+009;1.766878068447113E-001;-5.753197520971298E-002;1.903731608763337E-003;2.213988220319152E-003;
2.415500000000000E+009;1.769016534090042E-001;-5.818063020706177E-002;2.072384115308523E-003;2.113573253154755E-003;
2.415666666666667E+009;1.772123724222183E-001;-5.863476917147636E-002;2.005964750424027E-003;1.909668091684580E-003;
2.415833333333334E+009;1.775608807802200E-001;-5.910145118832588E-002;2.136381575837731E-003;1.825804472900927E-003;
2.416000000000000E+009;1.775567382574081E-001;-5.958349257707596E-002;2.285392256453633E-003;1.854695263318718E-003;
2.416166666666667E+009;1.777208596467972E-001;-5.980262160301209E-002;2.199893351644278E-003;1.656307489611208E-003;
2.416333333333334E+009;1.777313947677612E-001;-6.011928245425224E-002;2.243915107101202E-003;1.601955038495362E-003;
2.416500000000000E+009;1.776316463947296E-001;-6.052318587899208E-002;2.448217943310738E-003;1.447660033591092E-003;
2.416666666666667E+009;1.774701625108719E-001;-6.063573062419891E-002;2.286765258759260E-003;1.336869085207582E-003;
2.416833333333334E+009;1.773324310779572E-001;-6.099779531359673E-002;2.264105714857578E-003;1.083755632862449E-003;
2.417000000000000E+009;1.767302155494690E-001;-6.105656176805496E-002;2.217213390395045E-003;1.036676694639027E-003;
2.417166666666667E+009;1.763422787189484E-001;-6.116840243339539E-002;2.305854344740510E-003;1.099567976780236E-003;
2.417333333333334E+009;1.759472042322159E-001;-6.139357015490532E-002;2.131319604814053E-003;8.716688025742769E-004;
2.417500000000000E+009;1.752372831106186E-001;-6.182015687227249E-002;2.061167033389211E-003;7.836345466785133E-004;
2.417666666666667E+009;1.745699346065521E-001;-6.182660907506943E-002;2.033857861533761E-003;8.574989624321461E-004;
2.417833333333334E+009;1.739182174205780E-001;-6.207892671227455E-002;2.060611266642809E-003;7.439689943566918E-004;
2.418000000000000E+009;1.729144901037216E-001;-6.249453127384186E-002;2.016691723838449E-003;6.726006977260113E-004;
2.418166666666667E+009;1.719460338354111E-001;-6.259270757436752E-002;1.919904258102179E-003;6.288739386945963E-004;
2.418333333333334E+009;1.712950468063355E-001;-6.300330162048340E-002;1.995854312554002E-003;7.102646050043404E-004;
2.418500000000000E+009;1.701351404190064E-001;-6.335616111755371E-002;1.829646760597825E-003;8.673363481648266E-004;
2.418666666666667E+009;1.690323650836945E-001;-6.388406455516815E-002;1.806154614314437E-003;7.816563011147082E-004;
2.418833333333334E+009;1.677493453025818E-001;-6.438823789358139E-002;1.875765156000853E-003;7.571708993054926E-004;
2.419000000000000E+009;1.665745973587036E-001;-6.503812968730927E-002;1.803826424293220E-003;7.047399412840605E-004;
2.419166666666667E+009;1.654410213232040E-001;-6.565350294113159E-002;2.025379333645105E-003;7.419374305754900E-004;
2.419333333333334E+009;1.641415059566498E-001;-6.627981364727020E-002;1.925704884342849E-003;6.622390937991440E-004;
2.419500000000000E+009;1.629629433155060E-001;-6.713244318962097E-002;2.082544146105647E-003;7.410126272588968E-004;
2.419666666666667E+009;1.619118154048920E-001;-6.809240579605103E-002;2.140051452443004E-003;7.006590021774173E-004;
2.419833333333334E+009;1.605459004640579E-001;-6.904429942369461E-002;2.024129033088684E-003;5.389133584685624E-004;
2.420000000000000E+009;1.595235168933868E-001;-7.004924118518829E-002;2.211070619523525E-003;7.484075613319874E-004;
2.420166666666667E+009;1.582672894001007E-001;-7.114111632108688E-002;2.064552390947938E-003;7.274100789800286E-004;
2.420333333333334E+009;1.572776287794113E-001;-7.242705672979355E-002;2.173006301745772E-003;5.865436396561563E-004;
2.420500000000000E+009;1.562271118164063E-001;-7.347433269023895E-002;2.238360000774264E-003;6.863095331937075E-004;
2.420666666666667E+009;1.551243513822556E-001;-7.487172633409500E-002;2.312997123226523E-003;7.191409822553396E-004;
2.420833333333334E+009;1.543361991643906E-001;-7.629866898059845E-002;2.229620702564716E-003;6.026516202837229E-004;
2.421000000000000E+009;1.534308642148972E-001;-7.786910235881805E-002;2.530908212065697E-003;5.536532262340188E-004;
2.421166666666667E+009;1.526765823364258E-001;-7.943182438611984E-002;2.525303047150374E-003;5.344726960174739E-004;
2.421333333333334E+009;1.520658582448959E-001;-8.098853379487991E-002;2.679041819646955E-003;4.327589704189450E-004;
2.421500000000000E+009;1.512364447116852E-001;-8.263776451349258E-002;2.686410909518600E-003;3.068771329708397E-004;
2.421666666666667E+009;1.506624668836594E-001;-8.427149802446365E-002;2.742353128269315E-003;3.152525459881872E-004;
2.421833333333334E+009;1.504190713167191E-001;-8.592960983514786E-002;2.719552256166935E-003;5.411224992712960E-005;
2.422000000000000E+009;1.499841213226318E-001;-8.778404444456101E-002;2.904898487031460E-003;1.524952240288258E-004;
2.422166666666667E+009;1.496505588293076E-001;-8.954990655183792E-002;2.990575041621923E-003;1.282509856537217E-005;
2.422333333333334E+009;1.493007987737656E-001;-9.117326140403748E-002;2.874423516914249E-003;-2.373130155319814E-005;
2.422500000000000E+009;1.493434011936188E-001;-9.288103133440018E-002;2.812840277329087E-003;-2.982129226438701E-004;
2.422666666666667E+009;1.490873545408249E-001;-9.480828046798706E-002;3.050017170608044E-003;-4.516051267273724E-004;
2.422833333333334E+009;1.491264998912811E-001;-9.636060148477554E-002;2.887610113248229E-003;-5.876370705664158E-004;
2.423000000000000E+009;1.493665724992752E-001;-9.809292107820511E-002;2.962739206850529E-003;-6.318715168163180E-004;
2.423166666666667E+009;1.496599912643433E-001;-9.976331144571304E-002;2.948251320049167E-003;-7.703466690145433E-004;
2.423333333333334E+009;1.499518007040024E-001;-1.011052802205086E-001;2.872813958674669E-003;-9.340882534161210E-004;
2.423500000000000E+009;1.501756608486176E-001;-1.028302982449532E-001;3.014988033100963E-003;-1.093628932721913E-003;
2.423666666666667E+009;1.503043323755264E-001;-1.045016199350357E-001;2.801145426928997E-003;-1.282612676732242E-003;
2.423833333333334E+009;1.508487761020660E-001;-1.058970615267754E-001;2.929227426648140E-003;-1.690933364443481E-003;
2.424000000000000E+009;1.512255519628525E-001;-1.072030290961266E-001;2.849145326763392E-003;-1.761355670168996E-003;
2.424166666666667E+009;1.516458243131638E-001;-1.084636300802231E-001;2.671853639185429E-003;-1.623241347260773E-003;
2.424333333333334E+009;1.521972268819809E-001;-1.097026914358139E-001;2.453750232234597E-003;-1.753633492626250E-003;
2.424500000000000E+009;1.525872349739075E-001;-1.109189093112946E-001;2.470806706696749E-003;-1.954794162884355E-003;
2.424666666666667E+009;1.532726436853409E-001;-1.118263527750969E-001;2.218078356236219E-003;-2.286714036017656E-003;
2.424833333333334E+009;1.536014080047607E-001;-1.128334030508995E-001;2.326594432815909E-003;-2.279464621096849E-003;
2.425000000000000E+009;1.542064994573593E-001;-1.139269620180130E-001;2.237598411738873E-003;-2.341635990887880E-003;
2.425166666666667E+009;1.543423831462860E-001;-1.147014573216438E-001;2.149105304852128E-003;-2.468344755470753E-003;
2.425333333333334E+009;1.549596190452576E-001;-1.153885871171951E-001;1.936033950187266E-003;-2.309961710125208E-003;
2.425500000000000E+009;1.554165482521057E-001;-1.161166727542877E-001;1.900410978123546E-003;-2.565759234130383E-003;
2.425666666666667E+009;1.554260998964310E-001;-1.165878847241402E-001;1.568013918586075E-003;-2.558192703872919E-003;
2.425833333333334E+009;1.558265984058380E-001;-1.172820702195168E-001;1.448941882699728E-003;-2.734171925112605E-003;
2.426000000000000E+009;1.560448706150055E-001;-1.177499219775200E-001;1.358438516035676E-003;-2.700404264032841E-003;
2.426166666666667E+009;1.563633233308792E-001;-1.181143820285797E-001;1.186397508718073E-003;-2.656085649505258E-003;
2.426333333333334E+009;1.563609540462494E-001;-1.183641031384468E-001;9.905381593853235E-004;-2.704226411879063E-003;
2.426500000000000E+009;1.564016044139862E-001;-1.185001283884049E-001;8.917312952689827E-004;-2.701690420508385E-003;
2.426666666666667E+009;1.564233452081680E-001;-1.186575517058373E-001;7.933089509606361E-004;-2.811230253428221E-003;
2.426833333333334E+009;1.562476307153702E-001;-1.188338547945023E-001;5.802472587674856E-004;-2.801960799843073E-003;
2.427000000000000E+009;1.558568924665451E-001;-1.191049516201019E-001;5.444808630272746E-004;-2.668442903086543E-003;
2.427166666666667E+009;1.555443853139877E-001;-1.191084608435631E-001;3.366240998730063E-004;-2.600142732262611E-003;
2.427333333333334E+009;1.550290435552597E-001;-1.192103251814842E-001;2.158895949833095E-004;-2.565711969509721E-003;
2.427500000000000E+009;1.546558588743210E-001;-1.192923858761787E-001;2.127607585862279E-004;-2.631882205605507E-003;
2.427666666666667E+009;1.539063751697540E-001;-1.193895861506462E-001;1.302955643041059E-004;-2.599516650661826E-003;
2.427833333333334E+009;1.531180888414383E-001;-1.193835735321045E-001;-2.394181683484931E-005;-2.418968360871077E-003;
