# Version 1.00
#
freq[Hz];re:Trc1_S11;im:Trc1_S11;re:Trc2_S21;im:Trc2_S21;
2.400000000000000E+009;1.578972637653351E-001;6.262059509754181E-002;-3.284395905211568E-003;-7.310249493457377E-004;
2.400166666666667E+009;1.579963415861130E-001;6.092922389507294E-002;-3.227203618735075E-003;-5.131650832481682E-004;
2.400333333333334E+009;1.578772664070129E-001;5.900430306792259E-002;-3.179141553118825E-003;-6.415111129172146E-004;
2.400500000000000E+009;1.577208638191223E-001;5.705470219254494E-002;-3.172099590301514E-003;-2.054121869150549E-004;
2.400666666666667E+009;1.576320081949234E-001;5.510128289461136E-002;-3.199619706720114E-003;-4.283584421500564E-004;
2.400833333333334E+009;1.578811407089233E-001;5.331643670797348E-002;-2.970398403704166E-003;-2.534624945838004E-004;
2.401000000000000E+009;1.579067260026932E-001;5.117107182741165E-002;-2.960877958685160E-003;-1.772854448063299E-004;
2.401166666666667E+009;1.579604446887970E-001;4.900513961911202E-002;-3.175547812134028E-003;-1.612905762158334E-004;
2.401333333333334E+009;1.581433862447739E-001;4.696506261825562E-002;-3.030785592272878E-003;-1.525802799733356E-004;
2.401500000000000E+009;1.586297750473023E-001;4.497968032956123E-002;-2.977456431835890E-003;1.475003682571696E-005;
2.401666666666667E+009;1.588514000177383E-001;4.295995086431503E-002;-3.061764640733600E-003;3.601435673772357E-005;
2.401833333333334E+009;1.592992395162582E-001;4.083057865500450E-002;-2.868999727070332E-003;-7.724605529801920E-005;
2.402000000000000E+009;1.597601473331451E-001;3.882396966218948E-002;-2.875733422115445E-003;6.077108082536142E-006;
2.402166666666667E+009;1.601341217756271E-001;3.665951639413834E-002;-2.776965964585543E-003;2.308963885297999E-004;
2.402333333333334E+009;1.606744378805161E-001;3.515302762389183E-002;-2.851837547495961E-003;5.929924009251408E-005;
2.402500000000000E+009;1.616513133049011E-001;3.324215486645699E-002;-2.924941712990403E-003;7.584408740513027E-005;
2.402666666666667E+009;1.621412336826325E-001;3.135468810796738E-002;-2.832708880305290E-003;2.664860221557319E-004;
2.402833333333334E+009;1.628706455230713E-001;2.972348034381867E-002;-2.946356078609824E-003;2.665089559741318E-004;
2.403000000000000E+009;1.638266295194626E-001;2.796336077153683E-002;-2.920516766607761E-003;2.668305533006787E-004;
2.403166666666667E+009;1.647578626871109E-001;2.634169906377792E-002;-2.795741194859147E-003;4.683921579271555E-004;
2.403333333333334E+009;1.656084358692169E-001;2.502046711742878E-002;-2.700618468225002E-003;5.828316789120436E-004;
2.403500000000000E+009;1.663127392530441E-001;2.366247959434986E-002;-2.859164727851749E-003;5.513226496987045E-004;
2.403666666666667E+009;1.674751341342926E-001;2.205315791070461E-002;-2.890155417844653E-003;5.955981905572116E-004;
2.403833333333334E+009;1.684274822473526E-001;2.085902728140354E-002;-2.725753700360656E-003;7.354957051575184E-004;
2.404000000000000E+009;1.693755984306335E-001;1.964657753705978E-002;-2.839150605723262E-003;7.814563577994704E-004;
2.404166666666667E+009;1.703973710536957E-001;1.857525855302811E-002;-2.853258512914181E-003;9.352533379569650E-004;
2.404333333333334E+009;1.714972853660584E-001;1.746719703078270E-002;-2.740722848102450E-003;1.003758748993278E-003;
2.404500000000000E+009;1.722315996885300E-001;1.651667058467865E-002;-2.808307297527790E-003;1.041312469169498E-003;
2.404666666666667E+009;1.732101589441299E-001;1.561307162046433E-002;-2.727378625422716E-003;1.241302117705345E-003;
2.404833333333334E+009;1.742282360792160E-001;1.481322664767504E-002;-2.759476192295551E-003;1.193992677144706E-003;
2.405000000000000E+009;1.750328093767166E-001;1.420298125594854E-002;-2.656941069290042E-003;1.489695627242327E-003;
2.405166666666667E+009;1.760307252407074E-001;1.343933865427971E-002;-2.551584737375379E-003;1.627757796086371E-003;
2.405333333333334E+009;1.767390966415405E-001;1.279351394623518E-002;-2.472807187587023E-003;1.706609153188765E-003;
2.405500000000000E+009;1.774384230375290E-001;1.249355636537075E-002;-2.456864574924111E-003;1.795612508431077E-003;
2.405666666666667E+009;1.780813187360764E-001;1.194100361317396E-002;-2.438640920445323E-003;1.836188253946602E-003;
2.405833333333334E+009;1.785605251789093E-001;1.152875088155270E-002;-2.398926764726639E-003;1.802031882107258E-003;
2.406000000000000E+009;1.793260574340820E-001;1.112240459769964E-002;-2.154789166525006E-003;1.933841384015977E-003;
2.406166666666667E+009;1.795760691165924E-001;1.100121065974236E-002;-2.117338124662638E-003;1.946646720170975E-003;
2.406333333333334E+009;1.802098155021668E-001;1.053128950297833E-002;-1.993807265534997E-003;2.060516504570842E-003;
2.406500000000000E+009;1.803349405527115E-001;1.016668230295181E-002;-1.837083604186773E-003;2.114421455189586E-003;
2.406666666666667E+009;1.805749684572220E-001;1.003338862210512E-002;-1.852530753239989E-003;2.135215792804956E-003;
2.406833333333334E+009;1.807833462953568E-001;9.606152772903442E-003;-1.702480367384851E-003;2.086077118292451E-003;
2.407000000000000E+009;1.808800250291824E-001;9.253086522221565E-003;-1.547806430608034E-003;2.111915731802583E-003;
2.407166666666667E+009;1.808827966451645E-001;9.111668914556503E-003;-1.372082973830402E-003;2.191707026213408E-003;
2.407333333333334E+009;1.807773113250732E-001;8.611019700765610E-003;-1.427294570021331E-003;2.030076226219535E-003;
2.407500000000000E+009;1.805786937475205E-001;8.281537331640720E-003;-1.243535196408629E-003;2.014685887843370E-003;
2.407666666666667E+009;1.802944689989090E-001;7.993325591087341E-003;-1.361624337732792E-003;2.039783168584108E-003;
2.407833333333334E+009;1.799827218055725E-001;7.159911096096039E-003;-1.255378592759371E-003;2.179350471124053E-003;
2.408000000000000E+009;1.794896870851517E-001;6.499541923403740E-003;-1.226478372700512E-003;2.059733960777521E-003;
2.408166666666667E+009;1.792824715375900E-001;6.070018745958805E-003;-1.213673618622124E-003;2.098920289427042E-003;
2.408333333333334E+009;1.790021508932114E-001;5.530341994017363E-003;-1.102598616853356E-003;2.106680069118738E-003;
2.408500000000000E+009;1.781897544860840E-001;4.516405984759331E-003;-1.151834148913622E-003;2.224047901108861E-003;
2.408666666666667E+009;1.777167171239853E-001;3.488543676212430E-003;-9.065493941307068E-004;2.060340950265527E-003;
2.408833333333334E+009;1.769397109746933E-001;2.649686764925718E-003;-1.234145485796034E-003;2.033835975453258E-003;
2.409000000000000E+009;1.761714369058609E-001;1.620012917555869E-003;-1.195187564007938E-003;1.977426931262016E-003;
2.409166666666667E+009;1.757052540779114E-001;5.351080908440054E-004;-1.044014119543135E-003;2.116245217621326E-003;
2.409333333333334E+009;1.751109212636948E-001;-9.404920274391770E-004;-9.899265132844448E-004;2.212972613051534E-003;
2.409500000000000E+009;1.741711795330048E-001;-2.318192739039660E-003;-9.941892931237817E-004;2.197958296164870E-003;
2.409666666666667E+009;1.733352094888687E-001;-3.424216294661164E-003;-9.448241326026619E-004;2.074025105684996E-003;
2.409833333333334E+009;1.726518869400024E-001;-4.882054869085550E-003;-9.535956778563559E-004;2.016908256337047E-003;
2.410000000000000E+009;1.721794754266739E-001;-6.284324452280998E-003;-9.473172249272466E-004;2.141431672498584E-003;
2.410166666666667E+009;1.714756935834885E-001;-7.912966422736645E-003;-8.970064809545875E-004;2.225673990324140E-003;
2.410333333333334E+009;1.710358709096909E-001;-9.594241157174110E-003;-9.213479934260249E-004;2.056441269814968E-003;
2.410500000000000E+009;1.703726649284363E-001;-1.138272602111101E-002;-8.126781904138625E-004;2.324988832697272E-003;
2.410666666666667E+009;1.698270440101624E-001;-1.335132680833340E-002;-8.843383984640241E-004;2.231203252449632E-003;
2.410833333333334E+009;1.693493127822876E-001;-1.484944112598896E-002;-7.504661334678531E-004;2.292718039825559E-003;
2.411000000000000E+009;1.688113808631897E-001;-1.684349216520786E-002;-6.300415843725205E-004;2.386529929935932E-003;
2.411166666666667E+009;1.685431152582169E-001;-1.888584904372692E-002;-6.963035557419062E-004;2.312154509127140E-003;
2.411333333333334E+009;1.683375239372253E-001;-2.077209576964378E-002;-7.304548053070903E-004;2.508655423298478E-003;
2.411500000000000E+009;1.680983603000641E-001;-2.275395207107067E-002;-6.497374852187932E-004;2.504650969058275E-003;
2.411666666666667E+009;1.680070310831070E-001;-2.466254308819771E-002;-4.396223812364042E-004;2.543520182371140E-003;
2.411833333333334E+009;1.678440868854523E-001;-2.658811956644058E-002;-4.844069480895996E-004;2.888048999011517E-003;
2.412000000000000E+009;1.679942607879639E-001;-2.865266427397728E-002;-2.478922251611948E-004;2.662230283021927E-003;
2.412166666666667E+009;1.678536385297775E-001;-3.060279786586762E-002;-3.865178150590509E-004;2.703193109482527E-003;
2.412333333333334E+009;1.683932095766068E-001;-3.237213194370270E-002;-1.826249645091593E-004;2.934448188170791E-003;
2.412500000000000E+009;1.682466119527817E-001;-3.421410545706749E-002;-2.331762516405433E-004;2.987073967233300E-003;
2.412666666666667E+009;1.687967181205750E-001;-3.634391352534294E-002;-1.206753950100392E-004;2.907878253608942E-003;
2.412833333333334E+009;1.691328734159470E-001;-3.814817219972611E-002;-7.223350985441357E-005;3.152947407215834E-003;
2.413000000000000E+009;1.694092303514481E-001;-4.005324468016625E-002;2.007654838962480E-004;3.160073887556791E-003;
2.413166666666667E+009;1.697394400835037E-001;-4.166975244879723E-002;4.074634634889662E-004;3.104214789345861E-003;
2.413333333333334E+009;1.703380495309830E-001;-4.346726089715958E-002;6.122838822193444E-004;2.977491589263082E-003;
2.413500000000000E+009;1.709148585796356E-001;-4.501303285360336E-002;6.427957559935749E-004;3.019003896042705E-003;
2.413666666666667E+009;1.713945716619492E-001;-4.659336805343628E-002;7.318858406506479E-004;3.097187727689743E-003;
2.413833333333334E+009;1.719192415475845E-001;-4.807644337415695E-002;8.822566014714539E-004;2.932083560153842E-003;
2.414000000000000E+009;1.724450141191483E-001;-4.949248954653740E-002;1.084634102880955E-003;2.908230759203434E-003;
2.414166666666667E+009;1.731608957052231E-001;-5.065249651670456E-002;1.200565719045699E-003;2.942868042737246E-003;
2.414333333333334E+009;1.736996173858643E-001;-5.192643776535988E-002;1.312611391767860E-003;2.812778111547232E-003;
2.414500000000000E+009;1.743808984756470E-001;-5.314762517809868E-002;1.419267617166042E-003;2.810554578900337E-003;
2.414666666666667E+009;1.747211217880249E-001;-5.394656211137772E-002;1.616160850971937E-003;2.611845033243299E-003;
2.414833333333334E+009;1.752145737409592E-001;-5.519091337919235E-002;1.702428446151316E-003;2.519824309274554E-003;
2.415000000000000E+009;1.757702231407166E-001;-5.590918660163879E-002;1.728498842567205E-003;2.489467384293675E-003;
2.415166666666667E+009;1.761916130781174E-001;-5.676017701625824E-002;1.825853716582060E-003;2.423380035907030E-003;
2.415333333333334E+009;1.767293661832809E-001;-5.763307958841324E-002;2.019581850618124E-003;2.233624458312988E-003;
2.415500000000000E+009;1.769089996814728E-001;-5.801179260015488E-002;2.090884139761329E-003;2.150637330487371E-003;
2.415666666666667E+009;1.773104518651962E-001;-5.861257016658783E-002;2.136755501851440E-003;2.017239341512322E-003;
2.415833333333334E+009;1.774947047233582E-001;-5.907980725169182E-002;2.190355211496353E-003;1.947622629813850E-003;
2.416000000000000E+009;1.775213330984116E-001;-5.952513217926025E-002;2.190717961639166E-003;1.586856436915696E-003;
2.416166666666667E+009;1.777613908052445E-001;-5.980452150106430E-002;2.294165082275868E-003;1.752681098878384E-003;
2.416333333333334E+009;1.777119338512421E-001;-6.007887050509453E-002;2.231191378086805E-003;1.520580612123013E-003;
2.416500000000000E+009;1.776932328939438E-001;-6.044053286314011E-002;2.210875973105431E-003;1.277742558158934E-003;
2.416666666666667E+009;1.774656176567078E-001;-6.042170152068138E-002;2.295798156410456E-003;1.242484082467854E-003;
2.416833333333334E+009;1.772536039352417E-001;-6.089884787797928E-002;2.004495123401284E-003;1.209541689604521E-003;
2.417000000000000E+009;1.768086999654770E-001;-6.108983978629112E-002;2.223449060693383E-003;1.016931375488639E-003;
2.417166666666667E+009;1.763247102499008E-001;-6.112032011151314E-002;2.232103375717998E-003;1.025882665999234E-003;
2.417333333333334E+009;1.759068816900253E-001;-6.138018518686295E-002;2.024065470322967E-003;8.469506283290684E-004;
2.417500000000000E+009;1.752591431140900E-001;-6.187191233038902E-002;2.006639027968049E-003;8.892045007087290E-004;
2.417666666666667E+009;1.748020499944687E-001;-6.184133887290955E-002;1.974352169781923E-003;9.164082584902644E-004;
2.417833333333334E+009;1.737500429153442E-001;-6.206743046641350E-002;1.836944837123156E-003;6.791040068492293E-004;
2.418000000000000E+009;1.729191392660141E-001;-6.226463243365288E-002;2.114112954586744E-003;8.258720044977963E-004;
2.418166666666667E+009;1.720677018165588E-001;-6.256135553121567E-002;2.057238947600126E-003;7.703321170993149E-004;
2.418333333333334E+009;1.713393181562424E-001;-6.304816901683807E-002;2.057880861684680E-003;8.286777883768082E-004;
2.418500000000000E+009;1.701267957687378E-001;-6.356395781040192E-002;1.868039951659739E-003;8.120727725327015E-004;
2.418666666666667E+009;1.689907461404800E-001;-6.391661614179611E-002;1.827939297072589E-003;7.189066382125020E-004;
2.418833333333334E+009;1.678824275732040E-001;-6.450983136892319E-002;1.826795632950962E-003;7.118213106878102E-004;
2.419000000000000E+009;1.665399670600891E-001;-6.494527310132980E-002;1.870862324722111E-003;6.499857408925891E-004;
2.419166666666667E+009;1.654504984617233E-001;-6.564248353242874E-002;1.928910496644676E-003;6.515950663015246E-004;
2.419333333333334E+009;1.640956699848175E-001;-6.632071733474731E-002;1.844424288719893E-003;7.489760173484683E-004;
2.419500000000000E+009;1.629110872745514E-001;-6.721043586730957E-002;1.948971999809146E-003;6.184729863889515E-004;
2.419666666666667E+009;1.617931425571442E-001;-6.825026124715805E-002;1.961780712008476E-003;7.609662716276944E-004;
2.419833333333334E+009;1.604743450880051E-001;-6.904847919940949E-002;2.130616223439574E-003;6.591546116396785E-004;
2.420000000000000E+009;1.594759821891785E-001;-7.006395608186722E-002;2.114576753228903E-003;6.952174589969218E-004;
2.420166666666667E+009;1.583384126424789E-001;-7.112142443656921E-002;2.084034960716963E-003;7.948536658659577E-004;
2.420333333333334E+009;1.572918742895126E-001;-7.234794646501541E-002;2.144970232620835E-003;7.012434070929885E-004;
2.420500000000000E+009;1.562046110630035E-001;-7.369317859411240E-002;2.155316295102239E-003;5.845764535479248E-004;
2.420666666666667E+009;1.552261263132095E-001;-7.489497214555740E-002;2.122660866007209E-003;6.206407560966909E-004;
2.420833333333334E+009;1.543526500463486E-001;-7.623336464166641E-002;2.315399236977100E-003;7.193484343588352E-004;
2.421000000000000E+009;1.532435119152069E-001;-7.803808897733688E-002;2.518714638426900E-003;5.895437789149582E-004;
2.421166666666667E+009;1.526151448488236E-001;-7.937493175268173E-002;2.457870170474052E-003;5.523936706595123E-004;
2.421333333333334E+009;1.520427912473679E-001;-8.122863620519638E-002;2.590065123513341E-003;2.884331333916634E-004;
2.421500000000000E+009;1.512676626443863E-001;-8.249069005250931E-002;2.547200536355376E-003;4.818919405806810E-004;
2.421666666666667E+009;1.506673097610474E-001;-8.419781178236008E-002;2.720370888710022E-003;1.822000340325758E-004;
2.421833333333334E+009;1.503528803586960E-001;-8.594835549592972E-002;2.720764838159084E-003;1.392510603182018E-004;
2.422000000000000E+009;1.500158309936523E-001;-8.762013167142868E-002;2.768920268863440E-003;7.133935287129134E-005;
2.422166666666667E+009;1.495944410562515E-001;-8.952973037958145E-002;2.935346215963364E-003;-1.366708456771448E-004;
2.422333333333334E+009;1.492470949888229E-001;-9.110557287931442E-002;2.845224458724260E-003;-8.248010999523103E-005;
2.422500000000000E+009;1.490806490182877E-001;-9.282105416059494E-002;3.021532669663429E-003;-2.519096306059510E-004;
2.422666666666667E+009;1.489445567131043E-001;-9.471656382083893E-002;3.043123288080096E-003;-5.371760344132781E-004;
2.422833333333334E+009;1.491933166980743E-001;-9.639607369899750E-002;2.923485357314348E-003;-5.229658563621342E-004;
2.423000000000000E+009;1.492956876754761E-001;-9.807738661766052E-002;3.045419463887811E-003;-7.422943599522114E-004;
2.423166666666667E+009;1.494286060333252E-001;-9.966370463371277E-002;3.009631298482418E-003;-1.035253051668406E-003;
2.423333333333334E+009;1.498624682426453E-001;-1.010973751544952E-001;2.936413045972586E-003;-1.158079481683672E-003;
2.423500000000000E+009;1.501189768314362E-001;-1.027609780430794E-001;3.112240927293897E-003;-1.168264076113701E-003;
2.423666666666667E+009;1.503005623817444E-001;-1.045311987400055E-001;2.992694266140461E-003;-1.335893059149385E-003;
2.423833333333334E+009;1.507343053817749E-001;-1.059075593948364E-001;2.901824656873941E-003;-1.379638561047614E-003;
2.424000000000000E+009;1.512010544538498E-001;-1.071383878588677E-001;2.634276170283556E-003;-1.634936546906829E-003;
2.424166666666667E+009;1.515970230102539E-001;-1.085209921002388E-001;2.563657239079475E-003;-1.824435894377530E-003;
2.424333333333334E+009;1.521197557449341E-001;-1.095956563949585E-001;2.606156514957547E-003;-1.808032975532115E-003;
2.424500000000000E+009;1.525453776121140E-001;-1.109028309583664E-001;2.444719895720482E-003;-2.078129909932613E-003;
2.424666666666667E+009;1.532030999660492E-001;-1.117923036217690E-001;2.331152092665434E-003;-2.175565110519528E-003;
2.424833333333334E+009;1.535364389419556E-001;-1.128777563571930E-001;2.350030932575464E-003;-2.155323047190905E-003;
2.425000000000000E+009;1.541677266359329E-001;-1.138431504368782E-001;2.299173269420862E-003;-2.375637879595161E-003;
2.425166666666667E+009;1.544639319181442E-001;-1.146064177155495E-001;1.972951227799058E-003;-2.451118780300021E-003;
2.425333333333334E+009;1.548551470041275E-001;-1.152325943112373E-001;2.073277020826936E-003;-2.529048360884190E-003;
2.425500000000000E+009;1.552857160568237E-001;-1.160686239600182E-001;1.761268707923591E-003;-2.413076581433415E-003;
2.425666666666667E+009;1.555225104093552E-001;-1.167161613702774E-001;1.675439416430891E-003;-2.704191952943802E-003;
2.425833333333334E+009;1.557794064283371E-001;-1.171808987855911E-001;1.506686210632324E-003;-2.534460043534637E-003;
2.426000000000000E+009;1.559516787528992E-001;-1.177290454506874E-001;1.369669334962964E-003;-2.743547083809972E-003;
2.426166666666667E+009;1.564912647008896E-001;-1.181051358580589E-001;1.231570960953832E-003;-2.674577757716179E-003;
2.426333333333334E+009;1.563643217086792E-001;-1.184817105531693E-001;1.071024104021490E-003;-2.785559743642807E-003;
2.426500000000000E+009;1.563350707292557E-001;-1.185862347483635E-001;7.748549105599523E-004;-2.760268980637193E-003;
2.426666666666667E+009;1.564704924821854E-001;-1.187298372387886E-001;7.933519082143903E-004;-2.668021013960242E-003;
2.426833333333334E+009;1.561899036169052E-001;-1.188654899597168E-001;6.806280580349267E-004;-2.846218412742019E-003;
2.427000000000000E+009;1.558611840009689E-001;-1.191247627139092E-001;4.500093637034297E-004;-2.855026628822088E-003;
2.427166666666667E+009;1.555918306112289E-001;-1.191866546869278E-001;3.526277723722160E-004;-2.599065424874425E-003;
2.427333333333334E+009;1.550239473581314E-001;-1.192176640033722E-001;3.526327491272241E-004;-2.611982403323054E-003;
2.427500000000000E+009;1.545746326446533E-001;-1.193101406097412E-001;9.571302507538348E-005;-2.635163255035877E-003;
2.427666666666667E+009;1.538203358650208E-001;-1.194292157888413E-001;9.773846977623180E-005;-2.624735468998551E-003;
2.427833333333334E+009;1.529843956232071E-001;-1.194698214530945E-001;-2.863930785679258E-005;-2.527101198211312E-003;
