# Version 1.00
#
freq[Hz];re:Trc1_S11;im:Trc1_S11;re:Trc2_S21;im:Trc2_S21;
2.400000000000000E+009;1.588409543037415E-001;6.291989982128143E-002;-6.633959710597992E-004;2.736759837716818E-003;
2.400166666666667E+009;1.586488038301468E-001;6.149819865822792E-002;-7.673556101508439E-004;2.762864576652646E-003;
2.400333333333334E+009;1.583452671766281E-001;5.950264632701874E-002;-5.117636173963547E-004;2.755193971097469E-003;
2.400500000000000E+009;1.583810746669769E-001;5.760166794061661E-002;-4.286636831238866E-004;2.762009855359793E-003;
2.400666666666667E+009;1.581881195306778E-001;5.566056072711945E-002;-2.453730558045209E-004;2.810573205351830E-003;
2.400833333333334E+009;1.583227962255478E-001;5.387510731816292E-002;-1.858181349234656E-004;2.647955436259508E-003;
2.401000000000000E+009;1.583937555551529E-001;5.172889307141304E-002;-3.947261211578734E-005;2.773214830085635E-003;
2.401166666666667E+009;1.583712249994278E-001;4.988759383559227E-002;-5.669889287673868E-005;2.722134115174413E-003;
2.401333333333334E+009;1.585570126771927E-001;4.766117408871651E-002;2.328593836864457E-004;2.756265457719564E-003;
2.401500000000000E+009;1.589117497205734E-001;4.552979767322540E-002;1.638284011278302E-004;2.681447658687830E-003;
2.401666666666667E+009;1.590265333652496E-001;4.367420449852943E-002;1.901760406326503E-004;2.692797454074025E-003;
2.401833333333334E+009;1.595106124877930E-001;4.146125167608261E-002;2.125198079738766E-004;2.760774223133922E-003;
2.402000000000000E+009;1.597353070974350E-001;3.963161632418633E-002;3.311376203782857E-004;2.626483095809817E-003;
2.402166666666667E+009;1.602826416492462E-001;3.750418126583099E-002;3.311339532956481E-004;2.639817306771874E-003;
2.402333333333334E+009;1.606670618057251E-001;3.557225689291954E-002;5.134842940606177E-004;2.505274722352624E-003;
2.402500000000000E+009;1.613335609436035E-001;3.389374539256096E-002;4.392235714476556E-004;2.565650735050440E-003;
2.402666666666667E+009;1.621322929859161E-001;3.198784589767456E-002;6.426005857065320E-004;2.716532209888101E-003;
2.402833333333334E+009;1.628280729055405E-001;3.017873503267765E-002;5.228935624472797E-004;2.559929620474577E-003;
2.403000000000000E+009;1.636520773172379E-001;2.859174087643623E-002;5.628487560898066E-004;2.415665658190846E-003;
2.403166666666667E+009;1.643711775541306E-001;2.703303098678589E-002;5.720208282582462E-004;2.550951438024640E-003;
2.403333333333334E+009;1.652618050575256E-001;2.547190710902214E-002;6.071836105547845E-004;2.572900382801890E-003;
2.403500000000000E+009;1.660557240247726E-001;2.410633489489555E-002;6.203736993484199E-004;2.544178161770105E-003;
2.403666666666667E+009;1.670385599136353E-001;2.250893414020538E-002;9.588895482011139E-004;2.482928102836013E-003;
2.403833333333334E+009;1.679996997117996E-001;2.112470753490925E-002;9.034998947754502E-004;2.588138915598393E-003;
2.404000000000000E+009;1.689210087060928E-001;2.002181112766266E-002;9.525680798105896E-004;2.523996401578188E-003;
2.404166666666667E+009;1.700340956449509E-001;1.875817403197289E-002;8.601458393968642E-004;2.688569249585271E-003;
2.404333333333334E+009;1.708286553621292E-001;1.778951659798622E-002;1.032902044244111E-003;2.715237438678742E-003;
2.404500000000000E+009;1.715432107448578E-001;1.662310771644115E-002;1.133136684074998E-003;2.568880096077919E-003;
2.404666666666667E+009;1.729197502136231E-001;1.571082137525082E-002;1.315999659709632E-003;2.533948281779885E-003;
2.404833333333334E+009;1.736781448125839E-001;1.493539568036795E-002;1.228858833201230E-003;2.612503943964839E-003;
2.405000000000000E+009;1.745563894510269E-001;1.412751898169518E-002;1.576341222971678E-003;2.474277745932341E-003;
2.405166666666667E+009;1.754381507635117E-001;1.319417636841536E-002;1.473062438890338E-003;2.487126737833023E-003;
2.405333333333334E+009;1.763048171997070E-001;1.266505569219589E-002;1.454452401958406E-003;2.685072598978877E-003;
2.405500000000000E+009;1.770611554384232E-001;1.223722659051418E-002;1.618086243979633E-003;2.395103452727199E-003;
2.405666666666667E+009;1.777769178152084E-001;1.166246924549341E-002;1.911862171255052E-003;2.458902541548014E-003;
2.405833333333334E+009;1.782969534397125E-001;1.128443889319897E-002;1.765090390108526E-003;2.602990483865142E-003;
2.406000000000000E+009;1.789519041776657E-001;1.066687703132629E-002;1.912129111588001E-003;2.452855231240392E-003;
2.406166666666667E+009;1.794800609350205E-001;1.050837244838476E-002;2.094868104904890E-003;2.389565110206604E-003;
2.406333333333334E+009;1.799908280372620E-001;1.001759804785252E-002;2.255181316286326E-003;2.410655841231346E-003;
2.406500000000000E+009;1.802408993244171E-001;9.651932865381241E-003;2.307305578142405E-003;2.395293442532420E-003;
2.406666666666667E+009;1.804843395948410E-001;9.340802207589150E-003;2.366369124501944E-003;2.342543564736843E-003;
2.406833333333334E+009;1.807605475187302E-001;8.986028842628002E-003;2.480727620422840E-003;2.172371605411172E-003;
2.407000000000000E+009;1.809114962816238E-001;8.614235557615757E-003;2.538233064115048E-003;2.222459530457854E-003;
2.407166666666667E+009;1.810781657695770E-001;8.397630415856838E-003;2.623513573780656E-003;2.118415199220181E-003;
2.407333333333334E+009;1.810127198696137E-001;7.868830114603043E-003;2.746785990893841E-003;2.146052196621895E-003;
2.407500000000000E+009;1.808677613735199E-001;7.558505982160568E-003;2.979443874210119E-003;1.880479860119522E-003;
2.407666666666667E+009;1.806525737047195E-001;7.146131712943316E-003;2.965184627100825E-003;1.810265704989433E-003;
2.407833333333334E+009;1.802896708250046E-001;6.395727396011353E-003;3.001023782417178E-003;1.783094834536314E-003;
2.408000000000000E+009;1.800473928451538E-001;5.936883855611086E-003;2.989757340401411E-003;1.617944450117648E-003;
2.408166666666667E+009;1.795762777328491E-001;5.415148101747036E-003;3.126779804006219E-003;1.472536241635680E-003;
2.408333333333334E+009;1.793240606784821E-001;4.778892733156681E-003;3.035768866539002E-003;1.653309911489487E-003;
2.408500000000000E+009;1.787040084600449E-001;3.973509185016155E-003;3.181882435455918E-003;1.223573694005609E-003;
2.408666666666667E+009;1.781874746084213E-001;2.959616016596556E-003;3.425413742661476E-003;1.229856046847999E-003;
2.408833333333334E+009;1.773914992809296E-001;1.960424939170480E-003;3.358906833454967E-003;1.141850603744388E-003;
2.409000000000000E+009;1.768850535154343E-001;1.255294540897012E-003;3.367717377841473E-003;9.568468085490167E-004;
2.409166666666667E+009;1.763049662113190E-001;-2.408416003163438E-005;3.361303126439452E-003;8.235698915086687E-004;
2.409333333333334E+009;1.755939573049545E-001;-1.096248161047697E-003;3.569390391930938E-003;6.960901664569974E-004;
2.409500000000000E+009;1.746133863925934E-001;-2.496428089216352E-003;3.458003280684352E-003;6.537400186061859E-004;
2.409666666666667E+009;1.742002964019775E-001;-3.737687831744552E-003;3.536673262715340E-003;5.885923746973276E-004;
2.409833333333334E+009;1.734613627195358E-001;-5.024674814194441E-003;3.532603615894914E-003;4.744160396512598E-004;
2.410000000000000E+009;1.728311032056809E-001;-6.507205776870251E-003;3.504683030769229E-003;1.081619557226077E-004;
2.410166666666667E+009;1.720553785562515E-001;-8.005962707102299E-003;3.538220422342420E-003;1.925050601130351E-004;
2.410333333333334E+009;1.713849455118179E-001;-9.565434418618679E-003;3.590981243178248E-003;2.177473215851933E-004;
2.410500000000000E+009;1.709468364715576E-001;-1.118973363190889E-002;3.601176198571920E-003;-6.937844591448084E-005;
2.410666666666667E+009;1.701979786157608E-001;-1.298567187041044E-002;3.526631742715836E-003;-2.930901828221977E-004;
2.410833333333334E+009;1.699333041906357E-001;-1.454905606806278E-002;3.552344860509038E-003;-2.387773129157722E-004;
2.411000000000000E+009;1.694066375494003E-001;-1.643130742013454E-002;3.486476838588715E-003;-4.736468254122883E-004;
2.411166666666667E+009;1.689956933259964E-001;-1.841456256806850E-002;3.578117117285729E-003;-7.611510809510946E-004;
2.411333333333334E+009;1.686400920152664E-001;-2.010822296142578E-002;3.323432523757219E-003;-8.027160074561834E-004;
2.411500000000000E+009;1.682687997817993E-001;-2.215301617980003E-002;3.461329266428947E-003;-9.937299182638526E-004;
2.411666666666667E+009;1.684018671512604E-001;-2.402366511523724E-002;3.329070284962654E-003;-9.375453228130937E-004;
2.411833333333334E+009;1.681737750768662E-001;-2.586903981864452E-002;3.390022320672870E-003;-1.027392689138651E-003;
2.412000000000000E+009;1.683443933725357E-001;-2.791465632617474E-002;3.183196298778057E-003;-1.221175189130008E-003;
2.412166666666667E+009;1.682002544403076E-001;-2.986000850796700E-002;3.351856488734484E-003;-1.263362239114940E-003;
2.412333333333334E+009;1.684536486864090E-001;-3.174268454313278E-002;3.106954740360379E-003;-1.266401028260589E-003;
2.412500000000000E+009;1.686145663261414E-001;-3.370347619056702E-002;2.945801941677928E-003;-1.445673871785402E-003;
2.412666666666667E+009;1.688617914915085E-001;-3.563540056347847E-002;2.842531073838472E-003;-1.717046136036515E-003;
2.412833333333334E+009;1.691378355026245E-001;-3.745272383093834E-002;2.898129634559155E-003;-1.777083147317171E-003;
2.413000000000000E+009;1.694652140140533E-001;-3.935774788260460E-002;2.837654901668429E-003;-1.817139447666705E-003;
2.413166666666667E+009;1.699406802654266E-001;-4.103465750813484E-002;2.709312830120325E-003;-1.894679968245328E-003;
2.413333333333334E+009;1.700652390718460E-001;-4.262112081050873E-002;2.686243504285812E-003;-1.815497758798301E-003;
2.413500000000000E+009;1.706880033016205E-001;-4.436822980642319E-002;2.502065617591143E-003;-1.976455096155405E-003;
2.413666666666667E+009;1.712577491998673E-001;-4.591214656829834E-002;2.487127669155598E-003;-2.064125379547477E-003;
2.413833333333334E+009;1.716431975364685E-001;-4.745930433273315E-002;2.375421812757850E-003;-1.969208475202322E-003;
2.414000000000000E+009;1.720857620239258E-001;-4.900104925036430E-002;2.321159699931741E-003;-2.134782029315829E-003;
2.414166666666667E+009;1.727654039859772E-001;-5.033634230494499E-002;2.220531459897757E-003;-2.047793241217732E-003;
2.414333333333334E+009;1.731953769922257E-001;-5.153811722993851E-002;2.012497512623668E-003;-2.152076922357082E-003;
2.414500000000000E+009;1.740011721849442E-001;-5.266222730278969E-002;2.069522393867374E-003;-2.166094491258264E-003;
2.414666666666667E+009;1.744697242975235E-001;-5.367057025432587E-002;2.075622789561749E-003;-2.169986721128225E-003;
2.414833333333334E+009;1.747884005308151E-001;-5.479205772280693E-002;1.905058044940233E-003;-2.226132666692138E-003;
2.415000000000000E+009;1.753115504980087E-001;-5.564367771148682E-002;2.035657642409205E-003;-2.321973443031311E-003;
2.415166666666667E+009;1.758016347885132E-001;-5.647979304194450E-002;1.917854882776737E-003;-2.391496906057000E-003;
2.415333333333334E+009;1.763480156660080E-001;-5.732928588986397E-002;1.912248437292874E-003;-2.343634376302362E-003;
2.415500000000000E+009;1.766207069158554E-001;-5.789519846439362E-002;1.637298031710088E-003;-2.388691296800971E-003;
2.415666666666667E+009;1.769215315580368E-001;-5.845090746879578E-002;1.692419988103211E-003;-2.415439812466502E-003;
2.415833333333334E+009;1.771400868892670E-001;-5.905218794941902E-002;1.544536789879203E-003;-2.346568740904331E-003;
2.416000000000000E+009;1.771726161241531E-001;-5.945469439029694E-002;1.478950493037701E-003;-2.565857488662005E-003;
2.416166666666667E+009;1.774806380271912E-001;-6.002172827720642E-002;1.531737274490297E-003;-2.431272296234965E-003;
2.416333333333334E+009;1.774773448705673E-001;-6.020864471793175E-002;1.497673452831805E-003;-2.524214796721935E-003;
2.416500000000000E+009;1.774430871009827E-001;-6.058962270617485E-002;1.530448789708316E-003;-2.528212033212185E-003;
2.416666666666667E+009;1.771908104419708E-001;-6.081967800855637E-002;1.236193929798901E-003;-2.462836215272546E-003;
2.416833333333334E+009;1.770419925451279E-001;-6.122272461652756E-002;1.509075285866857E-003;-2.591416705399752E-003;
2.417000000000000E+009;1.766023337841034E-001;-6.147970631718636E-002;1.290910178795457E-003;-2.662034705281258E-003;
2.417166666666667E+009;1.763255447149277E-001;-6.154275313019753E-002;1.150708296336234E-003;-2.726611681282520E-003;
2.417333333333334E+009;1.759161502122879E-001;-6.175152212381363E-002;1.167854527011514E-003;-2.569881267845631E-003;
2.417500000000000E+009;1.752551496028900E-001;-6.215589866042137E-002;1.091487705707550E-003;-2.690176712349057E-003;
2.417666666666667E+009;1.747295707464218E-001;-6.231364235281944E-002;1.050687977112830E-003;-2.655532211065292E-003;
2.417833333333334E+009;1.740151196718216E-001;-6.248811632394791E-002;9.948509978130460E-004;-2.656448399648070E-003;
2.418000000000000E+009;1.730818450450897E-001;-6.296849250793457E-002;1.020936528220773E-003;-2.783879870548844E-003;
2.418166666666667E+009;1.721584051847458E-001;-6.315942853689194E-002;9.117934387177229E-004;-2.807689364999533E-003;
2.418333333333334E+009;1.714912354946137E-001;-6.348327547311783E-002;7.772084791213274E-004;-2.786963246762753E-003;
2.418500000000000E+009;1.702742576599121E-001;-6.397662311792374E-002;7.644068682566285E-004;-2.883413340896368E-003;
2.418666666666667E+009;1.694386303424835E-001;-6.451679021120071E-002;7.828681264072657E-004;-2.946592634543777E-003;
2.418833333333334E+009;1.681470125913620E-001;-6.501745432615280E-002;7.787621580064297E-004;-2.841458655893803E-003;
2.419000000000000E+009;1.668369919061661E-001;-6.557113677263260E-002;7.588660810142756E-004;-2.991890301927924E-003;
2.419166666666667E+009;1.658834666013718E-001;-6.622480601072311E-002;7.499872008338571E-004;-2.975270152091980E-003;
2.419333333333334E+009;1.646740734577179E-001;-6.671639531850815E-002;6.767294835299254E-004;-3.075512824580073E-003;
2.419500000000000E+009;1.634348630905151E-001;-6.775397062301636E-002;5.369068239815533E-004;-3.078393870964646E-003;
2.419666666666667E+009;1.623881906270981E-001;-6.856209784746170E-002;5.648971418850124E-004;-3.186019835993648E-003;
2.419833333333334E+009;1.611183583736420E-001;-6.924882531166077E-002;3.925712080672383E-004;-3.197858110070229E-003;
2.420000000000000E+009;1.600755006074905E-001;-7.042019814252853E-002;2.916391531471163E-004;-3.234307980164886E-003;
2.420166666666667E+009;1.590301394462585E-001;-7.147712260484695E-002;2.576709666755050E-004;-3.334455424919725E-003;
2.420333333333334E+009;1.579272747039795E-001;-7.268609851598740E-002;1.458687183912844E-004;-3.525388194248080E-003;
2.420500000000000E+009;1.567503809928894E-001;-7.367731630802155E-002;1.444527006242424E-004;-3.434822894632816E-003;
2.420666666666667E+009;1.557321995496750E-001;-7.502773404121399E-002;2.095131458190735E-005;-3.511892631649971E-003;
2.420833333333334E+009;1.548814177513123E-001;-7.647077739238739E-002;-1.755272969603539E-004;-3.469700925052166E-003;
2.421000000000000E+009;1.539612114429474E-001;-7.790064811706543E-002;-1.457130856579170E-004;-3.617561655119062E-003;
2.421166666666667E+009;1.530713438987732E-001;-7.922762632369995E-002;-1.989241427509114E-004;-3.618518356233835E-003;
2.421333333333334E+009;1.525162607431412E-001;-8.096032589673996E-002;-3.524935455061495E-004;-3.574657952412963E-003;
2.421500000000000E+009;1.516881883144379E-001;-8.235438913106918E-002;-5.508086760528386E-004;-3.638926194980741E-003;
2.421666666666667E+009;1.512498557567596E-001;-8.400743454694748E-002;-7.053469889797270E-004;-3.692677943035960E-003;
2.421833333333334E+009;1.509243547916412E-001;-8.572169393301010E-002;-9.213247685693204E-004;-3.813239978626370E-003;
2.422000000000000E+009;1.502922326326370E-001;-8.738840371370316E-002;-9.670189465396106E-004;-3.682975424453616E-003;
2.422166666666667E+009;1.499275565147400E-001;-8.902186155319214E-002;-1.188573776744306E-003;-3.703287802636623E-003;
2.422333333333334E+009;1.498651951551437E-001;-9.070792049169540E-002;-1.443830202333629E-003;-3.812561277300119E-003;
2.422500000000000E+009;1.495923548936844E-001;-9.246082603931427E-002;-1.502782222814858E-003;-3.838095581158996E-003;
2.422666666666667E+009;1.495084911584854E-001;-9.429124742746353E-002;-1.559915370307863E-003;-3.820635378360748E-003;
2.422833333333334E+009;1.495941579341888E-001;-9.599845111370087E-002;-1.819792669266462E-003;-3.664428135380149E-003;
2.423000000000000E+009;1.496750265359879E-001;-9.741026908159256E-002;-1.967899966984987E-003;-3.560516517609358E-003;
2.423166666666667E+009;1.497000157833099E-001;-9.925034642219544E-002;-2.194439992308617E-003;-3.506514010950923E-003;
2.423333333333334E+009;1.501473188400269E-001;-1.006600037217140E-001;-2.334706950932741E-003;-3.480541519820690E-003;
2.423500000000000E+009;1.503815054893494E-001;-1.022643819451332E-001;-2.526718424633145E-003;-3.355849534273148E-003;
2.423666666666667E+009;1.506270766258240E-001;-1.040633320808411E-001;-2.860067412257195E-003;-3.172715194523335E-003;
2.423833333333334E+009;1.511146277189255E-001;-1.053275838494301E-001;-2.782971132546663E-003;-3.178248414769769E-003;
2.424000000000000E+009;1.513179242610931E-001;-1.067190617322922E-001;-2.831397578120232E-003;-3.097707405686379E-003;
2.424166666666667E+009;1.518032550811768E-001;-1.080941557884216E-001;-3.117111511528492E-003;-3.018213203176856E-003;
2.424333333333334E+009;1.522098034620285E-001;-1.092588976025581E-001;-3.244038671255112E-003;-2.889831783249974E-003;
2.424500000000000E+009;1.527695655822754E-001;-1.105847954750061E-001;-3.395347623154521E-003;-2.543021226301789E-003;
2.424666666666667E+009;1.532137840986252E-001;-1.115788668394089E-001;-3.463568864390254E-003;-2.607596339657903E-003;
2.424833333333334E+009;1.535009890794754E-001;-1.127186939120293E-001;-3.615867113694549E-003;-2.153900917619467E-003;
2.425000000000000E+009;1.541281193494797E-001;-1.136017963290215E-001;-3.516169497743249E-003;-2.218260895460844E-003;
2.425166666666667E+009;1.542680263519287E-001;-1.144974008202553E-001;-3.696622559800744E-003;-1.933221356011927E-003;
2.425333333333334E+009;1.546941846609116E-001;-1.152775362133980E-001;-3.802860388532281E-003;-1.684177201241255E-003;
2.425500000000000E+009;1.552513986825943E-001;-1.160251200199127E-001;-3.820463316515088E-003;-1.598983420990408E-003;
2.425666666666667E+009;1.553585827350617E-001;-1.167331039905548E-001;-3.809697926044464E-003;-1.285139587707818E-003;
2.425833333333334E+009;1.555838286876679E-001;-1.171999499201775E-001;-3.804387990385294E-003;-1.345218508504331E-003;
2.426000000000000E+009;1.558197140693665E-001;-1.177602559328079E-001;-3.911694977432489E-003;-1.187476213090122E-003;
2.426166666666667E+009;1.561607718467712E-001;-1.181493327021599E-001;-3.817370859906077E-003;-8.817940833978355E-004;
2.426333333333334E+009;1.561021953821182E-001;-1.184218004345894E-001;-3.847937099635601E-003;-8.914254140108824E-004;
2.426500000000000E+009;1.560956835746765E-001;-1.187373325228691E-001;-3.772697178646922E-003;-7.823050254955888E-004;
2.426666666666667E+009;1.561918556690216E-001;-1.188344433903694E-001;-3.857156028971076E-003;-4.202091076876968E-004;
2.426833333333334E+009;1.560061275959015E-001;-1.190665289759636E-001;-3.756284015253186E-003;-3.746340807992965E-004;
2.427000000000000E+009;1.557135730981827E-001;-1.192635670304298E-001;-3.674880601465702E-003;-1.751856761984527E-004;
2.427166666666667E+009;1.554314047098160E-001;-1.192649900913239E-001;-3.495130687952042E-003;-7.420469773933291E-005;
2.427333333333334E+009;1.549353450536728E-001;-1.194571927189827E-001;-3.530382178723812E-003;9.806277375901118E-005;
2.427500000000000E+009;1.544821858406067E-001;-1.195982173085213E-001;-3.496964462101460E-003;-2.146293991245329E-005;
2.427666666666667E+009;1.538307517766953E-001;-1.196566596627235E-001;-3.500106278806925E-003;1.272587105631828E-004;
2.427833333333334E+009;1.530523449182510E-001;-1.197957769036293E-001;-3.391328966245055E-003;3.547208034433425E-004;
