# Version 1.00
#
freq[Hz];re:Trc1_S11;im:Trc1_S11;re:Trc2_S21;im:Trc2_S21;
2.400000000000000E+009;1.587693095207214E-001;6.295957416296005E-002;-8.246674551628530E-004;2.922592684626579E-003;
2.400166666666667E+009;1.586528867483139E-001;6.147788837552071E-002;-7.247320609167218E-004;2.742312382906675E-003;
2.400333333333334E+009;1.584404557943344E-001;5.937539786100388E-002;-5.118639091961086E-004;2.788944402709603E-003;
2.400500000000000E+009;1.583873778581619E-001;5.767442658543587E-002;-4.918985650874674E-004;2.939882688224316E-003;
2.400666666666667E+009;1.584652215242386E-001;5.564007535576820E-002;-2.766669786069542E-004;2.891110954806209E-003;
2.400833333333334E+009;1.584705561399460E-001;5.379240214824677E-002;-2.299515035701916E-004;2.941553015261889E-003;
2.401000000000000E+009;1.583906561136246E-001;5.172701179981232E-002;-1.363031478831545E-004;2.782411174848676E-003;
2.401166666666667E+009;1.585866957902908E-001;4.975292086601257E-002;8.896090002963319E-005;2.835446503013372E-003;
2.401333333333334E+009;1.587435603141785E-001;4.772663488984108E-002;7.688226469326764E-005;2.803975250571966E-003;
2.401500000000000E+009;1.588410735130310E-001;4.574988782405853E-002;7.162542169680819E-005;2.727291779592633E-003;
2.401666666666667E+009;1.591890752315521E-001;4.372178018093109E-002;2.542481524869800E-004;2.675783587619662E-003;
2.401833333333334E+009;1.594961434602737E-001;4.154606908559799E-002;2.297892351634800E-004;2.654058625921607E-003;
2.402000000000000E+009;1.596013605594635E-001;3.952118009328842E-002;2.961567370221019E-004;2.634297823533416E-003;
2.402166666666667E+009;1.603810489177704E-001;3.752696514129639E-002;4.044268862344325E-004;2.735698129981756E-003;
2.402333333333334E+009;1.607695370912552E-001;3.567951545119286E-002;4.349965602159500E-004;2.727778628468514E-003;
2.402500000000000E+009;1.616048961877823E-001;3.380591794848442E-002;4.726902407128364E-004;2.581476932391524E-003;
2.402666666666667E+009;1.622162908315659E-001;3.196715936064720E-002;5.147266783751547E-004;2.507327124476433E-003;
2.402833333333334E+009;1.627970486879349E-001;3.030227124691010E-002;5.518243997357786E-004;2.575146267190576E-003;
2.403000000000000E+009;1.636357903480530E-001;2.851991914212704E-002;6.420278223231435E-004;2.467979444190860E-003;
2.403166666666667E+009;1.644555926322937E-001;2.696833945810795E-002;6.113329436630011E-004;2.730598906055093E-003;
2.403333333333334E+009;1.651858538389206E-001;2.546185813844204E-002;6.569532561115921E-004;2.661371137946844E-003;
2.403500000000000E+009;1.660268455743790E-001;2.407338097691536E-002;7.761017768643796E-004;2.741161733865738E-003;
2.403666666666667E+009;1.670544743537903E-001;2.243817597627640E-002;7.992014288902283E-004;2.604665234684944E-003;
2.403833333333334E+009;1.681126207113266E-001;2.122951298952103E-002;9.461328736506403E-004;2.636542776599526E-003;
2.404000000000000E+009;1.690786927938461E-001;2.000601217150688E-002;8.696247241459787E-004;2.822833135724068E-003;
2.404166666666667E+009;1.699507087469101E-001;1.878220960497856E-002;8.819067734293640E-004;2.656619297340512E-003;
2.404333333333334E+009;1.707782447338104E-001;1.772978529334068E-002;9.363446151837707E-004;2.720893360674381E-003;
2.404500000000000E+009;1.716892272233963E-001;1.664686575531960E-002;1.111544901505113E-003;2.717071911320090E-003;
2.404666666666667E+009;1.728207021951675E-001;1.564683206379414E-002;1.154881087131798E-003;2.600958105176687E-003;
2.404833333333334E+009;1.736680120229721E-001;1.476821675896645E-002;1.115279272198677E-003;2.738235285505652E-003;
2.405000000000000E+009;1.746293008327484E-001;1.400546915829182E-002;1.399539993144572E-003;2.702982863411307E-003;
2.405166666666667E+009;1.754278838634491E-001;1.349947787821293E-002;1.568444306030870E-003;2.632998628541827E-003;
2.405333333333334E+009;1.763779670000076E-001;1.255387347191572E-002;1.544959843158722E-003;2.593327080830932E-003;
2.405500000000000E+009;1.770785003900528E-001;1.216432265937328E-002;1.698971609584987E-003;2.694783499464393E-003;
2.405666666666667E+009;1.776732951402664E-001;1.167747098952532E-002;1.777007593773305E-003;2.660987200215459E-003;
2.405833333333334E+009;1.783451586961746E-001;1.127737388014793E-002;1.899051945656538E-003;2.418248681351543E-003;
2.406000000000000E+009;1.790549010038376E-001;1.067001558840275E-002;1.807952532544732E-003;2.649528672918677E-003;
2.406166666666667E+009;1.793548315763474E-001;1.054378971457481E-002;1.938243629410863E-003;2.423127880319953E-003;
2.406333333333334E+009;1.800587177276611E-001;1.014880929142237E-002;2.153835259377956E-003;2.558701904490590E-003;
2.406500000000000E+009;1.803065091371536E-001;9.652370586991310E-003;2.299338812008500E-003;2.438680268824101E-003;
2.406666666666667E+009;1.804911345243454E-001;9.404483251273632E-003;2.294647041708231E-003;2.220283029600978E-003;
2.406833333333334E+009;1.808221340179443E-001;9.073325432837009E-003;2.534036291763187E-003;2.308952854946256E-003;
2.407000000000000E+009;1.810512989759445E-001;8.650492876768112E-003;2.547953743487597E-003;2.279833424836397E-003;
2.407166666666667E+009;1.811027675867081E-001;8.363328874111176E-003;2.722027711570263E-003;2.154778223484755E-003;
2.407333333333334E+009;1.809168159961700E-001;7.899343036115170E-003;2.806942211464047E-003;2.006365684792399E-003;
2.407500000000000E+009;1.808035671710968E-001;7.539135403931141E-003;2.805929630994797E-003;1.876451657153666E-003;
2.407666666666667E+009;1.807424873113632E-001;7.099329493939877E-003;2.876886166632175E-003;2.034330274909735E-003;
2.407833333333334E+009;1.804407387971878E-001;6.457483861595392E-003;2.886815229430795E-003;1.814052811823785E-003;
2.408000000000000E+009;1.799712628126144E-001;6.013248115777969E-003;3.040378447622061E-003;1.843352802097797E-003;
2.408166666666667E+009;1.796698868274689E-001;5.363511387258768E-003;3.338070120662451E-003;1.590768690221012E-003;
2.408333333333334E+009;1.793889254331589E-001;4.703093320131302E-003;3.367020282894373E-003;1.574537600390613E-003;
2.408500000000000E+009;1.788014471530914E-001;3.988090436905623E-003;3.324878402054310E-003;1.397770713083446E-003;
2.408666666666667E+009;1.782646030187607E-001;3.042611293494701E-003;3.375151427462697E-003;1.345540280453861E-003;
2.408833333333334E+009;1.775403618812561E-001;2.125321887433529E-003;3.357689594849944E-003;1.229046843945980E-003;
2.409000000000000E+009;1.769517362117767E-001;1.173670869320631E-003;3.543374827131629E-003;1.130149234086275E-003;
2.409166666666667E+009;1.763137876987457E-001;8.567854092689231E-005;3.487101057544351E-003;1.001063152216375E-003;
2.409333333333334E+009;1.757467240095139E-001;-1.038045156747103E-003;3.574575763195753E-003;8.095187367871404E-004;
2.409500000000000E+009;1.750585585832596E-001;-2.443794393911958E-003;3.591298358514905E-003;6.902106106281281E-004;
2.409666666666667E+009;1.741845905780792E-001;-3.793591633439064E-003;3.795559750869870E-003;6.619127234444022E-004;
2.409833333333334E+009;1.734697371721268E-001;-5.046761594712734E-003;3.601540345698595E-003;3.386956523172557E-004;
2.410000000000000E+009;1.729023903608322E-001;-6.323782261461020E-003;3.601759904995561E-003;3.450500080361962E-004;
2.410166666666667E+009;1.721858084201813E-001;-7.949668914079666E-003;3.580499906092882E-003;7.678338442929089E-005;
2.410333333333334E+009;1.716359108686447E-001;-9.617839008569717E-003;3.616113215684891E-003;1.599779643584043E-004;
2.410500000000000E+009;1.709416359663010E-001;-1.134174410253763E-002;3.662490751594305E-003;-3.490177914500237E-005;
2.410666666666667E+009;1.703046411275864E-001;-1.304164156317711E-002;3.616114845499396E-003;-1.920171489473432E-004;
2.410833333333334E+009;1.697444021701813E-001;-1.460963208228350E-002;3.535318654030561E-003;-3.106171498075128E-004;
2.411000000000000E+009;1.693734079599381E-001;-1.648980379104614E-002;3.462303197011352E-003;-4.907372640445828E-004;
2.411166666666667E+009;1.690879464149475E-001;-1.842392049729824E-002;3.617611713707447E-003;-6.464142934419215E-004;
2.411333333333334E+009;1.688160300254822E-001;-2.030295133590698E-002;3.510416019707918E-003;-7.403403287753463E-004;
2.411500000000000E+009;1.684694290161133E-001;-2.214670181274414E-002;3.578598843887448E-003;-9.294894989579916E-004;
2.411666666666667E+009;1.684077531099320E-001;-2.407326921820641E-002;3.465786343440414E-003;-8.141329744830728E-004;
2.411833333333334E+009;1.682698428630829E-001;-2.595203556120396E-002;3.322316333651543E-003;-9.732420439831913E-004;
2.412000000000000E+009;1.682445704936981E-001;-2.803410030901432E-002;3.296125214546919E-003;-1.148546696640551E-003;
2.412166666666667E+009;1.681430339813232E-001;-3.003075718879700E-002;3.281347919255495E-003;-1.351640094071627E-003;
2.412333333333334E+009;1.685243248939514E-001;-3.175459429621697E-002;3.149653319269419E-003;-1.441212138161063E-003;
2.412500000000000E+009;1.684933602809906E-001;-3.355403244495392E-002;3.192156553268433E-003;-1.565938815474510E-003;
2.412666666666667E+009;1.687662452459335E-001;-3.572272881865501E-002;2.882015658542514E-003;-1.495775417424738E-003;
2.412833333333334E+009;1.690888851881027E-001;-3.751126304268837E-002;2.948886947706342E-003;-1.775301527231932E-003;
2.413000000000000E+009;1.694831252098084E-001;-3.920709714293480E-002;2.919609192758799E-003;-1.889873645268381E-003;
2.413166666666667E+009;1.697278767824173E-001;-4.100236669182777E-002;2.819716231897473E-003;-1.716269529424608E-003;
2.413333333333334E+009;1.700984388589859E-001;-4.262788593769074E-002;2.710944507271051E-003;-1.989742042496800E-003;
2.413500000000000E+009;1.706825196743012E-001;-4.418998211622238E-002;2.720479154959321E-003;-1.907451893202961E-003;
2.413666666666667E+009;1.712506413459778E-001;-4.604966193437576E-002;2.487098332494497E-003;-1.978746149688959E-003;
2.413833333333334E+009;1.716263443231583E-001;-4.740641266107559E-002;2.436054637655616E-003;-2.029599621891975E-003;
2.414000000000000E+009;1.719795614480972E-001;-4.884789511561394E-002;2.490848302841187E-003;-2.013868885114789E-003;
2.414166666666667E+009;1.727765649557114E-001;-5.015294626355171E-002;2.244608476758003E-003;-2.089563524350524E-003;
2.414333333333334E+009;1.732789129018784E-001;-5.153651162981987E-002;2.042623935267329E-003;-2.133822999894619E-003;
2.414500000000000E+009;1.740574985742569E-001;-5.265129730105400E-002;2.015669830143452E-003;-2.331930678337812E-003;
2.414666666666667E+009;1.744377762079239E-001;-5.368804559111595E-002;2.154771471396089E-003;-2.375283977016807E-003;
2.414833333333334E+009;1.747710257768631E-001;-5.469131469726563E-002;1.950034173205495E-003;-2.379484008997679E-003;
2.415000000000000E+009;1.753395944833756E-001;-5.566281080245972E-002;1.903881551697850E-003;-2.486244542524219E-003;
2.415166666666667E+009;1.757176220417023E-001;-5.641137063503265E-002;2.020759508013725E-003;-2.311149612069130E-003;
2.415333333333334E+009;1.762592047452927E-001;-5.728399381041527E-002;1.710086478851736E-003;-2.363393083214760E-003;
2.415500000000000E+009;1.764907538890839E-001;-5.790275707840920E-002;1.653171726502478E-003;-2.358129713684320E-003;
2.415666666666667E+009;1.768749207258225E-001;-5.850685387849808E-002;1.659824512898922E-003;-2.300659660249949E-003;
2.415833333333334E+009;1.772398352622986E-001;-5.908484756946564E-002;1.590070663951337E-003;-2.593470504507422E-003;
2.416000000000000E+009;1.772643178701401E-001;-5.960322916507721E-002;1.666536554694176E-003;-2.519528381526470E-003;
2.416166666666667E+009;1.774450391530991E-001;-5.991226062178612E-002;1.638549962081015E-003;-2.462060423567891E-003;
2.416333333333334E+009;1.774112433195114E-001;-6.016165390610695E-002;1.551475725136697E-003;-2.517453394830227E-003;
2.416500000000000E+009;1.774128079414368E-001;-6.059493869543076E-002;1.417258637957275E-003;-2.433006186038256E-003;
2.416666666666667E+009;1.772579401731491E-001;-6.082456186413765E-002;1.380727393552661E-003;-2.661320846527815E-003;
2.416833333333334E+009;1.771260797977448E-001;-6.121791526675224E-002;1.328834099695087E-003;-2.485112054273486E-003;
2.417000000000000E+009;1.765103936195374E-001;-6.147009134292603E-002;1.275858609005809E-003;-2.547416137531400E-003;
2.417166666666667E+009;1.762450188398361E-001;-6.156252697110176E-002;1.171650947071612E-003;-2.846821909770370E-003;
2.417333333333334E+009;1.758691370487213E-001;-6.189509853720665E-002;1.206320361234248E-003;-2.688261447474361E-003;
2.417500000000000E+009;1.751822829246521E-001;-6.220148876309395E-002;1.078892149962485E-003;-2.735438756644726E-003;
2.417666666666667E+009;1.747026294469833E-001;-6.234826892614365E-002;9.947179351001978E-004;-2.800528658553958E-003;
2.417833333333334E+009;1.738884747028351E-001;-6.260339170694351E-002;1.113123376853764E-003;-2.780572511255741E-003;
2.418000000000000E+009;1.730310320854187E-001;-6.290733069181442E-002;9.488849318586290E-004;-2.795477863401175E-003;
2.418166666666667E+009;1.722859144210815E-001;-6.315048784017563E-002;8.975526434369385E-004;-2.912293421104550E-003;
2.418333333333334E+009;1.714985072612763E-001;-6.362893432378769E-002;7.314413669519126E-004;-2.866730093955994E-003;
2.418500000000000E+009;1.702858209609985E-001;-6.402383744716644E-002;9.593995055183768E-004;-2.900942461565137E-003;
2.418666666666667E+009;1.693013757467270E-001;-6.447341293096542E-002;9.256326593458653E-004;-2.843877766281366E-003;
2.418833333333334E+009;1.681452691555023E-001;-6.502184271812439E-002;5.918947863392532E-004;-2.975242212414742E-003;
2.419000000000000E+009;1.670854538679123E-001;-6.553116440773010E-002;6.268165307119489E-004;-3.115023020654917E-003;
2.419166666666667E+009;1.658727228641510E-001;-6.625250726938248E-002;6.567130913026631E-004;-3.060635644942522E-003;
2.419333333333334E+009;1.646094322204590E-001;-6.666059792041779E-002;5.901959957554936E-004;-3.172877943143249E-003;
2.419500000000000E+009;1.634127199649811E-001;-6.767350435256958E-002;6.889980868436396E-004;-3.128597047179937E-003;
2.419666666666667E+009;1.623013466596603E-001;-6.861674785614014E-002;5.425926065072417E-004;-3.133706282824278E-003;
2.419833333333334E+009;1.611002236604691E-001;-6.952012330293655E-002;4.727084306068718E-004;-3.282204736024141E-003;
2.420000000000000E+009;1.599684804677963E-001;-7.040359079837799E-002;3.581444325391203E-004;-3.337589791044593E-003;
2.420166666666667E+009;1.588501185178757E-001;-7.144677639007568E-002;2.900148101616651E-004;-3.358541289344430E-003;
2.420333333333334E+009;1.579455733299255E-001;-7.280290126800537E-002;9.582321217749268E-005;-3.358070040121675E-003;
2.420500000000000E+009;1.567621827125549E-001;-7.371357828378677E-002;1.721452135825530E-004;-3.416657680645585E-003;
2.420666666666667E+009;1.557093858718872E-001;-7.490332424640656E-002;-1.128212315961719E-004;-3.485730616375804E-003;
2.420833333333334E+009;1.548240184783936E-001;-7.636995613574982E-002;-1.916676701512188E-004;-3.454695921391249E-003;
2.421000000000000E+009;1.540286689996719E-001;-7.797946780920029E-002;-2.907440066337585E-004;-3.572538495063782E-003;
2.421166666666667E+009;1.529348790645599E-001;-7.951990514993668E-002;-3.274994378443807E-004;-3.659465117380023E-003;
2.421333333333334E+009;1.524560302495956E-001;-8.094658702611923E-002;-5.060755065642297E-004;-3.766695968806744E-003;
2.421500000000000E+009;1.516228616237640E-001;-8.238144218921661E-002;-5.383852985687554E-004;-3.662370610982180E-003;
2.421666666666667E+009;1.512427479028702E-001;-8.409185707569122E-002;-6.320567918010056E-004;-3.693345468491316E-003;
2.421833333333334E+009;1.509084403514862E-001;-8.574153482913971E-002;-7.258342811837792E-004;-3.720319597050548E-003;
2.422000000000000E+009;1.503431499004364E-001;-8.726065605878830E-002;-1.074415631592274E-003;-3.768243128433824E-003;
2.422166666666667E+009;1.498564034700394E-001;-8.930923044681549E-002;-1.328676822595298E-003;-3.808258101344109E-003;
2.422333333333334E+009;1.498081684112549E-001;-9.085679799318314E-002;-1.382927061058581E-003;-3.793980693444610E-003;
2.422500000000000E+009;1.496303528547287E-001;-9.236547350883484E-002;-1.485862652771175E-003;-3.813190152868629E-003;
2.422666666666667E+009;1.493476927280426E-001;-9.410696476697922E-002;-1.712927361950278E-003;-3.863437101244927E-003;
2.422833333333334E+009;1.496366113424301E-001;-9.596297889947891E-002;-1.801477395929396E-003;-3.648793557658792E-003;
2.423000000000000E+009;1.495776474475861E-001;-9.745617210865021E-002;-2.065048553049564E-003;-3.577928058803082E-003;
2.423166666666667E+009;1.497861891984940E-001;-9.930837899446487E-002;-2.178584691137075E-003;-3.605806967243552E-003;
2.423333333333334E+009;1.500771194696426E-001;-1.006279066205025E-001;-2.392223104834557E-003;-3.468049224466085E-003;
2.423500000000000E+009;1.502771526575089E-001;-1.022439971566200E-001;-2.585426671430469E-003;-3.441777545958757E-003;
2.423666666666667E+009;1.504765897989273E-001;-1.040483787655830E-001;-2.784008625894785E-003;-3.173767589032650E-003;
2.423833333333334E+009;1.509975641965866E-001;-1.055837348103523E-001;-2.825011033564806E-003;-3.170204581692815E-003;
2.424000000000000E+009;1.513074487447739E-001;-1.066213846206665E-001;-2.991106826812029E-003;-3.143006237223744E-003;
2.424166666666667E+009;1.517099589109421E-001;-1.081289574503899E-001;-3.087020711973310E-003;-2.938113873824477E-003;
2.424333333333334E+009;1.522157639265060E-001;-1.092450171709061E-001;-3.221973776817322E-003;-2.751568332314491E-003;
2.424500000000000E+009;1.527291685342789E-001;-1.106249690055847E-001;-3.270870307460427E-003;-2.808936871588230E-003;
2.424666666666667E+009;1.532345265150070E-001;-1.115054413676262E-001;-3.482929663732648E-003;-2.496241824701428E-003;
2.424833333333334E+009;1.534720659255981E-001;-1.126323193311691E-001;-3.586809616535902E-003;-2.165292389690876E-003;
2.425000000000000E+009;1.539797484874725E-001;-1.136513724923134E-001;-3.604200202971697E-003;-2.123048761859536E-003;
2.425166666666667E+009;1.542342603206635E-001;-1.144422441720963E-001;-3.781613195315003E-003;-1.858162577264011E-003;
2.425333333333334E+009;1.548246443271637E-001;-1.152501180768013E-001;-3.745341440662742E-003;-1.686458825133741E-003;
2.425500000000000E+009;1.551788002252579E-001;-1.161131784319878E-001;-3.818597411736846E-003;-1.675669453106821E-003;
2.425666666666667E+009;1.553316563367844E-001;-1.166409030556679E-001;-3.856180002912879E-003;-1.417945022694767E-003;
2.425833333333334E+009;1.556851416826248E-001;-1.172233372926712E-001;-3.852630732581019E-003;-1.302111777476966E-003;
2.426000000000000E+009;1.558136940002441E-001;-1.177832558751106E-001;-4.021171946078539E-003;-1.000444986857474E-003;
2.426166666666667E+009;1.562117487192154E-001;-1.181267499923706E-001;-3.843738231807947E-003;-1.027194317430258E-003;
2.426333333333334E+009;1.561102122068405E-001;-1.185126379132271E-001;-3.798239631578326E-003;-7.440777262672782E-004;
2.426500000000000E+009;1.561668813228607E-001;-1.186880916357040E-001;-3.801282728090882E-003;-6.954516284167767E-004;
2.426666666666667E+009;1.562452763319016E-001;-1.188300848007202E-001;-3.788662143051624E-003;-4.891661228612065E-004;
2.426833333333334E+009;1.558657139539719E-001;-1.191487982869148E-001;-3.612151602283120E-003;-3.313190536573529E-004;
2.427000000000000E+009;1.557057052850723E-001;-1.192952170968056E-001;-3.646516241133213E-003;-3.523215127643198E-004;
2.427166666666667E+009;1.553462594747543E-001;-1.193658336997032E-001;-3.436928382143378E-003;-1.689426426310092E-004;
2.427333333333334E+009;1.547639816999435E-001;-1.193831488490105E-001;-3.608214203268290E-003;-3.385994205018506E-005;
2.427500000000000E+009;1.544616669416428E-001;-1.195009052753449E-001;-3.475531237199903E-003;2.581454173196107E-004;
2.427666666666667E+009;1.537227779626846E-001;-1.197524443268776E-001;-3.549362998455763E-003;2.392177266301587E-004;
2.427833333333334E+009;1.529230028390884E-001;-1.197370514273644E-001;-3.329679835587740E-003;2.130982175003737E-004;
