# Version 1.00
#
freq[Hz];re:Trc1_S11;im:Trc1_S11;re:Trc2_S21;im:Trc2_S21;
2.400000000000000E+009;1.589348912239075E-001;6.280133873224258E-002;-8.269156096503139E-004;2.821007277816534E-003;
2.400166666666667E+009;1.587308496236801E-001;6.140863522887230E-002;-7.804529741406441E-004;2.918348181992769E-003;
2.400333333333334E+009;1.585076004266739E-001;5.956707522273064E-002;-8.694727439433336E-004;2.984832972288132E-003;
2.400500000000000E+009;1.584371626377106E-001;5.764283984899521E-002;-4.387271765153855E-004;2.913850359618664E-003;
2.400666666666667E+009;1.584652066230774E-001;5.581362545490265E-002;-3.121478366665542E-004;2.838421845808625E-003;
2.400833333333334E+009;1.585005074739456E-001;5.380926281213760E-002;-1.975495542865247E-004;2.817586064338684E-003;
2.401000000000000E+009;1.584186553955078E-001;5.173764750361443E-002;-2.247601951239631E-004;2.876163925975561E-003;
2.401166666666667E+009;1.586320996284485E-001;4.984195902943611E-002;-8.702858031028882E-005;2.763395896181464E-003;
2.401333333333334E+009;1.586286127567291E-001;4.754894226789475E-002;1.033441731124185E-004;2.638787962496281E-003;
2.401500000000000E+009;1.591475307941437E-001;4.559037089347839E-002;1.847562671173364E-004;2.760838484391570E-003;
2.401666666666667E+009;1.592719703912735E-001;4.369246587157250E-002;2.304686931893230E-004;2.748522441834211E-003;
2.401833333333334E+009;1.596299856901169E-001;4.151252657175064E-002;1.523728569736704E-004;2.605895046144724E-003;
2.402000000000000E+009;1.597847491502762E-001;3.969573602080345E-002;1.622981799300760E-004;2.682415070012212E-003;
2.402166666666667E+009;1.602269709110260E-001;3.747900575399399E-002;2.626780478749424E-004;2.628575777634978E-003;
2.402333333333334E+009;1.606771498918533E-001;3.559845313429833E-002;3.924226621165872E-004;2.591708209365606E-003;
2.402500000000000E+009;1.614414751529694E-001;3.395809233188629E-002;3.766202717088163E-004;2.598426537588239E-003;
2.402666666666667E+009;1.620866954326630E-001;3.207142278552055E-002;4.067105764988810E-004;2.586769871413708E-003;
2.402833333333334E+009;1.628324240446091E-001;3.028676286339760E-002;5.566144245676696E-004;2.525405725464225E-003;
2.403000000000000E+009;1.634618043899536E-001;2.861704118549824E-002;5.042769480496645E-004;2.581979613751173E-003;
2.403166666666667E+009;1.644631177186966E-001;2.690038830041885E-002;6.427704356610775E-004;2.760274568572640E-003;
2.403333333333334E+009;1.652580350637436E-001;2.557035535573959E-002;6.701747188344598E-004;2.520738635212183E-003;
2.403500000000000E+009;1.660857796669006E-001;2.417340315878391E-002;7.734367973171175E-004;2.521332819014788E-003;
2.403666666666667E+009;1.668960601091385E-001;2.260796725749970E-002;8.811720181256533E-004;2.592568285763264E-003;
2.403833333333334E+009;1.682733446359634E-001;2.122354134917259E-002;7.944437093101442E-004;2.603613073006272E-003;
2.404000000000000E+009;1.690785586833954E-001;2.012347057461739E-002;1.041645300574601E-003;2.624273998662829E-003;
2.404166666666667E+009;1.701112538576126E-001;1.886278763413429E-002;1.008011051453650E-003;2.700681798160076E-003;
2.404333333333334E+009;1.709550023078919E-001;1.775746792554855E-002;9.842488216236234E-004;2.668732544407249E-003;
2.404500000000000E+009;1.718424856662750E-001;1.682060770690441E-002;9.850780479609966E-004;2.591676078736782E-003;
2.404666666666667E+009;1.728850901126862E-001;1.585723459720612E-002;1.224464271217585E-003;2.641859464347363E-003;
2.404833333333334E+009;1.737526655197144E-001;1.496271882206202E-002;1.331728999502957E-003;2.751128748059273E-003;
2.405000000000000E+009;1.747814714908600E-001;1.398489065468311E-002;1.426376518793404E-003;2.702551661059260E-003;
2.405166666666667E+009;1.755740344524384E-001;1.351204607635737E-002;1.624057651497424E-003;2.624265849590302E-003;
2.405333333333334E+009;1.765877306461334E-001;1.264396496117115E-002;1.630250131711364E-003;2.518537687137723E-003;
2.405500000000000E+009;1.772698909044266E-001;1.215450931340456E-002;1.695521525107324E-003;2.581655280664563E-003;
2.405666666666667E+009;1.778347939252853E-001;1.164859719574451E-002;1.714817481115460E-003;2.725673373788595E-003;
2.405833333333334E+009;1.785019338130951E-001;1.123002171516419E-002;1.743459841236472E-003;2.476841211318970E-003;
2.406000000000000E+009;1.790520697832108E-001;1.072117872536182E-002;1.761175110004842E-003;2.370966132730246E-003;
2.406166666666667E+009;1.793827414512634E-001;1.040502358227968E-002;1.990837743505836E-003;2.462639939039946E-003;
2.406333333333334E+009;1.800170540809631E-001;1.017448212951422E-002;2.253721235319972E-003;2.377672586590052E-003;
2.406500000000000E+009;1.803847998380661E-001;9.684449993073940E-003;2.223155228421092E-003;2.322594169527292E-003;
2.406666666666667E+009;1.804335564374924E-001;9.421221911907196E-003;2.490031300112605E-003;2.347633941099048E-003;
2.406833333333334E+009;1.807820349931717E-001;9.019756689667702E-003;2.325664972886443E-003;2.342397347092629E-003;
2.407000000000000E+009;1.809042543172836E-001;8.706289343535900E-003;2.540262881666422E-003;2.269514836370945E-003;
2.407166666666667E+009;1.811577677726746E-001;8.399376645684242E-003;2.744256518781185E-003;2.211178652942181E-003;
2.407333333333334E+009;1.810486465692520E-001;7.865052670240402E-003;2.700530923902988E-003;2.003504894673824E-003;
2.407500000000000E+009;1.809043884277344E-001;7.524382323026657E-003;2.753847278654575E-003;1.891530118882656E-003;
2.407666666666667E+009;1.806288957595825E-001;7.108696736395359E-003;2.949729794636369E-003;1.826376537792385E-003;
2.407833333333334E+009;1.803030222654343E-001;6.561635993421078E-003;3.070508129894733E-003;1.817891490645707E-003;
2.408000000000000E+009;1.801060140132904E-001;5.937883164733648E-003;3.133843420073390E-003;1.653610845096409E-003;
2.408166666666667E+009;1.797168701887131E-001;5.456565413624048E-003;3.189996117725968E-003;1.655182917602360E-003;
2.408333333333334E+009;1.794125288724899E-001;4.814923740923405E-003;3.173991572111845E-003;1.518868259154260E-003;
2.408500000000000E+009;1.787778437137604E-001;3.960480447858572E-003;3.196537960320711E-003;1.509877620264888E-003;
2.408666666666667E+009;1.781911551952362E-001;3.065811702981591E-003;3.299667499959469E-003;1.351621351204813E-003;
2.408833333333334E+009;1.774434149265289E-001;2.213455503806472E-003;3.457786515355110E-003;1.257114694453776E-003;
2.409000000000000E+009;1.769292056560516E-001;1.205882290378213E-003;3.380852984264493E-003;1.106639509089291E-003;
2.409166666666667E+009;1.762968897819519E-001;1.520972873549908E-004;3.600931726396084E-003;7.829430978745222E-004;
2.409333333333334E+009;1.757185906171799E-001;-1.157287508249283E-003;3.650957485660911E-003;8.735659066587687E-004;
2.409500000000000E+009;1.749738007783890E-001;-2.415902679786086E-003;3.676247550174594E-003;6.485654739663005E-004;
2.409666666666667E+009;1.742065250873566E-001;-3.611942986026406E-003;3.598547307774425E-003;6.988623645156622E-004;
2.409833333333334E+009;1.735152304172516E-001;-4.969532601535320E-003;3.577279625460506E-003;3.064373740926385E-004;
2.410000000000000E+009;1.729173362255096E-001;-6.293249782174826E-003;3.584520891308785E-003;3.025364130735397E-004;
2.410166666666667E+009;1.723007261753082E-001;-8.050783537328243E-003;3.727719420567155E-003;1.583882112754509E-004;
2.410333333333334E+009;1.716292798519135E-001;-9.455370716750622E-003;3.629085840657353E-003;1.013813307508826E-004;
2.410500000000000E+009;1.709707230329514E-001;-1.125436183065176E-002;3.722866065800190E-003;1.136293576564640E-006;
2.410666666666667E+009;1.703397929668427E-001;-1.316222827881575E-002;3.672963706776500E-003;-2.580344735179097E-004;
2.410833333333334E+009;1.699280589818955E-001;-1.474530249834061E-002;3.660130780190229E-003;-3.899132425431162E-004;
2.411000000000000E+009;1.693706214427948E-001;-1.633302494883537E-002;3.670383710414171E-003;-5.175124388188124E-004;
2.411166666666667E+009;1.691901236772537E-001;-1.857825182378292E-002;3.594815498217940E-003;-7.450793054886162E-004;
2.411333333333334E+009;1.687075644731522E-001;-2.032023109495640E-002;3.573012771084905E-003;-8.515427471138537E-004;
2.411500000000000E+009;1.685910224914551E-001;-2.227398939430714E-002;3.511366434395313E-003;-8.450375753454864E-004;
2.411666666666667E+009;1.684216558933258E-001;-2.401272766292095E-002;3.448505420237780E-003;-1.057200017385185E-003;
2.411833333333334E+009;1.684466153383255E-001;-2.605385892093182E-002;3.478448837995529E-003;-1.145018031820655E-003;
2.412000000000000E+009;1.682381182909012E-001;-2.805345319211483E-002;3.384625539183617E-003;-1.344795455224812E-003;
2.412166666666667E+009;1.682236641645432E-001;-2.986604161560535E-002;3.322478849440813E-003;-1.298448885791004E-003;
2.412333333333334E+009;1.685781627893448E-001;-3.169242292642593E-002;3.258383134379983E-003;-1.403443864546716E-003;
2.412500000000000E+009;1.686736792325974E-001;-3.372970595955849E-002;3.304982325062156E-003;-1.538508106023073E-003;
2.412666666666667E+009;1.690016984939575E-001;-3.569053113460541E-002;3.030246589332819E-003;-1.603267504833639E-003;
2.412833333333334E+009;1.692878752946854E-001;-3.748652338981628E-002;3.094164654612541E-003;-1.736593199893832E-003;
2.413000000000000E+009;1.693997383117676E-001;-3.920682147145271E-002;2.978604752570391E-003;-1.814724993892014E-003;
2.413166666666667E+009;1.700299680233002E-001;-4.095177352428436E-002;2.804232062771916E-003;-1.838151598349214E-003;
2.413333333333334E+009;1.701897829771042E-001;-4.273004084825516E-002;2.863141009584069E-003;-1.917770714499056E-003;
2.413500000000000E+009;1.707217842340469E-001;-4.446087032556534E-002;2.616500016301870E-003;-1.916771987453103E-003;
2.413666666666667E+009;1.713225096464157E-001;-4.605321958661079E-002;2.470733597874641E-003;-1.915539964102209E-003;
2.413833333333334E+009;1.717436611652374E-001;-4.745280742645264E-002;2.483947668224573E-003;-2.099001780152321E-003;
2.414000000000000E+009;1.722038090229034E-001;-4.883012920618057E-002;2.363093663007021E-003;-2.228018827736378E-003;
2.414166666666667E+009;1.729806512594223E-001;-5.026632919907570E-002;2.453422872349620E-003;-2.317386446520686E-003;
2.414333333333334E+009;1.732654422521591E-001;-5.157135426998138E-002;2.155018039047718E-003;-2.414245624095202E-003;
2.414500000000000E+009;1.740040183067322E-001;-5.256653949618340E-002;2.129088388755918E-003;-2.458268776535988E-003;
2.414666666666667E+009;1.744329035282135E-001;-5.371908843517304E-002;2.148422878235579E-003;-2.223571995273233E-003;
2.414833333333334E+009;1.748491823673248E-001;-5.479229241609573E-002;1.927817589603365E-003;-2.320056548342109E-003;
2.415000000000000E+009;1.753214299678803E-001;-5.573762953281403E-002;1.990588847547770E-003;-2.377836732193828E-003;
2.415166666666667E+009;1.757762879133225E-001;-5.660695210099220E-002;1.735818106681109E-003;-2.444542478770018E-003;
2.415333333333334E+009;1.763117164373398E-001;-5.742039903998375E-002;1.833822811022401E-003;-2.477802801877260E-003;
2.415500000000000E+009;1.765509694814682E-001;-5.794104561209679E-002;1.571061671711505E-003;-2.385038184002042E-003;
2.415666666666667E+009;1.767740100622177E-001;-5.849495902657509E-002;1.795475138351321E-003;-2.533055376261473E-003;
2.415833333333334E+009;1.771768033504486E-001;-5.906261131167412E-002;1.553882844746113E-003;-2.556970808655024E-003;
2.416000000000000E+009;1.771855950355530E-001;-5.943892523646355E-002;1.628641854040325E-003;-2.529568737372756E-003;
2.416166666666667E+009;1.773995012044907E-001;-5.993638560175896E-002;1.438500941731036E-003;-2.466175006702542E-003;
2.416333333333334E+009;1.774840205907822E-001;-6.017291918396950E-002;1.570961554534733E-003;-2.559250686317682E-003;
2.416500000000000E+009;1.774764806032181E-001;-6.055438891053200E-002;1.520830322988331E-003;-2.575415885075927E-003;
2.416666666666667E+009;1.772204637527466E-001;-6.085723638534546E-002;1.377053558826447E-003;-2.607291797176004E-003;
2.416833333333334E+009;1.771296858787537E-001;-6.119560450315476E-002;1.247470150701702E-003;-2.723754150792956E-003;
2.417000000000000E+009;1.766262650489807E-001;-6.154955923557282E-002;1.231367466971278E-003;-2.699299016967416E-003;
2.417166666666667E+009;1.762207597494125E-001;-6.161564961075783E-002;1.244963030330837E-003;-2.736234338954091E-003;
2.417333333333334E+009;1.758634895086289E-001;-6.177717447280884E-002;1.181178493425250E-003;-2.660239348188043E-003;
2.417500000000000E+009;1.752826422452927E-001;-6.229918822646141E-002;1.092275138944387E-003;-2.865615068003535E-003;
2.417666666666667E+009;1.746024191379547E-001;-6.229513883590698E-002;1.032840111292899E-003;-2.739528659731150E-003;
2.417833333333334E+009;1.739251315593720E-001;-6.259888410568237E-002;1.021062722429633E-003;-2.780517796054483E-003;
2.418000000000000E+009;1.730104386806488E-001;-6.299088150262833E-002;1.057371846400201E-003;-2.849780255928636E-003;
2.418166666666667E+009;1.721862405538559E-001;-6.307080388069153E-002;1.027238438837230E-003;-2.862110733985901E-003;
2.418333333333334E+009;1.714601218700409E-001;-6.367687135934830E-002;1.003806362859905E-003;-2.898744307458401E-003;
2.418500000000000E+009;1.703090220689774E-001;-6.386708468198776E-002;8.193727699108422E-004;-2.967214677482843E-003;
2.418666666666667E+009;1.694036871194840E-001;-6.433539092540741E-002;7.574679329991341E-004;-2.988352440297604E-003;
2.418833333333334E+009;1.679722368717194E-001;-6.501695513725281E-002;8.152103982865810E-004;-2.915617777034640E-003;
2.419000000000000E+009;1.670154929161072E-001;-6.542285531759262E-002;7.927166298031807E-004;-3.176909405738115E-003;
2.419166666666667E+009;1.658890396356583E-001;-6.623318046331406E-002;7.980568916536868E-004;-3.106909338384867E-003;
2.419333333333334E+009;1.646955311298370E-001;-6.663125753402710E-002;5.963147268630564E-004;-3.168746596202254E-003;
2.419500000000000E+009;1.636302173137665E-001;-6.764985620975494E-002;5.742639186792076E-004;-3.265243489295244E-003;
2.419666666666667E+009;1.624656319618225E-001;-6.856384128332138E-002;5.763066583313048E-004;-3.262489102780819E-003;
2.419833333333334E+009;1.611787229776382E-001;-6.925627589225769E-002;4.562656104099006E-004;-3.267903812229633E-003;
2.420000000000000E+009;1.601040214300156E-001;-7.028906047344208E-002;3.790716291405261E-004;-3.427566029131413E-003;
2.420166666666667E+009;1.588525176048279E-001;-7.146359235048294E-002;3.900580923072994E-004;-3.315993817523122E-003;
2.420333333333334E+009;1.579681783914566E-001;-7.270671427249908E-002;2.127392217516899E-004;-3.399585606530309E-003;
2.420500000000000E+009;1.569037288427353E-001;-7.376523315906525E-002;-1.666639946051873E-005;-3.455138532444835E-003;
2.420666666666667E+009;1.558443903923035E-001;-7.492054998874664E-002;-1.202681814902462E-004;-3.577490337193012E-003;
2.420833333333334E+009;1.549974083900452E-001;-7.649028301239014E-002;1.408091429766500E-005;-3.553229384124279E-003;
2.421000000000000E+009;1.540887206792831E-001;-7.787269353866577E-002;-2.770073770079762E-004;-3.636431880295277E-003;
2.421166666666667E+009;1.532735675573349E-001;-7.942812144756317E-002;-2.805569383781403E-004;-3.584807505831122E-003;
2.421333333333334E+009;1.525751203298569E-001;-8.092076331377029E-002;-5.199257284402847E-004;-3.628980368375778E-003;
2.421500000000000E+009;1.518208384513855E-001;-8.255127072334290E-002;-5.763150984421372E-004;-3.682256909087300E-003;
2.421666666666667E+009;1.513091474771500E-001;-8.409318327903748E-002;-6.599205080419779E-004;-3.744806163012981E-003;
2.421833333333334E+009;1.509272009134293E-001;-8.575636148452759E-002;-9.680752991698682E-004;-3.775499062612653E-003;
2.422000000000000E+009;1.504805535078049E-001;-8.749094605445862E-002;-1.078868284821510E-003;-3.719699336215854E-003;
2.422166666666667E+009;1.499962657690048E-001;-8.925265073776245E-002;-1.125599723309279E-003;-3.924082498997450E-003;
2.422333333333334E+009;1.499990820884705E-001;-9.084103256464005E-002;-1.308474340476096E-003;-3.764536464586854E-003;
2.422500000000000E+009;1.497114300727844E-001;-9.249490499496460E-002;-1.467262394726276E-003;-3.669858910143375E-003;
2.422666666666667E+009;1.495803445577622E-001;-9.424559026956558E-002;-1.725677517242730E-003;-3.778079757466912E-003;
2.422833333333334E+009;1.496422886848450E-001;-9.601226449012756E-002;-1.856069662608206E-003;-3.665985073894262E-003;
2.423000000000000E+009;1.496496349573135E-001;-9.742805361747742E-002;-2.079483354464173E-003;-3.583579557016492E-003;
2.423166666666667E+009;1.498274356126785E-001;-9.933106601238251E-002;-2.151432447135449E-003;-3.551185131072998E-003;
2.423333333333334E+009;1.500904113054276E-001;-1.006772294640541E-001;-2.300573512911797E-003;-3.500163555145264E-003;
2.423500000000000E+009;1.503932029008865E-001;-1.023014485836029E-001;-2.558646257966757E-003;-3.296969924122095E-003;
2.423666666666667E+009;1.505379378795624E-001;-1.040640249848366E-001;-2.682927995920181E-003;-3.300140844658017E-003;
2.423833333333334E+009;1.510359346866608E-001;-1.054220646619797E-001;-2.844057045876980E-003;-3.211462171748281E-003;
2.424000000000000E+009;1.513473242521286E-001;-1.068057492375374E-001;-3.000025171786547E-003;-2.946275984868407E-003;
2.424166666666667E+009;1.516054570674896E-001;-1.081469208002091E-001;-3.154000500217080E-003;-2.982267178595066E-003;
2.424333333333334E+009;1.521757692098618E-001;-1.094013303518295E-001;-3.202462103217840E-003;-2.670034300535917E-003;
2.424500000000000E+009;1.527525186538696E-001;-1.106317192316055E-001;-3.433965146541596E-003;-2.682946622371674E-003;
2.424666666666667E+009;1.532325148582459E-001;-1.115385815501213E-001;-3.395342966541648E-003;-2.541191177442670E-003;
2.424833333333334E+009;1.535734832286835E-001;-1.126404330134392E-001;-3.539618337526918E-003;-2.302439417690039E-003;
2.425000000000000E+009;1.540290564298630E-001;-1.137466803193092E-001;-3.556604497134686E-003;-2.099806442856789E-003;
2.425166666666667E+009;1.542771309614182E-001;-1.144399121403694E-001;-3.771352814510465E-003;-1.976765692234039E-003;
2.425333333333334E+009;1.548070311546326E-001;-1.152263879776001E-001;-3.747197100892663E-003;-1.631992403417826E-003;
2.425500000000000E+009;1.552871763706207E-001;-1.159689947962761E-001;-3.771102754399180E-003;-1.590297440998256E-003;
2.425666666666667E+009;1.554327160120010E-001;-1.165101975202560E-001;-3.721328685060144E-003;-1.395425875671208E-003;
2.425833333333334E+009;1.556776165962219E-001;-1.170979365706444E-001;-3.836885094642639E-003;-1.321150921285152E-003;
2.426000000000000E+009;1.557819694280624E-001;-1.176828294992447E-001;-3.890281310304999E-003;-1.048520789481700E-003;
2.426166666666667E+009;1.561752557754517E-001;-1.180743500590324E-001;-3.862881800159812E-003;-8.607266936451197E-004;
2.426333333333334E+009;1.561366617679596E-001;-1.183992251753807E-001;-3.895482746884227E-003;-7.471163407899439E-004;
2.426500000000000E+009;1.561536639928818E-001;-1.186675131320953E-001;-3.679483663290739E-003;-4.927529953420162E-004;
2.426666666666667E+009;1.563650667667389E-001;-1.187417805194855E-001;-3.723048837855458E-003;-3.812098293565214E-004;
2.426833333333334E+009;1.560589522123337E-001;-1.190063804388046E-001;-3.605878213420510E-003;-3.460970765445381E-004;
2.427000000000000E+009;1.557260751724243E-001;-1.192262992262840E-001;-3.799716709181666E-003;-1.488515263190493E-004;
2.427166666666667E+009;1.553606837987900E-001;-1.191464662551880E-001;-3.547886386513710E-003;-1.956208870979026E-004;
2.427333333333334E+009;1.550031751394272E-001;-1.194204539060593E-001;-3.487009089440107E-003;1.218043835251592E-004;
2.427500000000000E+009;1.546158343553543E-001;-1.195251643657684E-001;-3.545826300978661E-003;1.901562936836854E-004;
2.427666666666667E+009;1.539112180471420E-001;-1.196817234158516E-001;-3.425546456128359E-003;2.532464568503201E-004;
2.427833333333334E+009;1.531225591897965E-001;-1.196655407547951E-001;-3.349384525790811E-003;3.278117219451815E-004;
