# Version 1.00
#
freq[Hz];re:Trc1_S11;im:Trc1_S11;re:Trc2_S21;im:Trc2_S21;
2.400000000000000E+009;1.562430113554001E-001;6.027918681502342E-002;-4.148024134337902E-003;5.275444709695876E-004;
2.400166666666667E+009;1.563257426023483E-001;5.857002735137940E-002;-3.997262101620436E-003;7.358196307905018E-004;
2.400333333333334E+009;1.562813222408295E-001;5.639633536338806E-002;-4.007217474281788E-003;8.902995614334941E-004;
2.400500000000000E+009;1.565809994935989E-001;5.442665144801140E-002;-3.859045915305615E-003;8.848799043335021E-004;
2.400666666666667E+009;1.567336171865463E-001;5.236683040857315E-002;-3.990313038229942E-003;9.813655633479357E-004;
2.400833333333334E+009;1.571059376001358E-001;5.040320381522179E-002;-3.897074377164245E-003;1.092393998987973E-003;
2.401000000000000E+009;1.573010385036469E-001;4.824057221412659E-002;-3.941379021853209E-003;1.322493422776461E-003;
2.401166666666667E+009;1.578174382448196E-001;4.610885307192802E-002;-3.883318277075887E-003;1.440951949916780E-003;
2.401333333333334E+009;1.582192778587341E-001;4.406971856951714E-002;-3.884822130203247E-003;1.486367546021938E-003;
2.401500000000000E+009;1.587830185890198E-001;4.225151240825653E-002;-3.827653359621763E-003;1.583827193826437E-003;
2.401666666666667E+009;1.591974645853043E-001;4.046340659260750E-002;-3.806934691965580E-003;1.771942595951259E-003;
2.401833333333334E+009;1.599488854408264E-001;3.839287161827087E-002;-3.690063022077084E-003;1.731456955894828E-003;
2.402000000000000E+009;1.606170237064362E-001;3.644354641437531E-002;-3.640125971287489E-003;1.814384246245027E-003;
2.402166666666667E+009;1.609927862882614E-001;3.442141413688660E-002;-3.609145991504192E-003;1.894064713269472E-003;
2.402333333333334E+009;1.619011759757996E-001;3.276530280709267E-002;-3.577179741114378E-003;2.004101872444153E-003;
2.402500000000000E+009;1.629482358694077E-001;3.127306699752808E-002;-3.377564484253526E-003;2.263126662001014E-003;
2.402666666666667E+009;1.637542694807053E-001;2.979816310107708E-002;-3.409295575693250E-003;2.219382440671325E-003;
2.402833333333334E+009;1.645341515541077E-001;2.820217795670033E-002;-3.397141816094518E-003;2.159025985747576E-003;
2.403000000000000E+009;1.655329614877701E-001;2.683085575699806E-002;-3.312664572149515E-003;2.523437375202775E-003;
2.403166666666667E+009;1.664879322052002E-001;2.547653391957283E-002;-3.216031473129988E-003;2.495298162102699E-003;
2.403333333333334E+009;1.674899160861969E-001;2.445912361145020E-002;-3.149737836793065E-003;2.465941477566958E-003;
2.403500000000000E+009;1.684794425964356E-001;2.309010736644268E-002;-3.014429239556193E-003;2.666612155735493E-003;
2.403666666666667E+009;1.694588810205460E-001;2.192859910428524E-002;-3.041405696421862E-003;2.630806993693113E-003;
2.403833333333334E+009;1.703988015651703E-001;2.078280970454216E-002;-2.910706913098693E-003;2.707915613427758E-003;
2.404000000000000E+009;1.714986115694046E-001;2.005312219262123E-002;-2.959352219477296E-003;2.815564861521125E-003;
2.404166666666667E+009;1.722992211580277E-001;1.914948038756847E-002;-2.936688484624028E-003;2.990851411595941E-003;
2.404333333333334E+009;1.734230816364288E-001;1.838013902306557E-002;-2.901720814406872E-003;3.076705615967512E-003;
2.404500000000000E+009;1.740227043628693E-001;1.756384782493115E-002;-2.672937465831637E-003;3.089758567512035E-003;
2.404666666666667E+009;1.750596016645432E-001;1.697900705039501E-002;-2.776565030217171E-003;3.326873760670424E-003;
2.404833333333334E+009;1.758591383695602E-001;1.638529822230339E-002;-2.687041647732258E-003;3.396444255486131E-003;
2.405000000000000E+009;1.765633672475815E-001;1.584506966173649E-002;-2.564129186794162E-003;3.349821781739593E-003;
2.405166666666667E+009;1.772467792034149E-001;1.542535331100225E-002;-2.444881014525890E-003;3.609724575653672E-003;
2.405333333333334E+009;1.779445409774780E-001;1.490209065377712E-002;-2.407617168501020E-003;3.701230278238654E-003;
2.405500000000000E+009;1.784037947654724E-001;1.459902059286833E-002;-2.367522800341249E-003;3.788055852055550E-003;
2.405666666666667E+009;1.790292114019394E-001;1.429865788668394E-002;-2.061296021565795E-003;3.924755379557610E-003;
2.405833333333334E+009;1.790429055690765E-001;1.410783268511295E-002;-1.858314732089639E-003;4.012581892311573E-003;
2.406000000000000E+009;1.795929223299027E-001;1.359934639185667E-002;-1.888546044938266E-003;4.105285741388798E-003;
2.406166666666667E+009;1.796729862689972E-001;1.354140974581242E-002;-1.529199536889792E-003;4.144738893955946E-003;
2.406333333333334E+009;1.800605803728104E-001;1.314972899854183E-002;-1.587323262356222E-003;4.265036433935165E-003;
2.406500000000000E+009;1.800821274518967E-001;1.283040177077055E-002;-1.563461381010711E-003;4.363248124718666E-003;
2.406666666666667E+009;1.798991858959198E-001;1.253806333988905E-002;-1.189856324344873E-003;4.578347317874432E-003;
2.406833333333334E+009;1.798980683088303E-001;1.215854845941067E-002;-1.067744451574981E-003;4.469798412173986E-003;
2.407000000000000E+009;1.797385960817337E-001;1.186518464237452E-002;-1.063320320099592E-003;4.353361204266548E-003;
2.407166666666667E+009;1.796416193246841E-001;1.145382411777973E-002;-7.282103761099279E-004;4.514776635915041E-003;
2.407333333333334E+009;1.792337894439697E-001;1.079908479005098E-002;-6.464407779276371E-004;4.511996638029814E-003;
2.407500000000000E+009;1.788835376501083E-001;1.023492030799389E-002;-3.745920839719474E-004;4.655994474887848E-003;
2.407666666666667E+009;1.786057949066162E-001;9.754156693816185E-003;-2.593013050500304E-004;4.572182428091765E-003;
2.407833333333334E+009;1.779568046331406E-001;8.953826501965523E-003;-1.358105218969286E-004;4.508067853748798E-003;
2.408000000000000E+009;1.776029616594315E-001;8.033530786633492E-003;1.402136113028973E-004;4.403808619827032E-003;
2.408166666666667E+009;1.769158393144608E-001;7.541679777204990E-003;2.472433552611619E-004;4.414840601384640E-003;
2.408333333333334E+009;1.764684915542603E-001;6.295998580753803E-003;5.047466838732362E-004;4.476803354918957E-003;
2.408500000000000E+009;1.757345050573349E-001;5.368184298276901E-003;5.539907724596560E-004;4.486449062824249E-003;
2.408666666666667E+009;1.750481426715851E-001;4.207960795611143E-003;6.917539285495877E-004;4.556550644338131E-003;
2.408833333333334E+009;1.744019687175751E-001;2.943673636764288E-003;8.417221833951771E-004;4.428450018167496E-003;
2.409000000000000E+009;1.736463904380798E-001;1.738846534863114E-003;1.026379875838757E-003;4.291150253266096E-003;
2.409166666666667E+009;1.730415672063828E-001;4.020982305519283E-004;1.188387279398739E-003;4.383460618555546E-003;
2.409333333333334E+009;1.722660809755325E-001;-1.167135196737945E-003;1.299149356782436E-003;4.398561082780361E-003;
2.409500000000000E+009;1.716179400682449E-001;-2.752898028120399E-003;1.326597179286182E-003;4.241349641233683E-003;
2.409666666666667E+009;1.709799766540527E-001;-4.297433886677027E-003;1.465589739382267E-003;4.045206587761641E-003;
2.409833333333334E+009;1.705157011747360E-001;-5.999113433063030E-003;1.741882530041039E-003;4.069305490702391E-003;
2.410000000000000E+009;1.700200587511063E-001;-7.648188620805740E-003;1.840663491748273E-003;3.879471216350794E-003;
2.410166666666667E+009;1.693829894065857E-001;-9.459405206143856E-003;1.998149091377854E-003;3.987778443843126E-003;
2.410333333333334E+009;1.689211577177048E-001;-1.129573769867420E-002;2.117355819791555E-003;3.803463419899344E-003;
2.410500000000000E+009;1.684606671333313E-001;-1.312245707958937E-002;2.145773964002729E-003;3.825324121862650E-003;
2.410666666666667E+009;1.680264919996262E-001;-1.517580170184374E-002;2.261794172227383E-003;3.694924758747220E-003;
2.410833333333334E+009;1.679424047470093E-001;-1.692986488342285E-002;2.353054704144597E-003;3.470406634733081E-003;
2.411000000000000E+009;1.676874458789825E-001;-1.894159801304340E-002;2.353214193135500E-003;3.295294940471649E-003;
2.411166666666667E+009;1.675439476966858E-001;-2.092618495225906E-002;2.488778671249747E-003;3.333965083584189E-003;
2.411333333333334E+009;1.675612032413483E-001;-2.301953732967377E-002;2.689413726329804E-003;3.174178069457412E-003;
2.411500000000000E+009;1.675205230712891E-001;-2.478546276688576E-002;2.879072446376085E-003;3.071910468861461E-003;
2.411666666666667E+009;1.676866561174393E-001;-2.682793140411377E-002;2.768920501694083E-003;2.953297924250364E-003;
2.411833333333334E+009;1.679707020521164E-001;-2.850841172039509E-002;2.880135085433722E-003;2.727304585278034E-003;
2.412000000000000E+009;1.681804358959198E-001;-3.069101274013519E-002;3.005047328770161E-003;2.821729518473148E-003;
2.412166666666667E+009;1.684713959693909E-001;-3.241085633635521E-002;3.106323303654790E-003;2.599445637315512E-003;
2.412333333333334E+009;1.690783351659775E-001;-3.433999046683312E-002;3.052053973078728E-003;2.445418853312731E-003;
2.412500000000000E+009;1.691301167011261E-001;-3.605211153626442E-002;3.219971898943186E-003;2.336501842364669E-003;
2.412666666666667E+009;1.698168367147446E-001;-3.796452656388283E-002;3.325566183775663E-003;2.247644588351250E-003;
2.412833333333334E+009;1.702922582626343E-001;-3.967092186212540E-002;3.224398242309690E-003;1.974819693714380E-003;
2.413000000000000E+009;1.708264797925949E-001;-4.133830592036247E-002;3.348418744280934E-003;1.876131049357355E-003;
2.413166666666667E+009;1.714666634798050E-001;-4.300584271550179E-002;3.213368589058518E-003;1.775618409737945E-003;
2.413333333333334E+009;1.718932688236237E-001;-4.441138729453087E-002;3.366377670317888E-003;1.647470053285360E-003;
2.413500000000000E+009;1.728099882602692E-001;-4.586478322744370E-002;3.423333400860429E-003;1.534860813990235E-003;
2.413666666666667E+009;1.734621822834015E-001;-4.726482927799225E-002;3.397831227630377E-003;1.562437159009278E-003;
2.413833333333334E+009;1.738825291395187E-001;-4.855034500360489E-002;3.337084082886577E-003;1.263108220882714E-003;
2.414000000000000E+009;1.742181926965714E-001;-4.967010021209717E-002;3.417871659621596E-003;1.140331616625190E-003;
2.414166666666667E+009;1.750811636447907E-001;-5.061272159218788E-002;3.465096233412623E-003;1.228373846970499E-003;
2.414333333333334E+009;1.755732893943787E-001;-5.186799541115761E-002;3.339934395626187E-003;1.063701929524541E-003;
2.414500000000000E+009;1.762445718050003E-001;-5.256087705492973E-002;3.302958328276873E-003;8.446579449810088E-004;
2.414666666666667E+009;1.766834855079651E-001;-5.345562472939491E-002;3.401425667107105E-003;8.967448375187814E-004;
2.414833333333334E+009;1.770170032978058E-001;-5.427522212266922E-002;3.329102415591478E-003;6.554348510690033E-004;
2.415000000000000E+009;1.773726195096970E-001;-5.489802360534668E-002;3.304281970486045E-003;5.425942945294082E-004;
2.415166666666667E+009;1.777531653642654E-001;-5.548343807458878E-002;3.188542090356350E-003;5.196245037950575E-004;
2.415333333333334E+009;1.782823503017426E-001;-5.600022897124291E-002;3.106067189946771E-003;5.086733726784587E-004;
2.415500000000000E+009;1.784069687128067E-001;-5.655619129538536E-002;3.191062714904547E-003;3.690373850986362E-004;
2.415666666666667E+009;1.784507036209106E-001;-5.693857744336128E-002;3.149768803268671E-003;1.159493695013225E-004;
2.415833333333334E+009;1.786959320306778E-001;-5.721423402428627E-002;3.143424633890390E-003;1.365821517538279E-004;
2.416000000000000E+009;1.782780438661575E-001;-5.749185383319855E-002;3.021346870809794E-003;1.156533035100438E-004;
2.416166666666667E+009;1.785330325365067E-001;-5.775260552763939E-002;3.074415493756533E-003;4.198797614662908E-005;
2.416333333333334E+009;1.782273054122925E-001;-5.788787454366684E-002;3.119775559753180E-003;5.469442476169206E-005;
2.416500000000000E+009;1.779441833496094E-001;-5.823773518204689E-002;3.243516432121396E-003;4.541930320556276E-005;
2.416666666666667E+009;1.774532794952393E-001;-5.826717987656593E-002;3.023080062121153E-003;-2.692102862056345E-004;
2.416833333333334E+009;1.771514117717743E-001;-5.874811857938767E-002;2.922062063589692E-003;-3.235441399738193E-004;
2.417000000000000E+009;1.763587743043900E-001;-5.895718187093735E-002;3.008733503520489E-003;-2.732580178417265E-004;
2.417166666666667E+009;1.757043898105621E-001;-5.899420753121376E-002;3.052659332752228E-003;-3.802153514698148E-004;
2.417333333333334E+009;1.751087754964829E-001;-5.920502915978432E-002;2.900728024542332E-003;-5.877079092897475E-004;
2.417500000000000E+009;1.740526705980301E-001;-5.972982943058014E-002;2.844131784513593E-003;-4.210415063425899E-004;
2.417666666666667E+009;1.734087169170380E-001;-5.974562838673592E-002;2.876489888876677E-003;-6.704516708850861E-004;
2.417833333333334E+009;1.723242253065109E-001;-6.012781336903572E-002;2.803642768412828E-003;-6.073230179026723E-004;
2.418000000000000E+009;1.712131947278976E-001;-6.058133393526077E-002;2.860604552552104E-003;-6.009173812344670E-004;
2.418166666666667E+009;1.701962649822235E-001;-6.085233017802239E-002;2.661533653736115E-003;-7.991634192876518E-004;
2.418333333333334E+009;1.693115085363388E-001;-6.154008582234383E-002;2.831013640388846E-003;-8.270018151961267E-004;
2.418500000000000E+009;1.679943352937698E-001;-6.206265464425087E-002;2.780983690172434E-003;-9.035691618919373E-004;
2.418666666666667E+009;1.668355464935303E-001;-6.267010420560837E-002;2.588891191408038E-003;-1.025167875923216E-003;
2.418833333333334E+009;1.655267775058746E-001;-6.335855275392532E-002;2.560515888035297E-003;-9.865344036370516E-004;
2.419000000000000E+009;1.642577797174454E-001;-6.418696045875549E-002;2.588162664324045E-003;-1.107504940591753E-003;
2.419166666666667E+009;1.630651354789734E-001;-6.501639634370804E-002;2.434285357594490E-003;-1.179153565317392E-003;
2.419333333333334E+009;1.615994870662689E-001;-6.570903956890106E-002;2.446126658469439E-003;-1.138910534791648E-003;
2.419500000000000E+009;1.604566574096680E-001;-6.693235784769058E-002;2.518895082175732E-003;-1.134272548370063E-003;
2.419666666666667E+009;1.594617366790772E-001;-6.815396994352341E-002;2.354319440200925E-003;-1.071113394573331E-003;
2.419833333333334E+009;1.581726223230362E-001;-6.917645037174225E-002;2.424192149192095E-003;-1.222073798999190E-003;
2.420000000000000E+009;1.571629047393799E-001;-7.034824788570404E-002;2.278760075569153E-003;-1.326635363511741E-003;
2.420166666666667E+009;1.561556458473206E-001;-7.164029031991959E-002;2.390708075836301E-003;-1.215903204865754E-003;
2.420333333333334E+009;1.551276743412018E-001;-7.303215563297272E-002;2.277070656418800E-003;-1.366208656691015E-003;
2.420500000000000E+009;1.542190015316010E-001;-7.434906810522080E-002;2.188649261370301E-003;-1.364277559332550E-003;
2.420666666666667E+009;1.533742249011993E-001;-7.587341219186783E-002;2.160144969820976E-003;-1.387329306453466E-003;
2.420833333333334E+009;1.525464653968811E-001;-7.742236554622650E-002;2.100038342177868E-003;-1.460723346099258E-003;
2.421000000000000E+009;1.518180221319199E-001;-7.908488810062408E-002;2.044447697699070E-003;-1.561737852171063E-003;
2.421166666666667E+009;1.513186991214752E-001;-8.052673935890198E-002;1.967031974345446E-003;-1.341870636679232E-003;
2.421333333333334E+009;1.507942676544190E-001;-8.243516087532044E-002;1.829994958825409E-003;-1.618672977201641E-003;
2.421500000000000E+009;1.502535045146942E-001;-8.387529850006104E-002;1.942722476087511E-003;-1.574862748384476E-003;
2.421666666666667E+009;1.498766243457794E-001;-8.562011271715164E-002;1.844465150497854E-003;-1.649999991059303E-003;
2.421833333333334E+009;1.496236026287079E-001;-8.734896034002304E-002;1.770648057572544E-003;-1.738035818561912E-003;
2.422000000000000E+009;1.495525687932968E-001;-8.918555825948715E-002;1.713699079118669E-003;-1.656082458794117E-003;
2.422166666666667E+009;1.494061946868897E-001;-9.088008105754852E-002;1.802896382287145E-003;-1.633552368730307E-003;
2.422333333333334E+009;1.493583768606186E-001;-9.246582537889481E-002;1.645143260248005E-003;-1.755269709974527E-003;
2.422500000000000E+009;1.494255065917969E-001;-9.406981617212296E-002;1.540941186249256E-003;-1.961000729352236E-003;
2.422666666666667E+009;1.494807749986649E-001;-9.577412903308868E-002;1.562256831675768E-003;-1.854422851465643E-003;
2.422833333333334E+009;1.499511599540710E-001;-9.737235307693481E-002;1.389048877172172E-003;-1.853137277066708E-003;
2.423000000000000E+009;1.501356810331345E-001;-9.888943284749985E-002;1.394054153934121E-003;-1.724816509522498E-003;
2.423166666666667E+009;1.504985839128494E-001;-1.003938242793083E-001;1.452354830689728E-003;-1.937791239470244E-003;
2.423333333333334E+009;1.510142982006073E-001;-1.018446385860443E-001;1.365965115837753E-003;-2.084388164803386E-003;
2.423500000000000E+009;1.513971090316773E-001;-1.034138277173042E-001;1.098806154914200E-003;-2.035638317465782E-003;
2.423666666666667E+009;1.517097204923630E-001;-1.046828851103783E-001;1.196452882140875E-003;-1.918346853926778E-003;
2.423833333333334E+009;1.522968113422394E-001;-1.059996038675308E-001;1.325230230577290E-003;-1.994675956666470E-003;
2.424000000000000E+009;1.527431309223175E-001;-1.072416976094246E-001;1.064012059941888E-003;-1.990363933146000E-003;
2.424166666666667E+009;1.531623154878616E-001;-1.082297861576080E-001;1.003675395622850E-003;-2.098463475704193E-003;
2.424333333333334E+009;1.538284420967102E-001;-1.093145683407784E-001;9.160014451481402E-004;-1.986375311389566E-003;
2.424500000000000E+009;1.544670164585114E-001;-1.102414652705193E-001;1.014179084450007E-003;-2.026268979534507E-003;
2.424666666666667E+009;1.549874544143677E-001;-1.110137552022934E-001;7.550794980488718E-004;-1.952104968950152E-003;
2.424833333333334E+009;1.551340967416763E-001;-1.119232550263405E-001;8.178437128663063E-004;-2.065725624561310E-003;
2.425000000000000E+009;1.559226065874100E-001;-1.126825511455536E-001;6.952894618734717E-004;-2.125187078490853E-003;
2.425166666666667E+009;1.559767574071884E-001;-1.134006157517433E-001;5.991465877741575E-004;-2.165951766073704E-003;
2.425333333333334E+009;1.566122472286224E-001;-1.138795688748360E-001;7.759714499115944E-004;-2.042555483058095E-003;
2.425500000000000E+009;1.568487137556076E-001;-1.145510897040367E-001;5.505973822437227E-004;-2.069947309792042E-003;
2.425666666666667E+009;1.569323241710663E-001;-1.150233224034309E-001;4.027343820780516E-004;-2.094428287819028E-003;
2.425833333333334E+009;1.571541428565979E-001;-1.153003349900246E-001;4.186736478004605E-004;-1.944740186445415E-003;
2.426000000000000E+009;1.571989208459854E-001;-1.157651394605637E-001;4.536701890174300E-004;-2.001258311793208E-003;
2.426166666666667E+009;1.573986560106278E-001;-1.160293221473694E-001;3.582287172321230E-004;-2.028703456744552E-003;
2.426333333333334E+009;1.572418957948685E-001;-1.163055971264839E-001;4.514851025305688E-004;-2.047582995146513E-003;
2.426500000000000E+009;1.570755988359451E-001;-1.164544597268105E-001;3.658704226836562E-004;-1.993689220398665E-003;
2.426666666666667E+009;1.568985879421234E-001;-1.165150254964829E-001;3.137399617116898E-004;-1.989407930523157E-003;
2.426833333333334E+009;1.565811038017273E-001;-1.167494505643845E-001;4.231645143590868E-004;-1.947154407389462E-003;
2.427000000000000E+009;1.560626626014710E-001;-1.168837919831276E-001;1.860907941590995E-004;-1.869634492322803E-003;
2.427166666666667E+009;1.554680019617081E-001;-1.168448701500893E-001;2.637832367327064E-004;-1.882362295873463E-003;
2.427333333333334E+009;1.547882705926895E-001;-1.170964166522026E-001;1.934820029418916E-004;-1.906112884171307E-003;
2.427500000000000E+009;1.541420966386795E-001;-1.171862334012985E-001;2.878207596950233E-004;-1.852689078077674E-003;
2.427666666666667E+009;1.533791273832321E-001;-1.173789352178574E-001;1.368702069157735E-004;-1.786524080671370E-003;
2.427833333333334E+009;1.523111611604691E-001;-1.175742372870445E-001;1.913848682306707E-004;-1.809081295505166E-003;
