# Version 1.00
#
freq[Hz];re:Trc1_S11;im:Trc1_S11;re:Trc2_S21;im:Trc2_S21;
2.400000000000000E+009;1.560117751359940E-001;6.033254787325859E-002;-4.073470830917358E-003;5.024141282774508E-004;
2.400166666666667E+009;1.561590433120728E-001;5.862972512841225E-002;-4.105450585484505E-003;6.432067020796239E-004;
2.400333333333334E+009;1.560481488704681E-001;5.662497133016586E-002;-4.023839253932238E-003;8.726405794732273E-004;
2.400500000000000E+009;1.566192954778671E-001;5.465742200613022E-002;-4.136080853641033E-003;1.070342375896871E-003;
2.400666666666667E+009;1.567590236663818E-001;5.248865857720375E-002;-3.910230007022619E-003;9.128500823862851E-004;
2.400833333333334E+009;1.569115221500397E-001;5.063761025667191E-002;-3.968031611293554E-003;1.125580165535212E-003;
2.401000000000000E+009;1.574461907148361E-001;4.839977622032166E-002;-3.790715010836721E-003;1.286504557356238E-003;
2.401166666666667E+009;1.577452570199966E-001;4.638300836086273E-002;-3.966887481510639E-003;1.293390640057623E-003;
2.401333333333334E+009;1.582078039646149E-001;4.431112855672836E-002;-3.928439691662788E-003;1.584005774930120E-003;
2.401500000000000E+009;1.587688326835632E-001;4.231026023626328E-002;-3.808426903560758E-003;1.551202964037657E-003;
2.401666666666667E+009;1.593225747346878E-001;4.049333184957504E-002;-3.727617906406522E-003;1.687282347120345E-003;
2.401833333333334E+009;1.599900573492050E-001;3.835845738649368E-002;-3.688119351863861E-003;1.926230033859611E-003;
2.402000000000000E+009;1.605013161897659E-001;3.653272613883019E-002;-3.826469881460071E-003;1.916160341352224E-003;
2.402166666666667E+009;1.613070815801621E-001;3.459899500012398E-002;-3.702097805216909E-003;1.856133458204567E-003;
2.402333333333334E+009;1.619340330362320E-001;3.283672779798508E-002;-3.600078402087092E-003;2.076312201097608E-003;
2.402500000000000E+009;1.629856079816818E-001;3.141217678785324E-002;-3.422012785449624E-003;2.079406753182411E-003;
2.402666666666667E+009;1.638990640640259E-001;2.977235987782478E-002;-3.358589252457023E-003;2.014688216149807E-003;
2.402833333333334E+009;1.645619720220566E-001;2.827457152307034E-002;-3.434274578467012E-003;2.261118730530143E-003;
2.403000000000000E+009;1.656550914049149E-001;2.689279057085514E-002;-3.406594740226865E-003;2.370368223637343E-003;
2.403166666666667E+009;1.666009873151779E-001;2.559372596442699E-002;-3.150181379169226E-003;2.456693211570382E-003;
2.403333333333334E+009;1.676892638206482E-001;2.428460866212845E-002;-3.203800413757563E-003;2.466858830302954E-003;
2.403500000000000E+009;1.684298664331436E-001;2.322085760533810E-002;-3.064732765778899E-003;2.670750254765153E-003;
2.403666666666667E+009;1.694927662611008E-001;2.173192985355854E-002;-3.168274648487568E-003;2.828217810019851E-003;
2.403833333333334E+009;1.705853044986725E-001;2.087886258959770E-002;-2.964464249089360E-003;2.702414290979505E-003;
2.404000000000000E+009;1.716843545436859E-001;1.992461271584034E-002;-2.802285365760326E-003;2.842653077095747E-003;
2.404166666666667E+009;1.722416281700134E-001;1.911489479243755E-002;-2.891541458666325E-003;3.077993402257562E-003;
2.404333333333334E+009;1.733637154102325E-001;1.836190931499004E-002;-2.837590640410781E-003;3.171566873788834E-003;
2.404500000000000E+009;1.741279214620590E-001;1.755807176232338E-002;-2.797669032588601E-003;3.281156532466412E-003;
2.404666666666667E+009;1.750185191631317E-001;1.694723591208458E-002;-2.748224884271622E-003;3.287169383838773E-003;
2.404833333333334E+009;1.757968515157700E-001;1.609216630458832E-002;-2.891698852181435E-003;3.423507558181882E-003;
2.405000000000000E+009;1.763843148946762E-001;1.587161980569363E-002;-2.611435018479824E-003;4.033551085740328E-003;
2.405166666666667E+009;1.771382987499237E-001;1.541848946362734E-002;-2.672901842743158E-003;3.714848775416613E-003;
2.405333333333334E+009;1.779767423868179E-001;1.467509847134352E-002;-2.298285253345966E-003;3.684811294078827E-003;
2.405500000000000E+009;1.784237474203110E-001;1.458323001861572E-002;-2.316508674994111E-003;3.971268422901630E-003;
2.405666666666667E+009;1.787897199392319E-001;1.418176479637623E-002;-2.157521899789572E-003;3.888185601681471E-003;
2.405833333333334E+009;1.791521161794663E-001;1.405773498117924E-002;-1.941030262969434E-003;3.950790036469698E-003;
2.406000000000000E+009;1.795272380113602E-001;1.362297218292952E-002;-1.888473867438734E-003;4.190847743302584E-003;
2.406166666666667E+009;1.796473413705826E-001;1.353886537253857E-002;-1.734061399474740E-003;4.325198475271463E-003;
2.406333333333334E+009;1.799872219562531E-001;1.312313228845596E-002;-1.534203765913844E-003;4.281152505427599E-003;
2.406500000000000E+009;1.799597740173340E-001;1.271799486130476E-002;-1.338441623374820E-003;4.342057276517153E-003;
2.406666666666667E+009;1.799732297658920E-001;1.246821694076061E-002;-1.350425183773041E-003;4.496376495808363E-003;
2.406833333333334E+009;1.798849701881409E-001;1.209379825741053E-002;-1.026595593430102E-003;4.571786150336266E-003;
2.407000000000000E+009;1.798487305641174E-001;1.171301398426294E-002;-9.606644161976874E-004;4.583175294101238E-003;
2.407166666666667E+009;1.796312183141708E-001;1.125250291079283E-002;-6.846791948191822E-004;4.489086568355560E-003;
2.407333333333334E+009;1.792227923870087E-001;1.070589665323496E-002;-5.889247404411435E-004;4.683495499193668E-003;
2.407500000000000E+009;1.789444237947464E-001;1.018580514937639E-002;-3.281020617578179E-004;4.547266289591789E-003;
2.407666666666667E+009;1.784795522689819E-001;9.659588336944580E-003;-2.099535631714389E-004;4.791120998561382E-003;
2.407833333333334E+009;1.779084503650665E-001;8.873284794390202E-003;-1.006144084385596E-004;4.632710479199886E-003;
2.408000000000000E+009;1.774141192436218E-001;8.012128993868828E-003;1.253169029951096E-004;4.683037754148245E-003;
2.408166666666667E+009;1.767718046903610E-001;7.295837160199881E-003;1.993683981709182E-004;4.516838118433952E-003;
2.408333333333334E+009;1.764527857303619E-001;6.380915176123381E-003;4.516765475273132E-004;4.362338222563267E-003;
2.408500000000000E+009;1.757699400186539E-001;5.329743959009647E-003;4.814512212760747E-004;4.260099958628416E-003;
2.408666666666667E+009;1.750193238258362E-001;4.088103771209717E-003;6.786733865737915E-004;4.433663561940193E-003;
2.408833333333334E+009;1.742796748876572E-001;2.919483231380582E-003;8.912439225241542E-004;4.525929223746061E-003;
2.409000000000000E+009;1.734423637390137E-001;1.589406048879027E-003;9.129897225648165E-004;4.282563924789429E-003;
2.409166666666667E+009;1.729990541934967E-001;1.965714764082804E-004;8.820644579827786E-004;4.234105348587036E-003;
2.409333333333334E+009;1.724057495594025E-001;-1.201030798256397E-003;1.213258714415133E-003;4.270500969141722E-003;
2.409500000000000E+009;1.716403216123581E-001;-2.850300166755915E-003;1.282686484046280E-003;4.138712305575609E-003;
2.409666666666667E+009;1.709471046924591E-001;-4.396253731101751E-003;1.571278437040746E-003;4.132446367293596E-003;
2.409833333333334E+009;1.703453212976456E-001;-5.838373675942421E-003;1.618403475731611E-003;4.026814829558134E-003;
2.410000000000000E+009;1.698287725448608E-001;-7.613034918904305E-003;1.589883002452552E-003;3.952075261622667E-003;
2.410166666666667E+009;1.693288981914520E-001;-9.408744983375073E-003;1.909387181513012E-003;3.823198610916734E-003;
2.410333333333334E+009;1.687803268432617E-001;-1.124089583754540E-002;2.042973181232810E-003;3.819555277004838E-003;
2.410500000000000E+009;1.684034317731857E-001;-1.321101374924183E-002;2.117907395586371E-003;3.605000441893935E-003;
2.410666666666667E+009;1.680612564086914E-001;-1.523445267230272E-002;2.289317781105638E-003;3.612536471337080E-003;
2.410833333333334E+009;1.679911911487579E-001;-1.697808876633644E-002;2.257297048345208E-003;3.738838713616133E-003;
2.411000000000000E+009;1.676361411809921E-001;-1.894955895841122E-002;2.251639496535063E-003;3.359600203111768E-003;
2.411166666666667E+009;1.675867140293121E-001;-2.107867039740086E-002;2.416321076452732E-003;3.316883696243167E-003;
2.411333333333334E+009;1.673875004053116E-001;-2.278460003435612E-002;2.571583492681384E-003;3.336931345984340E-003;
2.411500000000000E+009;1.673635244369507E-001;-2.507326193153858E-002;2.707225037738681E-003;3.031967440620065E-003;
2.411666666666667E+009;1.677018702030182E-001;-2.688881382346153E-002;2.674280432984233E-003;3.208193462342024E-003;
2.411833333333334E+009;1.676850318908691E-001;-2.857306413352490E-002;2.762640826404095E-003;2.999970689415932E-003;
2.412000000000000E+009;1.681510955095291E-001;-3.051134757697582E-002;2.946777734905481E-003;2.910962328314781E-003;
2.412166666666667E+009;1.682442128658295E-001;-3.246859088540077E-002;2.970528323203325E-003;2.844082424417138E-003;
2.412333333333334E+009;1.689831465482712E-001;-3.434443101286888E-002;3.111464204266667E-003;2.552494639530778E-003;
2.412500000000000E+009;1.691762059926987E-001;-3.590328618884087E-002;3.126497147604823E-003;2.473465865477920E-003;
2.412666666666667E+009;1.696898490190506E-001;-3.785885497927666E-002;3.139315405860543E-003;2.394797978922725E-003;
2.412833333333334E+009;1.703174561262131E-001;-3.960707783699036E-002;3.246268955990672E-003;2.154259709641337E-003;
2.413000000000000E+009;1.706566661596298E-001;-4.111390560865402E-002;3.327380865812302E-003;2.042084001004696E-003;
2.413166666666667E+009;1.711704581975937E-001;-4.276823252439499E-002;3.199021099135280E-003;1.769816386513412E-003;
2.413333333333334E+009;1.718740016222000E-001;-4.433351010084152E-002;3.240993013605475E-003;1.828754437156022E-003;
2.413500000000000E+009;1.727288961410523E-001;-4.568430408835411E-002;3.278305521234870E-003;1.702383509837091E-003;
2.413666666666667E+009;1.732566505670548E-001;-4.716501012444496E-002;3.362983698025346E-003;1.656928798183799E-003;
2.413833333333334E+009;1.737495213747025E-001;-4.838538169860840E-002;3.294077236205339E-003;1.520002610050142E-003;
2.414000000000000E+009;1.742426007986069E-001;-4.967882111668587E-002;3.362277289852500E-003;1.436104765161872E-003;
2.414166666666667E+009;1.750461608171463E-001;-5.065493658185005E-002;3.293932881206274E-003;1.157535007223487E-003;
2.414333333333334E+009;1.755390167236328E-001;-5.172186344861984E-002;3.321711439639330E-003;1.064760959707201E-003;
2.414500000000000E+009;1.763313114643097E-001;-5.261619016528130E-002;3.201481886208057E-003;1.137457438744605E-003;
2.414666666666667E+009;1.765971183776856E-001;-5.346901342272759E-002;3.223187057301402E-003;9.730094461701810E-004;
2.414833333333334E+009;1.770200133323669E-001;-5.421636253595352E-002;3.282699268311262E-003;7.247424218803644E-004;
2.415000000000000E+009;1.774680465459824E-001;-5.471916869282723E-002;3.267708700150251E-003;6.228174897842109E-004;
2.415166666666667E+009;1.778353750705719E-001;-5.544145405292511E-002;3.120363922789693E-003;6.170482374727726E-004;
2.415333333333334E+009;1.781828254461289E-001;-5.599905923008919E-002;3.178458660840988E-003;5.673571140505374E-004;
2.415500000000000E+009;1.784418374300003E-001;-5.633806809782982E-002;3.284694161266089E-003;4.795399727299810E-004;
2.415666666666667E+009;1.783672273159027E-001;-5.675535649061203E-002;3.124635433778167E-003;3.859987773466855E-004;
2.415833333333334E+009;1.784963607788086E-001;-5.710246041417122E-002;3.217679914087057E-003;2.973244700115174E-004;
2.416000000000000E+009;1.783624738454819E-001;-5.743909999728203E-002;3.099102061241865E-003;1.890685525722802E-004;
2.416166666666667E+009;1.784635633230209E-001;-5.764457583427429E-002;3.155579091981053E-003;-8.097427780739963E-006;
2.416333333333334E+009;1.782413423061371E-001;-5.788422748446465E-002;3.147382522001863E-003;-1.365277694276301E-005;
2.416500000000000E+009;1.778910309076309E-001;-5.824805796146393E-002;3.053878201171756E-003;-3.834849485429004E-005;
2.416666666666667E+009;1.775525212287903E-001;-5.843496322631836E-002;3.073834348469973E-003;-9.480196604272351E-005;
2.416833333333334E+009;1.770995855331421E-001;-5.865310132503510E-002;2.972849877551198E-003;-2.045725559582934E-004;
2.417000000000000E+009;1.763690412044525E-001;-5.881373584270477E-002;3.033032407984138E-003;-2.761380164884031E-004;
2.417166666666667E+009;1.757752150297165E-001;-5.894806608557701E-002;2.863499568775296E-003;-2.068142348434776E-004;
2.417333333333334E+009;1.750699281692505E-001;-5.917706340551376E-002;2.908585360273719E-003;-3.174488374497742E-004;
2.417500000000000E+009;1.742080301046372E-001;-5.966451391577721E-002;2.871727803722024E-003;-3.960587491746992E-004;
2.417666666666667E+009;1.733946055173874E-001;-5.977744236588478E-002;2.880520885810256E-003;-4.130507586523891E-004;
2.417833333333334E+009;1.723368018865585E-001;-6.004952639341354E-002;2.778335008770227E-003;-4.408728273119777E-004;
2.418000000000000E+009;1.713094115257263E-001;-6.052712723612785E-002;2.658850280568004E-003;-5.960215348750353E-004;
2.418166666666667E+009;1.702743768692017E-001;-6.096914410591126E-002;2.718709176406264E-003;-6.433078669942915E-004;
2.418333333333334E+009;1.692961901426315E-001;-6.154755502939224E-002;2.622670726850629E-003;-7.236670353449881E-004;
2.418500000000000E+009;1.680199950933456E-001;-6.209027022123337E-002;2.615747973322868E-003;-7.895891903899610E-004;
2.418666666666667E+009;1.669281721115112E-001;-6.277866661548615E-002;2.560341730713844E-003;-9.300218662247062E-004;
2.418833333333334E+009;1.655201464891434E-001;-6.346084177494049E-002;2.556286286562681E-003;-9.512287797406316E-004;
2.419000000000000E+009;1.642680317163467E-001;-6.427498161792755E-002;2.645684173330665E-003;-1.006949227303267E-003;
2.419166666666667E+009;1.629967987537384E-001;-6.517495959997177E-002;2.548848045989871E-003;-9.531709947623313E-004;
2.419333333333334E+009;1.616821289062500E-001;-6.583392620086670E-002;2.528178039938211E-003;-9.795351652428508E-004;
2.419500000000000E+009;1.606492698192596E-001;-6.695110350847244E-002;2.437270013615489E-003;-1.069221994839609E-003;
2.419666666666667E+009;1.595428287982941E-001;-6.814189255237579E-002;2.304074820131064E-003;-1.231249654665589E-003;
2.419833333333334E+009;1.581133157014847E-001;-6.929858028888702E-002;2.418436342850328E-003;-1.045678742229939E-003;
2.420000000000000E+009;1.572728455066681E-001;-7.059884816408157E-002;2.196056768298149E-003;-1.205461914651096E-003;
2.420166666666667E+009;1.560254693031311E-001;-7.171052694320679E-002;2.244770759716630E-003;-1.166187226772308E-003;
2.420333333333334E+009;1.550817489624023E-001;-7.307612895965576E-002;2.286791801452637E-003;-1.227732631377876E-003;
2.420500000000000E+009;1.542903035879135E-001;-7.450515776872635E-002;2.194277476519346E-003;-1.319976174272597E-003;
2.420666666666667E+009;1.533881723880768E-001;-7.610509544610977E-002;2.034728880971670E-003;-1.358842477202416E-003;
2.420833333333334E+009;1.525369286537170E-001;-7.756664603948593E-002;2.183025702834129E-003;-1.427843351848424E-003;
2.421000000000000E+009;1.517082899808884E-001;-7.916511595249176E-002;2.099124016240239E-003;-1.426812028512359E-003;
2.421166666666667E+009;1.513532996177673E-001;-8.074083179235458E-002;2.001028507947922E-003;-1.404146547429264E-003;
2.421333333333334E+009;1.507774144411087E-001;-8.253640681505203E-002;1.851495937444270E-003;-1.438116538338363E-003;
2.421500000000000E+009;1.501302123069763E-001;-8.397996425628662E-002;1.900412724353373E-003;-1.469310838729143E-003;
2.421666666666667E+009;1.498729884624481E-001;-8.577408641576767E-002;1.835454488173127E-003;-1.465488574467599E-003;
2.421833333333334E+009;1.496215015649796E-001;-8.740440011024475E-002;1.938197296112776E-003;-1.470406656153500E-003;
2.422000000000000E+009;1.493126899003983E-001;-8.916813880205154E-002;1.721151056699455E-003;-1.606649719178677E-003;
2.422166666666667E+009;1.492708176374435E-001;-9.109207242727280E-002;1.484994310885668E-003;-1.502649276517332E-003;
2.422333333333334E+009;1.493222713470459E-001;-9.257736802101135E-002;1.682070083916187E-003;-1.688738586381078E-003;
2.422500000000000E+009;1.494404524564743E-001;-9.402836114168167E-002;1.668878248892725E-003;-1.781571656465530E-003;
2.422666666666667E+009;1.494844406843185E-001;-9.575115889310837E-002;1.742840278893709E-003;-1.776544144377112E-003;
2.422833333333334E+009;1.497478187084198E-001;-9.749508649110794E-002;1.571582630276680E-003;-1.732691540382803E-003;
2.423000000000000E+009;1.499506682157517E-001;-9.892274439334869E-002;1.561580924317241E-003;-1.951886457391083E-003;
2.423166666666667E+009;1.504343152046204E-001;-1.005090624094009E-001;1.512962277047336E-003;-1.875279587693512E-003;
2.423333333333334E+009;1.509999334812164E-001;-1.018888354301453E-001;1.476638135500252E-003;-2.015231642872095E-003;
2.423500000000000E+009;1.512640267610550E-001;-1.032614409923554E-001;1.453840639442205E-003;-1.932468265295029E-003;
2.423666666666667E+009;1.516538113355637E-001;-1.049126535654068E-001;1.393042039126158E-003;-1.765907858498395E-003;
2.423833333333334E+009;1.522692888975143E-001;-1.060434058308601E-001;1.254273112863302E-003;-1.916210865601897E-003;
2.424000000000000E+009;1.526955217123032E-001;-1.070694774389267E-001;1.243168953806162E-003;-2.042751060798764E-003;
2.424166666666667E+009;1.531549990177155E-001;-1.082753092050552E-001;1.298025017604232E-003;-1.874956302344799E-003;
2.424333333333334E+009;1.538117676973343E-001;-1.092480346560478E-001;9.869756177067757E-004;-2.038351725786924E-003;
2.424500000000000E+009;1.542785018682480E-001;-1.102864444255829E-001;1.069169258698821E-003;-2.109628869220614E-003;
2.424666666666667E+009;1.550056785345078E-001;-1.110251545906067E-001;7.839079480618238E-004;-2.056496916338801E-003;
2.424833333333334E+009;1.551545858383179E-001;-1.119507476687431E-001;8.803762029856443E-004;-1.923863426782191E-003;
2.425000000000000E+009;1.558275818824768E-001;-1.126679405570030E-001;7.957874913699925E-004;-2.054979791864753E-003;
2.425166666666667E+009;1.560597419738770E-001;-1.134351119399071E-001;6.774499779567123E-004;-2.010906115174294E-003;
2.425333333333334E+009;1.564170569181442E-001;-1.139594390988350E-001;6.872022058814764E-004;-1.968046883121133E-003;
2.425500000000000E+009;1.568102687597275E-001;-1.145479008555412E-001;8.808871498331428E-004;-1.974185230210424E-003;
2.425666666666667E+009;1.568387150764465E-001;-1.150467023253441E-001;5.730258417315781E-004;-1.967552816495299E-003;
2.425833333333334E+009;1.569987088441849E-001;-1.153483241796494E-001;4.893388831987977E-004;-1.999918371438980E-003;
2.426000000000000E+009;1.570843160152435E-001;-1.158489063382149E-001;4.233447543811053E-004;-1.929057296365500E-003;
2.426166666666667E+009;1.573474407196045E-001;-1.161187440156937E-001;4.636927624233067E-004;-1.891558757051826E-003;
2.426333333333334E+009;1.570553630590439E-001;-1.162467524409294E-001;1.345047639915720E-004;-1.856868970207870E-003;
2.426500000000000E+009;1.569484621286392E-001;-1.164656430482864E-001;3.400431596674025E-004;-1.977493520826101E-003;
2.426666666666667E+009;1.568791419267654E-001;-1.165608093142510E-001;4.201749688945711E-004;-1.981607405468822E-003;
2.426833333333334E+009;1.563858091831207E-001;-1.167789846658707E-001;3.159513289574534E-004;-1.936877029947937E-003;
2.427000000000000E+009;1.559744179248810E-001;-1.170117557048798E-001;2.106900647049770E-004;-1.730297924950719E-003;
2.427166666666667E+009;1.553236991167069E-001;-1.169320344924927E-001;1.499654172221199E-004;-1.807479420676827E-003;
2.427333333333334E+009;1.547025740146637E-001;-1.171499416232109E-001;3.260888042859733E-004;-1.879085670225322E-003;
2.427500000000000E+009;1.540948748588562E-001;-1.172631457448006E-001;1.118211148423143E-004;-1.859478536061943E-003;
2.427666666666667E+009;1.531575024127960E-001;-1.174114719033241E-001;1.879815681604669E-004;-1.752098323777318E-003;
2.427833333333334E+009;1.521381884813309E-001;-1.175882220268250E-001;2.012120239669457E-004;-1.784068415872753E-003;
