# Version 1.00
#
freq[Hz];re:Trc1_S11;im:Trc1_S11;re:Trc2_S21;im:Trc2_S21;
2.400000000000000E+009;1.562280952930450E-001;6.032497435808182E-002;-4.150643479079008E-003;6.015095859766007E-004;
2.400166666666667E+009;1.562979817390442E-001;5.857379734516144E-002;-3.986008930951357E-003;8.194217807613313E-004;
2.400333333333334E+009;1.563140749931335E-001;5.650297179818153E-002;-4.053101874887943E-003;8.142059668898583E-004;
2.400500000000000E+009;1.565780639648438E-001;5.461609363555908E-002;-4.015349317342043E-003;9.975382126867771E-004;
2.400666666666667E+009;1.565947830677033E-001;5.240505188703537E-002;-3.954889718443155E-003;1.125033013522625E-003;
2.400833333333334E+009;1.571499258279800E-001;5.063899978995323E-002;-3.864374943077564E-003;1.126156770624220E-003;
2.401000000000000E+009;1.574144661426544E-001;4.839823022484779E-002;-3.747197333723307E-003;1.293854089453816E-003;
2.401166666666667E+009;1.579414755105972E-001;4.645599797368050E-002;-3.961416427046061E-003;1.298393821343780E-003;
2.401333333333334E+009;1.582999974489212E-001;4.419180750846863E-002;-3.788721514865756E-003;1.432499615475535E-003;
2.401500000000000E+009;1.587443202733994E-001;4.232296347618103E-002;-3.811362199485302E-003;1.678921631537378E-003;
2.401666666666667E+009;1.594543009996414E-001;4.047602787613869E-002;-3.754188772290945E-003;1.592368818819523E-003;
2.401833333333334E+009;1.599511355161667E-001;3.838271647691727E-002;-3.594202920794487E-003;1.833320129662752E-003;
2.402000000000000E+009;1.606858968734741E-001;3.639734908938408E-002;-3.620157018303871E-003;1.932466868311167E-003;
2.402166666666667E+009;1.611683964729309E-001;3.460805118083954E-002;-3.571666311472654E-003;1.965782139450312E-003;
2.402333333333334E+009;1.620887368917465E-001;3.295805305242539E-002;-3.462851978838444E-003;2.114493167027831E-003;
2.402500000000000E+009;1.630705147981644E-001;3.135109320282936E-002;-3.374344436451793E-003;2.031483221799135E-003;
2.402666666666667E+009;1.639004200696945E-001;2.981152199208736E-002;-3.386051394045353E-003;2.353555057197809E-003;
2.402833333333334E+009;1.647581905126572E-001;2.824961580336094E-002;-3.409309079870582E-003;2.385282423347235E-003;
2.403000000000000E+009;1.656919568777084E-001;2.674830332398415E-002;-3.200398525223136E-003;2.421123906970024E-003;
2.403166666666667E+009;1.667673438787460E-001;2.546984516084194E-002;-3.329741070047021E-003;2.472316147759557E-003;
2.403333333333334E+009;1.676943153142929E-001;2.444864623248577E-002;-3.157660830765963E-003;2.593410201370716E-003;
2.403500000000000E+009;1.685480922460556E-001;2.317131124436855E-002;-3.116735722869635E-003;2.705470891669393E-003;
2.403666666666667E+009;1.695056706666946E-001;2.183526195585728E-002;-2.976823598146439E-003;2.857565181329846E-003;
2.403833333333334E+009;1.706690490245819E-001;2.084385044872761E-002;-2.938500139862299E-003;2.753676380962133E-003;
2.404000000000000E+009;1.718125641345978E-001;2.010862901806831E-002;-2.947833854705095E-003;2.871342701837421E-003;
2.404166666666667E+009;1.724973917007446E-001;1.899857074022293E-002;-2.882024273276329E-003;2.965920371934772E-003;
2.404333333333334E+009;1.733299493789673E-001;1.830176077783108E-002;-2.820922760292888E-003;3.163634799420834E-003;
2.404500000000000E+009;1.740197688341141E-001;1.743298023939133E-002;-2.733370522037149E-003;3.074424806982279E-003;
2.404666666666667E+009;1.750256121158600E-001;1.699201203882694E-002;-2.687267493456602E-003;3.293583868071437E-003;
2.404833333333334E+009;1.758712083101273E-001;1.630793325603008E-002;-2.486889250576496E-003;3.392855171114206E-003;
2.405000000000000E+009;1.765588372945786E-001;1.579655893146992E-002;-2.543456386774778E-003;3.505240892991424E-003;
2.405166666666667E+009;1.771655976772308E-001;1.535640936344862E-002;-2.498414134606719E-003;3.625199664384127E-003;
2.405333333333334E+009;1.778845191001892E-001;1.485300622880459E-002;-2.302233595401049E-003;3.679954679682851E-003;
2.405500000000000E+009;1.783536672592163E-001;1.466565486043692E-002;-2.180364215746522E-003;3.900927491486073E-003;
2.405666666666667E+009;1.788708269596100E-001;1.431488618254662E-002;-2.165036508813500E-003;4.045543260872364E-003;
2.405833333333334E+009;1.790855824947357E-001;1.397855766117573E-002;-1.905298326164484E-003;3.855700138956308E-003;
2.406000000000000E+009;1.795517504215241E-001;1.360420510172844E-002;-1.835554256103933E-003;4.163584671914578E-003;
2.406166666666667E+009;1.796139925718308E-001;1.342468056827784E-002;-1.561764394864440E-003;4.184617660939694E-003;
2.406333333333334E+009;1.800023019313812E-001;1.309972815215588E-002;-1.358622568659484E-003;4.289636388421059E-003;
2.406500000000000E+009;1.799271404743195E-001;1.275491621345282E-002;-1.400256645865738E-003;4.410649649798870E-003;
2.406666666666667E+009;1.798247694969177E-001;1.248981244862080E-002;-1.139353727921844E-003;4.364674910902977E-003;
2.406833333333334E+009;1.798160076141357E-001;1.207114011049271E-002;-1.042771385982633E-003;4.408764652907848E-003;
2.407000000000000E+009;1.797268390655518E-001;1.160245109349489E-002;-1.016642549075186E-003;4.534783773124218E-003;
2.407166666666667E+009;1.796148121356964E-001;1.140117645263672E-002;-7.877705502323806E-004;4.602274391800165E-003;
2.407333333333334E+009;1.792904734611511E-001;1.078548002988100E-002;-6.162432837300003E-004;4.417655989527702E-003;
2.407500000000000E+009;1.790173500776291E-001;1.022726111114025E-002;-3.921806346625090E-004;4.550170153379440E-003;
2.407666666666667E+009;1.784792989492416E-001;9.745601564645767E-003;-2.541843859944493E-004;4.385680891573429E-003;
2.407833333333334E+009;1.778636872768402E-001;8.812566287815571E-003;-1.082328308257274E-004;4.471473395824432E-003;
2.408000000000000E+009;1.774002015590668E-001;8.047042414546013E-003;1.648327015573159E-004;4.445817321538925E-003;
2.408166666666667E+009;1.769470125436783E-001;7.349165622144938E-003;2.695722796488553E-004;4.361406899988651E-003;
2.408333333333334E+009;1.765019446611404E-001;6.315708160400391E-003;3.995688457507640E-004;4.478976130485535E-003;
2.408500000000000E+009;1.757994890213013E-001;5.263379309326410E-003;5.950918421149254E-004;4.284865222871304E-003;
2.408666666666667E+009;1.751319766044617E-001;4.122615791857243E-003;5.782619700767100E-004;4.373485222458839E-003;
2.408833333333334E+009;1.742920577526093E-001;2.982724457979202E-003;8.820255752652884E-004;4.307616967707872E-003;
2.409000000000000E+009;1.735777407884598E-001;1.694557606242597E-003;1.005899044685066E-003;4.240650217980146E-003;
2.409166666666667E+009;1.729532033205032E-001;3.847554035019130E-004;1.069226884283125E-003;4.172712564468384E-003;
2.409333333333334E+009;1.724070012569428E-001;-1.338824862614274E-003;1.170347677543759E-003;4.162886645644903E-003;
2.409500000000000E+009;1.717430204153061E-001;-2.856695791706443E-003;1.348247169516981E-003;4.134663846343756E-003;
2.409666666666667E+009;1.709050983190537E-001;-4.269376397132874E-003;1.404750510118902E-003;3.905751742422581E-003;
2.409833333333334E+009;1.703327447175980E-001;-5.924323108047247E-003;1.618601265363395E-003;3.934750333428383E-003;
2.410000000000000E+009;1.697953790426254E-001;-7.623745594173670E-003;1.624883036129177E-003;3.788396250456572E-003;
2.410166666666667E+009;1.693650484085083E-001;-9.520559571683407E-003;1.868241815827787E-003;3.732885466888547E-003;
2.410333333333334E+009;1.687972098588944E-001;-1.122925058007240E-002;1.975837862119079E-003;3.720779903233051E-003;
2.410500000000000E+009;1.684179604053497E-001;-1.311171334236860E-002;2.133406931534410E-003;3.530716756358743E-003;
2.410666666666667E+009;1.681423038244247E-001;-1.512684021145105E-002;2.138175768777728E-003;3.415120998397470E-003;
2.410833333333334E+009;1.680323332548142E-001;-1.700078509747982E-002;2.312150783836842E-003;3.295240923762322E-003;
2.411000000000000E+009;1.676959693431854E-001;-1.891335844993591E-002;2.392666181549430E-003;3.292841603979468E-003;
2.411166666666667E+009;1.676101982593536E-001;-2.096542902290821E-002;2.539360895752907E-003;3.102385206148028E-003;
2.411333333333334E+009;1.674629896879196E-001;-2.292412333190441E-002;2.664642408490181E-003;3.050765022635460E-003;
2.411500000000000E+009;1.673726141452789E-001;-2.498224750161171E-002;2.546273870393634E-003;2.941551385447383E-003;
2.411666666666667E+009;1.677280366420746E-001;-2.688548341393471E-002;2.629700815305114E-003;2.826336305588484E-003;
2.411833333333334E+009;1.678939610719681E-001;-2.862708643078804E-002;2.803125651553273E-003;2.744550816714764E-003;
2.412000000000000E+009;1.682259738445282E-001;-3.065732493996620E-002;2.771836705505848E-003;2.687234198674560E-003;
2.412166666666667E+009;1.683993935585022E-001;-3.258644789457321E-002;2.865041140466929E-003;2.341479994356632E-003;
2.412333333333334E+009;1.689676493406296E-001;-3.431738168001175E-002;2.897554775699973E-003;2.388721099123359E-003;
2.412500000000000E+009;1.691582053899765E-001;-3.613903000950813E-002;3.018011571839452E-003;2.153627807274461E-003;
2.412666666666667E+009;1.697096824645996E-001;-3.802054375410080E-002;3.016928909346461E-003;2.067076275125146E-003;
2.412833333333334E+009;1.702335327863693E-001;-3.957236185669899E-002;3.001321107149124E-003;1.980991801247001E-003;
2.413000000000000E+009;1.707408279180527E-001;-4.137924686074257E-002;3.077053930610418E-003;2.133464673534036E-003;
2.413166666666667E+009;1.713337153196335E-001;-4.275176674127579E-002;2.957823220640421E-003;1.820595934987068E-003;
2.413333333333334E+009;1.717739850282669E-001;-4.447533562779427E-002;3.145131515339017E-003;1.682286150753498E-003;
2.413500000000000E+009;1.726160645484924E-001;-4.588529840111733E-002;2.995056798681617E-003;1.595568377524614E-003;
2.413666666666667E+009;1.732300370931625E-001;-4.721556231379509E-002;3.087608609348536E-003;1.491122529841960E-003;
2.413833333333334E+009;1.738042682409287E-001;-4.847839474678040E-002;3.181300126016140E-003;1.348733785562217E-003;
2.414000000000000E+009;1.743703633546829E-001;-4.965965077280998E-002;3.089186036959291E-003;1.328564016148448E-003;
2.414166666666667E+009;1.751471608877182E-001;-5.074615031480789E-002;3.136611776426435E-003;1.085494179278612E-003;
2.414333333333334E+009;1.756344139575958E-001;-5.184889212250710E-002;3.181890351697803E-003;1.112446421757340E-003;
2.414500000000000E+009;1.763227880001068E-001;-5.260644480586052E-002;3.131126053631306E-003;8.615180267952383E-004;
2.414666666666667E+009;1.767076104879379E-001;-5.349602550268173E-002;3.077997593209148E-003;7.668805192224681E-004;
2.414833333333334E+009;1.770583838224411E-001;-5.424067005515099E-002;3.052696585655212E-003;7.823896012268961E-004;
2.415000000000000E+009;1.774332374334335E-001;-5.493169650435448E-002;3.058135742321611E-003;6.833633524365723E-004;
2.415166666666667E+009;1.778686642646790E-001;-5.552032217383385E-002;3.091369522735477E-003;6.778427050448954E-004;
2.415333333333334E+009;1.782334297895432E-001;-5.600660666823387E-002;2.913333009928465E-003;5.423555267043412E-004;
2.415500000000000E+009;1.784658730030060E-001;-5.640520900487900E-002;2.967831911519170E-003;4.135532653890550E-004;
2.415666666666667E+009;1.784072667360306E-001;-5.687481164932251E-002;3.137417836114764E-003;4.231588973198086E-004;
2.415833333333334E+009;1.785522103309631E-001;-5.727263912558556E-002;2.861641813069582E-003;3.007810155395418E-004;
2.416000000000000E+009;1.783217340707779E-001;-5.750320106744766E-002;2.887507900595665E-003;2.661517646629363E-004;
2.416166666666667E+009;1.784692555665970E-001;-5.786386504769325E-002;2.937949029728770E-003;5.328683255356737E-005;
2.416333333333334E+009;1.781860888004303E-001;-5.798665434122086E-002;2.791003091260791E-003;5.062054697191343E-005;
2.416500000000000E+009;1.778711676597595E-001;-5.825334787368774E-002;2.906407229602337E-003;9.073534602066502E-005;
2.416666666666667E+009;1.774135977029800E-001;-5.835066735744476E-002;2.692840993404388E-003;-4.264066956238821E-005;
2.416833333333334E+009;1.771474629640579E-001;-5.871227756142616E-002;2.652545925229788E-003;-4.241452188580297E-005;
2.417000000000000E+009;1.763347685337067E-001;-5.888564512133598E-002;2.784593030810356E-003;-2.160243602702394E-004;
2.417166666666667E+009;1.757742017507553E-001;-5.898650735616684E-002;2.797182649374008E-003;-3.066109202336520E-004;
2.417333333333334E+009;1.749619245529175E-001;-5.922908708453178E-002;2.621950581669807E-003;-2.290633856318891E-004;
2.417500000000000E+009;1.741611212491989E-001;-5.971271172165871E-002;2.802854636684060E-003;-2.977704571094364E-004;
2.417666666666667E+009;1.732399463653565E-001;-5.976928770542145E-002;2.660749014467001E-003;-4.460719064809382E-004;
2.417833333333334E+009;1.722523421049118E-001;-6.019696965813637E-002;2.747543388977647E-003;-5.350845167413354E-004;
2.418000000000000E+009;1.711992621421814E-001;-6.063794717192650E-002;2.659492194652557E-003;-4.874272271990776E-004;
2.418166666666667E+009;1.700473278760910E-001;-6.102560460567474E-002;2.456170041114092E-003;-5.183222237974405E-004;
2.418333333333334E+009;1.692198812961578E-001;-6.156827881932259E-002;2.413942944258452E-003;-6.210386054590344E-004;
2.418500000000000E+009;1.679240912199020E-001;-6.210394576191902E-002;2.547466894611716E-003;-7.155126659199596E-004;
2.418666666666667E+009;1.668313592672348E-001;-6.266466528177261E-002;2.453205408528447E-003;-6.767290178686380E-004;
2.418833333333334E+009;1.654817014932632E-001;-6.351400166749954E-002;2.357906894758344E-003;-8.843927644193173E-004;
2.419000000000000E+009;1.641724407672882E-001;-6.425435841083527E-002;2.381767146289349E-003;-6.981930928304792E-004;
2.419166666666667E+009;1.629025191068649E-001;-6.514581292867661E-002;2.401899313554168E-003;-1.023349235765636E-003;
2.419333333333334E+009;1.615348756313324E-001;-6.584183871746063E-002;2.284271176904440E-003;-9.307921282015741E-004;
2.419500000000000E+009;1.604741960763931E-001;-6.710307300090790E-002;2.229497069492936E-003;-9.814020013436675E-004;
2.419666666666667E+009;1.593598127365112E-001;-6.823444366455078E-002;2.151078777387738E-003;-9.744713315740228E-004;
2.419833333333334E+009;1.580208092927933E-001;-6.917884200811386E-002;2.094116760417819E-003;-7.817586301825941E-004;
2.420000000000000E+009;1.571207791566849E-001;-7.052060961723328E-002;2.064776141196489E-003;-9.526279754936695E-004;
2.420166666666667E+009;1.559175103902817E-001;-7.172697037458420E-002;2.122838515788317E-003;-9.671648731455207E-004;
2.420333333333334E+009;1.550923436880112E-001;-7.315710932016373E-002;2.062749816104770E-003;-9.927842766046524E-004;
2.420500000000000E+009;1.540790200233460E-001;-7.441720366477966E-002;2.163918921723962E-003;-9.698072099126875E-004;
2.420666666666667E+009;1.531393229961395E-001;-7.590827345848084E-002;1.911703147925437E-003;-1.002775970846415E-003;
2.420833333333334E+009;1.523641347885132E-001;-7.743813097476959E-002;2.014709403738380E-003;-1.023648772388697E-003;
2.421000000000000E+009;1.517637372016907E-001;-7.912708818912506E-002;2.010642550885677E-003;-1.111496472731233E-003;
2.421166666666667E+009;1.511360555887222E-001;-8.061785250902176E-002;1.878373092040420E-003;-1.093954080715776E-003;
2.421333333333334E+009;1.507814228534699E-001;-8.230015635490418E-002;1.994982128962874E-003;-1.185703906230629E-003;
2.421500000000000E+009;1.501370072364807E-001;-8.406136929988861E-002;2.043711720034480E-003;-1.142296358011663E-003;
2.421666666666667E+009;1.498085856437683E-001;-8.575499802827835E-002;1.826526713557541E-003;-1.194130629301071E-003;
2.421833333333334E+009;1.497035473585129E-001;-8.748016506433487E-002;1.737736165523529E-003;-1.386947114951909E-003;
2.422000000000000E+009;1.493328362703323E-001;-8.901683241128922E-002;1.739810686558485E-003;-1.316012116149068E-003;
2.422166666666667E+009;1.493138223886490E-001;-9.083396196365356E-002;1.868706429377198E-003;-1.354374573566020E-003;
2.422333333333334E+009;1.492911428213120E-001;-9.248308837413788E-002;1.786581822670996E-003;-1.387731521390379E-003;
2.422500000000000E+009;1.493588238954544E-001;-9.398855268955231E-002;1.784316846169531E-003;-1.440098625607789E-003;
2.422666666666667E+009;1.495036184787750E-001;-9.575719386339188E-002;1.831987523473799E-003;-1.431275624781847E-003;
2.422833333333334E+009;1.497262120246887E-001;-9.740908443927765E-002;1.765397377312183E-003;-1.441108528524637E-003;
2.423000000000000E+009;1.500025242567062E-001;-9.885457903146744E-002;1.567672356031835E-003;-1.590082538314164E-003;
2.423166666666667E+009;1.505292952060700E-001;-1.004436910152435E-001;1.645478303544223E-003;-1.675185048952699E-003;
2.423333333333334E+009;1.509856879711151E-001;-1.017893478274345E-001;1.515220734290779E-003;-1.621484174393117E-003;
2.423500000000000E+009;1.513860970735550E-001;-1.032163128256798E-001;1.542906626127660E-003;-1.606803387403488E-003;
2.423666666666667E+009;1.515651345252991E-001;-1.046420782804489E-001;1.480101491324604E-003;-1.666370430029929E-003;
2.423833333333334E+009;1.521969139575958E-001;-1.060401350259781E-001;1.391011057421565E-003;-1.666064723394811E-003;
2.424000000000000E+009;1.526762247085571E-001;-1.070683971047401E-001;1.387021737173200E-003;-1.781721948646009E-003;
2.424166666666667E+009;1.531652659177780E-001;-1.082425266504288E-001;1.306000864133239E-003;-1.822565915063024E-003;
2.424333333333334E+009;1.538005918264389E-001;-1.092125102877617E-001;1.528897904790938E-003;-1.822179881855846E-003;
2.424500000000000E+009;1.543116122484207E-001;-1.102148517966270E-001;1.197573612444103E-003;-1.922603696584702E-003;
2.424666666666667E+009;1.549951881170273E-001;-1.111063584685326E-001;1.225809217430651E-003;-1.870106905698776E-003;
2.424833333333334E+009;1.552391499280930E-001;-1.118796169757843E-001;1.107320887967944E-003;-1.767465029843152E-003;
2.425000000000000E+009;1.558321863412857E-001;-1.126509234309197E-001;1.198828918859363E-003;-1.930647878907621E-003;
2.425166666666667E+009;1.559744477272034E-001;-1.132929325103760E-001;1.095758518204093E-003;-1.836652401834726E-003;
2.425333333333334E+009;1.564495712518692E-001;-1.139558404684067E-001;1.017075614072383E-003;-1.939803943969309E-003;
2.425500000000000E+009;1.568398177623749E-001;-1.144431382417679E-001;9.688459103927016E-004;-1.877991249784827E-003;
2.425666666666667E+009;1.568912714719772E-001;-1.149358376860619E-001;9.212364675477147E-004;-1.852241344749928E-003;
2.425833333333334E+009;1.571000367403030E-001;-1.153766959905624E-001;8.432667236775160E-004;-1.888521015644074E-003;
2.426000000000000E+009;1.572441607713699E-001;-1.158170029520989E-001;7.962373783811927E-004;-1.797291100956500E-003;
2.426166666666667E+009;1.573376059532166E-001;-1.161637157201767E-001;7.379004382528365E-004;-1.935612526722252E-003;
2.426333333333334E+009;1.571348458528519E-001;-1.163408309221268E-001;6.783867138437927E-004;-1.799364690668881E-003;
2.426500000000000E+009;1.570760011672974E-001;-1.164691448211670E-001;5.263311322778463E-004;-1.797215314581990E-003;
2.426666666666667E+009;1.569781899452210E-001;-1.164520829916000E-001;6.161635974422097E-004;-1.844449318014085E-003;
2.426833333333334E+009;1.564477980136871E-001;-1.167537346482277E-001;5.544238956645131E-004;-1.918160472996533E-003;
2.427000000000000E+009;1.561181694269180E-001;-1.169958636164665E-001;4.651657363865525E-004;-1.774353790096939E-003;
2.427166666666667E+009;1.555309146642685E-001;-1.169407814741135E-001;5.299827316775918E-004;-1.781461760401726E-003;
2.427333333333334E+009;1.547794938087463E-001;-1.171201020479202E-001;3.417581901885569E-004;-1.893081353046000E-003;
2.427500000000000E+009;1.542228311300278E-001;-1.173190623521805E-001;4.244650772307068E-004;-2.000627107918263E-003;
2.427666666666667E+009;1.532717496156693E-001;-1.174999698996544E-001;6.142465281300247E-004;-1.848007086664438E-003;
2.427833333333334E+009;1.521974503993988E-001;-1.175862774252892E-001;5.018112133257091E-004;-1.816889736801386E-003;
