# Version 1.00
#
freq[Hz];re:Trc1_S11;im:Trc1_S11;re:Trc2_S21;im:Trc2_S21;
2.400000000000000E+009;1.562978923320770E-001;6.229527294635773E-002;-2.912298776209354E-003;5.020019016228616E-004;
2.400166666666667E+009;1.563505083322525E-001;6.065994501113892E-002;-2.855715109035373E-003;6.384639418683946E-004;
2.400333333333334E+009;1.561429202556610E-001;5.844677612185478E-002;-2.901957370340824E-003;8.442934486083686E-004;
2.400500000000000E+009;1.563475728034973E-001;5.658588558435440E-002;-2.759588649496436E-003;9.909189539030194E-004;
2.400666666666667E+009;1.563195735216141E-001;5.422512441873550E-002;-2.729183295741677E-003;8.918782696127892E-004;
2.400833333333334E+009;1.567427664995194E-001;5.224623158574104E-002;-2.866906812414527E-003;1.141415908932686E-003;
2.401000000000000E+009;1.568857133388519E-001;5.002887919545174E-002;-2.609397051855922E-003;1.284175436012447E-003;
2.401166666666667E+009;1.572257876396179E-001;4.789310321211815E-002;-2.432890469208360E-003;1.329654827713966E-003;
2.401333333333334E+009;1.572617739439011E-001;4.576720669865608E-002;-2.289000898599625E-003;1.356557942926884E-003;
2.401500000000000E+009;1.581812500953674E-001;4.366482421755791E-002;-2.237276872619987E-003;1.391638070344925E-003;
2.401666666666667E+009;1.584910899400711E-001;4.155091568827629E-002;-2.063493942841888E-003;1.482052961364389E-003;
2.401833333333334E+009;1.590773165225983E-001;3.928849101066589E-002;-1.797022763639689E-003;1.632825471460819E-003;
2.402000000000000E+009;1.594249010086060E-001;3.737821802496910E-002;-1.748814829625189E-003;1.638885820284486E-003;
2.402166666666667E+009;1.602198779582977E-001;3.547025844454765E-002;-1.635567867197096E-003;1.611001091077924E-003;
2.402333333333334E+009;1.609031558036804E-001;3.351815417408943E-002;-1.478466205298901E-003;1.532857888378203E-003;
2.402500000000000E+009;1.619631499052048E-001;3.177813440561295E-002;-1.367140095680952E-003;1.704059424810112E-003;
2.402666666666667E+009;1.628237366676331E-001;3.003951162099838E-002;-1.160662737675011E-003;1.635690219700337E-003;
2.402833333333334E+009;1.635390669107437E-001;2.814623340964317E-002;-1.000820426270366E-003;1.533935894258320E-003;
2.403000000000000E+009;1.645963788032532E-001;2.667811512947083E-002;-8.601750014349818E-004;1.507715322077274E-003;
2.403166666666667E+009;1.658681780099869E-001;2.527258358895779E-002;-7.428426179103553E-004;1.378259388729930E-003;
2.403333333333334E+009;1.666967570781708E-001;2.383640781044960E-002;-7.089001592248678E-004;1.364418654702604E-003;
2.403500000000000E+009;1.677216142416000E-001;2.243977040052414E-002;-4.941415390931070E-004;1.321018557064235E-003;
2.403666666666667E+009;1.688036322593689E-001;2.101605944335461E-002;-6.312784389592707E-004;1.014958834275603E-003;
2.403833333333334E+009;1.697959601879120E-001;2.002107910811901E-002;-2.593395183794200E-004;1.014859415590763E-003;
2.404000000000000E+009;1.706831902265549E-001;1.898282021284103E-002;-3.131800040137023E-004;9.758055093698204E-004;
2.404166666666667E+009;1.718284487724304E-001;1.775715127587318E-002;-3.342402342241257E-004;8.678464218974114E-004;
2.404333333333334E+009;1.728352606296539E-001;1.717198826372623E-002;-2.586701593827456E-004;7.390521350316703E-004;
2.404500000000000E+009;1.736705750226975E-001;1.613641902804375E-002;-3.517892619129270E-004;5.466092261485755E-004;
2.404666666666667E+009;1.748013496398926E-001;1.554046478122473E-002;-3.087544464506209E-004;5.297556053847075E-004;
2.404833333333334E+009;1.756576895713806E-001;1.481360010802746E-002;-3.522100450936705E-004;3.660747024696320E-004;
2.405000000000000E+009;1.765060275793076E-001;1.417758781462908E-002;-2.480308176018298E-004;2.176568232243881E-004;
2.405166666666667E+009;1.773851215839386E-001;1.375830359756947E-002;-3.331615880597383E-004;2.204090269515291E-004;
2.405333333333334E+009;1.781393140554428E-001;1.321718003600836E-002;-2.977378899231553E-004;1.355299464194104E-004;
2.405500000000000E+009;1.788167059421539E-001;1.292691286653280E-002;-2.317655453225598E-004;7.674816151848063E-005;
2.405666666666667E+009;1.793081462383270E-001;1.269466895610094E-002;-2.706991799641401E-004;1.849619729910046E-005;
2.405833333333334E+009;1.797665506601334E-001;1.240271329879761E-002;-3.158304898533970E-004;-2.113685040967539E-004;
2.406000000000000E+009;1.804037541151047E-001;1.199708040803671E-002;-5.832162569276989E-004;-2.448377490509301E-004;
2.406166666666667E+009;1.805679202079773E-001;1.202893815934658E-002;-5.391876329667866E-004;-2.742572396527976E-004;
2.406333333333334E+009;1.809882521629334E-001;1.172430533915758E-002;-6.686906563118100E-004;-2.454255009070039E-004;
2.406500000000000E+009;1.811279654502869E-001;1.147746853530407E-002;-7.064387318678200E-004;-3.875594993587583E-004;
2.406666666666667E+009;1.809755861759186E-001;1.131286099553108E-002;-7.444228976964951E-004;-5.772660369984806E-004;
2.406833333333334E+009;1.811141967773438E-001;1.093986630439758E-002;-7.555753109045327E-004;-4.842889029532671E-004;
2.407000000000000E+009;1.810328066349030E-001;1.079019159078598E-002;-1.051272614859045E-003;-4.365484637673944E-004;
2.407166666666667E+009;1.810712218284607E-001;1.056506205350161E-002;-9.427536861039698E-004;-4.651686176657677E-004;
2.407333333333334E+009;1.806498318910599E-001;1.005421299487352E-002;-1.146674971096218E-003;-6.274403422139585E-004;
2.407500000000000E+009;1.803370714187622E-001;9.719430468976498E-003;-1.339875627309084E-003;-4.892035503871739E-004;
2.407666666666667E+009;1.800698190927506E-001;9.417636319994927E-003;-1.375731662847102E-003;-6.048628129065037E-004;
2.407833333333334E+009;1.794545054435730E-001;8.529434911906719E-003;-1.469119568355382E-003;-5.791373550891876E-004;
2.408000000000000E+009;1.789557784795761E-001;8.082749322056770E-003;-1.460206345655024E-003;-4.000686167273670E-004;
2.408166666666667E+009;1.783178597688675E-001;7.464953698217869E-003;-1.808085595257580E-003;-5.190306110307574E-004;
2.408333333333334E+009;1.777815222740173E-001;6.538925692439079E-003;-1.695035025477409E-003;-5.944973672740161E-004;
2.408500000000000E+009;1.770416200160980E-001;5.706594791263342E-003;-1.627386431209743E-003;-4.923409433104098E-004;
2.408666666666667E+009;1.764497905969620E-001;4.713657312095165E-003;-1.934349536895752E-003;-4.886479000560939E-004;
2.408833333333334E+009;1.754927188158035E-001;3.606002544984222E-003;-1.975806895643473E-003;-2.593740064185113E-004;
2.409000000000000E+009;1.748283058404923E-001;2.512574195861816E-003;-2.189286518841982E-003;-3.935991553589702E-004;
2.409166666666667E+009;1.740127652883530E-001;1.209899084642530E-003;-1.921277842484415E-003;-2.084503648802638E-004;
2.409333333333334E+009;1.732451468706131E-001;-1.778477744664997E-004;-2.120374701917172E-003;-1.719600986689329E-004;
2.409500000000000E+009;1.723918765783310E-001;-1.604627934284508E-003;-2.211998915299773E-003;-5.950479317107238E-005;
2.409666666666667E+009;1.716312766075134E-001;-3.051880747079849E-003;-2.260940615087748E-003;-2.936801138275769E-005;
2.409833333333334E+009;1.709030717611313E-001;-4.573079757392407E-003;-2.288962714374065E-003;-5.540978236240335E-005;
2.410000000000000E+009;1.704505980014801E-001;-6.153600756078959E-003;-2.385776489973068E-003;5.028845043852925E-005;
2.410166666666667E+009;1.697190850973129E-001;-8.017771877348423E-003;-2.544115995988250E-003;3.492868199828081E-005;
2.410333333333334E+009;1.691792607307434E-001;-9.729070588946343E-003;-2.688786946237087E-003;2.746250538621098E-004;
2.410500000000000E+009;1.684950441122055E-001;-1.166546251624823E-002;-2.641930012032390E-003;4.451205313671380E-004;
2.410666666666667E+009;1.679704189300537E-001;-1.351138483732939E-002;-2.666186075657606E-003;5.064700380899012E-004;
2.410833333333334E+009;1.677687168121338E-001;-1.549825910478830E-002;-2.738508395850658E-003;4.726664919871837E-004;
2.411000000000000E+009;1.673420667648315E-001;-1.743308641016483E-002;-2.722850069403648E-003;7.070926367305219E-004;
2.411166666666667E+009;1.670704185962677E-001;-1.937531679868698E-002;-2.949896268546581E-003;8.273790590465069E-004;
2.411333333333334E+009;1.669518500566483E-001;-2.147558331489563E-002;-2.834070241078734E-003;8.328053518198431E-004;
2.411500000000000E+009;1.668181866407394E-001;-2.374823950231075E-002;-2.956460928544402E-003;1.097986823879182E-003;
2.411666666666667E+009;1.670200973749161E-001;-2.557912655174732E-002;-2.872337121516466E-003;1.219959114678204E-003;
2.411833333333334E+009;1.670194268226624E-001;-2.767093665897846E-002;-3.052671672776341E-003;1.438332605175674E-003;
2.412000000000000E+009;1.672872751951218E-001;-2.955092117190361E-002;-2.964938990771771E-003;1.485622138716281E-003;
2.412166666666667E+009;1.675262153148651E-001;-3.172038868069649E-002;-2.794886706396937E-003;1.649396610446274E-003;
2.412333333333334E+009;1.680784076452255E-001;-3.355676308274269E-002;-3.008337458595634E-003;1.840208191424608E-003;
2.412500000000000E+009;1.679518669843674E-001;-3.536797314882278E-002;-2.902297303080559E-003;1.898806891404092E-003;
2.412666666666667E+009;1.686073094606400E-001;-3.758336231112480E-002;-2.729070838540793E-003;2.070306567475200E-003;
2.412833333333334E+009;1.690916270017624E-001;-3.938027471303940E-002;-2.961388556286693E-003;2.215470653027296E-003;
2.413000000000000E+009;1.697822064161301E-001;-4.119714722037315E-002;-2.734865527600050E-003;2.532443031668663E-003;
2.413166666666667E+009;1.701434105634689E-001;-4.299992322921753E-002;-2.643370535224676E-003;2.630236092954874E-003;
2.413333333333334E+009;1.708755195140839E-001;-4.455906897783279E-002;-2.542658941820264E-003;2.987217856571078E-003;
2.413500000000000E+009;1.713797897100449E-001;-4.602617770433426E-002;-2.411470049992204E-003;2.958014141768217E-003;
2.413666666666667E+009;1.720492094755173E-001;-4.764493927359581E-002;-2.423241734504700E-003;3.132430603727698E-003;
2.413833333333334E+009;1.727541685104370E-001;-4.897986724972725E-002;-2.242015907540917E-003;3.371141618117690E-003;
2.414000000000000E+009;1.733553260564804E-001;-5.028427764773369E-002;-1.882110023871064E-003;3.281472949311137E-003;
2.414166666666667E+009;1.740691512823105E-001;-5.136735737323761E-002;-1.890522544272244E-003;3.606241196393967E-003;
2.414333333333334E+009;1.747172772884369E-001;-5.268923193216324E-002;-1.844805083237588E-003;3.445703070610762E-003;
2.414500000000000E+009;1.754144728183746E-001;-5.367947369813919E-002;-1.690930803306401E-003;3.780039492994547E-003;
2.414666666666667E+009;1.759432852268219E-001;-5.454038083553314E-002;-1.431505661457777E-003;3.638616995885968E-003;
2.414833333333334E+009;1.765590459108353E-001;-5.544833093881607E-002;-1.159168896265328E-003;3.968421369791031E-003;
2.415000000000000E+009;1.769294440746307E-001;-5.611358582973480E-002;-1.054668915458024E-003;3.887450555339456E-003;
2.415166666666667E+009;1.774057745933533E-001;-5.676830932497978E-002;-8.958595572039485E-004;4.014559090137482E-003;
2.415333333333334E+009;1.778256297111511E-001;-5.734619870781899E-002;-7.019586628302932E-004;3.995385486632586E-003;
2.415500000000000E+009;1.782910525798798E-001;-5.770972743630409E-002;-4.534602630883455E-004;4.014261998236179E-003;
2.415666666666667E+009;1.785538941621780E-001;-5.816512927412987E-002;-3.635348402895033E-004;4.012153018265963E-003;
2.415833333333334E+009;1.786959469318390E-001;-5.847411975264549E-002;1.076989792636596E-005;3.988998476415873E-003;
2.416000000000000E+009;1.785948425531387E-001;-5.890262126922607E-002;-4.816201453650137E-006;4.042175132781267E-003;
2.416166666666667E+009;1.787512004375458E-001;-5.907912924885750E-002;1.852809655247256E-004;3.954048268496990E-003;
2.416333333333334E+009;1.787118613719940E-001;-5.918223038315773E-002;4.490898863878101E-004;3.815297735854983E-003;
2.416500000000000E+009;1.784853041172028E-001;-5.937925726175308E-002;4.982670652680099E-004;3.822522703558207E-003;
2.416666666666667E+009;1.781918853521347E-001;-5.941554531455040E-002;6.389896152541041E-004;3.729214193299413E-003;
2.416833333333334E+009;1.777752637863159E-001;-5.972542613744736E-002;7.761622546240687E-004;3.744231304153800E-003;
2.417000000000000E+009;1.772494018077850E-001;-5.990030616521835E-002;7.554283365607262E-004;3.691917518153787E-003;
2.417166666666667E+009;1.766809672117233E-001;-5.986626446247101E-002;9.899260476231575E-004;3.544910810887814E-003;
2.417333333333334E+009;1.761334091424942E-001;-5.996600911021233E-002;1.217407756485045E-003;3.449517535045743E-003;
2.417500000000000E+009;1.753131300210953E-001;-6.023835018277168E-002;1.361166476272047E-003;3.327817190438509E-003;
2.417666666666667E+009;1.746376752853394E-001;-6.021034717559815E-002;1.346454955637455E-003;3.291735425591469E-003;
2.417833333333334E+009;1.736492961645126E-001;-6.046213582158089E-002;1.326042460277677E-003;3.361525712534785E-003;
2.418000000000000E+009;1.725807636976242E-001;-6.081787496805191E-002;1.450118608772755E-003;3.350280225276947E-003;
2.418166666666667E+009;1.715601384639740E-001;-6.107475236058235E-002;1.631636172533035E-003;3.037652000784874E-003;
2.418333333333334E+009;1.706254333257675E-001;-6.144487112760544E-002;1.727081951685250E-003;3.024901030585170E-003;
2.418500000000000E+009;1.692669987678528E-001;-6.182885915040970E-002;1.686969422735274E-003;2.800078364089131E-003;
2.418666666666667E+009;1.681799441576004E-001;-6.249909102916718E-002;1.686698291450739E-003;2.735733520239592E-003;
2.418833333333334E+009;1.667626798152924E-001;-6.315328925848007E-002;1.890457700937986E-003;2.792872721329331E-003;
2.419000000000000E+009;1.654985696077347E-001;-6.368228048086166E-002;1.977926818653941E-003;2.627968788146973E-003;
2.419166666666667E+009;1.642098128795624E-001;-6.442180275917053E-002;2.000551903620362E-003;2.553533762693405E-003;
2.419333333333334E+009;1.628934890031815E-001;-6.506220251321793E-002;2.088251989334822E-003;2.443671459332109E-003;
2.419500000000000E+009;1.615643650293350E-001;-6.609248369932175E-002;2.022695494815707E-003;2.510028192773461E-003;
2.419666666666667E+009;1.603589951992035E-001;-6.720803678035736E-002;2.079619094729424E-003;2.345192478969693E-003;
2.419833333333334E+009;1.590544879436493E-001;-6.805220246315002E-002;2.086903201416135E-003;2.110695932060480E-003;
2.420000000000000E+009;1.578820198774338E-001;-6.931477040052414E-002;2.211870392784476E-003;2.159524708986282E-003;
2.420166666666667E+009;1.566692888736725E-001;-7.058884203433991E-002;2.287191106006503E-003;2.162077696993947E-003;
2.420333333333334E+009;1.556673794984818E-001;-7.184123992919922E-002;2.383699174970388E-003;1.905479817651212E-003;
2.420500000000000E+009;1.546902060508728E-001;-7.316057384014130E-002;2.259420929476619E-003;1.950855366885662E-003;
2.420666666666667E+009;1.536707729101181E-001;-7.445621490478516E-002;2.375100040808320E-003;1.817243173718453E-003;
2.420833333333334E+009;1.529089659452438E-001;-7.605697959661484E-002;2.271695295348764E-003;1.751985168084502E-003;
2.421000000000000E+009;1.519509553909302E-001;-7.777374982833862E-002;2.419992350041866E-003;1.612085383385420E-003;
2.421166666666667E+009;1.512992829084396E-001;-7.933777570724487E-002;2.417618641629815E-003;1.515518291853368E-003;
2.421333333333334E+009;1.506357640028000E-001;-8.097283542156220E-002;2.409576904028654E-003;1.402685069479048E-003;
2.421500000000000E+009;1.500366926193237E-001;-8.270202577114105E-002;2.366870176047087E-003;1.532213645987213E-003;
2.421666666666667E+009;1.496146172285080E-001;-8.452328294515610E-002;2.247658325359225E-003;1.230271765962243E-003;
2.421833333333334E+009;1.492999941110611E-001;-8.621040731668472E-002;2.414019079878926E-003;1.280588447116315E-003;
2.422000000000000E+009;1.488068252801895E-001;-8.795640617609024E-002;2.359241014346480E-003;1.130877062678337E-003;
2.422166666666667E+009;1.486589163541794E-001;-8.987559378147125E-002;2.313488628715277E-003;1.185959787108004E-003;
2.422333333333334E+009;1.486614495515823E-001;-9.159200638532639E-002;2.439045580103993E-003;1.132159493863583E-003;
2.422500000000000E+009;1.486703306436539E-001;-9.327910095453262E-002;2.252604113891721E-003;1.122868154197931E-003;
2.422666666666667E+009;1.487173140048981E-001;-9.516391158103943E-002;2.305097412317991E-003;1.056871959008277E-003;
2.422833333333334E+009;1.489020735025406E-001;-9.701113402843475E-002;2.279145643115044E-003;9.489235235378146E-004;
2.423000000000000E+009;1.491425931453705E-001;-9.857522696256638E-002;2.305970061570406E-003;9.339436655864120E-004;
2.423166666666667E+009;1.492832899093628E-001;-1.003796383738518E-001;2.315271645784378E-003;8.467743755318224E-004;
2.423333333333334E+009;1.498786211013794E-001;-1.017882600426674E-001;2.390944864600897E-003;9.024169994518161E-004;
2.423500000000000E+009;1.501206159591675E-001;-1.033718362450600E-001;2.121913246810436E-003;7.555454503744841E-004;
2.423666666666667E+009;1.506167203187943E-001;-1.047927364706993E-001;2.261763671413064E-003;8.159112767316401E-004;
2.423833333333334E+009;1.512619554996491E-001;-1.063263490796089E-001;2.133069792762399E-003;7.474080775864422E-004;
2.424000000000000E+009;1.517458558082581E-001;-1.075195297598839E-001;2.237556036561728E-003;7.908452535048127E-004;
2.424166666666667E+009;1.522060334682465E-001;-1.087774187326431E-001;2.208334160968661E-003;6.994934519752860E-004;
2.424333333333334E+009;1.529235839843750E-001;-1.099750846624374E-001;2.376171527430415E-003;6.103921332396567E-004;
2.424500000000000E+009;1.533606946468353E-001;-1.110113263130188E-001;2.183242002502084E-003;5.174721591174603E-004;
2.424666666666667E+009;1.540660411119461E-001;-1.119215339422226E-001;2.260978100821376E-003;5.148008931428194E-004;
2.424833333333334E+009;1.544755548238754E-001;-1.128511875867844E-001;2.161218319088221E-003;4.882984212599695E-004;
2.425000000000000E+009;1.549543291330338E-001;-1.138049438595772E-001;2.258300082758069E-003;4.445800150278956E-004;
2.425166666666667E+009;1.553411185741425E-001;-1.144941747188568E-001;2.254488179460168E-003;4.147015861235559E-004;
2.425333333333334E+009;1.559559702873230E-001;-1.150482073426247E-001;2.128307474777103E-003;3.683124377857894E-004;
2.425500000000000E+009;1.563736647367477E-001;-1.157011911273003E-001;2.220997819676995E-003;1.663467701291665E-004;
2.425666666666667E+009;1.565520614385605E-001;-1.162281557917595E-001;2.216395922005177E-003;2.515386149752885E-004;
2.425833333333334E+009;1.568542867898941E-001;-1.166105791926384E-001;2.297091064974666E-003;1.203205392812379E-004;
2.426000000000000E+009;1.570579856634140E-001;-1.169723942875862E-001;2.130728447809815E-003;4.557537249638699E-005;
2.426166666666667E+009;1.573809087276459E-001;-1.172706335783005E-001;2.147873630747199E-003;1.047021651174873E-004;
2.426333333333334E+009;1.573645919561386E-001;-1.174503490328789E-001;2.127586165443063E-003;-7.401713810395449E-005;
2.426500000000000E+009;1.572986096143723E-001;-1.176400855183601E-001;2.223289338871837E-003;1.392182748531923E-004;
2.426666666666667E+009;1.572487056255341E-001;-1.176254749298096E-001;2.088361652567983E-003;5.060648982180283E-005;
2.426833333333334E+009;1.568901538848877E-001;-1.177892237901688E-001;2.061665523797274E-003;-7.242079300340265E-005;
2.427000000000000E+009;1.566140800714493E-001;-1.179061457514763E-001;2.144596539437771E-003;-1.298283459618688E-004;
2.427166666666667E+009;1.560039669275284E-001;-1.178818270564079E-001;2.084343926981092E-003;-1.144432171713561E-004;
2.427333333333334E+009;1.554996073246002E-001;-1.179548650979996E-001;2.112559042870998E-003;-1.230651250807568E-004;
2.427500000000000E+009;1.550410389900208E-001;-1.179438233375549E-001;1.979598775506020E-003;-1.455481396988034E-004;
2.427666666666667E+009;1.541716903448105E-001;-1.180519461631775E-001;1.963291084393859E-003;-1.638327667023987E-004;
2.427833333333334E+009;1.532245427370071E-001;-1.181612685322762E-001;1.837154384702444E-003;-1.067342745955102E-004;
