# Version 1.00
#
freq[Hz];re:Trc1_S11;im:Trc1_S11;re:Trc2_S21;im:Trc2_S21;
2.400000000000000E+009;1.563727855682373E-001;6.244236230850220E-002;-2.967074979096651E-003;7.024328224360943E-004;
2.400166666666667E+009;1.562883257865906E-001;6.064197793602943E-002;-2.921004081144929E-003;5.510809714905918E-004;
2.400333333333334E+009;1.562565267086029E-001;5.853850767016411E-002;-2.997956471517682E-003;7.644512224942446E-004;
2.400500000000000E+009;1.564207673072815E-001;5.650005862116814E-002;-3.046460216864944E-003;8.348792325705290E-004;
2.400666666666667E+009;1.563264280557632E-001;5.434177815914154E-002;-2.588301198557019E-003;8.412923780269921E-004;
2.400833333333334E+009;1.566618680953980E-001;5.231440439820290E-002;-2.683697966858745E-003;9.934620466083288E-004;
2.401000000000000E+009;1.569417417049408E-001;5.005750805139542E-002;-2.677383134141564E-003;1.267479616217315E-003;
2.401166666666667E+009;1.570865660905838E-001;4.781777411699295E-002;-2.420031465590000E-003;1.344231888651848E-003;
2.401333333333334E+009;1.574796289205551E-001;4.574173688888550E-002;-2.266492694616318E-003;1.236733165569603E-003;
2.401500000000000E+009;1.581763029098511E-001;4.350429400801659E-002;-2.239900873973966E-003;1.600587507709861E-003;
2.401666666666667E+009;1.586060971021652E-001;4.147297143936157E-002;-2.128995023667812E-003;1.508634653873742E-003;
2.401833333333334E+009;1.591664552688599E-001;3.940154239535332E-002;-1.917666639201343E-003;1.465440611355007E-003;
2.402000000000000E+009;1.594241559505463E-001;3.729595616459847E-002;-1.807082677260041E-003;1.589774154126644E-003;
2.402166666666667E+009;1.604152619838715E-001;3.531054407358170E-002;-1.645866199396551E-003;1.584579818882048E-003;
2.402333333333334E+009;1.611206680536270E-001;3.337806835770607E-002;-1.462218468077481E-003;1.809661276638508E-003;
2.402500000000000E+009;1.619283705949783E-001;3.167454153299332E-002;-1.441649743355811E-003;1.538762007839978E-003;
2.402666666666667E+009;1.627848893404007E-001;2.985101565718651E-002;-1.208100002259016E-003;1.610921462997794E-003;
2.402833333333334E+009;1.635692268610001E-001;2.818965539336205E-002;-8.734258590266109E-004;1.502213301137090E-003;
2.403000000000000E+009;1.646753549575806E-001;2.656216546893120E-002;-9.513265104033053E-004;1.331390696577728E-003;
2.403166666666667E+009;1.656701266765595E-001;2.518603578209877E-002;-7.310009677894414E-004;1.348176621831954E-003;
2.403333333333334E+009;1.667758822441101E-001;2.377688325941563E-002;-5.729809054173529E-004;1.203412306495011E-003;
2.403500000000000E+009;1.675168573856354E-001;2.239496074616909E-002;-3.791683120653033E-004;1.230935798957944E-003;
2.403666666666667E+009;1.687661111354828E-001;2.105153352022171E-002;-4.835569416172802E-004;1.157746533863246E-003;
2.403833333333334E+009;1.699221134185791E-001;1.991505734622479E-002;-5.463395500555635E-004;9.456082480028272E-004;
2.404000000000000E+009;1.708719730377197E-001;1.880849897861481E-002;-2.964986488223076E-004;9.893293026834726E-004;
2.404166666666667E+009;1.717154085636139E-001;1.778386533260346E-002;-2.803199749905616E-004;6.571898702532053E-004;
2.404333333333334E+009;1.727933287620544E-001;1.704777590930462E-002;-3.324647550471127E-004;7.878505857661367E-004;
2.404500000000000E+009;1.736928522586823E-001;1.604567095637322E-002;-2.634275588206947E-004;5.696601583622396E-004;
2.404666666666667E+009;1.748005300760269E-001;1.533816568553448E-002;-2.170246007153764E-004;4.281288420315832E-004;
2.404833333333334E+009;1.755543649196625E-001;1.477148663252592E-002;-1.923903473652899E-004;5.100587150081992E-004;
2.405000000000000E+009;1.766127645969391E-001;1.425227429717779E-002;-4.873626457992941E-004;3.713972982950509E-004;
2.405166666666667E+009;1.773107349872589E-001;1.376645732671022E-002;-2.864628913812339E-004;4.058390913996846E-005;
2.405333333333334E+009;1.780931949615479E-001;1.332955807447434E-002;-4.083789244759828E-004;1.742867898428813E-004;
2.405500000000000E+009;1.788033396005631E-001;1.296661235392094E-002;-4.719624994322658E-004;-5.943153155385517E-005;
2.405666666666667E+009;1.793275922536850E-001;1.263970509171486E-002;-4.805939679499716E-004;4.085148975718767E-005;
2.405833333333334E+009;1.797892898321152E-001;1.251996587961912E-002;-4.461453063413501E-004;-2.743344521149993E-004;
2.406000000000000E+009;1.802292913198471E-001;1.206732448190451E-002;-5.035504582338035E-004;-9.375467925565317E-005;
2.406166666666667E+009;1.803890317678452E-001;1.199351716786623E-002;-5.683407071046531E-004;-2.044718421529979E-004;
2.406333333333334E+009;1.809587776660919E-001;1.183444727212191E-002;-6.104030180722475E-004;-3.043965261895210E-004;
2.406500000000000E+009;1.811226904392242E-001;1.158422790467739E-002;-7.480199565179646E-004;-3.961801703553647E-004;
2.406666666666667E+009;1.809787005186081E-001;1.118679437786341E-002;-6.676529883407056E-004;-4.191164043731988E-004;
2.406833333333334E+009;1.811646521091461E-001;1.100569497793913E-002;-8.442309335805476E-004;-3.976770094595850E-004;
2.407000000000000E+009;1.810825020074844E-001;1.071296352893114E-002;-8.640384185127914E-004;-5.291971610859036E-004;
2.407166666666667E+009;1.811427175998688E-001;1.057402230799198E-002;-1.075273961760104E-003;-5.956483073532581E-004;
2.407333333333334E+009;1.806653589010239E-001;1.010908093303442E-002;-1.132045872509480E-003;-6.143883801996708E-004;
2.407500000000000E+009;1.804070323705673E-001;9.662213735282421E-003;-1.187685877084732E-003;-4.978703800588846E-004;
2.407666666666667E+009;1.800980567932129E-001;9.341496974229813E-003;-1.387912081554532E-003;-5.531348288059235E-004;
2.407833333333334E+009;1.794266998767853E-001;8.743723854422569E-003;-1.327723963186145E-003;-4.493935557547957E-004;
2.408000000000000E+009;1.789364367723465E-001;7.947384379804134E-003;-1.587635255418718E-003;-5.608740029856563E-004;
2.408166666666667E+009;1.783284246921539E-001;7.491478696465492E-003;-1.542425830848515E-003;-5.015655769966543E-004;
2.408333333333334E+009;1.779205501079559E-001;6.659593433141708E-003;-1.681251567788422E-003;-4.245110030751675E-004;
2.408500000000000E+009;1.770714074373245E-001;5.735452752560377E-003;-1.616196357645094E-003;-5.614066612906754E-004;
2.408666666666667E+009;1.764288842678070E-001;4.797857720404863E-003;-1.795816700905561E-003;-4.096449411008507E-004;
2.408833333333334E+009;1.754894405603409E-001;3.549349959939718E-003;-1.885164063423872E-003;-3.595575399231166E-004;
2.409000000000000E+009;1.748223900794983E-001;2.517433604225516E-003;-1.767476322129369E-003;-1.964375551324338E-004;
2.409166666666667E+009;1.741418838500977E-001;1.326741650700569E-003;-2.193577121943235E-003;-1.936765183927491E-004;
2.409333333333334E+009;1.734149307012558E-001;-5.215927376411855E-005;-2.101815771311522E-003;-1.806340151233599E-004;
2.409500000000000E+009;1.724775731563568E-001;-1.684571383520961E-003;-2.231014193966985E-003;-7.770220690872520E-005;
2.409666666666667E+009;1.716731339693070E-001;-3.043431788682938E-003;-2.214093925431371E-003;-2.087937173200771E-005;
2.409833333333334E+009;1.708270758390427E-001;-4.659212194383144E-003;-2.318192040547729E-003;8.176858682418242E-005;
2.410000000000000E+009;1.703847646713257E-001;-6.410394329577684E-003;-2.567285904660821E-003;1.366327487630770E-004;
2.410166666666667E+009;1.697038263082504E-001;-8.040885441005230E-003;-2.458563540130854E-003;1.153757621068507E-004;
2.410333333333334E+009;1.690164506435394E-001;-9.792095050215721E-003;-2.501900075003505E-003;3.318131202831864E-004;
2.410500000000000E+009;1.683705151081085E-001;-1.171601843088865E-002;-2.400017576292157E-003;2.887428272515535E-004;
2.410666666666667E+009;1.680282503366470E-001;-1.368056796491146E-002;-2.553899306803942E-003;3.045489429496229E-004;
2.410833333333334E+009;1.676876991987228E-001;-1.554395537823439E-002;-2.640954917296767E-003;5.734254955314100E-004;
2.411000000000000E+009;1.674356758594513E-001;-1.743987016379833E-002;-2.808246295899153E-003;6.477178540080786E-004;
2.411166666666667E+009;1.671054512262344E-001;-1.949478872120380E-002;-2.885255729779601E-003;7.896161405369639E-004;
2.411333333333334E+009;1.669862866401672E-001;-2.142138779163361E-002;-2.759986091405153E-003;8.053309866227210E-004;
2.411500000000000E+009;1.667851209640503E-001;-2.359077520668507E-002;-2.962667262181640E-003;1.060299226082861E-003;
2.411666666666667E+009;1.670069545507431E-001;-2.577210776507855E-002;-2.901913132518530E-003;1.183889224193990E-003;
2.411833333333334E+009;1.668387651443481E-001;-2.755321376025677E-002;-2.944392152130604E-003;1.397660351358354E-003;
2.412000000000000E+009;1.671628803014755E-001;-2.973199076950550E-002;-2.946427091956139E-003;1.538468175567687E-003;
2.412166666666667E+009;1.673393994569778E-001;-3.166445344686508E-002;-2.949897898361087E-003;1.584508223459125E-003;
2.412333333333334E+009;1.677702665328980E-001;-3.359145671129227E-002;-2.896069781854749E-003;1.751260831952095E-003;
2.412500000000000E+009;1.680831015110016E-001;-3.544300422072411E-002;-2.928285859525204E-003;1.959030749276280E-003;
2.412666666666667E+009;1.684753447771072E-001;-3.759793192148209E-002;-2.756877569481731E-003;2.218039473518729E-003;
2.412833333333334E+009;1.690468639135361E-001;-3.934566304087639E-002;-3.008324652910233E-003;2.272720448672772E-003;
2.413000000000000E+009;1.696466654539108E-001;-4.109043255448341E-002;-2.689750166609883E-003;2.476664027199149E-003;
2.413166666666667E+009;1.701344847679138E-001;-4.289418458938599E-002;-2.817387692630291E-003;2.543652430176735E-003;
2.413333333333334E+009;1.706650555133820E-001;-4.443329945206642E-002;-2.616958692669869E-003;2.843935042619705E-003;
2.413500000000000E+009;1.713964641094208E-001;-4.597237333655357E-002;-2.641850383952260E-003;2.915624529123306E-003;
2.413666666666667E+009;1.721933931112289E-001;-4.760498180985451E-002;-2.363007282838225E-003;2.976082963868976E-003;
2.413833333333334E+009;1.727238893508911E-001;-4.901135340332985E-002;-2.093866001814604E-003;3.170491894707084E-003;
2.414000000000000E+009;1.732359528541565E-001;-5.032648146152496E-002;-2.115173032507300E-003;3.284848527982831E-003;
2.414166666666667E+009;1.741714328527451E-001;-5.132968351244927E-002;-1.910702791064978E-003;3.266641171649098E-003;
2.414333333333334E+009;1.748645156621933E-001;-5.268001183867455E-002;-1.849784050136805E-003;3.483845852315426E-003;
2.414500000000000E+009;1.754304766654968E-001;-5.357831344008446E-002;-1.594620989635587E-003;3.648394951596856E-003;
2.414666666666667E+009;1.759841144084930E-001;-5.444849655032158E-002;-1.487148110754788E-003;3.710642689839006E-003;
2.414833333333334E+009;1.764837652444840E-001;-5.544575303792954E-002;-1.386631978675723E-003;3.878673771396279E-003;
2.415000000000000E+009;1.769448369741440E-001;-5.612156912684441E-002;-9.876169497147203E-004;3.984101116657257E-003;
2.415166666666667E+009;1.774006634950638E-001;-5.677441507577896E-002;-9.491021628491581E-004;3.911368083208799E-003;
2.415333333333334E+009;1.779543906450272E-001;-5.733028799295425E-002;-6.787528982385993E-004;4.099495708942413E-003;
2.415500000000000E+009;1.782297492027283E-001;-5.771275982260704E-002;-4.119934164918959E-004;3.892674110829830E-003;
2.415666666666667E+009;1.785765588283539E-001;-5.809233337640762E-002;-2.903120766859502E-004;4.139234311878681E-003;
2.415833333333334E+009;1.785823404788971E-001;-5.849210545420647E-002;-1.916212931973860E-004;3.849665634334087E-003;
2.416000000000000E+009;1.785388141870499E-001;-5.883029475808144E-002;1.014144654618576E-004;3.875515656545758E-003;
2.416166666666667E+009;1.789213865995407E-001;-5.906898900866509E-002;1.488001289544627E-004;3.924387507140636E-003;
2.416333333333334E+009;1.787279397249222E-001;-5.915460363030434E-002;2.417758078081533E-004;3.925531636923552E-003;
2.416500000000000E+009;1.783794760704041E-001;-5.948242917656899E-002;4.553176404442638E-004;3.787586232647300E-003;
2.416666666666667E+009;1.781662702560425E-001;-5.950510874390602E-002;6.279720691964030E-004;3.641443792730570E-003;
2.416833333333334E+009;1.778691560029984E-001;-5.978672206401825E-002;8.812220185063779E-004;3.770838957279921E-003;
2.417000000000000E+009;1.771795451641083E-001;-5.982233211398125E-002;1.003506593406200E-003;3.659783164039254E-003;
2.417166666666667E+009;1.766722351312637E-001;-5.989354848861694E-002;9.418972185812891E-004;3.577193710952997E-003;
2.417333333333334E+009;1.761054098606110E-001;-5.987009406089783E-002;1.124582253396511E-003;3.468901151791215E-003;
2.417500000000000E+009;1.753340661525726E-001;-6.041483208537102E-002;1.345202908851206E-003;3.521589562296867E-003;
2.417666666666667E+009;1.745718419551849E-001;-6.030743196606636E-002;1.353697152808309E-003;3.330649109557271E-003;
2.417833333333334E+009;1.736407577991486E-001;-6.051455810666084E-002;1.555814640596509E-003;3.198267659172416E-003;
2.418000000000000E+009;1.725845187902451E-001;-6.098675727844238E-002;1.483832718804479E-003;3.282464807853103E-003;
2.418166666666667E+009;1.714659333229065E-001;-6.100622192025185E-002;1.646157237701118E-003;3.070574486628175E-003;
2.418333333333334E+009;1.705799400806427E-001;-6.162281706929207E-002;1.582882134243846E-003;3.129855031147599E-003;
2.418500000000000E+009;1.692948043346405E-001;-6.178449094295502E-002;1.786905224435031E-003;2.813197905197740E-003;
2.418666666666667E+009;1.681262254714966E-001;-6.258520483970642E-002;1.812865142710507E-003;2.855094149708748E-003;
2.418833333333334E+009;1.667619049549103E-001;-6.309472769498825E-002;1.789828645996749E-003;2.575597027316690E-003;
2.419000000000000E+009;1.653131395578384E-001;-6.377905607223511E-002;2.016092650592327E-003;2.635579323396087E-003;
2.419166666666667E+009;1.640841066837311E-001;-6.439942121505737E-002;1.989518525078893E-003;2.646107226610184E-003;
2.419333333333334E+009;1.627151817083359E-001;-6.508322060108185E-002;2.048801165074110E-003;2.521401038393378E-003;
2.419500000000000E+009;1.614922434091568E-001;-6.614515930414200E-002;2.091293688863516E-003;2.362079452723265E-003;
2.419666666666667E+009;1.603516489267349E-001;-6.715649366378784E-002;2.157904906198382E-003;2.306948881596327E-003;
2.419833333333334E+009;1.590989530086517E-001;-6.809175014495850E-002;2.181876683607698E-003;2.266330644488335E-003;
2.420000000000000E+009;1.579440385103226E-001;-6.942188739776611E-002;2.104558283463121E-003;2.142190234735608E-003;
2.420166666666667E+009;1.568596363067627E-001;-7.058179378509522E-002;2.289296593517065E-003;1.985546899959445E-003;
2.420333333333334E+009;1.557595729827881E-001;-7.197596132755280E-002;2.124895574524999E-003;2.081466140225530E-003;
2.420500000000000E+009;1.546760052442551E-001;-7.328275591135025E-002;2.322881016880274E-003;1.927604665979743E-003;
2.420666666666667E+009;1.535993218421936E-001;-7.455709576606751E-002;2.241016831248999E-003;1.813764567486942E-003;
2.420833333333334E+009;1.527637243270874E-001;-7.619795203208923E-002;2.379800425842404E-003;1.682010013610125E-003;
2.421000000000000E+009;1.518209129571915E-001;-7.770679891109467E-002;2.316089812666178E-003;1.654205610975623E-003;
2.421166666666667E+009;1.513262689113617E-001;-7.931474596261978E-002;2.377851866185665E-003;1.552987727336586E-003;
2.421333333333334E+009;1.506894379854202E-001;-8.112815767526627E-002;2.337719546630979E-003;1.443803310394287E-003;
2.421500000000000E+009;1.498764306306839E-001;-8.265348523855209E-002;2.382932463660836E-003;1.433657133020461E-003;
2.421666666666667E+009;1.495630443096161E-001;-8.441109955310822E-002;2.357934135943651E-003;1.311853411607444E-003;
2.421833333333334E+009;1.492138653993607E-001;-8.614324033260346E-002;2.298022853210568E-003;1.174266217276454E-003;
2.422000000000000E+009;1.487792581319809E-001;-8.806109428405762E-002;2.148289699107409E-003;1.227384433150291E-003;
2.422166666666667E+009;1.487126946449280E-001;-8.996153622865677E-002;2.393061760812998E-003;1.272769295610488E-003;
2.422333333333334E+009;1.486868262290955E-001;-9.173158556222916E-002;2.349597634747624E-003;1.146940630860627E-003;
2.422500000000000E+009;1.487938016653061E-001;-9.335887432098389E-002;2.247019670903683E-003;1.101933536119759E-003;
2.422666666666667E+009;1.487018764019013E-001;-9.520999342203140E-002;2.251530531793833E-003;8.622197783552110E-004;
2.422833333333334E+009;1.489403545856476E-001;-9.696239233016968E-002;2.221822040155530E-003;8.146774489432573E-004;
2.423000000000000E+009;1.490482836961746E-001;-9.854077547788620E-002;2.244233153760433E-003;9.639100171625614E-004;
2.423166666666667E+009;1.494576036930084E-001;-1.001864448189735E-001;2.196935703977943E-003;7.940463838167489E-004;
2.423333333333334E+009;1.498565971851349E-001;-1.017939820885658E-001;2.223717281594873E-003;8.119557169266045E-004;
2.423500000000000E+009;1.502262204885483E-001;-1.032484471797943E-001;2.315060701221228E-003;7.446717354469001E-004;
2.423666666666667E+009;1.505443155765533E-001;-1.050368994474411E-001;2.228613477200270E-003;7.283751619979739E-004;
2.423833333333334E+009;1.513022929430008E-001;-1.062570810317993E-001;2.262278459966183E-003;6.644604727625847E-004;
2.424000000000000E+009;1.517357826232910E-001;-1.074158996343613E-001;2.431992907077074E-003;5.912501947022975E-004;
2.424166666666667E+009;1.522822082042694E-001;-1.088743507862091E-001;2.234001411125064E-003;5.266984226182103E-004;
2.424333333333334E+009;1.528221070766449E-001;-1.099853217601776E-001;2.217184519395232E-003;6.461929297074676E-004;
2.424500000000000E+009;1.533976346254349E-001;-1.110333353281021E-001;2.207603072747588E-003;4.873279249295592E-004;
2.424666666666667E+009;1.541832983493805E-001;-1.119842976331711E-001;2.188868587836623E-003;4.515044274739921E-004;
2.424833333333334E+009;1.545253098011017E-001;-1.129524782299995E-001;2.227696124464274E-003;3.906816127710044E-004;
2.425000000000000E+009;1.551138907670975E-001;-1.138570830225945E-001;2.142613520845771E-003;3.527372609823942E-004;
2.425166666666667E+009;1.553940325975418E-001;-1.145348176360130E-001;2.234747866168618E-003;2.875034406315535E-004;
2.425333333333334E+009;1.559453606605530E-001;-1.150930821895599E-001;2.203949261456728E-003;2.380040386924520E-004;
2.425500000000000E+009;1.563861668109894E-001;-1.157850623130798E-001;2.160307019948959E-003;2.381876838626340E-004;
2.425666666666667E+009;1.565261185169220E-001;-1.163728609681130E-001;2.267845906317234E-003;2.403551770839840E-004;
2.425833333333334E+009;1.567964553833008E-001;-1.167287677526474E-001;2.157794777303934E-003;1.796552824089304E-004;
2.426000000000000E+009;1.570352911949158E-001;-1.171037033200264E-001;1.992268254980445E-003;1.947444543475285E-004;
2.426166666666667E+009;1.573392152786255E-001;-1.174122020602226E-001;2.199957612901926E-003;2.344984386581928E-004;
2.426333333333334E+009;1.570580452680588E-001;-1.176193058490753E-001;1.971855526790023E-003;2.611441304907203E-004;
2.426500000000000E+009;1.572708934545517E-001;-1.176863014698029E-001;1.998295774683356E-003;-1.193145089928294E-005;
2.426666666666667E+009;1.571577638387680E-001;-1.176854297518730E-001;2.044429536908865E-003;-2.883259003283456E-005;
2.426833333333334E+009;1.568884253501892E-001;-1.177804395556450E-001;2.003283239901066E-003;2.182192110922188E-004;
2.427000000000000E+009;1.565422117710114E-001;-1.179365366697311E-001;2.096157288178802E-003;6.143903738120571E-005;
2.427166666666667E+009;1.560021638870239E-001;-1.178935095667839E-001;2.003316301852465E-003;-1.376295840600506E-004;
2.427333333333334E+009;1.553908586502075E-001;-1.180813089013100E-001;2.018468454480171E-003;-5.208617585594766E-005;
2.427500000000000E+009;1.549175977706909E-001;-1.181296110153198E-001;2.023987704887986E-003;-1.158240338554606E-004;
2.427666666666667E+009;1.540407836437225E-001;-1.181102618575096E-001;1.947367796674371E-003;-5.295003575156443E-005;
2.427833333333334E+009;1.530838161706924E-001;-1.182049885392189E-001;2.038472332060337E-003;-1.712215889710933E-004;
