# Version 1.00
#
freq[Hz];re:Trc1_S11;im:Trc1_S11;re:Trc2_S21;im:Trc2_S21;
2.400000000000000E+009;1.625830829143524E-001;5.244776234030724E-002;1.387228025123477E-003;-2.919783117249608E-003;
2.400166666666667E+009;1.625466048717499E-001;5.088844895362854E-002;1.234427792951465E-003;-3.088294528424740E-003;
2.400333333333334E+009;1.624595224857330E-001;4.887060821056366E-002;1.074290252290666E-003;-3.206315683200955E-003;
2.400500000000000E+009;1.623582392930985E-001;4.722496867179871E-002;1.130114193074405E-003;-3.275293624028564E-003;
2.400666666666667E+009;1.623098850250244E-001;4.517093300819397E-002;1.050609163939953E-003;-3.141328459605575E-003;
2.400833333333334E+009;1.625106483697891E-001;4.312213510274887E-002;8.080260013230145E-004;-3.519191406667233E-003;
2.401000000000000E+009;1.625326275825501E-001;4.103533923625946E-002;7.111567538231611E-004;-3.481485648080707E-003;
2.401166666666667E+009;1.624998450279236E-001;3.896913304924965E-002;7.571817259304225E-004;-3.674229374155402E-003;
2.401333333333334E+009;1.625530719757080E-001;3.693794086575508E-002;5.717631429433823E-004;-3.802974009886384E-003;
2.401500000000000E+009;1.628765016794205E-001;3.493477404117584E-002;3.346133162267506E-004;-3.855836344882846E-003;
2.401666666666667E+009;1.631549894809723E-001;3.302482888102531E-002;2.638695877976716E-004;-3.796381410211325E-003;
2.401833333333334E+009;1.634506285190582E-001;3.098683990538120E-002;3.454412217251957E-005;-3.946957178413868E-003;
2.402000000000000E+009;1.634306162595749E-001;2.898888848721981E-002;-6.975844007683918E-005;-3.966640215367079E-003;
2.402166666666667E+009;1.638323962688446E-001;2.680249139666557E-002;-3.083127085119486E-004;-4.047285765409470E-003;
2.402333333333334E+009;1.644501835107803E-001;2.509595453739166E-002;-5.221361061558127E-004;-4.096578340977430E-003;
2.402500000000000E+009;1.652505993843079E-001;2.307438291609287E-002;-6.414640811271966E-004;-4.018214531242847E-003;
2.402666666666667E+009;1.655546873807907E-001;2.147584781050682E-002;-7.391568506136537E-004;-4.117859527468681E-003;
2.402833333333334E+009;1.659250855445862E-001;1.961726881563664E-002;-9.679701179265976E-004;-3.958244808018208E-003;
2.403000000000000E+009;1.668363213539124E-001;1.810795441269875E-002;-1.172735122963786E-003;-3.857672447338700E-003;
2.403166666666667E+009;1.675885021686554E-001;1.642186008393765E-002;-1.276347087696195E-003;-3.994338680058718E-003;
2.403333333333334E+009;1.681677103042603E-001;1.485518738627434E-002;-1.474970486015081E-003;-3.959359601140022E-003;
2.403500000000000E+009;1.689818948507309E-001;1.353619527071714E-002;-1.613335683941841E-003;-3.841805970296264E-003;
2.403666666666667E+009;1.697381734848023E-001;1.205935422331095E-002;-1.782488194294274E-003;-3.791091963648796E-003;
2.403833333333334E+009;1.707340180873871E-001;1.065489649772644E-002;-2.083179308101535E-003;-3.876238362863660E-003;
2.404000000000000E+009;1.713978052139282E-001;9.495501406490803E-003;-2.215317450463772E-003;-3.736300859600306E-003;
2.404166666666667E+009;1.721162796020508E-001;8.349809795618057E-003;-2.436877228319645E-003;-3.570527536794543E-003;
2.404333333333334E+009;1.730580031871796E-001;7.395995780825615E-003;-2.608599141240120E-003;-3.537383163347840E-003;
2.404500000000000E+009;1.737110614776611E-001;6.270574871450663E-003;-2.980279969051480E-003;-3.386212512850761E-003;
2.404666666666667E+009;1.746335774660111E-001;5.391052924096584E-003;-2.923780586570501E-003;-3.313326044008136E-003;
2.404833333333334E+009;1.753143668174744E-001;4.656890407204628E-003;-3.086400683969259E-003;-3.173845820128918E-003;
2.405000000000000E+009;1.760949343442917E-001;3.904091194272041E-003;-3.201002720743418E-003;-3.112316830083728E-003;
2.405166666666667E+009;1.766823679208756E-001;3.233180381357670E-003;-3.349720267578960E-003;-2.893535885959864E-003;
2.405333333333334E+009;1.774550527334213E-001;2.641315106302500E-003;-3.529685782268643E-003;-2.601021667942405E-003;
2.405500000000000E+009;1.781024336814880E-001;2.205521566793323E-003;-3.526924876496196E-003;-2.491610357537866E-003;
2.405666666666667E+009;1.786108613014221E-001;1.776099321432412E-003;-3.670590231195092E-003;-2.435287926346064E-003;
2.405833333333334E+009;1.789958477020264E-001;1.541127217933536E-003;-3.788316855207086E-003;-2.188964746892452E-003;
2.406000000000000E+009;1.795805841684341E-001;9.587651002220810E-004;-3.736168844625354E-003;-2.100443700328469E-003;
2.406166666666667E+009;1.797608584165573E-001;7.545307744294405E-004;-3.928988240659237E-003;-1.902754534967244E-003;
2.406333333333334E+009;1.803283095359802E-001;5.701054469682276E-004;-3.882218617945910E-003;-1.720241969451308E-003;
2.406500000000000E+009;1.804916858673096E-001;1.523292448837310E-004;-3.949452191591263E-003;-1.591550069861114E-003;
2.406666666666667E+009;1.804598122835159E-001;1.377645821776241E-004;-4.083545878529549E-003;-1.386704039759934E-003;
2.406833333333334E+009;1.806834638118744E-001;-4.268293851055205E-004;-4.109330475330353E-003;-1.229507732205093E-003;
2.407000000000000E+009;1.806705147027969E-001;-6.379098049364984E-004;-4.128400236368179E-003;-9.339939570054412E-004;
2.407166666666667E+009;1.806351244449616E-001;-7.902962388470769E-004;-4.171546548604965E-003;-8.022363763302565E-004;
2.407333333333334E+009;1.803470253944397E-001;-1.193555071949959E-003;-4.053681157529354E-003;-7.442592759616673E-004;
2.407500000000000E+009;1.802912354469299E-001;-1.444532652385533E-003;-4.166163504123688E-003;-5.803506355732679E-004;
2.407666666666667E+009;1.800166517496109E-001;-1.877396600320935E-003;-4.157002083957195E-003;-4.647549358196557E-004;
2.407833333333334E+009;1.794759333133698E-001;-2.364093204960227E-003;-4.169034771621227E-003;-1.603340497240424E-004;
2.408000000000000E+009;1.790532320737839E-001;-3.065689234063029E-003;-4.211320541799069E-003;-3.666666452772915E-005;
2.408166666666667E+009;1.786379069089890E-001;-3.371036145836115E-003;-4.137368407100439E-003;2.078471297863871E-004;
2.408333333333334E+009;1.783297359943390E-001;-4.012249875813723E-003;-4.005823284387589E-003;4.124382976442576E-004;
2.408500000000000E+009;1.775301098823547E-001;-4.705708473920822E-003;-4.095497075468302E-003;4.734066023956984E-004;
2.408666666666667E+009;1.768530011177063E-001;-5.544539075344801E-003;-4.021303262561560E-003;6.437696283683181E-004;
2.408833333333334E+009;1.762306839227676E-001;-6.385402288287878E-003;-3.613356966525316E-003;8.116659009829164E-004;
2.409000000000000E+009;1.753180772066116E-001;-7.335111033171415E-003;-3.817476332187653E-003;9.092880063690245E-004;
2.409166666666667E+009;1.746623069047928E-001;-8.335737511515617E-003;-3.754470031708479E-003;1.080096466466785E-003;
2.409333333333334E+009;1.740150302648544E-001;-9.534153155982494E-003;-3.580539952963591E-003;1.108496799133718E-003;
2.409500000000000E+009;1.731640696525574E-001;-1.070107612758875E-002;-3.461028216406703E-003;1.161079388111830E-003;
2.409666666666667E+009;1.723055839538574E-001;-1.206982601433992E-002;-3.385462798178196E-003;1.337056746706367E-003;
2.409833333333334E+009;1.715958416461945E-001;-1.326092798262835E-002;-3.446508897468448E-003;1.419381587766111E-003;
2.410000000000000E+009;1.709192395210266E-001;-1.475293748080730E-002;-3.242660779505968E-003;1.468738308176398E-003;
2.410166666666667E+009;1.703087538480759E-001;-1.623580604791641E-002;-2.966887317597866E-003;1.357538509182632E-003;
2.410333333333334E+009;1.694829910993576E-001;-1.789419539272785E-002;-3.078070003539324E-003;1.558181131258607E-003;
2.410500000000000E+009;1.687793582677841E-001;-1.967985369265080E-002;-2.876119920983911E-003;1.637227600440383E-003;
2.410666666666667E+009;1.683871150016785E-001;-2.128369547426701E-002;-2.962965983897448E-003;1.737351878546178E-003;
2.410833333333334E+009;1.678220927715302E-001;-2.300802245736122E-002;-2.937629353255034E-003;1.593421911820769E-003;
2.411000000000000E+009;1.672582626342773E-001;-2.490859478712082E-002;-2.804395742714405E-003;1.899827504530549E-003;
2.411166666666667E+009;1.669575870037079E-001;-2.684475108981133E-002;-2.751450054347515E-003;1.621865318156779E-003;
2.411333333333334E+009;1.663905531167984E-001;-2.871611900627613E-002;-2.758355112746358E-003;1.773971016518772E-003;
2.411500000000000E+009;1.660622805356979E-001;-3.053911402821541E-002;-2.634946024045348E-003;1.674247789196670E-003;
2.411666666666667E+009;1.661010682582855E-001;-3.269319608807564E-002;-2.632967894896865E-003;1.960609573870897E-003;
2.411833333333334E+009;1.658380776643753E-001;-3.449615836143494E-002;-2.636675024405122E-003;1.850091619417071E-003;
2.412000000000000E+009;1.659043580293655E-001;-3.666066750884056E-002;-2.691518049687147E-003;2.069421345368028E-003;
2.412166666666667E+009;1.655759066343308E-001;-3.849478438496590E-002;-2.785415388643742E-003;2.148624975234270E-003;
2.412333333333334E+009;1.659245193004608E-001;-4.033551737666130E-002;-2.465421799570322E-003;2.378206001594663E-003;
2.412500000000000E+009;1.660794764757156E-001;-4.233201593160629E-002;-2.568606985732913E-003;2.437430433928967E-003;
2.412666666666667E+009;1.661555767059326E-001;-4.435080662369728E-002;-2.485048957169056E-003;2.462288830429316E-003;
2.412833333333334E+009;1.663507223129273E-001;-4.619790241122246E-002;-2.428668551146984E-003;2.649730537086725E-003;
2.413000000000000E+009;1.667169630527496E-001;-4.814732074737549E-002;-2.345331944525242E-003;2.845330862328410E-003;
2.413166666666667E+009;1.671041995286942E-001;-4.979100078344345E-002;-2.361043123528361E-003;2.923971740528941E-003;
2.413333333333334E+009;1.672241687774658E-001;-5.176402255892754E-002;-2.083448925986886E-003;2.904430730268359E-003;
2.413500000000000E+009;1.677203774452210E-001;-5.350124835968018E-002;-2.096716314554215E-003;3.132093697786331E-003;
2.413666666666667E+009;1.683692038059235E-001;-5.505408719182015E-002;-1.831737463362515E-003;3.253705101087689E-003;
2.413833333333334E+009;1.685471087694168E-001;-5.656595900654793E-002;-1.674395170994103E-003;3.222665283828974E-003;
2.414000000000000E+009;1.688624471426010E-001;-5.803212895989418E-002;-1.601632684469223E-003;3.397463355213404E-003;
2.414166666666667E+009;1.696435511112213E-001;-5.941588804125786E-002;-1.259104115888476E-003;3.496471326798201E-003;
2.414333333333334E+009;1.701384186744690E-001;-6.074616312980652E-002;-1.311762607656419E-003;3.496868303045631E-003;
2.414500000000000E+009;1.709238737821579E-001;-6.178347021341324E-002;-1.144461915828288E-003;3.489683615043759E-003;
2.414666666666667E+009;1.712500602006912E-001;-6.293475627899170E-002;-8.310265839099884E-004;3.653878346085548E-003;
2.414833333333334E+009;1.716685742139816E-001;-6.398475170135498E-002;-8.441716781817377E-004;3.758958773687482E-003;
2.415000000000000E+009;1.722159385681152E-001;-6.494346261024475E-002;-5.238528829067946E-004;3.633474465459585E-003;
2.415166666666667E+009;1.725776493549347E-001;-6.568563729524612E-002;-4.383267660159618E-004;3.677088301628828E-003;
2.415333333333334E+009;1.731000095605850E-001;-6.636828184127808E-002;-1.542640093248338E-004;3.624254371970892E-003;
2.415500000000000E+009;1.733977645635605E-001;-6.701069325208664E-002;-7.932329026516527E-005;3.456920385360718E-003;
2.415666666666667E+009;1.735691130161285E-001;-6.757441163063049E-002;1.146593640442006E-004;3.452460514381528E-003;
2.415833333333334E+009;1.738453060388565E-001;-6.813143193721771E-002;2.173949760617688E-004;3.263694467023015E-003;
2.416000000000000E+009;1.738527417182922E-001;-6.866633892059326E-002;2.905571600422263E-004;3.329312894493341E-003;
2.416166666666667E+009;1.742700934410095E-001;-6.897838413715363E-002;5.023243138566613E-004;3.306207479909062E-003;
2.416333333333334E+009;1.741607040166855E-001;-6.918414682149887E-002;7.487905677407980E-004;3.125535557046533E-003;
2.416500000000000E+009;1.740118563175201E-001;-6.954516470432282E-002;7.813349948264659E-004;3.090098733082414E-003;
2.416666666666667E+009;1.737322211265564E-001;-6.979012489318848E-002;8.865377749316394E-004;3.007119754329324E-003;
2.416833333333334E+009;1.737347990274429E-001;-7.001113891601563E-002;9.220972424373031E-004;2.989531261846423E-003;
2.417000000000000E+009;1.731435656547546E-001;-7.021215558052063E-002;1.212288625538349E-003;2.938892692327499E-003;
2.417166666666667E+009;1.728065907955170E-001;-7.023210078477860E-002;1.274761976674199E-003;2.810569945722818E-003;
2.417333333333334E+009;1.723218709230423E-001;-7.039569318294525E-002;1.316520851105452E-003;2.730050124228001E-003;
2.417500000000000E+009;1.716009229421616E-001;-7.075003534555435E-002;1.472769887186587E-003;2.705688588321209E-003;
2.417666666666667E+009;1.710370928049088E-001;-7.077195495367050E-002;1.440637162886560E-003;2.448538318276405E-003;
2.417833333333334E+009;1.702083498239517E-001;-7.100929319858551E-002;1.590345753356814E-003;2.483988646417856E-003;
2.418000000000000E+009;1.693818271160126E-001;-7.123591750860214E-002;1.652355771511793E-003;2.308971947059035E-003;
2.418166666666667E+009;1.682770848274231E-001;-7.143232226371765E-002;1.658395864069462E-003;2.147887367755175E-003;
2.418333333333334E+009;1.676008850336075E-001;-7.176994532346726E-002;1.733295852318406E-003;2.130387816578150E-003;
2.418500000000000E+009;1.662831604480743E-001;-7.203234732151032E-002;1.618108479306102E-003;1.953114639036357E-003;
2.418666666666667E+009;1.653348654508591E-001;-7.240415364503861E-002;1.775858108885586E-003;1.891387510113418E-003;
2.418833333333334E+009;1.638401597738266E-001;-7.286430895328522E-002;1.680708024650812E-003;1.825739280320704E-003;
2.419000000000000E+009;1.626564264297485E-001;-7.341307401657105E-002;1.903677359223366E-003;1.721412874758244E-003;
2.419166666666667E+009;1.614894717931747E-001;-7.382493466138840E-002;1.712447847239673E-003;1.770164119079709E-003;
2.419333333333334E+009;1.600237190723419E-001;-7.428313046693802E-002;1.922946888953447E-003;1.547604915685952E-003;
2.419500000000000E+009;1.588205695152283E-001;-7.523811608552933E-002;1.909034792333841E-003;1.503206207416952E-003;
2.419666666666667E+009;1.575762331485748E-001;-7.600434124469757E-002;1.918053021654487E-003;1.372116734273732E-003;
2.419833333333334E+009;1.561820656061173E-001;-7.675714045763016E-002;2.062863204628229E-003;1.208711415529251E-003;
2.420000000000000E+009;1.549939066171646E-001;-7.778123766183853E-002;2.023339504376054E-003;1.272329827770591E-003;
2.420166666666667E+009;1.538110673427582E-001;-7.876002043485642E-002;1.975020393729210E-003;1.045889686793089E-003;
2.420333333333334E+009;1.525610983371735E-001;-7.992417365312576E-002;1.948546967469156E-003;1.019679359160364E-003;
2.420500000000000E+009;1.514866203069687E-001;-8.084026724100113E-002;1.992377685382962E-003;8.434445480816066E-004;
2.420666666666667E+009;1.501796394586563E-001;-8.191210031509399E-002;1.990697346627712E-003;8.107381290756166E-004;
2.420833333333334E+009;1.490745842456818E-001;-8.354988694190979E-002;1.780789811164141E-003;5.823920946568251E-004;
2.421000000000000E+009;1.480177193880081E-001;-8.510825783014298E-002;1.910042134113610E-003;5.405277479439974E-004;
2.421166666666667E+009;1.472659707069397E-001;-8.634958416223526E-002;1.917669316753745E-003;4.437507595866919E-004;
2.421333333333334E+009;1.463690847158432E-001;-8.814659714698792E-002;1.786062843166292E-003;3.987061791121960E-004;
2.421500000000000E+009;1.455028355121613E-001;-8.951897919178009E-002;1.589750987477601E-003;3.222921222914010E-004;
2.421666666666667E+009;1.450148224830627E-001;-9.112974256277084E-002;1.634757500141859E-003;8.876369975041598E-005;
2.421833333333334E+009;1.443343609571457E-001;-9.290788322687149E-002;1.587824779562652E-003;1.597875670995563E-004;
2.422000000000000E+009;1.437037885189056E-001;-9.465557336807251E-002;1.529623987153173E-003;7.480321073671803E-005;
2.422166666666667E+009;1.434210836887360E-001;-9.643111377954483E-002;1.367292366921902E-003;5.032806438975968E-005;
2.422333333333334E+009;1.430238783359528E-001;-9.784307330846787E-002;1.272332621738315E-003;-1.663912917138077E-005;
2.422500000000000E+009;1.426557302474976E-001;-9.987685829401016E-002;1.224893843755126E-003;-2.800231595756486E-005;
2.422666666666667E+009;1.425163149833679E-001;-1.016674190759659E-001;1.147995935752988E-003;-4.015457307104953E-005;
2.422833333333334E+009;1.425205469131470E-001;-1.032799631357193E-001;1.054145395755768E-003;-1.202492348966189E-004;
2.423000000000000E+009;1.424361020326614E-001;-1.050860956311226E-001;9.712860919535160E-004;-1.190592520288192E-004;
2.423166666666667E+009;1.426548212766647E-001;-1.067686304450035E-001;9.445074247196317E-004;2.679787030501757E-005;
2.423333333333334E+009;1.428318321704865E-001;-1.082266792654991E-001;8.879880770109594E-004;3.060512972297147E-005;
2.423500000000000E+009;1.429081410169601E-001;-1.100652441382408E-001;9.002407314255834E-004;7.539724902017042E-005;
2.423666666666667E+009;1.429867744445801E-001;-1.117821335792542E-001;6.423687445931137E-004;2.094576921081170E-004;
2.423833333333334E+009;1.435525268316269E-001;-1.131985932588577E-001;7.447908865287900E-004;2.203575422754511E-004;
2.424000000000000E+009;1.438008695840836E-001;-1.145535930991173E-001;5.854705232195556E-004;3.336861554998905E-004;
2.424166666666667E+009;1.441412270069122E-001;-1.159079372882843E-001;7.095048204064369E-004;4.800065071322024E-004;
2.424333333333334E+009;1.446650028228760E-001;-1.170914918184280E-001;7.149957818910480E-004;4.663667641580105E-004;
2.424500000000000E+009;1.450224220752716E-001;-1.184441298246384E-001;6.404711166396737E-004;4.173956403974444E-004;
2.424666666666667E+009;1.456153243780136E-001;-1.194096431136131E-001;6.262618117034435E-004;4.922926309518516E-004;
2.424833333333334E+009;1.457741558551788E-001;-1.205330416560173E-001;7.949704304337502E-004;5.619130097329617E-004;
2.425000000000000E+009;1.464127004146576E-001;-1.215629726648331E-001;6.606141105294228E-004;5.405261763371527E-004;
2.425166666666667E+009;1.466679722070694E-001;-1.224551498889923E-001;9.252455201931298E-004;6.323619163595140E-004;
2.425333333333334E+009;1.471226364374161E-001;-1.231814548373222E-001;9.515352430753410E-004;7.107213023118675E-004;
2.425500000000000E+009;1.475520581007004E-001;-1.238955035805702E-001;8.408014546148479E-004;5.145536852069199E-004;
2.425666666666667E+009;1.477957665920258E-001;-1.244134306907654E-001;8.549185004085302E-004;5.199717124924064E-004;
2.425833333333334E+009;1.481334567070007E-001;-1.250362694263458E-001;8.556032553315163E-004;4.593895864672959E-004;
2.426000000000000E+009;1.484256088733673E-001;-1.254604607820511E-001;1.004596590064466E-003;7.035771850496531E-004;
2.426166666666667E+009;1.488092690706253E-001;-1.257690489292145E-001;9.996503358706832E-004;4.196683876216412E-004;
2.426333333333334E+009;1.487458050251007E-001;-1.260630488395691E-001;1.105006784200668E-003;5.909202154725790E-004;
2.426500000000000E+009;1.488976180553436E-001;-1.262409687042236E-001;1.184509601444006E-003;7.309055072255433E-004;
2.426666666666667E+009;1.488088667392731E-001;-1.262591928243637E-001;1.184338238090277E-003;3.903766046278179E-004;
2.426833333333334E+009;1.486759036779404E-001;-1.264357715845108E-001;1.119852764531970E-003;5.347288097254932E-004;
2.427000000000000E+009;1.483289152383804E-001;-1.265942901372910E-001;1.247728010639548E-003;5.668462836183608E-004;
2.427166666666667E+009;1.481378674507141E-001;-1.263909190893173E-001;1.195222954265773E-003;3.885040641762316E-004;
2.427333333333334E+009;1.476706862449646E-001;-1.263250559568405E-001;1.255750656127930E-003;4.673435469157994E-004;
2.427500000000000E+009;1.472699940204620E-001;-1.264623850584030E-001;1.317800139077008E-003;4.215785302221775E-004;
2.427666666666667E+009;1.466324329376221E-001;-1.263999342918396E-001;1.363073475658894E-003;3.987718082498759E-004;
2.427833333333334E+009;1.457791775465012E-001;-1.262471228837967E-001;1.342501374892891E-003;4.682546714320779E-004;
