# Version 1.00
#
freq[Hz];re:Trc1_S11;im:Trc1_S11;re:Trc2_S21;im:Trc2_S21;
2.400000000000000E+009;1.627877354621887E-001;5.237410217523575E-002;1.443366054445505E-003;-2.952972892671824E-003;
2.400166666666667E+009;1.625744253396988E-001;5.093449354171753E-002;1.197077450342476E-003;-3.032017964869738E-003;
2.400333333333334E+009;1.624803245067596E-001;4.891968518495560E-002;1.156122307293117E-003;-3.201148938387632E-003;
2.400500000000000E+009;1.624006032943726E-001;4.710261523723602E-002;1.115366234444082E-003;-3.303966717794538E-003;
2.400666666666667E+009;1.623923480510712E-001;4.515165090560913E-002;9.248328860849142E-004;-3.325750818476081E-003;
2.400833333333334E+009;1.625448912382126E-001;4.320182278752327E-002;8.720589103177190E-004;-3.451066324487329E-003;
2.401000000000000E+009;1.622749567031860E-001;4.105795174837112E-002;7.261651917360723E-004;-3.510885173454881E-003;
2.401166666666667E+009;1.625721454620361E-001;3.915392979979515E-002;6.520369206555188E-004;-3.731740172952414E-003;
2.401333333333334E+009;1.625287085771561E-001;3.697595000267029E-002;5.900204414501786E-004;-3.648741869255900E-003;
2.401500000000000E+009;1.627939492464066E-001;3.487364202737808E-002;5.681852926500142E-004;-3.907417878508568E-003;
2.401666666666667E+009;1.630070060491562E-001;3.302573785185814E-002;3.721354878507555E-004;-3.779093967750669E-003;
2.401833333333334E+009;1.632373780012131E-001;3.071129322052002E-002;1.916935434564948E-005;-3.938436973839998E-003;
2.402000000000000E+009;1.634810715913773E-001;2.896408364176750E-002;-1.147563525591977E-004;-3.905014134943485E-003;
2.402166666666667E+009;1.637946665287018E-001;2.684388309717178E-002;-2.552027872297913E-004;-4.053713288158178E-003;
2.402333333333334E+009;1.644762158393860E-001;2.491872757673264E-002;-4.095669719390571E-004;-4.011303186416626E-003;
2.402500000000000E+009;1.651082783937454E-001;2.321950905025005E-002;-5.612372769974172E-004;-4.044208675622940E-003;
2.402666666666667E+009;1.656272560358048E-001;2.140780910849571E-002;-7.580271339975298E-004;-3.997704945504665E-003;
2.402833333333334E+009;1.661720275878906E-001;1.963459700345993E-002;-1.031870371662080E-003;-3.940021619200707E-003;
2.403000000000000E+009;1.668159961700440E-001;1.797698065638542E-002;-1.164078945294023E-003;-4.086498171091080E-003;
2.403166666666667E+009;1.675211489200592E-001;1.631841808557510E-002;-1.406371709890664E-003;-3.850117325782776E-003;
2.403333333333334E+009;1.683252304792404E-001;1.492623705416918E-002;-1.478696707636118E-003;-3.975006286054850E-003;
2.403500000000000E+009;1.688154935836792E-001;1.358160749077797E-002;-1.686616102233529E-003;-3.926464356482029E-003;
2.403666666666667E+009;1.698163300752640E-001;1.201217621564865E-002;-1.839140430092812E-003;-3.739316714927554E-003;
2.403833333333334E+009;1.706680506467819E-001;1.077014580368996E-002;-1.975513063371182E-003;-3.616231027990580E-003;
2.404000000000000E+009;1.714212447404862E-001;9.545774199068546E-003;-2.323388587683439E-003;-3.748381044715643E-003;
2.404166666666667E+009;1.721624284982681E-001;8.469884283840656E-003;-2.410824876278639E-003;-3.512157127261162E-003;
2.404333333333334E+009;1.730185151100159E-001;7.354337256401777E-003;-2.559792250394821E-003;-3.645364427939057E-003;
2.404500000000000E+009;1.736738532781601E-001;6.265070289373398E-003;-2.795790787786245E-003;-3.329323837533593E-003;
2.404666666666667E+009;1.745455861091614E-001;5.461239721626043E-003;-3.073081606999040E-003;-3.164689522236586E-003;
2.404833333333334E+009;1.752409785985947E-001;4.664322361350060E-003;-3.041726537048817E-003;-3.008245257660747E-003;
2.405000000000000E+009;1.760941743850708E-001;4.013061523437500E-003;-3.186760703101754E-003;-3.170171054080129E-003;
2.405166666666667E+009;1.767271757125855E-001;3.338581649586558E-003;-3.420686814934015E-003;-2.902908017858863E-003;
2.405333333333334E+009;1.774168759584427E-001;2.544719260185957E-003;-3.623247612267733E-003;-2.623613458126783E-003;
2.405500000000000E+009;1.779943704605103E-001;2.331636380404234E-003;-3.446188289672136E-003;-2.585932612419128E-003;
2.405666666666667E+009;1.785643249750137E-001;1.642618095502257E-003;-3.759959945455194E-003;-2.441011602059007E-003;
2.405833333333334E+009;1.789027154445648E-001;1.549102948047221E-003;-3.729231655597687E-003;-2.114732284098864E-003;
2.406000000000000E+009;1.794532537460327E-001;1.006231992505491E-003;-3.926388453692198E-003;-1.975208288058639E-003;
2.406166666666667E+009;1.797288805246353E-001;8.297575404867530E-004;-3.888814477249980E-003;-1.866743550635874E-003;
2.406333333333334E+009;1.801723837852478E-001;4.966689157299697E-004;-3.979283384978771E-003;-1.716209924779832E-003;
2.406500000000000E+009;1.803899854421616E-001;1.556349452584982E-004;-4.041768610477448E-003;-1.476297504268587E-003;
2.406666666666667E+009;1.803537905216217E-001;-1.777899706212338E-005;-4.006643779575825E-003;-1.316840411163867E-003;
2.406833333333334E+009;1.805492490530014E-001;-3.605430538300425E-004;-4.129793029278517E-003;-1.028197933919728E-003;
2.407000000000000E+009;1.806000620126724E-001;-5.415923660621047E-004;-4.212681204080582E-003;-1.073152525350452E-003;
2.407166666666667E+009;1.806725114583969E-001;-7.416036096401513E-004;-4.066003020852804E-003;-8.290008408948779E-004;
2.407333333333334E+009;1.804391741752625E-001;-1.163343200460076E-003;-4.153358284384012E-003;-6.699550431221724E-004;
2.407500000000000E+009;1.801930069923401E-001;-1.473349868319929E-003;-4.022605251520872E-003;-4.840196925215423E-004;
2.407666666666667E+009;1.798795312643051E-001;-1.798643381334841E-003;-4.137572366744280E-003;-3.052043612115085E-004;
2.407833333333334E+009;1.794202178716660E-001;-2.398917451500893E-003;-4.016409628093243E-003;-1.201957056764513E-004;
2.408000000000000E+009;1.791352778673172E-001;-2.884550951421261E-003;-3.972209524363279E-003;1.900629140436649E-004;
2.408166666666667E+009;1.784697026014328E-001;-3.192007541656494E-003;-4.134019836783409E-003;2.002037654165179E-004;
2.408333333333334E+009;1.781470179557800E-001;-3.927977290004492E-003;-3.998810891062021E-003;3.036515263374895E-004;
2.408500000000000E+009;1.774762421846390E-001;-4.635445307940245E-003;-3.842121222987771E-003;5.109421908855438E-004;
2.408666666666667E+009;1.767603009939194E-001;-5.494991783052683E-003;-3.782972693443298E-003;5.115307285450399E-004;
2.408833333333334E+009;1.760958433151245E-001;-6.332050543278456E-003;-3.632890526205301E-003;7.421402842737734E-004;
2.409000000000000E+009;1.752346456050873E-001;-7.300375495105982E-003;-3.605739446356893E-003;7.970028673298657E-004;
2.409166666666667E+009;1.746958345174789E-001;-8.152344264090061E-003;-3.616488771513104E-003;1.175149925984442E-003;
2.409333333333334E+009;1.740643680095673E-001;-9.466568939387798E-003;-3.527370281517506E-003;1.146417926065624E-003;
2.409500000000000E+009;1.733185946941376E-001;-1.068554166704416E-002;-3.384606679901481E-003;1.267451210878789E-003;
2.409666666666667E+009;1.723008602857590E-001;-1.191535498946905E-002;-3.465668763965368E-003;1.249584136530757E-003;
2.409833333333334E+009;1.715677380561829E-001;-1.314677670598030E-002;-3.289696527644992E-003;1.419809646904469E-003;
2.410000000000000E+009;1.709632724523544E-001;-1.465081050992012E-002;-3.151083830744028E-003;1.497770892456174E-003;
2.410166666666667E+009;1.702576875686646E-001;-1.612403243780136E-002;-3.172221127897501E-003;1.377789652906358E-003;
2.410333333333334E+009;1.694790124893189E-001;-1.772050000727177E-002;-2.957298420369625E-003;1.428784686140716E-003;
2.410500000000000E+009;1.689229458570480E-001;-1.946392655372620E-002;-2.892372896894813E-003;1.606145990081132E-003;
2.410666666666667E+009;1.683086901903153E-001;-2.124334312975407E-002;-2.914072247222066E-003;1.595364883542061E-003;
2.410833333333334E+009;1.677628159523010E-001;-2.300934679806233E-002;-2.808477263897657E-003;1.551176188513637E-003;
2.411000000000000E+009;1.671922951936722E-001;-2.466694638133049E-002;-2.797472756356001E-003;1.711532124318183E-003;
2.411166666666667E+009;1.667712181806564E-001;-2.675065025687218E-002;-2.789907855913043E-003;1.565060694701970E-003;
2.411333333333334E+009;1.664373129606247E-001;-2.876502461731434E-002;-2.935288241133094E-003;1.681235968135297E-003;
2.411500000000000E+009;1.660206168889999E-001;-3.069584444165230E-002;-2.633245196193457E-003;1.874747453257442E-003;
2.411666666666667E+009;1.660128086805344E-001;-3.246426209807396E-002;-2.688027918338776E-003;1.860029529780150E-003;
2.411833333333334E+009;1.657588928937912E-001;-3.431149944663048E-002;-2.752239815890789E-003;2.003052970394492E-003;
2.412000000000000E+009;1.657779216766357E-001;-3.655711188912392E-002;-2.848910866305232E-003;2.151432912796736E-003;
2.412166666666667E+009;1.655697226524353E-001;-3.846683725714684E-002;-2.719953190535307E-003;2.151126973330975E-003;
2.412333333333334E+009;1.659708172082901E-001;-4.040349274873734E-002;-2.630354603752494E-003;2.251678146421909E-003;
2.412500000000000E+009;1.658215671777725E-001;-4.232574254274368E-002;-2.638486912474036E-003;2.451610984280706E-003;
2.412666666666667E+009;1.662405878305435E-001;-4.457360133528709E-002;-2.565058181062341E-003;2.463789191097021E-003;
2.412833333333334E+009;1.664187759160996E-001;-4.623536765575409E-002;-2.469878876581788E-003;2.618996426463127E-003;
2.413000000000000E+009;1.667075753211975E-001;-4.816604778170586E-002;-2.173285698518157E-003;2.785510616376996E-003;
2.413166666666667E+009;1.669377833604813E-001;-4.997414350509644E-002;-2.255272120237351E-003;2.966478699818254E-003;
2.413333333333334E+009;1.671442240476608E-001;-5.169330537319183E-002;-2.123018959537149E-003;2.867230679839850E-003;
2.413500000000000E+009;1.676649302244186E-001;-5.325511470437050E-002;-2.002870896831155E-003;3.276315284892917E-003;
2.413666666666667E+009;1.681826561689377E-001;-5.506865307688713E-002;-1.799568068236113E-003;3.257038537412882E-003;
2.413833333333334E+009;1.685022711753845E-001;-5.642113462090492E-002;-1.767810084857047E-003;3.381956368684769E-003;
2.414000000000000E+009;1.690725535154343E-001;-5.789079517126083E-002;-1.663308590650559E-003;3.458621446043253E-003;
2.414166666666667E+009;1.695332676172257E-001;-5.934281274676323E-002;-1.464879838749766E-003;3.625412005931139E-003;
2.414333333333334E+009;1.700178235769272E-001;-6.063915416598320E-002;-1.175205805338919E-003;3.635542932897806E-003;
2.414500000000000E+009;1.707735508680344E-001;-6.163392961025238E-002;-1.089068711735308E-003;3.660529386252165E-003;
2.414666666666667E+009;1.711736321449280E-001;-6.278374046087265E-002;-8.369091665372253E-004;3.647193778306246E-003;
2.414833333333334E+009;1.716309785842896E-001;-6.394089758396149E-002;-6.829079939052463E-004;3.683103714138269E-003;
2.415000000000000E+009;1.720978766679764E-001;-6.474985927343369E-002;-4.707131301984191E-004;3.597983391955495E-003;
2.415166666666667E+009;1.725565344095230E-001;-6.555704027414322E-002;-4.028602270409465E-004;3.591130021959543E-003;
2.415333333333334E+009;1.729488819837570E-001;-6.629969924688339E-002;-2.955296367872506E-004;3.730695461854339E-003;
2.415500000000000E+009;1.733108311891556E-001;-6.690835207700729E-002;1.079353824025020E-004;3.622563323006034E-003;
2.415666666666667E+009;1.735486239194870E-001;-6.757918000221252E-002;1.849217806011438E-004;3.521328326314688E-003;
2.415833333333334E+009;1.738650202751160E-001;-6.801664084196091E-002;2.940871054306626E-004;3.464292967692018E-003;
2.416000000000000E+009;1.738433539867401E-001;-6.846986711025238E-002;4.759435832966119E-004;3.347223158925772E-003;
2.416166666666667E+009;1.741802543401718E-001;-6.885387748479843E-002;5.185737973079085E-004;3.323852550238371E-003;
2.416333333333334E+009;1.741342991590500E-001;-6.913483142852783E-002;7.037181057967246E-004;3.275156486779451E-003;
2.416500000000000E+009;1.740812361240387E-001;-6.950342655181885E-002;9.454346727579832E-004;3.160263411700726E-003;
2.416666666666667E+009;1.739049553871155E-001;-6.966626644134522E-002;8.655707933939993E-004;3.236352931708098E-003;
2.416833333333334E+009;1.737433969974518E-001;-7.002113759517670E-002;1.116300467401743E-003;3.052282845601440E-003;
2.417000000000000E+009;1.731783747673035E-001;-7.022018730640411E-002;1.183336484245956E-003;3.111805766820908E-003;
2.417166666666667E+009;1.726982891559601E-001;-7.019117474555969E-002;1.227440312504768E-003;2.745834179222584E-003;
2.417333333333334E+009;1.722641289234161E-001;-7.035902142524719E-002;1.253277645446360E-003;2.720787422731519E-003;
2.417500000000000E+009;1.716139763593674E-001;-7.065071165561676E-002;1.394210732541978E-003;2.694477327167988E-003;
2.417666666666667E+009;1.711188703775406E-001;-7.065796107053757E-002;1.502750907093287E-003;2.515598200261593E-003;
2.417833333333334E+009;1.701781749725342E-001;-7.090821862220764E-002;1.524432213045657E-003;2.499350579455495E-003;
2.418000000000000E+009;1.692322939634323E-001;-7.113415747880936E-002;1.643998548388481E-003;2.361887134611607E-003;
2.418166666666667E+009;1.682721674442291E-001;-7.129888236522675E-002;1.662019290961325E-003;2.284771529957652E-003;
2.418333333333334E+009;1.675630658864975E-001;-7.164923101663590E-002;1.743846107274294E-003;2.086669905111194E-003;
2.418500000000000E+009;1.662745922803879E-001;-7.192965596914291E-002;1.631182036362588E-003;2.007824135944247E-003;
2.418666666666667E+009;1.654123961925507E-001;-7.243460416793823E-002;1.755997538566589E-003;1.944016898050904E-003;
2.418833333333334E+009;1.640001088380814E-001;-7.279784232378006E-002;1.690736622549593E-003;1.756461686454713E-003;
2.419000000000000E+009;1.626206934452057E-001;-7.330612093210220E-002;1.913466374389827E-003;1.677350257523358E-003;
2.419166666666667E+009;1.613551527261734E-001;-7.384591549634934E-002;1.920284586958587E-003;1.763263600878418E-003;
2.419333333333334E+009;1.600357741117477E-001;-7.435079663991928E-002;1.987151801586151E-003;1.534694572910667E-003;
2.419500000000000E+009;1.587403565645218E-001;-7.531072944402695E-002;1.893747248686850E-003;1.550518791191280E-003;
2.419666666666667E+009;1.576202511787415E-001;-7.597404718399048E-002;1.948753604665399E-003;1.545298378914595E-003;
2.419833333333334E+009;1.562149524688721E-001;-7.673477381467819E-002;1.900093629956245E-003;1.345202792435885E-003;
2.420000000000000E+009;1.549399048089981E-001;-7.764416933059692E-002;1.884230761788786E-003;1.104454160667956E-003;
2.420166666666667E+009;1.537365913391113E-001;-7.872224599123001E-002;2.016865182667971E-003;1.114246086217463E-003;
2.420333333333334E+009;1.526873260736466E-001;-7.996191829442978E-002;1.949567347764969E-003;1.038798247464001E-003;
2.420500000000000E+009;1.513620018959045E-001;-8.086258172988892E-002;1.972528640180826E-003;9.535486460663378E-004;
2.420666666666667E+009;1.502962112426758E-001;-8.220569789409638E-002;1.942302100360394E-003;9.252742747776210E-004;
2.420833333333334E+009;1.492535024881363E-001;-8.363540470600128E-002;1.933650462888181E-003;7.770836236886680E-004;
2.421000000000000E+009;1.480389535427094E-001;-8.491011708974838E-002;1.871773623861373E-003;7.385510252788663E-004;
2.421166666666667E+009;1.473239362239838E-001;-8.646527677774429E-002;1.648576464504004E-003;6.000178400427103E-004;
2.421333333333334E+009;1.464741826057434E-001;-8.814369887113571E-002;1.697431667707861E-003;5.192051758058369E-004;
2.421500000000000E+009;1.456386297941208E-001;-8.957494795322418E-002;1.685388502664864E-003;2.594495890662074E-004;
2.421666666666667E+009;1.449420899152756E-001;-9.133875370025635E-002;1.631019869819284E-003;2.752286090981215E-004;
2.421833333333334E+009;1.442582160234451E-001;-9.275177121162415E-002;1.495000906288624E-003;3.716369683388621E-004;
2.422000000000000E+009;1.436927765607834E-001;-9.452021121978760E-002;1.437775674276054E-003;6.095866774558090E-005;
2.422166666666667E+009;1.432658880949020E-001;-9.659385681152344E-002;1.442024135030806E-003;5.358025737223215E-005;
2.422333333333334E+009;1.431297510862351E-001;-9.810525178909302E-002;1.421790686435998E-003;9.595708252163604E-005;
2.422500000000000E+009;1.427693665027618E-001;-9.967548400163651E-002;1.306735794059932E-003;-1.261846045963466E-005;
2.422666666666667E+009;1.423625946044922E-001;-1.015513464808464E-001;1.069376594386995E-003;3.897890928783454E-005;
2.422833333333334E+009;1.425035148859024E-001;-1.034062877297401E-001;1.080509740859270E-003;-1.038599020830588E-005;
2.423000000000000E+009;1.423056125640869E-001;-1.048758774995804E-001;8.349614217877388E-004;1.220534395542927E-004;
2.423166666666667E+009;1.425439715385437E-001;-1.066802516579628E-001;8.981616119854152E-004;1.917012996273115E-004;
2.423333333333334E+009;1.428295969963074E-001;-1.081999093294144E-001;8.515993831679225E-004;1.596029178472236E-004;
2.423500000000000E+009;1.428376883268356E-001;-1.099093630909920E-001;5.900810356251895E-004;2.388402062933892E-004;
2.423666666666667E+009;1.429553329944611E-001;-1.116259768605232E-001;8.717096061445773E-004;1.630277984077111E-004;
2.423833333333334E+009;1.434240639209747E-001;-1.131486296653748E-001;7.024168735370040E-004;2.757697948254645E-004;
2.424000000000000E+009;1.437366455793381E-001;-1.143854409456253E-001;7.761709275655448E-004;3.282904508523643E-004;
2.424166666666667E+009;1.441659331321716E-001;-1.157843023538590E-001;7.685885066166520E-004;4.527704732026905E-004;
2.424333333333334E+009;1.445761173963547E-001;-1.170334070920944E-001;8.132412331178784E-004;3.859580319840461E-004;
2.424500000000000E+009;1.450652033090591E-001;-1.183849200606346E-001;6.793213542550802E-004;4.683822044171393E-004;
2.424666666666667E+009;1.455407291650772E-001;-1.192699670791626E-001;6.645360263064504E-004;4.871640703640878E-004;
2.424833333333334E+009;1.458895653486252E-001;-1.204247847199440E-001;6.958922604098916E-004;4.544974071905017E-004;
2.425000000000000E+009;1.464398950338364E-001;-1.213640049099922E-001;9.420169517397881E-004;5.251719267107546E-004;
2.425166666666667E+009;1.466640681028366E-001;-1.222654655575752E-001;1.083471579477191E-003;5.478098755702376E-004;
2.425333333333334E+009;1.471891552209854E-001;-1.229674369096756E-001;9.934587869793177E-004;5.520193371921778E-004;
2.425500000000000E+009;1.476397812366486E-001;-1.239144429564476E-001;8.598142303526402E-004;6.761339609511197E-004;
2.425666666666667E+009;1.476549357175827E-001;-1.243059486150742E-001;1.057839253917337E-003;6.497710128314793E-004;
2.425833333333334E+009;1.481433510780335E-001;-1.247995868325234E-001;1.107374671846628E-003;5.790689028799534E-004;
2.426000000000000E+009;1.484595537185669E-001;-1.252987086772919E-001;1.139254658482969E-003;6.284423288889229E-004;
2.426166666666667E+009;1.486526578664780E-001;-1.257316768169403E-001;1.085250522010028E-003;6.326239672489464E-004;
2.426333333333334E+009;1.487473249435425E-001;-1.260532885789871E-001;1.017927424982190E-003;6.670005968771875E-004;
2.426500000000000E+009;1.487774401903153E-001;-1.261984258890152E-001;1.146293245255947E-003;7.121884264051914E-004;
2.426666666666667E+009;1.489394009113312E-001;-1.262059509754181E-001;1.321923686191440E-003;6.675734184682369E-004;
2.426833333333334E+009;1.487338691949844E-001;-1.264662593603134E-001;1.268113730475307E-003;3.686745185405016E-004;
2.427000000000000E+009;1.483885645866394E-001;-1.264309138059616E-001;1.221697428263724E-003;4.481829528231174E-004;
2.427166666666667E+009;1.480746716260910E-001;-1.264064610004425E-001;1.342675765044987E-003;4.795646527782083E-004;
2.427333333333334E+009;1.476763784885407E-001;-1.264353245496750E-001;1.239205477759242E-003;5.237805889919400E-004;
2.427500000000000E+009;1.473150104284287E-001;-1.263612508773804E-001;1.360692433081567E-003;4.745359474327415E-004;
2.427666666666667E+009;1.465273797512054E-001;-1.263878047466278E-001;1.333686872385442E-003;3.030110965482891E-004;
2.427833333333334E+009;1.457922309637070E-001;-1.263634711503983E-001;1.389266806654632E-003;3.390982165001333E-004;
