# Version 1.00
#
freq[Hz];re:Trc1_S11;im:Trc1_S11;re:Trc2_S21;im:Trc2_S21;
2.400000000000000E+009;1.626627147197723E-001;5.242734402418137E-002;1.241369638592005E-003;-2.911947667598724E-003;
2.400166666666667E+009;1.625419855117798E-001;5.087026953697205E-002;1.193334115669131E-003;-2.958234865218401E-003;
2.400333333333334E+009;1.623864769935608E-001;4.904878139495850E-002;1.194254262372851E-003;-3.191216615960002E-003;
2.400500000000000E+009;1.623700112104416E-001;4.715643078088760E-002;1.141008222475648E-003;-3.211765782907605E-003;
2.400666666666667E+009;1.621861159801483E-001;4.490317776799202E-002;9.409176418557763E-004;-3.274038666859269E-003;
2.400833333333334E+009;1.623523533344269E-001;4.327936470508575E-002;8.915861253626645E-004;-3.413222962990403E-003;
2.401000000000000E+009;1.624229848384857E-001;4.107131436467171E-002;8.666305220685899E-004;-3.474540309980512E-003;
2.401166666666667E+009;1.623975187540054E-001;3.918004408478737E-002;5.620102747343481E-004;-3.588533960282803E-003;
2.401333333333334E+009;1.624572277069092E-001;3.701902553439140E-002;3.718625812325627E-004;-3.551896661520004E-003;
2.401500000000000E+009;1.629083901643753E-001;3.490441665053368E-002;4.311459197197110E-004;-3.813749412074685E-003;
2.401666666666667E+009;1.630994528532028E-001;3.303419798612595E-002;1.961734087672085E-004;-3.830360481515527E-003;
2.401833333333334E+009;1.634182780981064E-001;3.084906563162804E-002;9.344547288492322E-005;-3.895290428772569E-003;
2.402000000000000E+009;1.636611670255661E-001;2.887187898159027E-002;6.573527571163140E-006;-3.853322472423315E-003;
2.402166666666667E+009;1.638676971197128E-001;2.690523862838745E-002;-4.271293582860380E-004;-3.904583398252726E-003;
2.402333333333334E+009;1.643443405628204E-001;2.504627592861652E-002;-3.896885900758207E-004;-4.155952483415604E-003;
2.402500000000000E+009;1.651467829942703E-001;2.323010563850403E-002;-6.030272343195975E-004;-3.876663977280259E-003;
2.402666666666667E+009;1.656130850315094E-001;2.147498540580273E-002;-8.554231608286500E-004;-3.977237734943628E-003;
2.402833333333334E+009;1.661227643489838E-001;1.967038773000240E-002;-1.071779406629503E-003;-3.939313814043999E-003;
2.403000000000000E+009;1.667704731225967E-001;1.810533925890923E-002;-1.084853080101311E-003;-3.842165693640709E-003;
2.403166666666667E+009;1.674985140562058E-001;1.644694060087204E-002;-1.378643442876637E-003;-3.962799441069365E-003;
2.403333333333334E+009;1.683523058891296E-001;1.499048434197903E-002;-1.571589498780668E-003;-3.970953635871410E-003;
2.403500000000000E+009;1.689534336328507E-001;1.346886809915304E-002;-1.805084291845560E-003;-3.965402487665415E-003;
2.403666666666667E+009;1.698085665702820E-001;1.204576063901186E-002;-1.841471996158361E-003;-3.859489690512419E-003;
2.403833333333334E+009;1.707020401954651E-001;1.073476299643517E-002;-2.143735066056252E-003;-3.843527054414153E-003;
2.404000000000000E+009;1.713414192199707E-001;9.606251493096352E-003;-2.243173075839877E-003;-3.624659031629562E-003;
2.404166666666667E+009;1.722902655601502E-001;8.400813676416874E-003;-2.405973849818111E-003;-3.686362644657493E-003;
2.404333333333334E+009;1.729613393545151E-001;7.340313401073217E-003;-2.631231443956494E-003;-3.520435420796275E-003;
2.404500000000000E+009;1.739033013582230E-001;6.241913884878159E-003;-2.646313281729817E-003;-3.355744760483503E-003;
2.404666666666667E+009;1.745807826519013E-001;5.614279303699732E-003;-2.965274965390563E-003;-3.365816548466682E-003;
2.404833333333334E+009;1.753335595130920E-001;4.783999640494585E-003;-3.166433656588197E-003;-3.223343519493938E-003;
2.405000000000000E+009;1.759550720453262E-001;3.993342164903879E-003;-3.219662467017770E-003;-3.118743887171149E-003;
2.405166666666667E+009;1.767119020223618E-001;3.168746130540967E-003;-3.263138933107257E-003;-2.959522884339094E-003;
2.405333333333334E+009;1.775287985801697E-001;2.614326775074005E-003;-3.268414177000523E-003;-2.784819342195988E-003;
2.405500000000000E+009;1.780396401882172E-001;2.144618891179562E-003;-3.463501809164882E-003;-2.627895679324865E-003;
2.405666666666667E+009;1.786250174045563E-001;1.668099779635668E-003;-3.607687074691057E-003;-2.363709034398198E-003;
2.405833333333334E+009;1.789973825216293E-001;1.398870605044067E-003;-3.682697890326381E-003;-2.085560234263539E-003;
2.406000000000000E+009;1.795526891946793E-001;1.045836368575692E-003;-3.963972907513380E-003;-1.930188271217048E-003;
2.406166666666667E+009;1.796784102916718E-001;9.413700900040567E-004;-3.966630902141333E-003;-1.914325403049588E-003;
2.406333333333334E+009;1.801646500825882E-001;4.567434953060001E-004;-4.025974776595831E-003;-1.650994294323027E-003;
2.406500000000000E+009;1.804372072219849E-001;2.358987403567880E-004;-3.891871310770512E-003;-1.508628949522972E-003;
2.406666666666667E+009;1.802771240472794E-001;5.619137937173946E-006;-3.976194653660059E-003;-1.290855230763555E-003;
2.406833333333334E+009;1.805903464555740E-001;-3.819756384473294E-004;-4.008702468127012E-003;-1.058067195117474E-003;
2.407000000000000E+009;1.806489527225494E-001;-6.615294842049480E-004;-4.150626249611378E-003;-9.235393372364342E-004;
2.407166666666667E+009;1.806708723306656E-001;-8.279598550871015E-004;-4.089067224413157E-003;-8.197980350814760E-004;
2.407333333333334E+009;1.803338974714279E-001;-1.189279719255865E-003;-4.207430873066187E-003;-6.495947018265724E-004;
2.407500000000000E+009;1.801853924989700E-001;-1.363239716738462E-003;-4.082548432052136E-003;-4.677143588196486E-004;
2.407666666666667E+009;1.798194050788879E-001;-1.772228046320379E-003;-4.061983432620764E-003;-3.940553287975490E-004;
2.407833333333334E+009;1.793544143438339E-001;-2.405031584203243E-003;-3.994903061538935E-003;-1.964757248060778E-004;
2.408000000000000E+009;1.789400428533554E-001;-2.840836532413960E-003;-4.040841944515705E-003;8.772775618126616E-005;
2.408166666666667E+009;1.785791367292404E-001;-3.307940438389778E-003;-3.922486677765846E-003;1.438953331671655E-004;
2.408333333333334E+009;1.781188994646072E-001;-3.944837022572756E-003;-3.792088944464922E-003;3.443966852501035E-004;
2.408500000000000E+009;1.776316463947296E-001;-4.580104257911444E-003;-3.774376120418310E-003;4.638289974536747E-004;
2.408666666666667E+009;1.770127862691879E-001;-5.557172931730747E-003;-3.897670889273286E-003;5.775028839707375E-004;
2.408833333333334E+009;1.761612594127655E-001;-6.309529300779104E-003;-3.803309984505177E-003;7.813092088326812E-004;
2.409000000000000E+009;1.753816604614258E-001;-7.313735783100128E-003;-3.701946232467890E-003;8.992899674922228E-004;
2.409166666666667E+009;1.745654195547104E-001;-8.234479464590550E-003;-3.680743277072907E-003;1.022631418891251E-003;
2.409333333333334E+009;1.741035729646683E-001;-9.458705782890320E-003;-3.558179596439004E-003;9.861100697889924E-004;
2.409500000000000E+009;1.731978654861450E-001;-1.068579498678446E-002;-3.393093822523952E-003;1.175766112282872E-003;
2.409666666666667E+009;1.722940653562546E-001;-1.192529499530792E-002;-3.335932968184352E-003;1.243518316186965E-003;
2.409833333333334E+009;1.716445535421372E-001;-1.319088228046894E-002;-3.225727938115597E-003;1.404600916430354E-003;
2.410000000000000E+009;1.710300147533417E-001;-1.456085778772831E-002;-3.093174658715725E-003;1.318644848652184E-003;
2.410166666666667E+009;1.701644062995911E-001;-1.626479811966419E-002;-3.004363505169749E-003;1.401359098963440E-003;
2.410333333333334E+009;1.695106178522110E-001;-1.779303513467312E-002;-3.017023671418428E-003;1.451515709050000E-003;
2.410500000000000E+009;1.689103692770004E-001;-1.926541328430176E-002;-2.939015394076705E-003;1.514281611889601E-003;
2.410666666666667E+009;1.681759655475617E-001;-2.136653847992420E-002;-2.862466732040048E-003;1.575249480083585E-003;
2.410833333333334E+009;1.677768230438232E-001;-2.305765263736248E-002;-2.859981730580330E-003;1.687050680629909E-003;
2.411000000000000E+009;1.672130525112152E-001;-2.480245009064674E-002;-2.820576773956418E-003;1.712853903882206E-003;
2.411166666666667E+009;1.666953861713409E-001;-2.671933732926846E-002;-2.802756614983082E-003;1.627966994419694E-003;
2.411333333333334E+009;1.664992570877075E-001;-2.860448509454727E-002;-2.759349532425404E-003;1.869806786999106E-003;
2.411500000000000E+009;1.660142987966538E-001;-3.067824803292751E-002;-2.621580380946398E-003;1.643547555431724E-003;
2.411666666666667E+009;1.659758836030960E-001;-3.261248022317886E-002;-2.649012254551053E-003;1.858256058767438E-003;
2.411833333333334E+009;1.656713634729385E-001;-3.440559655427933E-002;-2.810609992593527E-003;1.934331608936191E-003;
2.412000000000000E+009;1.657424718141556E-001;-3.661220893263817E-002;-2.658259822055697E-003;2.093229675665498E-003;
2.412166666666667E+009;1.655997782945633E-001;-3.855354338884354E-002;-2.535236533731222E-003;2.066553570330143E-003;
2.412333333333334E+009;1.658540219068527E-001;-4.047993198037148E-002;-2.596050966531038E-003;2.191640669479966E-003;
2.412500000000000E+009;1.657346338033676E-001;-4.242905601859093E-002;-2.509700134396553E-003;2.440081676468253E-003;
2.412666666666667E+009;1.660504788160324E-001;-4.439570009708405E-002;-2.470816252753139E-003;2.441517310217023E-003;
2.412833333333334E+009;1.663866788148880E-001;-4.639858379960060E-002;-2.438160590827465E-003;2.718544332310557E-003;
2.413000000000000E+009;1.666740477085114E-001;-4.797060787677765E-002;-2.423358382657170E-003;2.684506354853511E-003;
2.413166666666667E+009;1.668084263801575E-001;-4.993147030472755E-002;-2.323254710063338E-003;2.813244471326470E-003;
2.413333333333334E+009;1.671558022499085E-001;-5.154199153184891E-002;-2.222011564299464E-003;2.815521089360118E-003;
2.413500000000000E+009;1.676496714353561E-001;-5.337007716298103E-002;-2.058583544567227E-003;3.082786919549108E-003;
2.413666666666667E+009;1.682566404342651E-001;-5.498870462179184E-002;-2.009551273658872E-003;3.282655263319612E-003;
2.413833333333334E+009;1.686046421527863E-001;-5.647018179297447E-002;-1.588890794664621E-003;3.362966701388359E-003;
2.414000000000000E+009;1.690341830253601E-001;-5.789366737008095E-002;-1.438727951608598E-003;3.316841786727309E-003;
2.414166666666667E+009;1.694866269826889E-001;-5.925064906477928E-002;-1.324236742220819E-003;3.426812589168549E-003;
2.414333333333334E+009;1.699767857789993E-001;-6.068021431565285E-002;-1.204552827402949E-003;3.480756888166070E-003;
2.414500000000000E+009;1.708206087350845E-001;-6.174739450216293E-002;-1.081363065168262E-003;3.505199216306210E-003;
2.414666666666667E+009;1.710838377475739E-001;-6.278546154499054E-002;-6.847954937256873E-004;3.509240690618753E-003;
2.414833333333334E+009;1.716262400150299E-001;-6.383419781923294E-002;-6.576409796252847E-004;3.544446546584368E-003;
2.415000000000000E+009;1.720498502254486E-001;-6.474024057388306E-002;-5.536118987947702E-004;3.597361035645008E-003;
2.415166666666667E+009;1.725349277257919E-001;-6.564757972955704E-002;-2.992519002873451E-004;3.560895798727870E-003;
2.415333333333334E+009;1.729938536882401E-001;-6.639346480369568E-002;-1.850261178333312E-004;3.565783146768808E-003;
2.415500000000000E+009;1.733140051364899E-001;-6.713481247425079E-002;-4.441936471266672E-005;3.491384908556938E-003;
2.415666666666667E+009;1.735412925481796E-001;-6.752466410398483E-002;1.014663430396467E-004;3.571592504158616E-003;
2.415833333333334E+009;1.738999336957932E-001;-6.806129217147827E-002;3.414675884414464E-004;3.386904718354344E-003;
2.416000000000000E+009;1.739016622304916E-001;-6.839942932128906E-002;3.268235013820231E-004;3.366045188158751E-003;
2.416166666666667E+009;1.742034256458283E-001;-6.889009475708008E-002;4.019923508167267E-004;3.292147070169449E-003;
2.416333333333334E+009;1.740666478872299E-001;-6.919404119253159E-002;5.976678803563118E-004;3.178828395903111E-003;
2.416500000000000E+009;1.740572154521942E-001;-6.956240534782410E-002;7.616934599354863E-004;3.284343518316746E-003;
2.416666666666667E+009;1.738543361425400E-001;-6.964177638292313E-002;9.820747654885054E-004;3.031134605407715E-003;
2.416833333333334E+009;1.736830323934555E-001;-7.000995427370071E-002;9.489446529187262E-004;3.067620564252138E-003;
2.417000000000000E+009;1.731569766998291E-001;-7.017120718955994E-002;1.150691881775856E-003;2.765830373391509E-003;
2.417166666666667E+009;1.727557182312012E-001;-7.022846490144730E-002;1.142192864790559E-003;2.617598045617342E-003;
2.417333333333334E+009;1.723052263259888E-001;-7.034102082252502E-002;1.299970434047282E-003;2.787522505968809E-003;
2.417500000000000E+009;1.715561449527741E-001;-7.067415118217468E-002;1.374341198243201E-003;2.649366157129407E-003;
2.417666666666667E+009;1.709727942943573E-001;-7.073760032653809E-002;1.612685737200081E-003;2.461973577737808E-003;
2.417833333333334E+009;1.701691597700119E-001;-7.087753713130951E-002;1.556945615448058E-003;2.356345066800714E-003;
2.418000000000000E+009;1.693585664033890E-001;-7.121151685714722E-002;1.533632748760283E-003;2.265142742544413E-003;
2.418166666666667E+009;1.682638972997665E-001;-7.123847305774689E-002;1.705814735032618E-003;2.214378444477916E-003;
2.418333333333334E+009;1.676152199506760E-001;-7.167477160692215E-002;1.670111203566194E-003;2.243073889985681E-003;
2.418500000000000E+009;1.663560569286346E-001;-7.190510630607605E-002;1.773813739418984E-003;2.101124264299870E-003;
2.418666666666667E+009;1.652837842702866E-001;-7.234539836645126E-002;1.707433373667300E-003;2.003990113735199E-003;
2.418833333333334E+009;1.639205366373062E-001;-7.285298407077789E-002;1.802793587557972E-003;1.851589302532375E-003;
2.419000000000000E+009;1.626220792531967E-001;-7.322622090578079E-002;1.810951158404350E-003;1.703530899249017E-003;
2.419166666666667E+009;1.615562140941620E-001;-7.383018732070923E-002;1.806452870368958E-003;1.769268186762929E-003;
2.419333333333334E+009;1.600242704153061E-001;-7.430132478475571E-002;1.957191387191415E-003;1.709560514427722E-003;
2.419500000000000E+009;1.588343232870102E-001;-7.517723739147186E-002;1.814576913602650E-003;1.453100470826030E-003;
2.419666666666667E+009;1.577174365520477E-001;-7.621965557336807E-002;1.796856755390763E-003;1.362030860036612E-003;
2.419833333333334E+009;1.561140865087509E-001;-7.662054151296616E-002;1.963296439498663E-003;1.321022631600499E-003;
2.420000000000000E+009;1.549019217491150E-001;-7.775717973709106E-002;1.871839282102883E-003;1.242513651959598E-003;
2.420166666666667E+009;1.537279784679413E-001;-7.866860926151276E-002;1.745386747643352E-003;1.139888539910317E-003;
2.420333333333334E+009;1.525272279977799E-001;-7.980538904666901E-002;1.948588411323726E-003;1.068937126547098E-003;
2.420500000000000E+009;1.515321433544159E-001;-8.092692494392395E-002;1.864522462710738E-003;8.891308680176735E-004;
2.420666666666667E+009;1.501372903585434E-001;-8.214559406042099E-002;1.846239436417818E-003;7.767134229652584E-004;
2.420833333333334E+009;1.491370201110840E-001;-8.367671072483063E-002;1.923714764416218E-003;7.570205489173532E-004;
2.421000000000000E+009;1.481091082096100E-001;-8.507662266492844E-002;1.815055496990681E-003;6.290140445344150E-004;
2.421166666666667E+009;1.472079604864121E-001;-8.652740716934204E-002;1.717563951388001E-003;5.625890917144716E-004;
2.421333333333334E+009;1.464846432209015E-001;-8.802567422389984E-002;1.716726575978100E-003;3.645193064585328E-004;
2.421500000000000E+009;1.454919427633286E-001;-8.962247520685196E-002;1.629973761737347E-003;5.174991674721241E-004;
2.421666666666667E+009;1.449591219425201E-001;-9.133809059858322E-002;1.699479529634118E-003;3.338627284392715E-004;
2.421833333333334E+009;1.444048881530762E-001;-9.276194870471954E-002;1.467135269194841E-003;2.267215168103576E-004;
2.422000000000000E+009;1.438314020633698E-001;-9.466262161731720E-002;1.467768568545580E-003;-9.631904504203703E-006;
2.422166666666667E+009;1.432204395532608E-001;-9.637805074453354E-002;1.252214191481471E-003;8.544247975805774E-006;
2.422333333333334E+009;1.428812891244888E-001;-9.804534167051315E-002;1.307669561356306E-003;1.288893836317584E-004;
2.422500000000000E+009;1.426281332969666E-001;-9.960471093654633E-002;1.042816555127502E-003;6.556008884217590E-005;
2.422666666666667E+009;1.424492597579956E-001;-1.015297025442123E-001;1.270079868845642E-003;2.053754178632516E-005;
2.422833333333334E+009;1.422919183969498E-001;-1.032466813921928E-001;7.992842583917081E-004;2.209268131991848E-004;
2.423000000000000E+009;1.423515081405640E-001;-1.049100533127785E-001;1.066591939888895E-003;2.551751676946878E-004;
2.423166666666667E+009;1.425498574972153E-001;-1.068073436617851E-001;8.488942985422909E-004;1.087505006580614E-004;
2.423333333333334E+009;1.428252756595612E-001;-1.081388220191002E-001;8.665285422466695E-004;1.397868909407407E-004;
2.423500000000000E+009;1.429095566272736E-001;-1.099915355443955E-001;7.428991375491023E-004;1.182185515062884E-004;
2.423666666666667E+009;1.429616510868073E-001;-1.116265058517456E-001;8.697340963408351E-004;3.779208054766059E-004;
2.423833333333334E+009;1.435287445783615E-001;-1.131691560149193E-001;6.722155958414078E-004;3.777937963604927E-004;
2.424000000000000E+009;1.436578333377838E-001;-1.144598573446274E-001;7.724039605818689E-004;4.378881712909788E-004;
2.424166666666667E+009;1.439089626073837E-001;-1.158493459224701E-001;6.047571077942848E-004;3.625019744504243E-004;
2.424333333333334E+009;1.445593982934952E-001;-1.171269267797470E-001;8.288456592708826E-004;3.625034296419472E-004;
2.424500000000000E+009;1.450887024402618E-001;-1.182969063520432E-001;7.873586728237569E-004;4.910819698125124E-004;
2.424666666666667E+009;1.456111371517181E-001;-1.192758753895760E-001;5.640222225338221E-004;5.154897226020694E-004;
2.424833333333334E+009;1.458405703306198E-001;-1.204101368784905E-001;8.332561701536179E-004;6.014364771544933E-004;
2.425000000000000E+009;1.464108973741531E-001;-1.214423179626465E-001;7.756575942039490E-004;6.290140445344150E-004;
2.425166666666667E+009;1.467514634132385E-001;-1.222947761416435E-001;8.394243195652962E-004;5.977620603516698E-004;
2.425333333333334E+009;1.470674127340317E-001;-1.230679005384445E-001;1.014452776871622E-003;7.773667457513511E-004;
2.425500000000000E+009;1.475974619388580E-001;-1.238479018211365E-001;9.530244860798121E-004;6.150303524918854E-004;
2.425666666666667E+009;1.478309333324432E-001;-1.243835613131523E-001;1.094135805033147E-003;6.998448516242206E-004;
2.425833333333334E+009;1.481007635593414E-001;-1.248613521456718E-001;1.047465601004660E-003;6.956537254154682E-004;
2.426000000000000E+009;1.482634544372559E-001;-1.253650486469269E-001;1.195671036839485E-003;6.080502644181252E-004;
2.426166666666667E+009;1.486973762512207E-001;-1.258120089769363E-001;1.019298448227346E-003;7.555880583822727E-004;
2.426333333333334E+009;1.487325727939606E-001;-1.260783076286316E-001;1.013327040709555E-003;5.649922532029450E-004;
2.426500000000000E+009;1.488455384969711E-001;-1.262440234422684E-001;9.643340017646551E-004;5.929083563387394E-004;
2.426666666666667E+009;1.488739550113678E-001;-1.262271851301193E-001;1.182194449938834E-003;5.577919655479491E-004;
2.426833333333334E+009;1.487238854169846E-001;-1.264702528715134E-001;1.259588636457920E-003;5.087197059765458E-004;
2.427000000000000E+009;1.484309583902359E-001;-1.266329437494278E-001;1.189316506497562E-003;4.626132140401751E-004;
2.427166666666667E+009;1.481010019779205E-001;-1.264429092407227E-001;1.422224333509803E-003;4.234785155858845E-004;
2.427333333333334E+009;1.476922929286957E-001;-1.264766305685043E-001;1.222538761794567E-003;4.190852341707796E-004;
2.427500000000000E+009;1.471935510635376E-001;-1.265369951725006E-001;1.353997853584588E-003;5.077354726381600E-004;
2.427666666666667E+009;1.465495228767395E-001;-1.264331638813019E-001;1.276513910852373E-003;3.766470472328365E-004;
2.427833333333334E+009;1.457730382680893E-001;-1.263483166694641E-001;1.327442936599255E-003;2.970783389173448E-004;
