# Version 1.00
#
freq[Hz];re:Trc1_S11;im:Trc1_S11;re:Trc2_S21;im:Trc2_S21;
2.400000000000000E+009;1.551292836666107E-001;1.065883785486221E-001;-4.990583285689354E-003;-3.564820392057300E-003;
2.400166666666667E+009;1.547114253044128E-001;1.041215956211090E-001;-5.160702858120203E-003;-3.454967169091106E-003;
2.400333333333334E+009;1.548593491315842E-001;1.018362790346146E-001;-5.332110915333033E-003;-3.543152473866940E-003;
2.400500000000000E+009;1.549001038074493E-001;9.917519241571426E-002;-5.474271718412638E-003;-3.422073088586330E-003;
2.400666666666667E+009;1.548814177513123E-001;9.670557826757431E-002;-5.717328749597073E-003;-3.200063714757562E-003;
2.400833333333334E+009;1.550104469060898E-001;9.383031725883484E-002;-6.005691364407539E-003;-3.105783835053444E-003;
2.401000000000000E+009;1.552369147539139E-001;9.089762717485428E-002;-6.155592855066061E-003;-2.934531075879931E-003;
2.401166666666667E+009;1.551477462053299E-001;8.813060820102692E-002;-6.499262526631355E-003;-2.645713277161121E-003;
2.401333333333334E+009;1.556592136621475E-001;8.537168055772781E-002;-6.503816228359938E-003;-2.476805588230491E-003;
2.401500000000000E+009;1.560242027044296E-001;8.259096741676331E-002;-6.699891295284033E-003;-2.170139923691750E-003;
2.401666666666667E+009;1.566297560930252E-001;7.980226725339890E-002;-6.935746874660254E-003;-2.118407515808940E-003;
2.401833333333334E+009;1.570262163877487E-001;7.710232585668564E-002;-6.960488390177488E-003;-1.762834726832807E-003;
2.402000000000000E+009;1.578672677278519E-001;7.437223941087723E-002;-7.235998753458262E-003;-1.580353709869087E-003;
2.402166666666667E+009;1.589401066303253E-001;7.202564179897308E-002;-7.296984083950520E-003;-1.326062832958996E-003;
2.402333333333334E+009;1.598361283540726E-001;6.920668482780457E-002;-7.378478534519672E-003;-1.195653458125889E-003;
2.402500000000000E+009;1.612306833267212E-001;6.679391860961914E-002;-7.537890225648880E-003;-8.772290311753750E-004;
2.402666666666667E+009;1.620851457118988E-001;6.442165374755859E-002;-7.559651974588633E-003;-6.316431681625545E-004;
2.402833333333334E+009;1.634633690118790E-001;6.188083067536354E-002;-7.683094590902329E-003;-2.250024117529392E-004;
2.403000000000000E+009;1.651576608419418E-001;5.985425412654877E-002;-7.908949628472328E-003;1.425242662662640E-004;
2.403166666666667E+009;1.667185872793198E-001;5.751477926969528E-002;-7.830902002751827E-003;3.420734137762338E-004;
2.403333333333334E+009;1.682703495025635E-001;5.529454723000526E-002;-7.799757178872824E-003;6.107375374995172E-004;
2.403500000000000E+009;1.699960380792618E-001;5.322790890932083E-002;-8.094643242657185E-003;1.165754045359790E-003;
2.403666666666667E+009;1.718892008066177E-001;5.144671723246574E-002;-8.014173246920109E-003;1.567722298204899E-003;
2.403833333333334E+009;1.733748614788055E-001;4.953387379646301E-002;-8.136560209095478E-003;1.892865519039333E-003;
2.404000000000000E+009;1.749163717031479E-001;4.790458455681801E-002;-7.921255193650723E-003;2.458265051245689E-003;
2.404166666666667E+009;1.766106039285660E-001;4.635098204016686E-002;-7.789395283907652E-003;2.710501663386822E-003;
2.404333333333334E+009;1.783517599105835E-001;4.499103873968124E-002;-7.710803765803576E-003;3.047132398933172E-003;
2.404500000000000E+009;1.799105107784271E-001;4.347249865531921E-002;-7.424705196171999E-003;3.447992261499167E-003;
2.404666666666667E+009;1.815371215343475E-001;4.245175421237946E-002;-7.315432187169790E-003;3.893834538757801E-003;
2.404833333333334E+009;1.832181215286255E-001;4.136696457862854E-002;-7.183589972555637E-003;4.208168014883995E-003;
2.405000000000000E+009;1.844706982374191E-001;4.063323885202408E-002;-6.899371277540922E-003;4.409095272421837E-003;
2.405166666666667E+009;1.859351694583893E-001;4.003369063138962E-002;-6.739250384271145E-003;4.734606947749853E-003;
2.405333333333334E+009;1.871594935655594E-001;3.953258693218231E-002;-6.362472195178270E-003;5.096456035971642E-003;
2.405500000000000E+009;1.886433362960815E-001;3.906777128577232E-002;-6.150168832391501E-003;5.256714764982462E-003;
2.405666666666667E+009;1.898281574249268E-001;3.863028064370155E-002;-5.923999007791281E-003;5.548540037125349E-003;
2.405833333333334E+009;1.911445409059525E-001;3.825651109218597E-002;-5.666444078087807E-003;5.817637778818607E-003;
2.406000000000000E+009;1.920627802610397E-001;3.815231472253799E-002;-5.316144321113825E-003;5.960593000054359E-003;
2.406166666666667E+009;1.928965151309967E-001;3.795842081308365E-002;-4.849246237426996E-003;6.163011305034161E-003;
2.406333333333334E+009;1.938117593526840E-001;3.796599805355072E-002;-4.642381332814694E-003;6.220055744051933E-003;
2.406500000000000E+009;1.945468932390213E-001;3.789302706718445E-002;-4.423444624990225E-003;6.414646282792091E-003;
2.406666666666667E+009;1.953015029430389E-001;3.793350979685783E-002;-4.012575373053551E-003;6.425981409847736E-003;
2.406833333333334E+009;1.957582384347916E-001;3.798858076334000E-002;-3.776494646444917E-003;6.601118016988039E-003;
2.407000000000000E+009;1.958636939525604E-001;3.818434104323387E-002;-3.330118721351028E-003;6.771268323063850E-003;
2.407166666666667E+009;1.963381171226502E-001;3.781720995903015E-002;-3.051095176488161E-003;6.773388944566250E-003;
2.407333333333334E+009;1.962295770645142E-001;3.795138001441956E-002;-2.623427892103791E-003;6.759146228432655E-003;
2.407500000000000E+009;1.963014900684357E-001;3.822030499577522E-002;-2.407786203548312E-003;6.673775147646666E-003;
2.407666666666667E+009;1.961815655231476E-001;3.792205452919006E-002;-2.223592950031161E-003;6.764370016753674E-003;
2.407833333333334E+009;1.956612169742584E-001;3.777491673827171E-002;-1.997706945985556E-003;6.805790122598410E-003;
2.408000000000000E+009;1.955914348363876E-001;3.747891634702683E-002;-1.796399825252593E-003;6.559833884239197E-003;
2.408166666666667E+009;1.951056420803070E-001;3.720897436141968E-002;-1.401416026055813E-003;6.531793624162674E-003;
2.408333333333334E+009;1.947170048952103E-001;3.649768233299255E-002;-1.281991018913686E-003;6.669025402516127E-003;
2.408500000000000E+009;1.938852220773697E-001;3.618440032005310E-002;-1.020115916617215E-003;6.367987021803856E-003;
2.408666666666667E+009;1.932290345430374E-001;3.563840314745903E-002;-6.651136209256947E-004;6.418244913220406E-003;
2.408833333333334E+009;1.924756765365601E-001;3.489226475358009E-002;-5.659832386299968E-004;6.272840779274702E-003;
2.409000000000000E+009;1.913115829229355E-001;3.371416404843330E-002;-3.454639809206128E-004;6.270065903663635E-003;
2.409166666666667E+009;1.904597282409668E-001;3.277004137635231E-002;-3.142658388242126E-004;5.934378132224083E-003;
2.409333333333334E+009;1.896924525499344E-001;3.172075748443604E-002;-1.217450990225188E-004;5.990785546600819E-003;
2.409500000000000E+009;1.885756552219391E-001;3.042517602443695E-002;1.014234512695111E-004;5.824238527566195E-003;
2.409666666666667E+009;1.877239346504211E-001;2.893344499170780E-002;4.600555694196373E-004;5.805647000670433E-003;
2.409833333333334E+009;1.865890622138977E-001;2.757557295262814E-002;4.057913029100746E-004;5.682426039129496E-003;
2.410000000000000E+009;1.856637597084045E-001;2.574284560978413E-002;6.420242716558278E-004;5.552272312343121E-003;
2.410166666666667E+009;1.845558136701584E-001;2.401501871645451E-002;7.140971138142049E-004;5.595280788838863E-003;
2.410333333333334E+009;1.836660802364349E-001;2.210682630538940E-002;6.965437787584961E-004;5.383126437664032E-003;
2.410500000000000E+009;1.825500130653381E-001;2.018541842699051E-002;9.041038574650884E-004;5.210336297750473E-003;
2.410666666666667E+009;1.817294657230377E-001;1.792232692241669E-002;9.796340018510819E-004;5.180441308766604E-003;
2.410833333333334E+009;1.810716092586517E-001;1.582690887153149E-002;1.030873623676598E-003;5.118602886795998E-003;
2.411000000000000E+009;1.802509874105454E-001;1.363425888121128E-002;1.200730330310762E-003;4.995935130864382E-003;
2.411166666666667E+009;1.799284517765045E-001;1.133428048342466E-002;1.185901695862413E-003;4.820044152438641E-003;
2.411333333333334E+009;1.791746467351914E-001;8.934060111641884E-003;1.260695164091885E-003;4.787462297827005E-003;
2.411500000000000E+009;1.787958592176437E-001;6.600870285183191E-003;1.245219842530787E-003;4.564315546303988E-003;
2.411666666666667E+009;1.785706877708435E-001;4.120275843888521E-003;1.278750132769346E-003;4.522275179624558E-003;
2.411833333333334E+009;1.783364862203598E-001;1.852956833317876E-003;1.414077705703676E-003;4.516974557191134E-003;
2.412000000000000E+009;1.785821169614792E-001;-7.469404954463244E-004;1.560036209411919E-003;4.329432267695665E-003;
2.412166666666667E+009;1.785911768674851E-001;-2.844250295311213E-003;1.427818206138909E-003;4.351516719907522E-003;
2.412333333333334E+009;1.787456274032593E-001;-5.501833278685808E-003;1.498415600508452E-003;4.384379368275404E-003;
2.412500000000000E+009;1.791774928569794E-001;-7.694662082940340E-003;1.528734224848449E-003;4.396199248731136E-003;
2.412666666666667E+009;1.796943098306656E-001;-1.033333595842123E-002;1.602864940650761E-003;4.218075424432755E-003;
2.412833333333334E+009;1.804895401000977E-001;-1.255132723599672E-002;1.473411219194531E-003;4.103783052414656E-003;
2.413000000000000E+009;1.813040375709534E-001;-1.501138694584370E-002;1.565961283631623E-003;4.165865480899811E-003;
2.413166666666667E+009;1.820151060819626E-001;-1.716137863695622E-002;1.510859467089176E-003;4.138590302318335E-003;
2.413333333333334E+009;1.829010099172592E-001;-1.935835927724838E-002;1.622429233975709E-003;4.089470487087965E-003;
2.413500000000000E+009;1.839185059070587E-001;-2.173817157745361E-002;1.656950102187693E-003;4.393057432025671E-003;
2.413666666666667E+009;1.850023120641708E-001;-2.373161166906357E-002;1.770070521160960E-003;4.243663046509028E-003;
2.413833333333334E+009;1.859215050935745E-001;-2.568427659571171E-002;1.735007157549262E-003;4.416166339069605E-003;
2.414000000000000E+009;1.871445924043655E-001;-2.761513739824295E-002;1.890528597868979E-003;4.507652949541807E-003;
2.414166666666667E+009;1.884471327066422E-001;-2.933921851217747E-002;1.977836713194847E-003;4.378648940473795E-003;
2.414333333333334E+009;1.894866973161697E-001;-3.126237168908119E-002;2.152850385755301E-003;4.456595517694950E-003;
2.414500000000000E+009;1.906657516956329E-001;-3.275453299283981E-002;2.352643525227904E-003;4.522711038589478E-003;
2.414666666666667E+009;1.918267011642456E-001;-3.413776680827141E-002;2.558827400207520E-003;4.455212038010359E-003;
2.414833333333334E+009;1.929187029600143E-001;-3.538052365183830E-002;2.811351558193564E-003;4.470427986234427E-003;
2.415000000000000E+009;1.940264403820038E-001;-3.681578114628792E-002;2.854803809896112E-003;4.474063869565725E-003;
2.415166666666667E+009;1.952826678752899E-001;-3.785580769181252E-002;2.953214570879936E-003;4.443044774234295E-003;
2.415333333333334E+009;1.963180601596832E-001;-3.875038772821426E-002;3.222120227292180E-003;4.418675787746906E-003;
2.415500000000000E+009;1.973680704832077E-001;-3.936410322785378E-002;3.187119029462338E-003;4.387808032333851E-003;
2.415666666666667E+009;1.984321922063828E-001;-4.033355042338371E-002;3.515933407470584E-003;4.314682912081480E-003;
2.415833333333334E+009;1.992561817169190E-001;-4.083165526390076E-002;3.676361870020628E-003;4.215978085994721E-003;
2.416000000000000E+009;2.000514715909958E-001;-4.137997329235077E-002;3.752821125090122E-003;4.166909959167242E-003;
2.416166666666667E+009;2.006410956382752E-001;-4.199989140033722E-002;4.003114998340607E-003;4.153260495513678E-003;
2.416333333333334E+009;2.011648565530777E-001;-4.210981726646423E-002;4.196330439299345E-003;4.047007765620947E-003;
2.416500000000000E+009;2.017200142145157E-001;-4.242918267846108E-002;4.290249198675156E-003;3.937010187655687E-003;
2.416666666666667E+009;2.018399387598038E-001;-4.284953325986862E-002;4.591658711433411E-003;3.899304196238518E-003;
2.416833333333334E+009;2.021679431200028E-001;-4.283478111028671E-002;4.720309749245644E-003;3.729331307113171E-003;
2.417000000000000E+009;2.021512836217880E-001;-4.292168468236923E-002;5.055713001638651E-003;3.558269701898098E-003;
2.417166666666667E+009;2.018066793680191E-001;-4.275549575686455E-002;5.161233711987734E-003;3.430547658354044E-003;
2.417333333333334E+009;2.014482617378235E-001;-4.272446408867836E-002;5.293178372085095E-003;3.040225245058537E-003;
2.417500000000000E+009;2.012913078069687E-001;-4.273415729403496E-002;5.497525911778212E-003;2.798534696921706E-003;
2.417666666666667E+009;2.007207870483398E-001;-4.253374412655830E-002;5.503388121724129E-003;2.679542172700167E-003;
2.417833333333334E+009;2.002064734697342E-001;-4.239398613572121E-002;5.608965642750263E-003;2.269192831590772E-003;
2.418000000000000E+009;1.995844841003418E-001;-4.208615794777870E-002;5.768497940152884E-003;2.193348715081811E-003;
2.418166666666667E+009;1.986966580152512E-001;-4.207479953765869E-002;5.750038195401430E-003;1.973609672859311E-003;
2.418333333333334E+009;1.978048980236054E-001;-4.187910258769989E-002;5.926053971052170E-003;1.784732565283775E-003;
2.418500000000000E+009;1.967922151088715E-001;-4.197283089160919E-002;5.747324787080288E-003;1.635522698052228E-003;
2.418666666666667E+009;1.958270967006683E-001;-4.185637459158897E-002;5.883370060473681E-003;1.304151141084731E-003;
2.418833333333334E+009;1.944726258516312E-001;-4.195319116115570E-002;5.880260374397039E-003;1.251162961125374E-003;
2.419000000000000E+009;1.933062225580216E-001;-4.230283200740814E-002;5.755434744060040E-003;1.041236682794988E-003;
2.419166666666667E+009;1.920484304428101E-001;-4.255672916769981E-002;5.905913189053536E-003;9.211314027197659E-004;
2.419333333333334E+009;1.905574500560761E-001;-4.313161596655846E-002;5.772937554866076E-003;7.669113110750914E-004;
2.419500000000000E+009;1.891169100999832E-001;-4.358502849936485E-002;5.911414045840502E-003;7.170636090449989E-004;
2.419666666666667E+009;1.874632239341736E-001;-4.438806697726250E-002;5.911537446081638E-003;4.046588437631726E-004;
2.419833333333334E+009;1.860229969024658E-001;-4.506509378552437E-002;5.924482829868794E-003;2.502464049030095E-004;
2.420000000000000E+009;1.845752745866776E-001;-4.582583904266357E-002;6.005492992699146E-003;1.490833965362981E-004;
2.420166666666667E+009;1.828355789184570E-001;-4.694732651114464E-002;5.993151105940342E-003;-1.339379523415119E-004;
2.420333333333334E+009;1.813832074403763E-001;-4.815762117505074E-002;6.139702163636684E-003;-2.701933844946325E-004;
2.420500000000000E+009;1.797379702329636E-001;-4.940527677536011E-002;6.106903776526451E-003;-4.476815520320088E-004;
2.420666666666667E+009;1.780261844396591E-001;-5.034309625625610E-002;6.152585148811340E-003;-7.339653675444424E-004;
2.420833333333334E+009;1.765411198139191E-001;-5.192088708281517E-002;6.195848807692528E-003;-9.013723465614021E-004;
2.421000000000000E+009;1.750169843435288E-001;-5.350840836763382E-002;6.118996534496546E-003;-1.129889511503279E-003;
2.421166666666667E+009;1.738980710506439E-001;-5.530474707484245E-002;5.947794765233994E-003;-1.251479960046709E-003;
2.421333333333334E+009;1.721835583448410E-001;-5.682313069701195E-002;6.067657843232155E-003;-1.557560521177948E-003;
2.421500000000000E+009;1.708547621965408E-001;-5.869104713201523E-002;6.061353720724583E-003;-1.816792297177017E-003;
2.421666666666667E+009;1.696581691503525E-001;-6.046538800001144E-002;6.080153398215771E-003;-2.011377131566405E-003;
2.421833333333334E+009;1.686504185199738E-001;-6.222558021545410E-002;5.719908047467470E-003;-2.228286350145936E-003;
2.422000000000000E+009;1.674536615610123E-001;-6.415606290102005E-002;5.675929598510265E-003;-2.459181472659111E-003;
2.422166666666667E+009;1.667143106460571E-001;-6.639491766691208E-002;5.553425289690495E-003;-2.728938590735197E-003;
2.422333333333334E+009;1.657108515501022E-001;-6.835472583770752E-002;5.344193894416094E-003;-2.978837816044688E-003;
2.422500000000000E+009;1.651585996150971E-001;-7.016142457723618E-002;5.201703403145075E-003;-3.080685390159488E-003;
2.422666666666667E+009;1.644412428140640E-001;-7.230959832668304E-002;5.111948587000370E-003;-3.322180826216936E-003;
2.422833333333334E+009;1.639521569013596E-001;-7.423672080039978E-002;4.739596508443356E-003;-3.462089691311121E-003;
2.423000000000000E+009;1.635518670082092E-001;-7.627533376216888E-002;4.770652856677771E-003;-3.626193152740598E-003;
2.423166666666667E+009;1.631419062614441E-001;-7.816132158041000E-002;4.528956487774849E-003;-3.666904522106051E-003;
2.423333333333334E+009;1.627354025840759E-001;-8.017308264970779E-002;4.249752499163151E-003;-3.919556271284819E-003;
2.423500000000000E+009;1.627950817346573E-001;-8.192552626132965E-002;4.100286401808262E-003;-4.090105649083853E-003;
2.423666666666667E+009;1.628306508064270E-001;-8.371863514184952E-002;3.952080383896828E-003;-4.112618975341320E-003;
2.423833333333334E+009;1.627414822578430E-001;-8.550462871789932E-002;3.707460360601544E-003;-4.170136991888285E-003;
2.424000000000000E+009;1.628542393445969E-001;-8.722538501024246E-002;3.483765758574009E-003;-4.323235247284174E-003;
2.424166666666667E+009;1.631300449371338E-001;-8.875901997089386E-002;3.216442186385393E-003;-4.276940599083901E-003;
2.424333333333334E+009;1.631622761487961E-001;-9.028023481369019E-002;3.132636891677976E-003;-4.224568139761686E-003;
2.424500000000000E+009;1.636205613613129E-001;-9.191170334815979E-002;3.037350717931986E-003;-4.461017902940512E-003;
2.424666666666667E+009;1.637431085109711E-001;-9.333258867263794E-002;2.878732979297638E-003;-4.414058290421963E-003;
2.424833333333334E+009;1.644224077463150E-001;-9.451474994421005E-002;2.663268009200692E-003;-4.424502141773701E-003;
2.425000000000000E+009;1.647323668003082E-001;-9.565474838018417E-002;2.344281179830432E-003;-4.165509715676308E-003;
2.425166666666667E+009;1.650132834911346E-001;-9.671141207218170E-002;2.273232210427523E-003;-4.385871812701225E-003;
2.425333333333334E+009;1.653796136379242E-001;-9.755949676036835E-002;2.215741900727153E-003;-4.280942026525736E-003;
2.425500000000000E+009;1.658140867948532E-001;-9.852831810712814E-002;2.098235767334700E-003;-4.412006121128798E-003;
2.425666666666667E+009;1.661882251501083E-001;-9.920482337474823E-002;1.889416133053601E-003;-4.277565516531467E-003;
2.425833333333334E+009;1.664392501115799E-001;-1.000207588076592E-001;1.840449403971434E-003;-4.353594500571489E-003;
2.426000000000000E+009;1.669847071170807E-001;-1.004835441708565E-001;1.672015408985317E-003;-4.263303242623806E-003;
2.426166666666667E+009;1.673017144203186E-001;-1.008645221590996E-001;1.711304415948689E-003;-4.364026710391045E-003;
2.426333333333334E+009;1.673834770917893E-001;-1.014136746525765E-001;1.521969214081764E-003;-4.442263394594193E-003;
2.426500000000000E+009;1.677190363407135E-001;-1.017195582389832E-001;1.373697537928820E-003;-4.282057285308838E-003;
2.426666666666667E+009;1.679289638996124E-001;-1.019878685474396E-001;1.433495897799730E-003;-4.163337871432304E-003;
2.426833333333334E+009;1.681534051895142E-001;-1.022653877735138E-001;1.062592957168818E-003;-4.307222086936235E-003;
2.427000000000000E+009;1.681003123521805E-001;-1.024688854813576E-001;1.068826531991363E-003;-4.344216082245112E-003;
2.427166666666667E+009;1.681355535984039E-001;-1.024419143795967E-001;1.050294842571020E-003;-4.226977005600929E-003;
2.427333333333334E+009;1.680557876825333E-001;-1.027533262968063E-001;8.858264191076160E-004;-4.245656076818705E-003;
2.427500000000000E+009;1.678025275468826E-001;-1.030424535274506E-001;7.898935000412166E-004;-4.487882368266583E-003;
2.427666666666667E+009;1.674437373876572E-001;-1.031373068690300E-001;7.564846309833229E-004;-4.408240783959627E-003;
2.427833333333334E+009;1.670209020376205E-001;-1.032598540186882E-001;5.443087429739535E-004;-4.355735145509243E-003;
