# Version 1.00
#
freq[Hz];re:Trc1_S11;im:Trc1_S11;re:Trc2_S21;im:Trc2_S21;
2.400000000000000E+009;1.550302803516388E-001;1.066150218248367E-001;-4.862867761403322E-003;-3.618919523432851E-003;
2.400166666666667E+009;1.547051221132278E-001;1.040589436888695E-001;-5.133244208991528E-003;-3.407592186704278E-003;
2.400333333333334E+009;1.547978222370148E-001;1.018524914979935E-001;-5.274452734738588E-003;-3.588451305404306E-003;
2.400500000000000E+009;1.548620164394379E-001;9.911340475082398E-002;-5.585059057921171E-003;-3.404877847060561E-003;
2.400666666666667E+009;1.547224372625351E-001;9.663943201303482E-002;-5.923628807067871E-003;-3.220666665583849E-003;
2.400833333333334E+009;1.549575328826904E-001;9.372797608375549E-002;-6.079339422285557E-003;-3.255921881645918E-003;
2.401000000000000E+009;1.553284972906113E-001;9.083146601915360E-002;-6.267812568694353E-003;-2.993379486724734E-003;
2.401166666666667E+009;1.551971435546875E-001;8.827910572290421E-002;-6.488546263426542E-003;-2.705747960135341E-003;
2.401333333333334E+009;1.555431038141251E-001;8.527313917875290E-002;-6.636022590100765E-003;-2.498411806300283E-003;
2.401500000000000E+009;1.561937630176544E-001;8.251440525054932E-002;-6.683142390102148E-003;-2.420903882011771E-003;
2.401666666666667E+009;1.566249430179596E-001;7.987885922193527E-002;-6.941373459994793E-003;-2.042741514742374E-003;
2.401833333333334E+009;1.572308689355850E-001;7.710397243499756E-002;-7.084361277520657E-003;-1.799869933165610E-003;
2.402000000000000E+009;1.581661254167557E-001;7.431360334157944E-002;-7.122764363884926E-003;-1.621502102352679E-003;
2.402166666666667E+009;1.587998867034912E-001;7.191871106624603E-002;-7.331716362386942E-003;-1.229335437528789E-003;
2.402333333333334E+009;1.598434150218964E-001;6.923308223485947E-002;-7.411655969917774E-003;-1.088334713131189E-003;
2.402500000000000E+009;1.610263586044312E-001;6.668236106634140E-002;-7.556586991995573E-003;-8.841889211907983E-004;
2.402666666666667E+009;1.622031927108765E-001;6.433306634426117E-002;-7.562122307717800E-003;-5.349168204702437E-004;
2.402833333333334E+009;1.635373383760452E-001;6.191670149564743E-002;-7.795864716172218E-003;-3.084531053900719E-004;
2.403000000000000E+009;1.649075746536255E-001;5.970098450779915E-002;-7.978896610438824E-003;2.313136210432276E-004;
2.403166666666667E+009;1.667518764734268E-001;5.754276737570763E-002;-8.091007359325886E-003;2.574952086433768E-004;
2.403333333333334E+009;1.681201457977295E-001;5.544965714216232E-002;-7.880206219851971E-003;7.397101726382971E-004;
2.403500000000000E+009;1.700260341167450E-001;5.340360850095749E-002;-8.000559173524380E-003;1.249124296009541E-003;
2.403666666666667E+009;1.716046184301376E-001;5.147227272391319E-002;-7.937938906252384E-003;1.504484447650611E-003;
2.403833333333334E+009;1.732981055974960E-001;4.957292973995209E-002;-7.948966696858406E-003;2.106221858412027E-003;
2.404000000000000E+009;1.749911010265350E-001;4.792742058634758E-002;-7.937513291835785E-003;2.421578392386437E-003;
2.404166666666667E+009;1.766259670257568E-001;4.640590399503708E-002;-7.861939258873463E-003;2.841187408193946E-003;
2.404333333333334E+009;1.782307624816895E-001;4.496181756258011E-002;-7.745855487883091E-003;3.041559364646673E-003;
2.404500000000000E+009;1.797834932804108E-001;4.362479969859123E-002;-7.608037907630205E-003;3.524417756125331E-003;
2.404666666666667E+009;1.813881546258926E-001;4.243748635053635E-002;-7.380811963230372E-003;3.845651401206851E-003;
2.404833333333334E+009;1.829922497272492E-001;4.135304689407349E-002;-7.189974188804627E-003;4.115616437047720E-003;
2.405000000000000E+009;1.843662410974503E-001;4.070467874407768E-002;-6.899333558976650E-003;4.419478587806225E-003;
2.405166666666667E+009;1.858728826045990E-001;3.994371369481087E-002;-6.611696444451809E-003;4.850854165852070E-003;
2.405333333333334E+009;1.872182041406632E-001;3.946145251393318E-002;-6.314449943602085E-003;5.067928228527308E-003;
2.405500000000000E+009;1.886622309684753E-001;3.909596428275108E-002;-6.155141629278660E-003;5.390108097344637E-003;
2.405666666666667E+009;1.898409575223923E-001;3.860172256827354E-002;-5.909061990678310E-003;5.593447480350733E-003;
2.405833333333334E+009;1.909503042697907E-001;3.850449621677399E-002;-5.453244782984257E-003;5.636609159410000E-003;
2.406000000000000E+009;1.920756548643112E-001;3.820488974452019E-002;-5.174081772565842E-003;5.921463016420603E-003;
2.406166666666667E+009;1.929243952035904E-001;3.795358538627625E-002;-5.043489392846823E-003;6.017958279699087E-003;
2.406333333333334E+009;1.938811391592026E-001;3.795677423477173E-002;-4.620027728378773E-003;6.339945830404759E-003;
2.406500000000000E+009;1.946512907743454E-001;3.799111768603325E-002;-4.302816465497017E-003;6.454714573919773E-003;
2.406666666666667E+009;1.951197683811188E-001;3.802908584475517E-002;-3.981713671237230E-003;6.384050007909536E-003;
2.406833333333334E+009;1.956852674484253E-001;3.793733939528465E-002;-3.757353406399488E-003;6.628911010921001E-003;
2.407000000000000E+009;1.959386765956879E-001;3.813016787171364E-002;-3.316025715321302E-003;6.666066590696573E-003;
2.407166666666667E+009;1.962988525629044E-001;3.787612915039063E-002;-3.101141657680273E-003;6.593000143766403E-003;
2.407333333333334E+009;1.962781399488449E-001;3.796833753585815E-002;-2.564280526712537E-003;6.536595057696104E-003;
2.407500000000000E+009;1.961096823215485E-001;3.794558718800545E-002;-2.444235142320395E-003;6.616833154112101E-003;
2.407666666666667E+009;1.960432976484299E-001;3.781719878315926E-002;-2.216252963989973E-003;6.686927750706673E-003;
2.407833333333334E+009;1.956747770309448E-001;3.778134658932686E-002;-1.951005076989532E-003;6.703138817101717E-003;
2.408000000000000E+009;1.955203711986542E-001;3.748890385031700E-002;-1.643486786633730E-003;6.681877188384533E-003;
2.408166666666667E+009;1.951462328433991E-001;3.729351237416267E-002;-1.550172572024167E-003;6.487922277301550E-003;
2.408333333333334E+009;1.946838796138763E-001;3.657805174589157E-002;-1.262154080905020E-003;6.445218808948994E-003;
2.408500000000000E+009;1.938059777021408E-001;3.613103926181793E-002;-9.612466674298048E-004;6.451566237956286E-003;
2.408666666666667E+009;1.933357566595078E-001;3.558821231126785E-002;-7.270498317666352E-004;6.338579114526510E-003;
2.408833333333334E+009;1.926069706678391E-001;3.484026342630386E-002;-6.375086959451437E-004;6.225762888789177E-003;
2.409000000000000E+009;1.914736777544022E-001;3.375408425927162E-002;-4.812263650819659E-004;6.149566732347012E-003;
2.409166666666667E+009;1.905407011508942E-001;3.264262527227402E-002;-1.517777127446607E-004;6.225792691111565E-003;
2.409333333333334E+009;1.896194964647293E-001;3.181613609194756E-002;6.934146222192794E-005;6.051452830433846E-003;
2.409500000000000E+009;1.886062324047089E-001;3.039089031517506E-002;2.758359187282622E-005;5.910551175475121E-003;
2.409666666666667E+009;1.874652802944183E-001;2.900375425815582E-002;2.242293412564322E-004;5.741945002228022E-003;
2.409833333333334E+009;1.865913569927216E-001;2.756829001009464E-002;4.110616282559931E-004;5.756897851824760E-003;
2.410000000000000E+009;1.855265796184540E-001;2.583132684230804E-002;6.793166976422072E-004;5.597125738859177E-003;
2.410166666666667E+009;1.845035701990128E-001;2.401589602231979E-002;7.012938149273396E-004;5.537731107324362E-003;
2.410333333333334E+009;1.835769861936569E-001;2.211918309330940E-002;8.025190327316523E-004;5.435259081423283E-003;
2.410500000000000E+009;1.826209723949432E-001;2.022279426455498E-002;8.885379065759480E-004;5.318182520568371E-003;
2.410666666666667E+009;1.817096769809723E-001;1.790353842079639E-002;1.091099693439901E-003;5.189098883420229E-003;
2.410833333333334E+009;1.811814308166504E-001;1.591516286134720E-002;1.016470487229526E-003;5.017502699047327E-003;
2.411000000000000E+009;1.803369522094727E-001;1.365481503307819E-002;1.144886598922312E-003;4.986156243830919E-003;
2.411166666666667E+009;1.796817481517792E-001;1.138109993189573E-002;1.301131909713149E-003;4.965792410075665E-003;
2.411333333333334E+009;1.793616563081741E-001;8.970095776021481E-003;1.361669506877661E-003;4.724400117993355E-003;
2.411500000000000E+009;1.787804365158081E-001;6.583432666957378E-003;1.300906180404127E-003;4.681832622736692E-003;
2.411666666666667E+009;1.787388026714325E-001;4.133141133934259E-003;1.316374982707202E-003;4.528327845036984E-003;
2.411833333333334E+009;1.783418208360672E-001;1.906269928440452E-003;1.362103503197432E-003;4.457447677850723E-003;
2.412000000000000E+009;1.787465214729309E-001;-5.626579513773322E-004;1.461656531319022E-003;4.433971364051104E-003;
2.412166666666667E+009;1.785501390695572E-001;-2.936308272182941E-003;1.490548485890031E-003;4.131964407861233E-003;
2.412333333333334E+009;1.787453144788742E-001;-5.446554161608219E-003;1.353112398646772E-003;4.323800094425678E-003;
2.412500000000000E+009;1.792573332786560E-001;-7.864831946790218E-003;1.486746594309807E-003;4.354473669081926E-003;
2.412666666666667E+009;1.798001825809479E-001;-1.036287471652031E-002;1.406636671163142E-003;4.253240302205086E-003;
2.412833333333334E+009;1.804814487695694E-001;-1.258514076471329E-002;1.517745433375239E-003;4.215799272060394E-003;
2.413000000000000E+009;1.812566518783569E-001;-1.487275585532188E-002;1.616234891116619E-003;4.133165348321199E-003;
2.413166666666667E+009;1.820373833179474E-001;-1.716572791337967E-002;1.588913844898343E-003;4.324201960116625E-003;
2.413333333333334E+009;1.829962581396103E-001;-1.945918984711170E-002;1.710385782644153E-003;4.160720854997635E-003;
2.413500000000000E+009;1.838802695274353E-001;-2.155582420527935E-002;1.696913153864443E-003;4.183924756944180E-003;
2.413666666666667E+009;1.850679218769074E-001;-2.373464591801167E-002;1.761325402185321E-003;4.348667804151774E-003;
2.413833333333334E+009;1.861003786325455E-001;-2.569866925477982E-002;1.737676910124719E-003;4.275842569768429E-003;
2.414000000000000E+009;1.872695833444595E-001;-2.756475657224655E-002;1.790556940250099E-003;4.418496042490006E-003;
2.414166666666667E+009;1.884447783231735E-001;-2.945224195718765E-002;1.989063341170549E-003;4.449108615517616E-003;
2.414333333333334E+009;1.894675493240356E-001;-3.114282898604870E-002;2.096296520903707E-003;4.468357656151056E-003;
2.414500000000000E+009;1.907071620225906E-001;-3.261068090796471E-002;2.304132794961333E-003;4.380716476589441E-003;
2.414666666666667E+009;1.919211745262146E-001;-3.425130248069763E-002;2.292690100148320E-003;4.515586420893669E-003;
2.414833333333334E+009;1.929749846458435E-001;-3.546707332134247E-002;2.662854501977563E-003;4.426680970937014E-003;
2.415000000000000E+009;1.941127926111221E-001;-3.673879429697990E-002;2.872548298910260E-003;4.421394318342209E-003;
2.415166666666667E+009;1.952732354402542E-001;-3.783335909247398E-002;2.889390336349607E-003;4.423578269779682E-003;
2.415333333333334E+009;1.963571310043335E-001;-3.879295662045479E-002;3.226128639653325E-003;4.305474925786257E-003;
2.415500000000000E+009;1.974624842405319E-001;-3.933489322662354E-002;3.301118034869432E-003;4.304580856114626E-003;
2.415666666666667E+009;1.984294801950455E-001;-4.025546088814735E-002;3.272166242823005E-003;4.257167689502239E-003;
2.415833333333334E+009;1.992445588111877E-001;-4.079412668943405E-002;3.613032167777419E-003;4.157077521085739E-003;
2.416000000000000E+009;2.000263780355454E-001;-4.141693934798241E-002;3.834217088297010E-003;4.071999341249466E-003;
2.416166666666667E+009;2.006939649581909E-001;-4.184507578611374E-002;4.064138513058424E-003;4.041074775159359E-003;
2.416333333333334E+009;2.012555748224258E-001;-4.211176559329033E-002;4.261600784957409E-003;3.922982607036829E-003;
2.416500000000000E+009;2.017026692628861E-001;-4.249923303723335E-002;4.283665213733912E-003;3.824406070634723E-003;
2.416666666666667E+009;2.018881887197495E-001;-4.271531105041504E-002;4.642238840460777E-003;3.774173324927688E-003;
2.416833333333334E+009;2.021318823099136E-001;-4.290518164634705E-002;4.778289701789618E-003;3.741799620911479E-003;
2.417000000000000E+009;2.022362649440765E-001;-4.296657815575600E-002;5.049330648034811E-003;3.309907158836722E-003;
2.417166666666667E+009;2.019457817077637E-001;-4.282753542065620E-002;5.161104258149862E-003;3.381069051101804E-003;
2.417333333333334E+009;2.015837132930756E-001;-4.260518774390221E-002;5.350359715521336E-003;3.184446366503835E-003;
2.417500000000000E+009;2.012230753898621E-001;-4.269796237349510E-002;5.360049661248922E-003;2.958523109555244E-003;
2.417666666666667E+009;2.007162570953369E-001;-4.253024607896805E-002;5.597591865807772E-003;2.651563147082925E-003;
2.417833333333334E+009;2.002556174993515E-001;-4.235542565584183E-002;5.689673125743866E-003;2.392725320532918E-003;
2.418000000000000E+009;1.995372325181961E-001;-4.209242388606072E-002;5.624751560389996E-003;2.175130648538470E-003;
2.418166666666667E+009;1.987545937299728E-001;-4.195835813879967E-002;5.756954662501812E-003;1.931761507876217E-003;
2.418333333333334E+009;1.978980153799057E-001;-4.191746190190315E-002;5.697802174836397E-003;1.672947313636541E-003;
2.418500000000000E+009;1.968020498752594E-001;-4.194018989801407E-002;5.697214044630528E-003;1.478412305004895E-003;
2.418666666666667E+009;1.958089172840118E-001;-4.188552126288414E-002;5.882643163204193E-003;1.415739534422755E-003;
2.418833333333334E+009;1.944866776466370E-001;-4.211422055959702E-002;5.794158671051264E-003;1.044996664859355E-003;
2.419000000000000E+009;1.931251734495163E-001;-4.226161912083626E-002;5.748013034462929E-003;9.528889786452055E-004;
2.419166666666667E+009;1.919934749603272E-001;-4.259546473622322E-002;5.762385670095682E-003;7.945796824060381E-004;
2.419333333333334E+009;1.906013488769531E-001;-4.316020011901856E-002;5.902053788304329E-003;7.137162610888481E-004;
2.419500000000000E+009;1.891531497240067E-001;-4.343032836914063E-002;5.754874087870121E-003;6.885961047373712E-004;
2.419666666666667E+009;1.876413375139237E-001;-4.429890960454941E-002;5.878748837858439E-003;4.066733235958964E-004;
2.419833333333334E+009;1.860673427581787E-001;-4.487885907292366E-002;6.018803920596838E-003;3.371691273059696E-004;
2.420000000000000E+009;1.844712644815445E-001;-4.587838053703308E-002;6.030625663697720E-003;1.517253840574995E-004;
2.420166666666667E+009;1.829356700181961E-001;-4.677266627550125E-002;6.106015294790268E-003;4.123476173845120E-005;
2.420333333333334E+009;1.813127398490906E-001;-4.810741543769836E-002;6.160624325275421E-003;-1.820801844587550E-004;
2.420500000000000E+009;1.796992868185043E-001;-4.931822046637535E-002;6.113115698099136E-003;-4.248324548825622E-004;
2.420666666666667E+009;1.780670732259750E-001;-5.034030973911285E-002;6.007784511893988E-003;-7.099103531800211E-004;
2.420833333333334E+009;1.767103075981140E-001;-5.191706120967865E-002;6.176791619509459E-003;-8.907307055778801E-004;
2.421000000000000E+009;1.751068681478500E-001;-5.340856313705444E-002;6.038046907633543E-003;-1.183717278763652E-003;
2.421166666666667E+009;1.737970709800720E-001;-5.510984361171722E-002;6.109157577157021E-003;-1.433837576769292E-003;
2.421333333333334E+009;1.722143441438675E-001;-5.665843933820725E-002;6.062160711735487E-003;-1.579721923917532E-003;
2.421500000000000E+009;1.709992587566376E-001;-5.852943658828735E-002;6.002665497362614E-003;-1.882195821963251E-003;
2.421666666666667E+009;1.697736978530884E-001;-6.033150479197502E-002;5.860364530235529E-003;-2.067186171188951E-003;
2.421833333333334E+009;1.685750782489777E-001;-6.224909797310829E-002;5.742514040321112E-003;-2.220642752945423E-003;
2.422000000000000E+009;1.675561666488648E-001;-6.415832787752152E-002;5.685620941221714E-003;-2.561862813308835E-003;
2.422166666666667E+009;1.667883992195129E-001;-6.625699251890183E-002;5.588072817772627E-003;-2.729600062593818E-003;
2.422333333333334E+009;1.657739132642746E-001;-6.824963539838791E-002;5.414286628365517E-003;-2.934580901637673E-003;
2.422500000000000E+009;1.650049239397049E-001;-7.013174891471863E-002;5.249196197837591E-003;-2.998223062604666E-003;
2.422666666666667E+009;1.643789857625961E-001;-7.216456532478333E-002;5.168955307453871E-003;-3.238282399252057E-003;
2.422833333333334E+009;1.640252768993378E-001;-7.416343688964844E-002;4.920390434563160E-003;-3.429349046200514E-003;
2.423000000000000E+009;1.634795665740967E-001;-7.625052332878113E-002;4.679298959672451E-003;-3.654134925454855E-003;
2.423166666666667E+009;1.629619300365448E-001;-7.793765515089035E-002;4.508501850068569E-003;-3.926117904484272E-003;
2.423333333333334E+009;1.627962738275528E-001;-8.013988286256790E-002;4.139245022088289E-003;-3.881635144352913E-003;
2.423500000000000E+009;1.628209203481674E-001;-8.186302334070206E-002;4.086662549525499E-003;-4.088097251951695E-003;
2.423666666666667E+009;1.628054082393646E-001;-8.367841690778732E-002;4.015648271888495E-003;-4.093437455594540E-003;
2.423833333333334E+009;1.627564132213593E-001;-8.556425571441650E-002;3.637511515989900E-003;-4.146670456975699E-003;
2.424000000000000E+009;1.629341989755631E-001;-8.720188587903976E-002;3.349497215822339E-003;-4.154911264777184E-003;
2.424166666666667E+009;1.630575358867645E-001;-8.879438787698746E-002;3.269167384132743E-003;-4.272630903869867E-003;
2.424333333333334E+009;1.631090193986893E-001;-9.023252129554749E-002;3.224441548809409E-003;-4.269106313586235E-003;
2.424500000000000E+009;1.637323647737503E-001;-9.192612767219544E-002;2.962874947115779E-003;-4.208292812108994E-003;
2.424666666666667E+009;1.638501286506653E-001;-9.314236044883728E-002;2.668562112376094E-003;-4.424209706485272E-003;
2.424833333333334E+009;1.644293367862701E-001;-9.438819438219070E-002;2.574982121586800E-003;-4.462721757590771E-003;
2.425000000000000E+009;1.647182554006577E-001;-9.578690677881241E-002;2.580842003226280E-003;-4.437968600541353E-003;
2.425166666666667E+009;1.650411933660507E-001;-9.662206470966339E-002;2.418959047645330E-003;-4.324859008193016E-003;
2.425333333333334E+009;1.653630435466766E-001;-9.755955636501312E-002;2.206965815275908E-003;-4.423449281603098E-003;
2.425500000000000E+009;1.657566577196121E-001;-9.846355766057968E-002;2.030986826866865E-003;-4.349607042968273E-003;
2.425666666666667E+009;1.662604212760925E-001;-9.911698848009110E-002;1.928667537868023E-003;-4.397055599838495E-003;
2.425833333333334E+009;1.662694364786148E-001;-1.000008136034012E-001;1.635933760553598E-003;-4.240392707288265E-003;
2.426000000000000E+009;1.669721454381943E-001;-1.004627048969269E-001;1.678816624917090E-003;-4.365879110991955E-003;
2.426166666666667E+009;1.672728955745697E-001;-1.009203940629959E-001;1.494220923632383E-003;-4.307893104851246E-003;
2.426333333333334E+009;1.674059033393860E-001;-1.014021486043930E-001;1.650515245273709E-003;-4.473978187888861E-003;
2.426500000000000E+009;1.677485108375549E-001;-1.016777679324150E-001;1.433028373867273E-003;-4.392162431031466E-003;
2.426666666666667E+009;1.679539978504181E-001;-1.019429713487625E-001;1.286775805056095E-003;-4.324841778725386E-003;
2.426833333333334E+009;1.681778281927109E-001;-1.023127958178520E-001;1.223706989549100E-003;-4.156162962317467E-003;
2.427000000000000E+009;1.681939810514450E-001;-1.024914756417275E-001;1.126951421611011E-003;-4.297985229641199E-003;
2.427166666666667E+009;1.682513952255249E-001;-1.026340425014496E-001;9.910729713737965E-004;-4.290642216801643E-003;
2.427333333333334E+009;1.680796444416046E-001;-1.028966084122658E-001;6.763339624740183E-004;-4.298201762139797E-003;
2.427500000000000E+009;1.678311377763748E-001;-1.031102240085602E-001;7.466665119864047E-004;-4.407548811286688E-003;
2.427666666666667E+009;1.674700528383255E-001;-1.032054871320725E-001;6.387961329892278E-004;-4.364253487437964E-003;
2.427833333333334E+009;1.670795977115631E-001;-1.033178195357323E-001;4.668386245612055E-004;-4.384126514196396E-003;
