# Version 1.00
#
freq[Hz];re:Trc1_S11;im:Trc1_S11;re:Trc2_S21;im:Trc2_S21;
2.400000000000000E+009;1.549837738275528E-001;1.065501794219017E-001;-4.922344814985991E-003;-3.525185165926814E-003;
2.400166666666667E+009;1.548324227333069E-001;1.040441542863846E-001;-5.160367581993341E-003;-3.494847565889359E-003;
2.400333333333334E+009;1.548891514539719E-001;1.018489226698875E-001;-5.330273881554604E-003;-3.503287676721811E-003;
2.400500000000000E+009;1.547469794750214E-001;9.917344897985458E-002;-5.492886062711477E-003;-3.405849682167172E-003;
2.400666666666667E+009;1.549982875585556E-001;9.660516679286957E-002;-5.771735217422247E-003;-3.435260849073529E-003;
2.400833333333334E+009;1.549675911664963E-001;9.389965236186981E-002;-6.073572207242250E-003;-3.094962798058987E-003;
2.401000000000000E+009;1.550366878509522E-001;9.090411663055420E-002;-6.186199374496937E-003;-3.017128212377429E-003;
2.401166666666667E+009;1.553529947996140E-001;8.823187649250031E-002;-6.402820814400911E-003;-2.828604076057673E-003;
2.401333333333334E+009;1.558880358934403E-001;8.547386527061462E-002;-6.704830098897219E-003;-2.543364884331822E-003;
2.401500000000000E+009;1.560250371694565E-001;8.260483294725418E-002;-6.597296800464392E-003;-2.412288216874003E-003;
2.401666666666667E+009;1.565822809934616E-001;7.983634620904923E-002;-6.891137920320034E-003;-2.075326628983021E-003;
2.401833333333334E+009;1.571412980556488E-001;7.703863829374313E-002;-7.131810765713453E-003;-1.783635583706200E-003;
2.402000000000000E+009;1.581578552722931E-001;7.457844913005829E-002;-7.203840650618076E-003;-1.561099081300199E-003;
2.402166666666667E+009;1.587894111871719E-001;7.199039310216904E-002;-7.356210611760616E-003;-1.300006406381726E-003;
2.402333333333334E+009;1.595923155546188E-001;6.897453218698502E-002;-7.371858227998018E-003;-1.158680766820908E-003;
2.402500000000000E+009;1.610804349184036E-001;6.647735834121704E-002;-7.612224668264389E-003;-9.117895970121026E-004;
2.402666666666667E+009;1.618268340826035E-001;6.448984891176224E-002;-7.517247926443815E-003;-5.922756390646100E-004;
2.402833333333334E+009;1.638382524251938E-001;6.182718276977539E-002;-7.739664986729622E-003;-3.761106927413493E-004;
2.403000000000000E+009;1.650677174329758E-001;5.971886590123177E-002;-7.942089810967445E-003;-3.087145523750223E-005;
2.403166666666667E+009;1.669280230998993E-001;5.757623910903931E-002;-7.924721576273441E-003;5.111820064485073E-004;
2.403333333333334E+009;1.683243215084076E-001;5.519322678446770E-002;-7.893693633377552E-003;7.263498264364898E-004;
2.403500000000000E+009;1.698958724737167E-001;5.350605398416519E-002;-7.991836406290531E-003;1.059055328369141E-003;
2.403666666666667E+009;1.717125028371811E-001;5.142366141080856E-002;-8.128131739795208E-003;1.464882283471525E-003;
2.403833333333334E+009;1.733999550342560E-001;4.958280548453331E-002;-7.900081574916840E-003;2.056332770735025E-003;
2.404000000000000E+009;1.749545782804489E-001;4.775835946202278E-002;-7.844022475183010E-003;2.246498130261898E-003;
2.404166666666667E+009;1.767591834068298E-001;4.632077366113663E-002;-7.788085378706455E-003;2.625291934236884E-003;
2.404333333333334E+009;1.782374680042267E-001;4.488498345017433E-002;-7.593457587063313E-003;3.116350155323744E-003;
2.404500000000000E+009;1.798783391714096E-001;4.353164136409760E-002;-7.545464206486940E-003;3.500111866742373E-003;
2.404666666666667E+009;1.815159469842911E-001;4.251942038536072E-002;-7.301212754100561E-003;3.760447492823005E-003;
2.404833333333334E+009;1.830942630767822E-001;4.141746833920479E-002;-6.929812487214804E-003;4.161912016570568E-003;
2.405000000000000E+009;1.844099909067154E-001;4.080671444535255E-002;-6.813743617385626E-003;4.566196352243424E-003;
2.405166666666667E+009;1.859819442033768E-001;3.996942192316055E-002;-6.601747591048479E-003;4.632409662008286E-003;
2.405333333333334E+009;1.872673928737640E-001;3.934547677636147E-002;-6.338001694530249E-003;5.129613447934389E-003;
2.405500000000000E+009;1.886548697948456E-001;3.899734839797020E-002;-6.057676859200001E-003;5.258387885987759E-003;
2.405666666666667E+009;1.897532492876053E-001;3.851241245865822E-002;-5.765900015830994E-003;5.465552210807800E-003;
2.405833333333334E+009;1.911067664623261E-001;3.835177421569824E-002;-5.535771604627371E-003;5.604796111583710E-003;
2.406000000000000E+009;1.920961588621140E-001;3.817502036690712E-002;-5.218343343585730E-003;5.830810870975256E-003;
2.406166666666667E+009;1.933618336915970E-001;3.811235725879669E-002;-4.674551077187061E-003;6.504941731691361E-003;
2.406333333333334E+009;1.938112676143646E-001;3.776784986257553E-002;-4.507340025156736E-003;5.657523870468140E-003;
2.406500000000000E+009;1.952448040246964E-001;3.758265823125839E-002;-2.762264339253306E-003;6.807579658925533E-003;
2.406666666666667E+009;1.955545246601105E-001;3.818981721997261E-002;-3.675253363326192E-003;7.263957057148218E-003;
2.406833333333334E+009;1.958025991916657E-001;3.832473605871201E-002;-3.882230725139380E-003;7.264369167387486E-003;
2.407000000000000E+009;1.962463557720184E-001;3.803954645991325E-002;-2.913764445111156E-003;7.017421536147595E-003;
2.407166666666667E+009;1.964298486709595E-001;3.790866956114769E-002;-2.916831756010652E-003;6.933235563337803E-003;
2.407333333333334E+009;1.962196081876755E-001;3.791726753115654E-002;-2.700984710827470E-003;6.504274904727936E-003;
2.407500000000000E+009;1.959519386291504E-001;3.802720829844475E-002;-2.884943271055818E-003;6.517107598483563E-003;
2.407666666666667E+009;1.963214278221130E-001;3.795869648456574E-002;-2.182192401960492E-003;6.927225273102522E-003;
2.407833333333334E+009;1.957155615091324E-001;3.775382414460182E-002;-1.948319026269019E-003;6.644012872129679E-003;
2.408000000000000E+009;1.956515759229660E-001;3.748225048184395E-002;-1.886885846033692E-003;6.660386454313994E-003;
2.408166666666667E+009;1.950657069683075E-001;3.714431449770927E-002;-1.520720310509205E-003;6.544240750372410E-003;
2.408333333333334E+009;1.945771872997284E-001;3.655441105365753E-002;-1.269028638489544E-003;6.379664409905672E-003;
2.408500000000000E+009;1.938291192054749E-001;3.611202538013458E-002;-1.055385102517903E-003;6.424562539905310E-003;
2.408666666666667E+009;1.932922005653381E-001;3.559654578566551E-002;-8.620268781669438E-004;6.473173853009939E-003;
2.408833333333334E+009;1.925567686557770E-001;3.475762158632278E-002;-6.433528033085167E-004;6.216288544237614E-003;
2.409000000000000E+009;1.915509700775147E-001;3.380418941378593E-002;-3.581395721994340E-004;6.011684890836477E-003;
2.409166666666667E+009;1.905955076217651E-001;3.283482044935226E-002;-2.025961875915527E-004;6.183627527207136E-003;
2.409333333333334E+009;1.896900236606598E-001;3.185934200882912E-002;-1.278604759136215E-004;6.159656215459108E-003;
2.409500000000000E+009;1.886518746614456E-001;3.045779094099999E-002;8.953216456575319E-005;5.892861634492874E-003;
2.409666666666667E+009;1.875650584697723E-001;2.901208400726318E-002;2.192872343584895E-004;5.762319546192884E-003;
2.409833333333334E+009;1.866004019975662E-001;2.753072045743465E-002;3.498008300084621E-004;5.698181688785553E-003;
2.410000000000000E+009;1.855108588933945E-001;2.596900612115860E-002;5.899520474486053E-004;5.578152835369110E-003;
2.410166666666667E+009;1.846113801002502E-001;2.407008968293667E-002;7.001357153058052E-004;5.379678681492806E-003;
2.410333333333334E+009;1.836753934621811E-001;2.220490947365761E-002;7.560502854175866E-004;5.331715568900108E-003;
2.410500000000000E+009;1.826301962137222E-001;2.038923278450966E-002;7.907415274530649E-004;5.178168416023254E-003;
2.410666666666667E+009;1.818061918020248E-001;1.800006069242954E-002;7.722130394540727E-004;5.163575522601605E-003;
2.410833333333334E+009;1.810906827449799E-001;1.590665429830551E-002;1.040420145727694E-003;5.127168260514736E-003;
2.411000000000000E+009;1.804331690073013E-001;1.356907561421394E-002;1.194343436509371E-003;5.014184862375259E-003;
2.411166666666667E+009;1.798600852489471E-001;1.156919263303280E-002;1.163893844932318E-003;4.751248285174370E-003;
2.411333333333334E+009;1.792926639318466E-001;9.041504003107548E-003;1.253225025720894E-003;4.716088529676199E-003;
2.411500000000000E+009;1.788645684719086E-001;6.542961113154888E-003;1.320828800089657E-003;4.746488295495510E-003;
2.411666666666667E+009;1.785333901643753E-001;4.236835986375809E-003;1.436474733054638E-003;4.444484598934650E-003;
2.411833333333334E+009;1.784228384494782E-001;1.664787880145013E-003;1.538552925921977E-003;4.630560055375099E-003;
2.412000000000000E+009;1.785738915205002E-001;-7.080681971274316E-004;1.437088008970022E-003;4.301748704165220E-003;
2.412166666666667E+009;1.786146610975266E-001;-3.056630725041032E-003;1.558008138090372E-003;4.340873565524817E-003;
2.412333333333334E+009;1.787929087877274E-001;-5.472219549119473E-003;1.473315642215312E-003;4.302487242966890E-003;
2.412500000000000E+009;1.791723519563675E-001;-7.884291931986809E-003;1.434066798537970E-003;4.320017062127590E-003;
2.412666666666667E+009;1.797285825014114E-001;-1.026809122413397E-002;1.493579125963152E-003;4.183879587799311E-003;
2.412833333333334E+009;1.803722232580185E-001;-1.266618259251118E-002;1.566136605106294E-003;4.193674772977829E-003;
2.413000000000000E+009;1.811561882495880E-001;-1.502400264143944E-002;1.532511436380446E-003;4.073141142725945E-003;
2.413166666666667E+009;1.819603294134140E-001;-1.698905043303967E-002;1.426145667210221E-003;4.088873974978924E-003;
2.413333333333334E+009;1.828882098197937E-001;-1.941504143178463E-002;1.559074851684272E-003;4.219691269099712E-003;
2.413500000000000E+009;1.838255226612091E-001;-2.174331247806549E-002;1.669638324528933E-003;4.207450896501541E-003;
2.413666666666667E+009;1.850486099720001E-001;-2.371047809720039E-002;1.607567188329995E-003;4.225785378366709E-003;
2.413833333333334E+009;1.862071603536606E-001;-2.558609284460545E-002;1.698283944278956E-003;4.399932920932770E-003;
2.414000000000000E+009;1.871893703937531E-001;-2.753006294369698E-002;1.828295178711414E-003;4.437538795173168E-003;
2.414166666666667E+009;1.884766072034836E-001;-2.948147617280483E-002;1.937587396241725E-003;4.526823759078980E-003;
2.414333333333334E+009;1.895319074392319E-001;-3.138460218906403E-002;2.192842308431864E-003;4.377582576125860E-003;
2.414500000000000E+009;1.906658262014389E-001;-3.268385678529739E-002;2.307902788743377E-003;4.625240340828896E-003;
2.414666666666667E+009;1.918498277664185E-001;-3.415032103657723E-002;2.387019339948893E-003;4.577697720378637E-003;
2.414833333333334E+009;1.930598765611649E-001;-3.557589277625084E-002;2.445479156449437E-003;4.521782044321299E-003;
2.415000000000000E+009;1.940763592720032E-001;-3.682710975408554E-002;2.747278194874525E-003;4.366927780210972E-003;
2.415166666666667E+009;1.953987628221512E-001;-3.777901828289032E-002;2.941735787317157E-003;4.414601717144251E-003;
2.415333333333334E+009;1.963444799184799E-001;-3.868100792169571E-002;3.151900134980679E-003;4.420480690896511E-003;
2.415500000000000E+009;1.973895430564880E-001;-3.930681571364403E-002;3.120059380307794E-003;4.411592613905668E-003;
2.415666666666667E+009;1.985011249780655E-001;-4.017991572618485E-002;3.473724238574505E-003;4.270387813448906E-003;
2.415833333333334E+009;1.992955654859543E-001;-4.081607237458229E-002;3.599964082241058E-003;4.350137431174517E-003;
2.416000000000000E+009;1.999882012605667E-001;-4.139314591884613E-002;3.825478255748749E-003;4.216309171169996E-003;
2.416166666666667E+009;2.007806003093720E-001;-4.200409725308418E-002;4.018225241452456E-003;4.126794636249542E-003;
2.416333333333334E+009;2.011587768793106E-001;-4.209918901324272E-002;4.181584808975458E-003;4.126553889364004E-003;
2.416500000000000E+009;2.017675042152405E-001;-4.241258651018143E-002;4.188617225736380E-003;4.015223588794470E-003;
2.416666666666667E+009;2.019686698913574E-001;-4.286469146609306E-002;4.551133606582880E-003;3.867766121402383E-003;
2.416833333333334E+009;2.020480334758759E-001;-4.282959178090096E-002;5.004973616451025E-003;3.725130110979080E-003;
2.417000000000000E+009;2.021046429872513E-001;-4.288493841886520E-002;4.936976823955774E-003;3.478624857962132E-003;
2.417166666666667E+009;2.018859535455704E-001;-4.284256324172020E-002;5.202060099691153E-003;3.367356490343809E-003;
2.417333333333334E+009;2.015077322721481E-001;-4.276040196418762E-002;5.197090096771717E-003;3.029402345418930E-003;
2.417500000000000E+009;2.012523412704468E-001;-4.274709150195122E-002;5.529258865863085E-003;2.857288811355829E-003;
2.417666666666667E+009;2.006715089082718E-001;-4.248266294598579E-002;5.626082886010408E-003;2.644144464284182E-003;
2.417833333333334E+009;2.001441121101379E-001;-4.232881218194962E-002;5.666145123541355E-003;2.452452899888158E-003;
2.418000000000000E+009;1.995248794555664E-001;-4.214201867580414E-002;5.698714870959520E-003;2.189817139878869E-003;
2.418166666666667E+009;1.986730396747589E-001;-4.202115908265114E-002;5.804106127470732E-003;2.014408353716135E-003;
2.418333333333334E+009;1.977739632129669E-001;-4.189355298876762E-002;5.786271765828133E-003;1.722416956909001E-003;
2.418500000000000E+009;1.967876106500626E-001;-4.189028963446617E-002;5.873313173651695E-003;1.475703669711947E-003;
2.418666666666667E+009;1.958169192075729E-001;-4.182153195142746E-002;5.757301580160856E-003;1.417598221451044E-003;
2.418833333333334E+009;1.945669502019882E-001;-4.195198789238930E-002;5.653504282236099E-003;1.106346258893609E-003;
2.419000000000000E+009;1.932217329740524E-001;-4.218926280736923E-002;5.797666963189840E-003;1.076497137546539E-003;
2.419166666666667E+009;1.920476257801056E-001;-4.256694391369820E-002;5.849719047546387E-003;9.018150158226490E-004;
2.419333333333334E+009;1.906364858150482E-001;-4.304540529847145E-002;5.791108123958111E-003;7.254521478898823E-004;
2.419500000000000E+009;1.892204433679581E-001;-4.352289810776711E-002;5.956909153610468E-003;5.538635887205601E-004;
2.419666666666667E+009;1.875187009572983E-001;-4.432614147663117E-002;5.809708032757044E-003;4.432084970176220E-004;
2.419833333333334E+009;1.859548687934876E-001;-4.511313140392304E-002;5.974443163722754E-003;1.177803133032285E-004;
2.420000000000000E+009;1.845743507146835E-001;-4.593674093484879E-002;6.000494584441185E-003;9.517896251054481E-005;
2.420166666666667E+009;1.829536408185959E-001;-4.688168317079544E-002;5.843433551490307E-003;-2.409426997473929E-005;
2.420333333333334E+009;1.812300533056259E-001;-4.798789322376251E-002;6.086447276175022E-003;-1.760841987561435E-004;
2.420500000000000E+009;1.798374950885773E-001;-4.935925453901291E-002;6.075101438909769E-003;-5.015512579120696E-004;
2.420666666666667E+009;1.781515479087830E-001;-5.036518350243568E-002;6.114073097705841E-003;-7.292598602361977E-004;
2.420833333333334E+009;1.765368431806564E-001;-5.185703560709953E-002;6.084500346332789E-003;-7.566392887383699E-004;
2.421000000000000E+009;1.751608550548554E-001;-5.356287956237793E-002;6.119884550571442E-003;-1.122672227211297E-003;
2.421166666666667E+009;1.737258285284042E-001;-5.528016760945320E-002;5.972470156848431E-003;-1.293774228543043E-003;
2.421333333333334E+009;1.721648871898651E-001;-5.661094933748245E-002;5.979000590741634E-003;-1.484708976931870E-003;
2.421500000000000E+009;1.709672957658768E-001;-5.855796113610268E-002;5.913900677114725E-003;-1.776062184944749E-003;
2.421666666666667E+009;1.697974801063538E-001;-6.033928319811821E-002;5.924604833126068E-003;-2.061121398583055E-003;
2.421833333333334E+009;1.687229871749878E-001;-6.246963143348694E-002;5.625416059046984E-003;-2.217978704720736E-003;
2.422000000000000E+009;1.676149070262909E-001;-6.414519995450974E-002;5.653461907058954E-003;-2.473811153322458E-003;
2.422166666666667E+009;1.668558269739151E-001;-6.624932587146759E-002;5.564290564507246E-003;-2.687937812879682E-003;
2.422333333333334E+009;1.658669561147690E-001;-6.830347329378128E-002;5.461984314024448E-003;-2.968448679894209E-003;
2.422500000000000E+009;1.650318801403046E-001;-7.017891854047775E-002;5.263765342533588E-003;-3.142675850540400E-003;
2.422666666666667E+009;1.643736064434052E-001;-7.215634733438492E-002;4.995408933609724E-003;-3.352381754666567E-003;
2.422833333333334E+009;1.639595180749893E-001;-7.430554181337357E-002;4.806543700397015E-003;-3.506277455016971E-003;
2.423000000000000E+009;1.634451895952225E-001;-7.627668976783752E-002;4.665063228458166E-003;-3.558160271495581E-003;
2.423166666666667E+009;1.631259769201279E-001;-7.823595404624939E-002;4.591738805174828E-003;-3.823600243777037E-003;
2.423333333333334E+009;1.629664152860642E-001;-8.020604401826859E-002;4.282128531485796E-003;-3.841610625386238E-003;
2.423500000000000E+009;1.628906428813934E-001;-8.183872699737549E-002;4.067708738148212E-003;-3.755462355911732E-003;
2.423666666666667E+009;1.627638638019562E-001;-8.378372341394424E-002;3.897918155416846E-003;-4.088366869837046E-003;
2.423833333333334E+009;1.627917736768723E-001;-8.536492288112640E-002;3.729963442310691E-003;-4.181685391813517E-003;
2.424000000000000E+009;1.628817021846771E-001;-8.725398778915405E-002;3.552039852365851E-003;-4.258848726749420E-003;
2.424166666666667E+009;1.630963087081909E-001;-8.875186741352081E-002;3.366564633324742E-003;-4.262026865035296E-003;
2.424333333333334E+009;1.632337421178818E-001;-9.029672294855118E-002;3.133597550913692E-003;-4.260171670466662E-003;
2.424500000000000E+009;1.636500656604767E-001;-9.195794165134430E-002;2.899628831073642E-003;-4.275407642126083E-003;
2.424666666666667E+009;1.637753993272781E-001;-9.323596209287643E-002;2.726495033130050E-003;-4.310324322432280E-003;
2.424833333333334E+009;1.644687056541443E-001;-9.450973570346832E-002;2.510992577299476E-003;-4.272137768566608E-003;
2.425000000000000E+009;1.647152304649353E-001;-9.560029953718185E-002;2.422195393592119E-003;-4.625494126230478E-003;
2.425166666666667E+009;1.650428175926209E-001;-9.661396592855454E-002;2.283653011545539E-003;-4.439262207597494E-003;
2.425333333333334E+009;1.653134673833847E-001;-9.747813642024994E-002;2.190802711993456E-003;-4.485491663217545E-003;
2.425500000000000E+009;1.658060699701309E-001;-9.856768697500229E-002;2.026510657742620E-003;-4.450711421668530E-003;
2.425666666666667E+009;1.662580072879791E-001;-9.903159737586975E-002;1.846638740971685E-003;-4.336909856647253E-003;
2.425833333333334E+009;1.665806174278259E-001;-1.000051051378250E-001;1.809957320801914E-003;-4.303046036511660E-003;
2.426000000000000E+009;1.669520884752274E-001;-1.004434227943420E-001;1.611438463442028E-003;-4.203524906188250E-003;
2.426166666666667E+009;1.673588156700134E-001;-1.009716019034386E-001;1.455622958019376E-003;-4.254830535501242E-003;
2.426333333333334E+009;1.674149185419083E-001;-1.013778597116470E-001;1.425871043466032E-003;-4.411432426422834E-003;
2.426500000000000E+009;1.677665710449219E-001;-1.016458868980408E-001;1.298737362958491E-003;-4.371661692857742E-003;
2.426666666666667E+009;1.680205166339874E-001;-1.019881889224052E-001;1.268397551029921E-003;-4.270265344530344E-003;
2.426833333333334E+009;1.682427823543549E-001;-1.023225858807564E-001;1.126498798839748E-003;-4.403449129313231E-003;
2.427000000000000E+009;1.681056618690491E-001;-1.025015860795975E-001;1.108373864553869E-003;-4.256492480635643E-003;
2.427166666666667E+009;1.682213544845581E-001;-1.026445925235748E-001;9.782531997188926E-004;-4.337524063885212E-003;
2.427333333333334E+009;1.679912209510803E-001;-1.028432771563530E-001;8.073262288235128E-004;-4.322200547903776E-003;
2.427500000000000E+009;1.678528040647507E-001;-1.030606105923653E-001;6.556388689205051E-004;-4.159568808972836E-003;
2.427666666666667E+009;1.674798429012299E-001;-1.030850857496262E-001;7.648426690138876E-004;-4.358327947556973E-003;
2.427833333333334E+009;1.671261936426163E-001;-1.032127961516380E-001;5.629244260489941E-004;-4.345552995800972E-003;
