# Version 1.00
#
freq[Hz];re:Trc1_S11;im:Trc1_S11;re:Trc2_S21;im:Trc2_S21;
2.400000000000000E+009;1.578864157199860E-001;6.214558333158493E-002;-4.384737927466631E-003;2.932820469141007E-003;
2.400166666666667E+009;1.579302996397018E-001;6.051155179738998E-002;-4.034819081425667E-003;3.077830420807004E-003;
2.400333333333334E+009;1.577333658933640E-001;5.863647535443306E-002;-4.203356802463532E-003;3.234741510823369E-003;
2.400500000000000E+009;1.579122245311737E-001;5.669036880135536E-002;-4.048621281981468E-003;3.368126461282373E-003;
2.400666666666667E+009;1.578548401594162E-001;5.460519716143608E-002;-3.840615041553974E-003;3.400832414627075E-003;
2.400833333333334E+009;1.580283641815186E-001;5.293532833456993E-002;-3.893656656146050E-003;3.658956848084927E-003;
2.401000000000000E+009;1.582034826278687E-001;5.088542401790619E-002;-3.655116306617856E-003;3.850071225315332E-003;
2.401166666666667E+009;1.583581864833832E-001;4.877117276191711E-002;-3.451062133535743E-003;3.871972905471921E-003;
2.401333333333334E+009;1.585046052932739E-001;4.661217704415321E-002;-3.436461323872209E-003;4.060735926032066E-003;
2.401500000000000E+009;1.588195413351059E-001;4.463220015168190E-002;-3.297277260571718E-003;4.280340392142534E-003;
2.401666666666667E+009;1.592119783163071E-001;4.280690103769302E-002;-3.183381864801049E-003;4.226617049425840E-003;
2.401833333333334E+009;1.596873104572296E-001;4.070006310939789E-002;-3.079036017879844E-003;4.343803040683270E-003;
2.402000000000000E+009;1.600573062896729E-001;3.885418176651001E-002;-2.761755837127566E-003;4.627183079719544E-003;
2.402166666666667E+009;1.605728268623352E-001;3.675712272524834E-002;-2.588554518297315E-003;4.714173730462790E-003;
2.402333333333334E+009;1.610983908176422E-001;3.498323634266853E-002;-2.555290237069130E-003;4.721058998256922E-003;
2.402500000000000E+009;1.618117988109589E-001;3.310216218233109E-002;-2.413216978311539E-003;4.867321811616421E-003;
2.402666666666667E+009;1.624096781015396E-001;3.148894757032394E-002;-2.152037806808949E-003;4.967587999999523E-003;
2.402833333333334E+009;1.633726060390472E-001;2.988323196768761E-002;-2.058742567896843E-003;5.218233447521925E-003;
2.403000000000000E+009;1.641121208667755E-001;2.808706276118755E-002;-1.953759929165244E-003;5.339134950190783E-003;
2.403166666666667E+009;1.649881750345230E-001;2.652537077665329E-002;-1.736248144879937E-003;5.284428130835295E-003;
2.403333333333334E+009;1.659359633922577E-001;2.529200725257397E-002;-1.411059289239347E-003;5.448045209050179E-003;
2.403500000000000E+009;1.667958050966263E-001;2.363862469792366E-002;-1.107558258809149E-003;5.514742806553841E-003;
2.403666666666667E+009;1.675839722156525E-001;2.228998206555843E-002;-8.122589788399637E-004;5.414216313511133E-003;
2.403833333333334E+009;1.685426235198975E-001;2.100203000009060E-002;-5.529925692826510E-004;5.598652176558971E-003;
2.404000000000000E+009;1.696076840162277E-001;1.995634846389294E-002;-4.532940511126071E-004;5.662963259965181E-003;
2.404166666666667E+009;1.704905778169632E-001;1.876092329621315E-002;5.846042768098414E-006;5.659520160406828E-003;
2.404333333333334E+009;1.714521348476410E-001;1.781282015144825E-002;1.293932145927101E-004;5.751235876232386E-003;
2.404500000000000E+009;1.722756028175354E-001;1.684584282338619E-002;4.475605674088001E-004;5.787162110209465E-003;
2.404666666666667E+009;1.732828617095947E-001;1.583324745297432E-002;6.605599774047732E-004;5.612609442323446E-003;
2.404833333333334E+009;1.740344911813736E-001;1.520215626806021E-002;8.847257704474032E-004;5.702619440853596E-003;
2.405000000000000E+009;1.750736534595490E-001;1.441833004355431E-002;1.290399581193924E-003;5.641188006848097E-003;
2.405166666666667E+009;1.757115423679352E-001;1.366773899644613E-002;1.417828490957618E-003;5.562596023082733E-003;
2.405333333333334E+009;1.766558736562729E-001;1.294981408864260E-002;1.600871211849153E-003;5.529206711798906E-003;
2.405500000000000E+009;1.772134751081467E-001;1.261612679809332E-002;1.938926870934665E-003;5.532905925065279E-003;
2.405666666666667E+009;1.779394149780273E-001;1.211223006248474E-002;2.012581564486027E-003;5.385236814618111E-003;
2.405833333333334E+009;1.783041208982468E-001;1.173330470919609E-002;2.318029757589102E-003;5.342759657651186E-003;
2.406000000000000E+009;1.789589673280716E-001;1.120806392282248E-002;2.648130292072892E-003;5.145634524524212E-003;
2.406166666666667E+009;1.793675571680069E-001;1.105896476656199E-002;2.888981485739350E-003;5.104519892483950E-003;
2.406333333333334E+009;1.797936707735062E-001;1.057841908186674E-002;2.865119837224484E-003;4.963426385074854E-003;
2.406500000000000E+009;1.799939274787903E-001;1.010140031576157E-002;3.347233170643449E-003;4.744313657283783E-003;
2.406666666666667E+009;1.801027059555054E-001;9.930974803864956E-003;3.500266000628471E-003;4.507082048803568E-003;
2.406833333333334E+009;1.803968846797943E-001;9.502031840384007E-003;3.647237084805965E-003;4.351613577455282E-003;
2.407000000000000E+009;1.802776157855988E-001;9.135501459240913E-003;3.916783723980188E-003;4.000752232968807E-003;
2.407166666666667E+009;1.804805397987366E-001;8.878516033291817E-003;4.016095772385597E-003;3.917834721505642E-003;
2.407333333333334E+009;1.801601648330689E-001;8.305105380713940E-003;4.207797348499298E-003;3.721685847267509E-003;
2.407500000000000E+009;1.800464838743210E-001;7.961235009133816E-003;4.335003439337015E-003;3.402039175853133E-003;
2.407666666666667E+009;1.799458116292954E-001;7.526976987719536E-003;4.475789144635201E-003;3.277596086263657E-003;
2.407833333333334E+009;1.795245707035065E-001;6.750827189534903E-003;4.506676457822323E-003;3.049289807677269E-003;
2.408000000000000E+009;1.792230010032654E-001;6.185366772115231E-003;4.558025393635035E-003;2.835788298398256E-003;
2.408166666666667E+009;1.788050979375839E-001;5.642594769597054E-003;4.851781297475100E-003;2.383276820182800E-003;
2.408333333333334E+009;1.783614456653595E-001;4.751108586788178E-003;4.837082233279944E-003;2.256017178297043E-003;
2.408500000000000E+009;1.777265220880508E-001;3.940721973776817E-003;4.923768807202578E-003;2.012866549193859E-003;
2.408666666666667E+009;1.770922392606735E-001;2.944589126855135E-003;4.837449174374342E-003;1.886630780063570E-003;
2.408833333333334E+009;1.765580624341965E-001;2.096912823617458E-003;5.109062418341637E-003;1.479874248616397E-003;
2.409000000000000E+009;1.758892834186554E-001;1.154464087449014E-003;4.941998515278101E-003;1.354348030872643E-003;
2.409166666666667E+009;1.753543615341187E-001;5.000810779165477E-005;4.844505805522203E-003;1.128864940255880E-003;
2.409333333333334E+009;1.746382117271423E-001;-1.326068886555731E-003;4.989535547792912E-003;9.784132707864046E-004;
2.409500000000000E+009;1.740071773529053E-001;-2.660663798451424E-003;4.931619856506586E-003;5.677213193848729E-004;
2.409666666666667E+009;1.733906716108322E-001;-4.093759227544069E-003;4.903013352304697E-003;3.965689684264362E-004;
2.409833333333334E+009;1.726334691047669E-001;-5.468941759318113E-003;4.827701486647129E-003;2.059405233012512E-004;
2.410000000000000E+009;1.721235662698746E-001;-6.870683748275042E-003;4.756956361234188E-003;6.773725181119517E-005;
2.410166666666667E+009;1.713923364877701E-001;-8.490647189319134E-003;4.767599049955607E-003;-1.526481355540454E-004;
2.410333333333334E+009;1.707541942596436E-001;-1.005342043936253E-002;4.669951740652323E-003;-4.877559258602560E-004;
2.410500000000000E+009;1.703758388757706E-001;-1.192353479564190E-002;4.615504760295153E-003;-6.946799112483859E-004;
2.410666666666667E+009;1.699275225400925E-001;-1.383231859654188E-002;4.633971489965916E-003;-9.057380957528949E-004;
2.410833333333334E+009;1.696313172578812E-001;-1.530111394822598E-002;4.509849939495325E-003;-1.068749348632991E-003;
2.411000000000000E+009;1.692524850368500E-001;-1.720384880900383E-002;4.377823323011398E-003;-1.007300103083253E-003;
2.411166666666667E+009;1.687976568937302E-001;-1.916539110243321E-002;4.363247659057379E-003;-1.225081039592624E-003;
2.411333333333334E+009;1.685511022806168E-001;-2.116653695702553E-002;4.191407468169928E-003;-1.571581233292818E-003;
2.411500000000000E+009;1.684111207723618E-001;-2.313159219920635E-002;4.108228720724583E-003;-1.659807050600648E-003;
2.411666666666667E+009;1.684574037790299E-001;-2.497291751205921E-002;4.031131509691477E-003;-1.792886410839856E-003;
2.411833333333334E+009;1.682782769203186E-001;-2.678312920033932E-002;4.009497351944447E-003;-2.017407910898328E-003;
2.412000000000000E+009;1.684484779834747E-001;-2.882909588515759E-002;3.633444430306554E-003;-2.029491122812033E-003;
2.412166666666667E+009;1.683904826641083E-001;-3.083579055964947E-002;3.682982176542282E-003;-2.380650723353028E-003;
2.412333333333334E+009;1.689667850732803E-001;-3.256774321198463E-002;3.532039932906628E-003;-2.312762197107077E-003;
2.412500000000000E+009;1.687733829021454E-001;-3.446544334292412E-002;3.315024310722947E-003;-2.534483559429646E-003;
2.412666666666667E+009;1.691686809062958E-001;-3.651349619030953E-002;3.066773293539882E-003;-2.694035181775689E-003;
2.412833333333334E+009;1.695840954780579E-001;-3.821129351854324E-002;2.967066597193480E-003;-2.713358728215098E-003;
2.413000000000000E+009;1.699851602315903E-001;-3.991281241178513E-002;2.789094112813473E-003;-2.875742269679904E-003;
2.413166666666667E+009;1.701007336378098E-001;-4.164680838584900E-002;2.697727642953396E-003;-2.841951791197062E-003;
2.413333333333334E+009;1.706350594758987E-001;-4.331185296177864E-002;2.321975305676460E-003;-2.946615684777498E-003;
2.413500000000000E+009;1.711997240781784E-001;-4.476985707879067E-002;2.198299858719111E-003;-2.955513307824731E-003;
2.413666666666667E+009;1.717547476291657E-001;-4.640514031052589E-002;2.105424646288157E-003;-3.082754323258996E-003;
2.413833333333334E+009;1.721324175596237E-001;-4.802612960338593E-002;1.897240406833589E-003;-3.204464679583907E-003;
2.414000000000000E+009;1.727513670921326E-001;-4.928712919354439E-002;1.616329886019230E-003;-3.242734353989363E-003;
2.414166666666667E+009;1.732922345399857E-001;-5.048609152436256E-002;1.451902440749109E-003;-3.232297953218222E-003;
2.414333333333334E+009;1.736857146024704E-001;-5.172871053218842E-002;1.231872243806720E-003;-3.300660755485296E-003;
2.414500000000000E+009;1.742998659610748E-001;-5.287300422787666E-002;1.138478168286383E-003;-3.194910008460283E-003;
2.414666666666667E+009;1.746693402528763E-001;-5.391141399741173E-002;1.008470426313579E-003;-3.098512301221490E-003;
2.414833333333334E+009;1.751128882169724E-001;-5.494670569896698E-002;8.551590726710856E-004;-3.313131630420685E-003;
2.415000000000000E+009;1.756265610456467E-001;-5.568727850914002E-002;5.075047374702990E-004;-3.013133071362972E-003;
2.415166666666667E+009;1.759673058986664E-001;-5.644212663173676E-002;4.477394395507872E-004;-3.079026937484741E-003;
2.415333333333334E+009;1.762998849153519E-001;-5.716019123792648E-002;4.766874189954251E-004;-3.104018513113260E-003;
2.415500000000000E+009;1.767061799764633E-001;-5.770041421055794E-002;1.958106586243957E-004;-2.975150942802429E-003;
2.415666666666667E+009;1.768115162849426E-001;-5.819263309240341E-002;7.336412090808153E-005;-2.848111791536212E-003;
2.415833333333334E+009;1.771261245012283E-001;-5.880218744277954E-002;-1.823051134124398E-004;-2.717015566304326E-003;
2.416000000000000E+009;1.770407110452652E-001;-5.917775630950928E-002;-2.792565501295030E-004;-2.730740932747722E-003;
2.416166666666667E+009;1.773008257150650E-001;-5.951502546668053E-002;-2.787400153465569E-004;-2.758937655016780E-003;
2.416333333333334E+009;1.770829558372498E-001;-5.984494090080261E-002;-4.052885633427650E-004;-2.505301032215357E-003;
2.416500000000000E+009;1.770671457052231E-001;-6.026743724942207E-002;-4.223670403007418E-004;-2.496509347110987E-003;
2.416666666666667E+009;1.768000572919846E-001;-6.046579778194428E-002;-5.326601676642895E-004;-2.253883285447955E-003;
2.416833333333334E+009;1.767254620790482E-001;-6.086152419447899E-002;-5.556444521062076E-004;-2.346706343814731E-003;
2.417000000000000E+009;1.761238276958466E-001;-6.109511107206345E-002;-7.046833052299917E-004;-2.231841674074531E-003;
2.417166666666667E+009;1.757189035415649E-001;-6.115961447358131E-002;-7.918044575490058E-004;-2.202729694545269E-003;
2.417333333333334E+009;1.751782000064850E-001;-6.138981506228447E-002;-7.189257303252816E-004;-2.126699080690742E-003;
2.417500000000000E+009;1.744359582662582E-001;-6.187207996845245E-002;-8.193654939532280E-004;-1.971680205315352E-003;
2.417666666666667E+009;1.739634871482849E-001;-6.204222142696381E-002;-9.342768462374806E-004;-1.891331980004907E-003;
2.417833333333334E+009;1.731313467025757E-001;-6.231954693794251E-002;-9.998284513130784E-004;-1.848523737862706E-003;
2.418000000000000E+009;1.720920503139496E-001;-6.271625310182571E-002;-1.010937034152448E-003;-1.590421539731324E-003;
2.418166666666667E+009;1.713126897811890E-001;-6.297539174556732E-002;-9.440249414183199E-004;-1.632974483072758E-003;
2.418333333333334E+009;1.704791933298111E-001;-6.344779580831528E-002;-1.047983532771468E-003;-1.617279136553407E-003;
2.418500000000000E+009;1.693635582923889E-001;-6.379926949739456E-002;-9.602245991118252E-004;-1.436384278349578E-003;
2.418666666666667E+009;1.683586537837982E-001;-6.438891589641571E-002;-1.269829575903714E-003;-1.417664345353842E-003;
2.418833333333334E+009;1.670639961957932E-001;-6.491646170616150E-002;-1.103960210457444E-003;-1.252780784852803E-003;
2.419000000000000E+009;1.657887697219849E-001;-6.554605066776276E-002;-1.112166675738990E-003;-1.249357359483838E-003;
2.419166666666667E+009;1.648056060075760E-001;-6.623845547437668E-002;-1.106557436287403E-003;-1.307256752625108E-003;
2.419333333333334E+009;1.634428650140762E-001;-6.688906997442246E-002;-1.258384785614908E-003;-1.278285868465900E-003;
2.419500000000000E+009;1.623401939868927E-001;-6.780081242322922E-002;-1.113520585931838E-003;-1.059079892002046E-003;
2.419666666666667E+009;1.612834036350250E-001;-6.877584010362625E-002;-1.197827281430364E-003;-8.720655459910631E-004;
2.419833333333334E+009;1.600712239742279E-001;-6.954973936080933E-002;-1.045235898345709E-003;-7.952573359943926E-004;
2.420000000000000E+009;1.590671837329865E-001;-7.061976939439774E-002;-1.143741654232144E-003;-6.571885896846652E-004;
2.420166666666667E+009;1.578084379434586E-001;-7.192379236221314E-002;-1.132809091359377E-003;-8.596790139563382E-004;
2.420333333333334E+009;1.568388193845749E-001;-7.316798716783524E-002;-1.038430258631706E-003;-7.486887625418603E-004;
2.420500000000000E+009;1.560011208057404E-001;-7.417457550764084E-002;-1.041904441080988E-003;-5.886722356081009E-004;
2.420666666666667E+009;1.550110280513763E-001;-7.539196312427521E-002;-1.000953605398536E-003;-5.919009563513100E-004;
2.420833333333334E+009;1.540107280015945E-001;-7.683454453945160E-002;-8.974999072961509E-004;-5.230345996096730E-004;
2.421000000000000E+009;1.533551514148712E-001;-7.844977825880051E-002;-9.291735477745533E-004;-4.542960377875716E-004;
2.421166666666667E+009;1.526602059602737E-001;-7.989098876714706E-002;-9.247924317605794E-004;-4.104616818949580E-004;
2.421333333333334E+009;1.519379615783691E-001;-8.150198310613632E-002;-1.072337850928307E-003;-3.462403547018766E-004;
2.421500000000000E+009;1.512107551097870E-001;-8.280519396066666E-002;-1.055810367688537E-003;-2.694583963602781E-004;
2.421666666666667E+009;1.508177667856216E-001;-8.465031534433365E-002;-7.587447180412710E-004;-2.964280138257891E-004;
2.421833333333334E+009;1.504346877336502E-001;-8.629420399665833E-002;-9.515337878838182E-004;-2.484275610186160E-004;
2.422000000000000E+009;1.500868052244186E-001;-8.775362372398377E-002;-8.279124158434570E-004;-2.599085564725101E-004;
2.422166666666667E+009;1.498515009880066E-001;-8.957735449075699E-002;-7.742556044831872E-004;-1.830823748605326E-004;
2.422333333333334E+009;1.496742069721222E-001;-9.140839427709580E-002;-7.530192960985005E-004;-1.549291191622615E-004;
2.422500000000000E+009;1.495890766382217E-001;-9.286206215620041E-002;-7.459271582774818E-004;-1.402970810886473E-004;
2.422666666666667E+009;1.494554579257965E-001;-9.455728530883789E-002;-7.635793881490827E-004;-1.198552199639380E-004;
2.422833333333334E+009;1.496161222457886E-001;-9.634972363710403E-002;-7.416159496642649E-004;3.615758032537997E-005;
2.423000000000000E+009;1.496921330690384E-001;-9.799266606569290E-002;-6.742509431205690E-004;-6.172925168357324E-006;
2.423166666666667E+009;1.500892490148544E-001;-9.950376302003861E-002;-5.708318203687668E-004;-1.060356953530572E-004;
2.423333333333334E+009;1.503163874149323E-001;-1.010014563798904E-001;-4.742922028526664E-004;1.856594462879002E-005;
2.423500000000000E+009;1.504508554935455E-001;-1.027211472392082E-001;-5.685103824362159E-004;1.683047958067618E-005;
2.423666666666667E+009;1.507195681333542E-001;-1.040917858481407E-001;-5.316841998137534E-004;8.192178938770667E-005;
2.423833333333334E+009;1.513650864362717E-001;-1.055898293852806E-001;-6.008608033880591E-004;1.255029346793890E-004;
2.424000000000000E+009;1.516905725002289E-001;-1.066119521856308E-001;-5.405497504398227E-004;2.137374685844407E-004;
2.424166666666667E+009;1.521771103143692E-001;-1.081568151712418E-001;-4.733799723908305E-004;2.029048919212073E-004;
2.424333333333334E+009;1.525517553091049E-001;-1.092927828431130E-001;-4.503288364503533E-004;1.650364574743435E-004;
2.424500000000000E+009;1.530760824680328E-001;-1.104540601372719E-001;-4.167762817814946E-004;2.048763708444312E-004;
2.424666666666667E+009;1.536274999380112E-001;-1.113936230540276E-001;-3.226078406441957E-004;1.680459536146373E-004;
2.424833333333334E+009;1.539138853549957E-001;-1.123787984251976E-001;-2.245174691779539E-004;2.624120679683983E-004;
2.425000000000000E+009;1.544639021158218E-001;-1.132971867918968E-001;-2.781894290819764E-004;2.341563667869195E-004;
2.425166666666667E+009;1.546836048364639E-001;-1.142821609973908E-001;-2.187349164159969E-004;1.968738652067259E-004;
2.425333333333334E+009;1.550573110580444E-001;-1.149227172136307E-001;-7.025893864920363E-005;3.221449733246118E-004;
2.425500000000000E+009;1.555167138576508E-001;-1.156296506524086E-001;-1.797979348339140E-004;2.580337750259787E-004;
2.425666666666667E+009;1.556570976972580E-001;-1.162371933460236E-001;-1.503024250268936E-004;1.229112822329626E-004;
2.425833333333334E+009;1.558346897363663E-001;-1.168361529707909E-001;1.993535552173853E-004;2.368124551139772E-004;
2.426000000000000E+009;1.559000313282013E-001;-1.172429248690605E-001;-5.085854354547337E-005;2.672546252142638E-004;
2.426166666666667E+009;1.563528478145599E-001;-1.177455335855484E-001;3.033498251170386E-005;1.762798056006432E-004;
2.426333333333334E+009;1.562115699052811E-001;-1.179967522621155E-001;2.242699119960889E-004;2.788147830870003E-004;
2.426500000000000E+009;1.562142670154572E-001;-1.182312816381455E-001;1.572856563143432E-004;2.346521941944957E-004;
2.426666666666667E+009;1.561273187398911E-001;-1.183910295367241E-001;3.314464993309230E-004;2.484519973222632E-005;
2.426833333333334E+009;1.558302938938141E-001;-1.185666695237160E-001;3.546703665051609E-004;2.542282709327992E-005;
2.427000000000000E+009;1.555319875478745E-001;-1.188638880848885E-001;3.386366006452590E-004;-3.265287659814931E-006;
2.427166666666667E+009;1.551617085933685E-001;-1.188906431198120E-001;3.419353161007166E-004;-6.960306109249359E-006;
2.427333333333334E+009;1.545482724905014E-001;-1.190500780940056E-001;4.316058475524187E-004;-1.944409450516105E-005;
2.427500000000000E+009;1.541214138269424E-001;-1.191844791173935E-001;4.072008596267551E-004;-8.340587373822928E-005;
2.427666666666667E+009;1.533376425504684E-001;-1.192861571907997E-001;4.224474541842938E-004;-1.357638975605369E-004;
