# Version 1.00
#
freq[Hz];re:Trc1_S11;im:Trc1_S11;re:Trc2_S21;im:Trc2_S21;
2.400000000000000E+009;1.581127047538757E-001;6.210601329803467E-002;-4.226806107908487E-003;3.027650993317366E-003;
2.400166666666667E+009;1.580062359571457E-001;6.049690395593643E-002;-4.078844562172890E-003;3.018975025042892E-003;
2.400333333333334E+009;1.579603850841522E-001;5.856630206108093E-002;-3.995866980403662E-003;3.173828357830644E-003;
2.400500000000000E+009;1.580467075109482E-001;5.666749179363251E-002;-3.936985507607460E-003;3.288188483566046E-003;
2.400666666666667E+009;1.578100174665451E-001;5.470579490065575E-002;-3.758341772481799E-003;3.407549811527133E-003;
2.400833333333334E+009;1.581348776817322E-001;5.301785841584206E-002;-3.710310440510511E-003;3.794072661548853E-003;
2.401000000000000E+009;1.582334041595459E-001;5.087774246931076E-002;-3.472052281722426E-003;3.707564901560545E-003;
2.401166666666667E+009;1.582662463188171E-001;4.865315183997154E-002;-3.539786441251636E-003;3.950432874262333E-003;
2.401333333333334E+009;1.584257930517197E-001;4.660962894558907E-002;-3.355277236551046E-003;4.038155544549227E-003;
2.401500000000000E+009;1.590924710035324E-001;4.459062963724136E-002;-3.031832864508033E-003;3.872913075610995E-003;
2.401666666666667E+009;1.592994183301926E-001;4.271209239959717E-002;-3.041279967874289E-003;4.181380383670330E-003;
2.401833333333334E+009;1.595968604087830E-001;4.079767689108849E-002;-2.884894376620650E-003;4.250066820532084E-003;
2.402000000000000E+009;1.599416285753250E-001;3.879827260971069E-002;-2.775483997538686E-003;4.566839430481195E-003;
2.402166666666667E+009;1.606641560792923E-001;3.701034560799599E-002;-2.779760863631964E-003;4.750229883939028E-003;
2.402333333333334E+009;1.609775573015213E-001;3.497643396258354E-002;-2.632999559864402E-003;4.565483424812555E-003;
2.402500000000000E+009;1.619649380445480E-001;3.319125249981880E-002;-2.523961011320353E-003;4.759679082781076E-003;
2.402666666666667E+009;1.625692546367645E-001;3.154814988374710E-002;-2.364367479458451E-003;4.928272217512131E-003;
2.402833333333334E+009;1.633039414882660E-001;2.977969497442246E-002;-2.177061745896936E-003;5.052487365901470E-003;
2.403000000000000E+009;1.641659289598465E-001;2.828114666044712E-002;-1.884554396383464E-003;5.398345645517111E-003;
2.403166666666667E+009;1.649932265281677E-001;2.662844397127628E-002;-1.804925617761910E-003;5.397027358412743E-003;
2.403333333333334E+009;1.659228354692459E-001;2.522428147494793E-002;-1.485893968492746E-003;5.414876155555248E-003;
2.403500000000000E+009;1.667026877403259E-001;2.372001856565476E-002;-1.181368716061115E-003;5.315953399986029E-003;
2.403666666666667E+009;1.678150445222855E-001;2.221446670591831E-002;-9.158736211247742E-004;5.700123496353626E-003;
2.403833333333334E+009;1.688275188207626E-001;2.110807597637177E-002;-6.891480297781527E-004;5.573472939431667E-003;
2.404000000000000E+009;1.695809215307236E-001;1.983691751956940E-002;-3.897872811648995E-004;5.601615179330111E-003;
2.404166666666667E+009;1.705854684114456E-001;1.853310130536556E-002;-2.408583823125809E-004;5.679859314113855E-003;
2.404333333333334E+009;1.716447472572327E-001;1.776763051748276E-002;-9.527570000500418E-006;5.611526314169169E-003;
2.404500000000000E+009;1.722018569707871E-001;1.678615994751453E-002;2.598621649667621E-004;5.685111973434687E-003;
2.404666666666667E+009;1.732922047376633E-001;1.602239906787872E-002;4.519006470218301E-004;5.677707493305206E-003;
2.404833333333334E+009;1.741498559713364E-001;1.513122115284205E-002;7.804777706041932E-004;5.609444808214903E-003;
2.405000000000000E+009;1.750456392765045E-001;1.428729575127363E-002;9.589566034264863E-004;5.646325647830963E-003;
2.405166666666667E+009;1.757511198520660E-001;1.369917672127485E-002;1.378491520881653E-003;5.576352588832378E-003;
2.405333333333334E+009;1.766007542610169E-001;1.293911132961512E-002;1.544774742797017E-003;5.350213497877121E-003;
2.405500000000000E+009;1.772310137748718E-001;1.258588954806328E-002;1.698809908702970E-003;5.304511636495590E-003;
2.405666666666667E+009;1.779007613658905E-001;1.214291620999575E-002;1.990798395127058E-003;5.401814822107554E-003;
2.405833333333334E+009;1.785323619842529E-001;1.172760874032974E-002;2.159489551559091E-003;5.311834625899792E-003;
2.406000000000000E+009;1.789175868034363E-001;1.114376261830330E-002;2.624565036967397E-003;5.175130441784859E-003;
2.406166666666667E+009;1.792899519205093E-001;1.098595559597015E-002;2.804661635309458E-003;4.921969491988421E-003;
2.406333333333334E+009;1.798468232154846E-001;1.045762374997139E-002;2.907552057877183E-003;4.850501660257578E-003;
2.406500000000000E+009;1.800685077905655E-001;1.022070925682783E-002;3.330228151753545E-003;4.773668013513088E-003;
2.406666666666667E+009;1.801302731037140E-001;9.945209138095379E-003;3.403017763048410E-003;4.354713484644890E-003;
2.406833333333334E+009;1.803375482559204E-001;9.567455388605595E-003;3.687296761199832E-003;4.410214722156525E-003;
2.407000000000000E+009;1.804804354906082E-001;9.158770553767681E-003;3.934516105800867E-003;4.176863003522158E-003;
2.407166666666667E+009;1.805624663829804E-001;8.796039037406445E-003;4.265934228897095E-003;3.981946501880884E-003;
2.407333333333334E+009;1.802211254835129E-001;8.284192532300949E-003;4.147274885326624E-003;3.721505869179964E-003;
2.407500000000000E+009;1.800731420516968E-001;7.872148416936398E-003;4.352067597210407E-003;3.452189266681671E-003;
2.407666666666667E+009;1.798072159290314E-001;7.485366426408291E-003;4.341528750956059E-003;3.287164727225900E-003;
2.407833333333334E+009;1.794549375772476E-001;6.795437540858984E-003;4.502637777477503E-003;2.938711317256093E-003;
2.408000000000000E+009;1.792107671499252E-001;6.165070459246635E-003;4.595219623297453E-003;2.936049597337842E-003;
2.408166666666667E+009;1.786699444055557E-001;5.647808313369751E-003;4.898552782833576E-003;2.440466312691569E-003;
2.408333333333334E+009;1.784140616655350E-001;4.847856238484383E-003;4.917732905596495E-003;2.369460416957736E-003;
2.408500000000000E+009;1.778285205364227E-001;3.971969708800316E-003;4.795147571712732E-003;1.852350425906479E-003;
2.408666666666667E+009;1.772007942199707E-001;3.079095855355263E-003;4.944022744894028E-003;1.817945973016322E-003;
2.408833333333334E+009;1.766090542078018E-001;2.065161243081093E-003;4.775826819241047E-003;1.504273386672139E-003;
2.409000000000000E+009;1.758749485015869E-001;1.161434222012758E-003;4.934914410114288E-003;1.273857196792960E-003;
2.409166666666667E+009;1.752924323081970E-001;-1.493711024522781E-004;4.974632058292627E-003;9.452575468458235E-004;
2.409333333333334E+009;1.746948510408402E-001;-1.354085979983211E-003;4.828400909900665E-003;1.006768899969757E-003;
2.409500000000000E+009;1.739078462123871E-001;-2.748450729995966E-003;4.922836553305388E-003;6.996940355747938E-004;
2.409666666666667E+009;1.732387989759445E-001;-4.131305031478405E-003;4.913635551929474E-003;5.183098837733269E-004;
2.409833333333334E+009;1.726284027099609E-001;-5.338643677532673E-003;4.969092551618815E-003;3.260097582824528E-004;
2.410000000000000E+009;1.720916032791138E-001;-7.039893418550491E-003;4.767695441842079E-003;5.592196976067498E-005;
2.410166666666667E+009;1.714843958616257E-001;-8.508685044944286E-003;4.715753253549337E-003;-1.084103496395983E-004;
2.410333333333334E+009;1.709278225898743E-001;-1.019666995853186E-002;4.690024070441723E-003;-4.101708182133734E-004;
2.410500000000000E+009;1.704438626766205E-001;-1.189869735389948E-002;4.588388372212648E-003;-7.034569280222058E-004;
2.410666666666667E+009;1.699582040309906E-001;-1.400949433445931E-002;4.496136680245400E-003;-6.640377687290311E-004;
2.410833333333334E+009;1.695957332849503E-001;-1.538226939737797E-002;4.424892831593752E-003;-9.752876940183342E-004;
2.411000000000000E+009;1.690213233232498E-001;-1.733910292387009E-002;4.380715545266867E-003;-1.059248927049339E-003;
2.411166666666667E+009;1.688874214887619E-001;-1.931151375174522E-002;4.350422415882349E-003;-1.212624134495854E-003;
2.411333333333334E+009;1.685017794370651E-001;-2.096397243440151E-002;4.260724410414696E-003;-1.368007622659206E-003;
2.411500000000000E+009;1.682758033275604E-001;-2.317775785923004E-002;4.198076203465462E-003;-1.669183722697198E-003;
2.411666666666667E+009;1.684669703245163E-001;-2.484883740544319E-002;3.926430363208056E-003;-1.859363634139299E-003;
2.411833333333334E+009;1.683547645807266E-001;-2.686377242207527E-002;3.907894715666771E-003;-1.823707600124180E-003;
2.412000000000000E+009;1.683982610702515E-001;-2.880314551293850E-002;3.679329762235284E-003;-1.983651192858815E-003;
2.412166666666667E+009;1.685421615839005E-001;-3.082226589322090E-002;3.578355768695474E-003;-2.309642499312758E-003;
2.412333333333334E+009;1.687508672475815E-001;-3.253602236509323E-002;3.485118271782994E-003;-2.460803836584091E-003;
2.412500000000000E+009;1.687774211168289E-001;-3.445633128285408E-002;3.170105628669262E-003;-2.327654277905822E-003;
2.412666666666667E+009;1.692608147859573E-001;-3.646704927086830E-002;3.125331131741405E-003;-2.590089570730925E-003;
2.412833333333334E+009;1.695359945297241E-001;-3.817469626665115E-002;2.914632204920054E-003;-2.640116261318326E-003;
2.413000000000000E+009;1.698528826236725E-001;-3.996787965297699E-002;2.675335621461272E-003;-2.709868131205440E-003;
2.413166666666667E+009;1.702338755130768E-001;-4.157551750540733E-002;2.606152324005961E-003;-2.802128205075860E-003;
2.413333333333334E+009;1.706379652023315E-001;-4.331801459193230E-002;2.263078931719065E-003;-2.850850578397512E-003;
2.413500000000000E+009;1.710998713970184E-001;-4.486601799726486E-002;2.219334943220019E-003;-2.962411614134908E-003;
2.413666666666667E+009;1.718306541442871E-001;-4.663908854126930E-002;2.109718509018421E-003;-3.234723815694451E-003;
2.413833333333334E+009;1.721362620592117E-001;-4.791347682476044E-002;1.829359214752913E-003;-3.003548365086317E-003;
2.414000000000000E+009;1.725637763738632E-001;-4.937611892819405E-002;1.715166261419654E-003;-3.185646608471870E-003;
2.414166666666667E+009;1.733646988868713E-001;-5.067367479205132E-002;1.455065561458468E-003;-3.250738373026252E-003;
2.414333333333334E+009;1.736352592706680E-001;-5.168019607663155E-002;1.330047263763845E-003;-3.242048900574446E-003;
2.414500000000000E+009;1.744142323732376E-001;-5.295462906360626E-002;1.072942744940519E-003;-3.037219401448965E-003;
2.414666666666667E+009;1.746830344200134E-001;-5.389443784952164E-002;9.451992809772492E-004;-3.078256733715534E-003;
2.414833333333334E+009;1.751158833503723E-001;-5.481710284948349E-002;7.695395033806562E-004;-3.087211633101106E-003;
2.415000000000000E+009;1.756121516227722E-001;-5.571995303034782E-002;6.047205533832312E-004;-3.106040647253394E-003;
2.415166666666667E+009;1.760207712650299E-001;-5.648605152964592E-002;5.945484736002982E-004;-3.007170045748353E-003;
2.415333333333334E+009;1.764360666275024E-001;-5.728678405284882E-002;3.938695881515741E-004;-2.980397781357169E-003;
2.415500000000000E+009;1.766625195741653E-001;-5.770391598343849E-002;2.887409646064043E-004;-2.862168941646814E-003;
2.415666666666667E+009;1.767977923154831E-001;-5.831078812479973E-002;7.353639375651255E-005;-2.888426417484880E-003;
2.415833333333334E+009;1.770278662443161E-001;-5.884287878870964E-002;-1.075142645277083E-004;-2.779173664748669E-003;
2.416000000000000E+009;1.770432889461517E-001;-5.930241197347641E-002;-1.558273943373933E-004;-2.840189263224602E-003;
2.416166666666667E+009;1.772856861352921E-001;-5.962287262082100E-002;-3.778992395382375E-004;-2.743416931480169E-003;
2.416333333333334E+009;1.771001368761063E-001;-5.988489836454392E-002;-5.335197784006596E-004;-2.513731596991420E-003;
2.416500000000000E+009;1.770195066928864E-001;-6.023122370243073E-002;-3.834060917142779E-004;-2.516441280022264E-003;
2.416666666666667E+009;1.768312752246857E-001;-6.032526493072510E-002;-5.346804973669350E-004;-2.476693131029606E-003;
2.416833333333334E+009;1.766899526119232E-001;-6.075341627001762E-002;-6.649376009590924E-004;-2.325801877304912E-003;
2.417000000000000E+009;1.760443449020386E-001;-6.115427613258362E-002;-6.360571715049446E-004;-2.141657518222928E-003;
2.417166666666667E+009;1.757183969020844E-001;-6.127929687500000E-002;-7.679790141992271E-004;-2.136299386620522E-003;
2.417333333333334E+009;1.751573383808136E-001;-6.140859425067902E-002;-7.863769424147904E-004;-2.077555283904076E-003;
2.417500000000000E+009;1.744868755340576E-001;-6.188103929162026E-002;-8.193595567718148E-004;-1.997397281229496E-003;
2.417666666666667E+009;1.739294081926346E-001;-6.186881288886070E-002;-9.493765537627041E-004;-1.698732841759920E-003;
2.417833333333334E+009;1.730053871870041E-001;-6.216208636760712E-002;-9.251208393834531E-004;-1.963924383744597E-003;
2.418000000000000E+009;1.721746772527695E-001;-6.276036798954010E-002;-1.047866768203676E-003;-1.717036357149482E-003;
2.418166666666667E+009;1.712134182453156E-001;-6.289158761501312E-002;-8.450784953311086E-004;-1.649003243073821E-003;
2.418333333333334E+009;1.703634262084961E-001;-6.339044123888016E-002;-1.005845377221704E-003;-1.535853254608810E-003;
2.418500000000000E+009;1.693764925003052E-001;-6.383229047060013E-002;-1.013069995678961E-003;-1.455671037547290E-003;
2.418666666666667E+009;1.683726757764816E-001;-6.444802135229111E-002;-9.850212372839451E-004;-1.424563350155950E-003;
2.418833333333334E+009;1.670576483011246E-001;-6.508477777242661E-002;-1.056546927429736E-003;-1.345173805020750E-003;
2.419000000000000E+009;1.659792065620422E-001;-6.560075283050537E-002;-1.048196339979768E-003;-1.284436206333339E-003;
2.419166666666667E+009;1.647872328758240E-001;-6.629293411970139E-002;-1.050734077580273E-003;-1.055017346516252E-003;
2.419333333333334E+009;1.635389626026154E-001;-6.687641888856888E-002;-9.031249210238457E-004;-1.105095027014613E-003;
2.419500000000000E+009;1.624520272016525E-001;-6.776805222034454E-002;-1.068676356226206E-003;-1.068223966285586E-003;
2.419666666666667E+009;1.614408791065216E-001;-6.878282129764557E-002;-1.075322390533984E-003;-9.344667196273804E-004;
2.419833333333334E+009;1.600462794303894E-001;-6.963945925235748E-002;-1.020352239720523E-003;-8.654745179228485E-004;
2.420000000000000E+009;1.590626388788223E-001;-7.068727910518646E-002;-1.122844638302922E-003;-6.783408462069929E-004;
2.420166666666667E+009;1.578759998083115E-001;-7.183232903480530E-002;-1.043652766384184E-003;-7.389275124296546E-004;
2.420333333333334E+009;1.568753272294998E-001;-7.300014793872833E-002;-1.054514199495316E-003;-6.580437184311450E-004;
2.420500000000000E+009;1.560800075531006E-001;-7.410397380590439E-002;-1.066384487785399E-003;-7.381682517006993E-004;
2.420666666666667E+009;1.548486202955246E-001;-7.548026740550995E-002;-1.026542158797383E-003;-5.913749919272959E-004;
2.420833333333334E+009;1.541553884744644E-001;-7.684209942817688E-002;-8.869338780641556E-004;-5.341216456145048E-004;
2.421000000000000E+009;1.533341854810715E-001;-7.843166589736939E-002;-9.783384157344699E-004;-3.775942604988813E-004;
2.421166666666667E+009;1.525001078844070E-001;-7.995410263538361E-002;-9.357075323350728E-004;-3.691747842822224E-004;
2.421333333333334E+009;1.519894301891327E-001;-8.145663142204285E-002;-8.690675604157150E-004;-3.953007981181145E-004;
2.421500000000000E+009;1.511512398719788E-001;-8.291585743427277E-002;-8.256381261162460E-004;-2.936329110525549E-004;
2.421666666666667E+009;1.509441286325455E-001;-8.467414975166321E-002;-7.250706548802555E-004;-1.968719152500853E-004;
2.421833333333334E+009;1.504823714494705E-001;-8.605430275201798E-002;-7.907120161689818E-004;-2.246156363980845E-004;
2.422000000000000E+009;1.500577777624130E-001;-8.798934519290924E-002;-8.728100219741464E-004;-1.532170426798984E-004;
2.422166666666667E+009;1.497566998004913E-001;-8.966562896966934E-002;-7.749223732389510E-004;-1.714862301014364E-004;
2.422333333333334E+009;1.497910171747208E-001;-9.121251851320267E-002;-7.537289056926966E-004;-1.338547444902360E-004;
2.422500000000000E+009;1.496309638023377E-001;-9.283129870891571E-002;-5.854187184013426E-004;-8.645980415167287E-005;
2.422666666666667E+009;1.495181173086166E-001;-9.458724409341812E-002;-6.496315472759306E-004;-1.374783314531669E-004;
2.422833333333334E+009;1.496533602476120E-001;-9.635467827320099E-002;-6.991927511990070E-004;-3.505037602735683E-005;
2.423000000000000E+009;1.497483998537064E-001;-9.797032177448273E-002;-6.496309069916606E-004;-3.955748252337799E-005;
2.423166666666667E+009;1.499953269958496E-001;-9.962084889411926E-002;-4.998872173018754E-004;-8.038501255214214E-005;
2.423333333333334E+009;1.502997726202011E-001;-1.010721847414970E-001;-5.754255689680576E-004;-4.915758836432360E-005;
2.423500000000000E+009;1.505756080150604E-001;-1.026219725608826E-001;-6.066114874556661E-004;-2.334098826395348E-005;
2.423666666666667E+009;1.507840752601624E-001;-1.040412113070488E-001;-4.579553205985576E-004;-3.418554115341976E-005;
2.423833333333334E+009;1.513197571039200E-001;-1.054487079381943E-001;-4.916571779176593E-004;1.392108679283410E-004;
2.424000000000000E+009;1.516783386468887E-001;-1.067968234419823E-001;-5.442468682304025E-004;1.506114058429375E-004;
2.424166666666667E+009;1.521193683147430E-001;-1.080546230077744E-001;-4.378672165330499E-004;2.605253575893585E-005;
2.424333333333334E+009;1.526954621076584E-001;-1.093177646398544E-001;-4.006899544037879E-004;1.677393302088603E-004;
2.424500000000000E+009;1.530256867408752E-001;-1.103991419076920E-001;-2.394113980699331E-004;1.538106153020635E-004;
2.424666666666667E+009;1.536918878555298E-001;-1.114035472273827E-001;-3.639939532149583E-004;5.813201278215274E-005;
2.424833333333334E+009;1.539724916219711E-001;-1.124277859926224E-001;-2.421647222945467E-004;2.118538832291961E-004;
2.425000000000000E+009;1.543542146682739E-001;-1.134633794426918E-001;-1.501787919551134E-004;8.641140448162332E-005;
2.425166666666667E+009;1.546944677829742E-001;-1.141849905252457E-001;-2.368621644563973E-004;2.154546382371336E-004;
2.425333333333334E+009;1.551024466753006E-001;-1.148256808519363E-001;-2.037341910181567E-004;2.183141477871686E-004;
2.425500000000000E+009;1.554085612297058E-001;-1.156382858753204E-001;-1.566534920129925E-004;2.298162580700591E-004;
2.425666666666667E+009;1.555513143539429E-001;-1.162089779973030E-001;-1.755348785081878E-004;1.060673967003822E-004;
2.425833333333334E+009;1.559088826179504E-001;-1.167508959770203E-001;5.373659951146692E-005;2.843463153112680E-004;
2.426000000000000E+009;1.559371203184128E-001;-1.172647625207901E-001;4.842021553486120E-006;2.125578903360292E-004;
2.426166666666667E+009;1.563443541526794E-001;-1.176851987838745E-001;-5.045555008109659E-005;1.684380986262113E-004;
2.426333333333334E+009;1.562428325414658E-001;-1.180388405919075E-001;5.477343802340329E-005;1.468135305913165E-004;
2.426500000000000E+009;1.561543643474579E-001;-1.182350665330887E-001;2.368775021750480E-004;1.002110293484293E-004;
2.426666666666667E+009;1.561940759420395E-001;-1.182592213153839E-001;1.239222183357924E-004;5.901202894165181E-005;
2.426833333333334E+009;1.558798253536224E-001;-1.185628026723862E-001;3.050859086215496E-004;4.892557990388013E-005;
2.427000000000000E+009;1.555801779031754E-001;-1.188306808471680E-001;3.930135862901807E-004;4.175387221039273E-005;
2.427166666666667E+009;1.551837623119354E-001;-1.187921911478043E-001;4.902422660961747E-004;-6.824944284744561E-005;
2.427333333333334E+009;1.545758694410324E-001;-1.190645843744278E-001;3.651742881629616E-004;-1.201338163809851E-004;
2.427500000000000E+009;1.541803777217865E-001;-1.191927939653397E-001;3.961910842917860E-004;-1.131104581872933E-004;
2.427666666666667E+009;1.534480750560761E-001;-1.193014085292816E-001;4.188237653579563E-004;-2.715757291298360E-004;
