# Version 1.00
#
freq[Hz];re:Trc1_S11;im:Trc1_S11;re:Trc2_S21;im:Trc2_S21;
2.400000000000000E+009;1.579973101615906E-001;6.210547685623169E-002;-4.315542988479137E-003;2.855048514902592E-003;
2.400166666666667E+009;1.579185277223587E-001;6.054745241999626E-002;-4.168498795479536E-003;3.124375827610493E-003;
2.400333333333334E+009;1.577577888965607E-001;5.866471678018570E-002;-4.034713376313448E-003;3.167791757732630E-003;
2.400500000000000E+009;1.577813327312470E-001;5.664243921637535E-002;-4.049353301525116E-003;3.324637655168772E-003;
2.400666666666667E+009;1.578263938426971E-001;5.470689758658409E-002;-3.954146523028612E-003;3.381482325494289E-003;
2.400833333333334E+009;1.578787714242935E-001;5.287370830774307E-002;-3.721445566043258E-003;3.710690187290311E-003;
2.401000000000000E+009;1.580463647842407E-001;5.082113295793533E-002;-3.533343318849802E-003;3.701497567817569E-003;
2.401166666666667E+009;1.582371592521668E-001;4.880950227379799E-002;-3.309228690341115E-003;3.801414044573903E-003;
2.401333333333334E+009;1.583853214979172E-001;4.665247350931168E-002;-3.246747888624668E-003;3.998477011919022E-003;
2.401500000000000E+009;1.589856147766113E-001;4.464198276400566E-002;-3.213342744857073E-003;4.221873357892036E-003;
2.401666666666667E+009;1.592192202806473E-001;4.293868690729141E-002;-3.226442961022258E-003;4.281078930944204E-003;
2.401833333333334E+009;1.595667153596878E-001;4.080177098512650E-002;-3.131120000034571E-003;4.385352600365877E-003;
2.402000000000000E+009;1.598714441061020E-001;3.877460956573486E-002;-2.909930888563395E-003;4.605019930750132E-003;
2.402166666666667E+009;1.604842096567154E-001;3.692315891385078E-002;-2.680823439732194E-003;4.750555381178856E-003;
2.402333333333334E+009;1.610724329948425E-001;3.493101522326469E-002;-2.625784138217568E-003;4.864063113927841E-003;
2.402500000000000E+009;1.618282049894333E-001;3.312135860323906E-002;-2.244893694296479E-003;5.031106993556023E-003;
2.402666666666667E+009;1.624315083026886E-001;3.144819661974907E-002;-2.360995858907700E-003;4.996960982680321E-003;
2.402833333333334E+009;1.632698923349381E-001;2.980883605778217E-002;-2.094783820211887E-003;5.228856578469276E-003;
2.403000000000000E+009;1.640879511833191E-001;2.816839702427387E-002;-1.695216749794781E-003;5.255392286926508E-003;
2.403166666666667E+009;1.648922115564346E-001;2.653868496417999E-002;-1.557503012008965E-003;5.316197872161865E-003;
2.403333333333334E+009;1.658660918474197E-001;2.528830990195274E-002;-1.324968645349145E-003;5.491870921105146E-003;
2.403500000000000E+009;1.667213886976242E-001;2.368990331888199E-002;-1.084379851818085E-003;5.395934917032719E-003;
2.403666666666667E+009;1.677547246217728E-001;2.234847284853458E-002;-1.096797874197364E-003;5.610758438706398E-003;
2.403833333333334E+009;1.687541007995606E-001;2.104610204696655E-002;-6.274009356275201E-004;5.620440933853388E-003;
2.404000000000000E+009;1.695785671472549E-001;1.980716176331043E-002;-4.118903598282486E-004;5.771252792328596E-003;
2.404166666666667E+009;1.706787943840027E-001;1.852733455598354E-002;-1.380304020131007E-004;5.667285062372685E-003;
2.404333333333334E+009;1.714896261692047E-001;1.780337467789650E-002;1.678808912402019E-004;5.629359744489193E-003;
2.404500000000000E+009;1.722629815340042E-001;1.678560115396977E-002;3.575703594833612E-004;5.768824834376574E-003;
2.404666666666667E+009;1.732271611690521E-001;1.589492708444595E-002;6.625559180974960E-004;5.653013009577990E-003;
2.404833333333334E+009;1.741126179695129E-001;1.509868353605270E-002;8.624370093457401E-004;5.805060267448425E-003;
2.405000000000000E+009;1.750473380088806E-001;1.440417859703302E-002;1.153211342170835E-003;5.573565606027842E-003;
2.405166666666667E+009;1.758461296558380E-001;1.359133142977953E-002;1.406560884788632E-003;5.462937522679567E-003;
2.405333333333334E+009;1.765757054090500E-001;1.305697485804558E-002;1.796903787180781E-003;5.559857469052076E-003;
2.405500000000000E+009;1.772528439760208E-001;1.254862360656261E-002;1.876479713246226E-003;5.485545843839645E-003;
2.405666666666667E+009;1.779852360486984E-001;1.225776225328445E-002;2.172716893255711E-003;5.433912388980389E-003;
2.405833333333334E+009;1.784181296825409E-001;1.188279688358307E-002;2.503915689885616E-003;5.332272965461016E-003;
2.406000000000000E+009;1.790477484464645E-001;1.114283688366413E-002;2.482451265677810E-003;5.030840169638395E-003;
2.406166666666667E+009;1.793056428432465E-001;1.106603443622589E-002;2.893805736675859E-003;5.068533122539520E-003;
2.406333333333334E+009;1.798574775457382E-001;1.070360001176596E-002;3.273797454312444E-003;4.829237237572670E-003;
2.406500000000000E+009;1.801234930753708E-001;1.021917909383774E-002;3.237527096644044E-003;4.683798644691706E-003;
2.406666666666667E+009;1.800971925258637E-001;1.001593284308910E-002;3.585351165384054E-003;4.559609573334456E-003;
2.406833333333334E+009;1.803185790777206E-001;9.574182331562042E-003;3.784914501011372E-003;4.155895207077265E-003;
2.407000000000000E+009;1.804627031087875E-001;9.194573387503624E-003;3.989182878285646E-003;4.162573721259832E-003;
2.407166666666667E+009;1.804502159357071E-001;8.935541845858097E-003;4.155576229095459E-003;3.807914210483432E-003;
2.407333333333334E+009;1.803796440362930E-001;8.346380665898323E-003;4.224287811666727E-003;3.764582332223654E-003;
2.407500000000000E+009;1.801127344369888E-001;7.912863045930862E-003;4.521635361015797E-003;3.380518173798919E-003;
2.407666666666667E+009;1.799495220184326E-001;7.559016812592745E-003;4.706403240561485E-003;3.113610669970512E-003;
2.407833333333334E+009;1.794231683015823E-001;6.807331927120686E-003;4.842294380068779E-003;2.945552347227931E-003;
2.408000000000000E+009;1.792092323303223E-001;6.124886684119701E-003;4.717659670859575E-003;2.831438323482871E-003;
2.408166666666667E+009;1.787047684192658E-001;5.617301445454359E-003;4.794095642864704E-003;2.529266057536006E-003;
2.408333333333334E+009;1.783826649188995E-001;4.856176674365997E-003;4.790939390659332E-003;2.292524790391326E-003;
2.408500000000000E+009;1.777908951044083E-001;3.981914836913347E-003;5.037171300500631E-003;2.051670104265213E-003;
2.408666666666667E+009;1.772039085626602E-001;3.117177402600646E-003;5.019962787628174E-003;1.669468823820353E-003;
2.408833333333334E+009;1.765349656343460E-001;2.133565722033382E-003;4.996258765459061E-003;1.663904287852347E-003;
2.409000000000000E+009;1.758633404970169E-001;9.370688931085169E-004;4.975740332156420E-003;1.371770282275975E-003;
2.409166666666667E+009;1.752191483974457E-001;-1.209502879646607E-004;4.916452337056398E-003;1.112094847485423E-003;
2.409333333333334E+009;1.748072654008865E-001;-1.443042885512114E-003;4.862562287598848E-003;8.153553935699165E-004;
2.409500000000000E+009;1.740665137767792E-001;-2.798752859234810E-003;4.927650094032288E-003;6.371047929860652E-004;
2.409666666666667E+009;1.732964962720871E-001;-4.142470192164183E-003;4.951870068907738E-003;4.404406936373562E-004;
2.409833333333334E+009;1.725986897945404E-001;-5.355595611035824E-003;4.988455679267645E-003;8.893055928638205E-005;
2.410000000000000E+009;1.722078025341034E-001;-6.823616102337837E-003;4.877820611000061E-003;2.738654256972950E-005;
2.410166666666667E+009;1.715411096811295E-001;-8.480440825223923E-003;4.843927919864655E-003;-2.214406267739832E-004;
2.410333333333334E+009;1.708863079547882E-001;-1.022925414144993E-002;4.876466933637857E-003;-3.822536673396826E-004;
2.410500000000000E+009;1.704736351966858E-001;-1.184493117034435E-002;4.775815177708864E-003;-5.296725430525839E-004;
2.410666666666667E+009;1.698816567659378E-001;-1.377667114138603E-002;4.644382279366255E-003;-8.862781105563045E-004;
2.410833333333334E+009;1.695699840784073E-001;-1.552184112370014E-002;4.535921849310398E-003;-9.826679015532136E-004;
2.411000000000000E+009;1.692251861095429E-001;-1.720678061246872E-002;4.423020407557488E-003;-1.150338910520077E-003;
2.411166666666667E+009;1.689109057188034E-001;-1.926025748252869E-002;4.395458847284317E-003;-1.259796670638025E-003;
2.411333333333334E+009;1.686511337757111E-001;-2.098268643021584E-002;4.250551573932171E-003;-1.427120529115200E-003;
2.411500000000000E+009;1.683944165706635E-001;-2.314778044819832E-002;4.157540388405323E-003;-1.658567925915122E-003;
2.411666666666667E+009;1.684200316667557E-001;-2.491836249828339E-002;4.017706960439682E-003;-1.793043687939644E-003;
2.411833333333334E+009;1.683637350797653E-001;-2.670202590525150E-002;3.972783219069243E-003;-1.976497005671263E-003;
2.412000000000000E+009;1.685405671596527E-001;-2.895283140242100E-002;3.695534076541662E-003;-2.137176925316453E-003;
2.412166666666667E+009;1.684998869895935E-001;-3.079835511744022E-002;3.480592044070363E-003;-2.303468761965632E-003;
2.412333333333334E+009;1.687420457601547E-001;-3.261774405837059E-002;3.358537796884775E-003;-2.407707041129470E-003;
2.412500000000000E+009;1.689047068357468E-001;-3.453660011291504E-002;3.305794904008508E-003;-2.530959900468588E-003;
2.412666666666667E+009;1.691676974296570E-001;-3.649330884218216E-002;3.306559054180980E-003;-2.613900462165475E-003;
2.412833333333334E+009;1.694917082786560E-001;-3.818299993872643E-002;2.956855343654752E-003;-2.743329387158155E-003;
2.413000000000000E+009;1.699241846799851E-001;-3.992972522974014E-002;2.874939469620585E-003;-2.839488442987204E-003;
2.413166666666667E+009;1.702219098806381E-001;-4.180010780692101E-002;2.612492069602013E-003;-2.917675534263253E-003;
2.413333333333334E+009;1.706186383962631E-001;-4.352862760424614E-002;2.328328788280487E-003;-3.133773570880294E-003;
2.413500000000000E+009;1.710930615663528E-001;-4.508636519312859E-002;2.272115554660559E-003;-3.157940926030278E-003;
2.413666666666667E+009;1.717566996812820E-001;-4.646224156022072E-002;1.977421808987856E-003;-3.157577477395535E-003;
2.413833333333334E+009;1.721546500921249E-001;-4.790554568171501E-002;1.896010828204453E-003;-3.194849472492933E-003;
2.414000000000000E+009;1.726598590612412E-001;-4.923317581415176E-002;1.713756588287652E-003;-3.201669314876199E-003;
2.414166666666667E+009;1.732581406831741E-001;-5.059726163744927E-002;1.494819414801896E-003;-3.096537897363305E-003;
2.414333333333334E+009;1.735250651836395E-001;-5.183998495340347E-002;1.265703001990914E-003;-3.171994583681226E-003;
2.414500000000000E+009;1.742444187402725E-001;-5.290193483233452E-002;1.334491651505232E-003;-3.220338141545653E-003;
2.414666666666667E+009;1.747785210609436E-001;-5.383677035570145E-002;1.067477860487998E-003;-3.136495826765895E-003;
2.414833333333334E+009;1.751136332750320E-001;-5.493557825684547E-002;7.767161587253213E-004;-3.324065823107958E-003;
2.415000000000000E+009;1.755435913801193E-001;-5.573324859142304E-002;7.346940692514181E-004;-3.138748696073890E-003;
2.415166666666667E+009;1.759943813085556E-001;-5.647841468453407E-002;5.473061464726925E-004;-3.223313484340906E-003;
2.415333333333334E+009;1.762929111719132E-001;-5.728666856884956E-002;3.748942399397492E-004;-2.957159886136651E-003;
2.415500000000000E+009;1.766202151775360E-001;-5.779904872179031E-002;2.268152165925130E-004;-2.930767834186554E-003;
2.415666666666667E+009;1.768526881933212E-001;-5.818843469023705E-002;7.458726031472907E-005;-2.940310165286064E-003;
2.415833333333334E+009;1.770888417959213E-001;-5.882618576288223E-002;-1.129550673795166E-005;-2.750216284766793E-003;
2.416000000000000E+009;1.770804077386856E-001;-5.929602310061455E-002;-1.010108535410836E-004;-2.852978883311153E-003;
2.416166666666667E+009;1.772390156984329E-001;-5.959571152925491E-002;-3.415309474803507E-004;-2.690911525860429E-003;
2.416333333333334E+009;1.771494746208191E-001;-5.986503139138222E-002;-3.521602775435895E-004;-2.515390049666166E-003;
2.416500000000000E+009;1.771106123924255E-001;-6.020850315690041E-002;-4.964270046912134E-004;-2.574000740423799E-003;
2.416666666666667E+009;1.767640560865402E-001;-6.044958531856537E-002;-5.217454745434225E-004;-2.394746756181121E-003;
2.416833333333334E+009;1.766622662544251E-001;-6.085109338164330E-002;-6.347519811242819E-004;-2.332638716325164E-003;
2.417000000000000E+009;1.761349737644196E-001;-6.117089092731476E-002;-8.188901119865477E-004;-2.260270295664668E-003;
2.417166666666667E+009;1.755667924880981E-001;-6.115160882472992E-002;-7.951554143801332E-004;-2.253329847007990E-003;
2.417333333333334E+009;1.751061230897903E-001;-6.140181422233582E-002;-8.861335809342563E-004;-2.113854046911001E-003;
2.417500000000000E+009;1.743996590375900E-001;-6.181307137012482E-002;-9.051822125911713E-004;-1.898927381262183E-003;
2.417666666666667E+009;1.738675832748413E-001;-6.198544055223465E-002;-9.564599604345858E-004;-1.797903911210597E-003;
2.417833333333334E+009;1.730199903249741E-001;-6.226105988025665E-002;-9.751731995493174E-004;-1.822078367695212E-003;
2.418000000000000E+009;1.721749752759934E-001;-6.283165514469147E-002;-1.004799269139767E-003;-1.724460511468351E-003;
2.418166666666667E+009;1.711497902870178E-001;-6.287480890750885E-002;-1.076061162166297E-003;-1.715970458462834E-003;
2.418333333333334E+009;1.705260127782822E-001;-6.338151544332504E-002;-1.076589454896748E-003;-1.601185183972120E-003;
2.418500000000000E+009;1.692520231008530E-001;-6.380740553140640E-002;-1.093023805879057E-003;-1.409697229973972E-003;
2.418666666666667E+009;1.682620793581009E-001;-6.435544043779373E-002;-1.116929459385574E-003;-1.311577507294715E-003;
2.418833333333334E+009;1.670459806919098E-001;-6.494656950235367E-002;-1.264088554307818E-003;-1.340581336989999E-003;
2.419000000000000E+009;1.658472418785095E-001;-6.548296660184860E-002;-1.079734181985259E-003;-1.186628360301256E-003;
2.419166666666667E+009;1.648366302251816E-001;-6.626243144273758E-002;-1.011777203530073E-003;-1.182665699161589E-003;
2.419333333333334E+009;1.634182035923004E-001;-6.683151423931122E-002;-1.241132151335478E-003;-1.154353027231991E-003;
2.419500000000000E+009;1.623663306236267E-001;-6.789139658212662E-002;-1.280436525121331E-003;-9.447704651392996E-004;
2.419666666666667E+009;1.611693501472473E-001;-6.879991292953491E-002;-1.090226462110877E-003;-8.640890591777861E-004;
2.419833333333334E+009;1.599760651588440E-001;-6.955336779356003E-002;-1.173204160295427E-003;-7.948342827148736E-004;
2.420000000000000E+009;1.589939594268799E-001;-7.075089961290360E-002;-1.166587113402784E-003;-8.363307570107281E-004;
2.420166666666667E+009;1.579575836658478E-001;-7.173322886228561E-002;-1.102378242649138E-003;-6.993529968895018E-004;
2.420333333333334E+009;1.568877398967743E-001;-7.304739207029343E-002;-1.201478880830109E-003;-6.890119984745979E-004;
2.420500000000000E+009;1.559579521417618E-001;-7.420380413532257E-002;-1.156726386398077E-003;-6.709906738251448E-004;
2.420666666666667E+009;1.549796313047409E-001;-7.547049969434738E-002;-9.544389322400093E-004;-5.304243532009423E-004;
2.420833333333334E+009;1.540494114160538E-001;-7.692708820104599E-002;-1.076102606020868E-003;-5.567031330429018E-004;
2.421000000000000E+009;1.531158834695816E-001;-7.845263183116913E-002;-1.032795058563352E-003;-3.791691560763866E-004;
2.421166666666667E+009;1.525482833385468E-001;-7.994469255208969E-002;-1.016474096104503E-003;-4.077450721524656E-004;
2.421333333333334E+009;1.519590467214584E-001;-8.140877634286881E-002;-8.333760197274387E-004;-3.956145374104381E-004;
2.421500000000000E+009;1.512832045555115E-001;-8.287978917360306E-002;-9.496161364950240E-004;-2.891990588977933E-004;
2.421666666666667E+009;1.507675796747208E-001;-8.443963527679443E-002;-1.065634307451546E-003;-2.954743395093828E-004;
2.421833333333334E+009;1.504894047975540E-001;-8.633009344339371E-002;-8.530598133802414E-004;-1.200278711621650E-004;
2.422000000000000E+009;1.501614898443222E-001;-8.799684047698975E-002;-8.580592111684382E-004;-2.187620120821521E-004;
2.422166666666667E+009;1.498410552740097E-001;-8.974692225456238E-002;-7.021792116574943E-004;-1.065084943547845E-004;
2.422333333333334E+009;1.495911031961441E-001;-9.132505953311920E-002;-7.590697496198118E-004;-1.373724371660501E-004;
2.422500000000000E+009;1.495562642812729E-001;-9.293954074382782E-002;-7.169236778281629E-004;-4.758676004712470E-005;
2.422666666666667E+009;1.495194882154465E-001;-9.470519423484802E-002;-6.019950378686190E-004;6.921192107256502E-005;
2.422833333333334E+009;1.496497988700867E-001;-9.629609435796738E-002;-6.397265824489296E-004;2.772380685200915E-005;
2.423000000000000E+009;1.496949046850205E-001;-9.789855033159256E-002;-6.465222686529160E-004;-5.914182474953122E-005;
2.423166666666667E+009;1.498708426952362E-001;-9.948533773422241E-002;-6.585319642908871E-004;1.229929766850546E-004;
2.423333333333334E+009;1.502132564783096E-001;-1.009680852293968E-001;-4.821126640308648E-004;1.107643256545998E-004;
2.423500000000000E+009;1.505496650934219E-001;-1.026502326130867E-001;-4.638046084437519E-004;1.475537574151531E-004;
2.423666666666667E+009;1.508424580097199E-001;-1.042000800371170E-001;-5.437258514575660E-004;2.703329118958209E-005;
2.423833333333334E+009;1.513940244913101E-001;-1.055496186017990E-001;-5.935291410423815E-004;1.530906156403944E-004;
2.424000000000000E+009;1.516281366348267E-001;-1.068560853600502E-001;-3.533986746333540E-004;1.477899604651611E-005;
2.424166666666667E+009;1.519441008567810E-001;-1.080568507313728E-001;-4.668896726798266E-004;1.663482253206894E-004;
2.424333333333334E+009;1.526267528533936E-001;-1.092604398727417E-001;-3.002837474923581E-004;6.304153066594154E-005;
2.424500000000000E+009;1.530949324369431E-001;-1.104197800159454E-001;-4.052421718370169E-004;3.397258697077632E-004;
2.424666666666667E+009;1.535402536392212E-001;-1.113903224468231E-001;-3.044277254957706E-004;1.083105235011317E-004;
2.424833333333334E+009;1.538396477699280E-001;-1.124435216188431E-001;-3.757449449039996E-004;1.031681531458162E-004;
2.425000000000000E+009;1.544248014688492E-001;-1.134116053581238E-001;-1.654081570450217E-004;2.710403059609234E-004;
2.425166666666667E+009;1.546749621629715E-001;-1.141839250922203E-001;-1.034719898598269E-004;2.212359977420420E-004;
2.425333333333334E+009;1.551249325275421E-001;-1.148050278425217E-001;-1.277665724046528E-004;2.442156837787479E-004;
2.425500000000000E+009;1.555996537208557E-001;-1.156832575798035E-001;3.226320404792205E-005;3.145790251437575E-004;
2.425666666666667E+009;1.556325107812882E-001;-1.161511987447739E-001;-5.824813342769630E-005;3.046434139832854E-004;
2.425833333333334E+009;1.558448672294617E-001;-1.167000457644463E-001;4.017616447526962E-005;1.895708264783025E-004;
2.426000000000000E+009;1.559730619192123E-001;-1.173441186547279E-001;5.323875666363165E-005;1.258259726455435E-004;
2.426166666666667E+009;1.562555432319641E-001;-1.177119538187981E-001;4.316858394304290E-005;2.203272597398609E-004;
2.426333333333334E+009;1.562162339687347E-001;-1.180035918951035E-001;1.293193054152653E-004;2.305217058164999E-004;
2.426500000000000E+009;1.562508791685104E-001;-1.181342899799347E-001;1.700442371657118E-004;1.348465884802863E-004;
2.426666666666667E+009;1.562096774578095E-001;-1.184285059571266E-001;3.375598171260208E-004;4.571521276375279E-005;
2.426833333333334E+009;1.558345407247543E-001;-1.185939833521843E-001;2.671664697118104E-004;8.770065323915333E-005;
2.427000000000000E+009;1.555923968553543E-001;-1.188800856471062E-001;4.792375257238746E-004;5.536231037694961E-005;
2.427166666666667E+009;1.551219075918198E-001;-1.188630834221840E-001;3.367635072208941E-004;-4.609798270394094E-005;
2.427333333333334E+009;1.545448005199432E-001;-1.189559325575829E-001;2.184680488426238E-004;-9.605695231584832E-005;
2.427500000000000E+009;1.540713906288147E-001;-1.192049831151962E-001;3.996203886345029E-004;-9.095079440157861E-005;
2.427666666666667E+009;1.534169316291809E-001;-1.193722561001778E-001;5.248700035735965E-004;-1.843644859036431E-004;
