# Version 1.00
#
freq[Hz];re:Trc1_S11;im:Trc1_S11;re:Trc2_S21;im:Trc2_S21;
2.400000000000000E+009;1.580235660076141E-001;6.211350858211517E-002;-4.200676921755076E-003;3.094003535807133E-003;
2.400166666666667E+009;1.580289900302887E-001;6.039958074688911E-002;-4.146026447415352E-003;3.077991306781769E-003;
2.400333333333334E+009;1.578755080699921E-001;5.836831405758858E-002;-3.962437156587839E-003;3.257736098021269E-003;
2.400500000000000E+009;1.578603982925415E-001;5.658077821135521E-002;-3.852457040920854E-003;3.480403684079647E-003;
2.400666666666667E+009;1.578978896141052E-001;5.467094480991364E-002;-3.675402840599418E-003;3.460126696154475E-003;
2.400833333333334E+009;1.581376343965530E-001;5.278153344988823E-002;-3.597103292122483E-003;3.538258373737335E-003;
2.401000000000000E+009;1.581888943910599E-001;5.068045482039452E-002;-3.647560952231288E-003;3.732451470568776E-003;
2.401166666666667E+009;1.584783047437668E-001;4.862426966428757E-002;-3.472377778962255E-003;3.713720943778753E-003;
2.401333333333334E+009;1.585938483476639E-001;4.662904888391495E-002;-3.472192911431193E-003;4.047618713229895E-003;
2.401500000000000E+009;1.590243130922318E-001;4.472171142697334E-002;-3.205655608326197E-003;3.921411931514740E-003;
2.401666666666667E+009;1.591930687427521E-001;4.264390468597412E-002;-3.217810066416860E-003;4.254980012774468E-003;
2.401833333333334E+009;1.596615761518478E-001;4.059450328350067E-002;-2.855152590200305E-003;4.315825644880533E-003;
2.402000000000000E+009;1.599668413400650E-001;3.865509480237961E-002;-2.715270267799497E-003;4.539049696177244E-003;
2.402166666666667E+009;1.605227291584015E-001;3.668648004531860E-002;-2.729871077463031E-003;4.719789605587721E-003;
2.402333333333334E+009;1.610354930162430E-001;3.483137115836144E-002;-2.595777623355389E-003;4.850859288126230E-003;
2.402500000000000E+009;1.618155390024185E-001;3.298209980130196E-002;-2.341600134968758E-003;4.815649241209030E-003;
2.402666666666667E+009;1.626381129026413E-001;3.129549697041512E-002;-2.115864073857665E-003;5.022035911679268E-003;
2.402833333333334E+009;1.632841080427170E-001;2.983672171831131E-002;-2.015384845435619E-003;5.065844394266605E-003;
2.403000000000000E+009;1.638814508914948E-001;2.796744927763939E-002;-1.851126202382147E-003;5.080417729914188E-003;
2.403166666666667E+009;1.649111956357956E-001;2.653921023011208E-002;-1.674573635682464E-003;5.310611799359322E-003;
2.403333333333334E+009;1.658944934606552E-001;2.501111477613449E-002;-1.373999286442995E-003;5.304338410496712E-003;
2.403500000000000E+009;1.666582822799683E-001;2.372903376817703E-002;-1.182748354040086E-003;5.587944760918617E-003;
2.403666666666667E+009;1.676457524299622E-001;2.229061722755432E-002;-8.195831323973835E-004;5.513047799468041E-003;
2.403833333333334E+009;1.687114983797073E-001;2.101273089647293E-002;-6.273715989664197E-004;5.441147368401289E-003;
2.404000000000000E+009;1.695480346679688E-001;1.985414139926434E-002;-5.031949258409441E-004;5.533983930945396E-003;
2.404166666666667E+009;1.705211102962494E-001;1.866594888269901E-002;-1.521442609373480E-004;5.527802743017674E-003;
2.404333333333334E+009;1.713830679655075E-001;1.776481419801712E-002;3.728856609086506E-005;5.639097653329372E-003;
2.404500000000000E+009;1.723107099533081E-001;1.678889989852905E-002;3.170898417010903E-004;5.772866308689117E-003;
2.404666666666667E+009;1.732732802629471E-001;1.588175445795059E-002;5.604611942544580E-004;5.735702812671661E-003;
2.404833333333334E+009;1.741805970668793E-001;1.518088299781084E-002;6.097644218243659E-004;5.491684190928936E-003;
2.405000000000000E+009;1.749760061502457E-001;1.445779018104076E-002;1.141908927820623E-003;5.486804060637951E-003;
2.405166666666667E+009;1.758479475975037E-001;1.373969856649637E-002;1.425430178642273E-003;5.525467917323113E-003;
2.405333333333334E+009;1.766753047704697E-001;1.302763633430004E-002;1.530193723738194E-003;5.381157156080008E-003;
2.405500000000000E+009;1.772569566965103E-001;1.255727000534535E-002;1.721896813251078E-003;5.317206960171461E-003;
2.405666666666667E+009;1.778617799282074E-001;1.208528038114309E-002;1.923495670780540E-003;5.374998319894075E-003;
2.405833333333334E+009;1.783472597599030E-001;1.191161200404167E-002;2.192873740568757E-003;5.263449624180794E-003;
2.406000000000000E+009;1.789203137159348E-001;1.131762657314539E-002;2.330688294023275E-003;5.109236110001802E-003;
2.406166666666667E+009;1.792148798704147E-001;1.090716570615768E-002;2.544118789955974E-003;5.007879808545113E-003;
2.406333333333334E+009;1.797424405813217E-001;1.061925664544106E-002;3.225163556635380E-003;4.944354761391878E-003;
2.406500000000000E+009;1.800449341535568E-001;1.021035946905613E-002;3.323635319247842E-003;4.784689284861088E-003;
2.406666666666667E+009;1.800310462713242E-001;9.906738065183163E-003;3.467666683718562E-003;4.419529344886541E-003;
2.406833333333334E+009;1.802968382835388E-001;9.504797868430615E-003;3.647233825176954E-003;4.428898449987173E-003;
2.407000000000000E+009;1.804248094558716E-001;9.195750579237938E-003;3.890182822942734E-003;4.129710141569376E-003;
2.407166666666667E+009;1.804877668619156E-001;8.900839835405350E-003;4.124544560909271E-003;3.900069976225495E-003;
2.407333333333334E+009;1.803278625011444E-001;8.368906565010548E-003;4.119253251701593E-003;3.621016396209598E-003;
2.407500000000000E+009;1.800960451364517E-001;7.963359355926514E-003;4.376308061182499E-003;3.576597664505243E-003;
2.407666666666667E+009;1.800045818090439E-001;7.423312868922949E-003;4.398948047310114E-003;3.379711415618658E-003;
2.407833333333334E+009;1.794997304677963E-001;6.673203781247139E-003;4.643958061933518E-003;3.083633957430720E-003;
2.408000000000000E+009;1.791679263114929E-001;6.062549538910389E-003;4.714240320026875E-003;2.882416592910886E-003;
2.408166666666667E+009;1.786870956420898E-001;5.495415534824133E-003;4.813295789062977E-003;2.559167798608542E-003;
2.408333333333334E+009;1.784726381301880E-001;4.837307613343000E-003;4.821700975298882E-003;2.320534549653530E-003;
2.408500000000000E+009;1.778408885002136E-001;3.859708784148097E-003;4.971599206328392E-003;2.088469918817282E-003;
2.408666666666667E+009;1.772439181804657E-001;3.020628588274121E-003;4.953883122652769E-003;1.835240167565644E-003;
2.408833333333334E+009;1.764746010303497E-001;1.936715911142528E-003;4.858150146901608E-003;1.667674980126321E-003;
2.409000000000000E+009;1.757714897394180E-001;9.586599189788103E-004;5.081816110759974E-003;1.257461146451533E-003;
2.409166666666667E+009;1.752470433712006E-001;-2.368368004681543E-004;4.946026485413313E-003;1.198644749820232E-003;
2.409333333333334E+009;1.747639626264572E-001;-1.529688131995499E-003;4.941184539347887E-003;9.438746492378414E-004;
2.409500000000000E+009;1.739836186170578E-001;-2.854975406080484E-003;4.994309972971678E-003;8.046493167057633E-004;
2.409666666666667E+009;1.732334494590759E-001;-4.246170632541180E-003;4.935521166771650E-003;5.016208742745221E-004;
2.409833333333334E+009;1.727063655853272E-001;-5.574028939008713E-003;4.856328945606947E-003;1.736635604174808E-004;
2.410000000000000E+009;1.719744801521301E-001;-7.056763861328363E-003;4.898400511592627E-003;1.092461097869091E-004;
2.410166666666667E+009;1.714747697114945E-001;-8.633871562778950E-003;5.059733055531979E-003;-6.057415157556534E-005;
2.410333333333334E+009;1.707218885421753E-001;-1.025694049894810E-002;4.685754422098398E-003;-3.686042909976095E-004;
2.410500000000000E+009;1.703914403915405E-001;-1.192344538867474E-002;4.640146624296904E-003;-5.275466246530414E-004;
2.410666666666667E+009;1.698237806558609E-001;-1.389187667518854E-002;4.670165013521910E-003;-9.387311874888837E-004;
2.410833333333334E+009;1.693741530179977E-001;-1.544157136231661E-002;4.555456340312958E-003;-9.256266639567912E-004;
2.411000000000000E+009;1.690588593482971E-001;-1.733750849962235E-002;4.438255447894335E-003;-1.115813502110541E-003;
2.411166666666667E+009;1.687959879636765E-001;-1.925359293818474E-002;4.332954529672861E-003;-1.308712409809232E-003;
2.411333333333334E+009;1.684358716011047E-001;-2.110145241022110E-002;4.161748103797436E-003;-1.453092088922858E-003;
2.411500000000000E+009;1.684018075466156E-001;-2.315407432615757E-002;4.188925959169865E-003;-1.648410689085722E-003;
2.411666666666667E+009;1.682341396808624E-001;-2.507513947784901E-002;3.879163181409240E-003;-1.795025425963104E-003;
2.411833333333334E+009;1.682937592267990E-001;-2.681632712483406E-002;3.777351696044207E-003;-1.919963629916310E-003;
2.412000000000000E+009;1.683910489082336E-001;-2.892998792231083E-002;3.665371332317591E-003;-2.169155282899737E-003;
2.412166666666667E+009;1.681969165802002E-001;-3.074003756046295E-002;3.525345120579004E-003;-2.187071368098259E-003;
2.412333333333334E+009;1.687847822904587E-001;-3.260653838515282E-002;3.446462098509073E-003;-2.381002530455589E-003;
2.412500000000000E+009;1.688188314437866E-001;-3.442603349685669E-002;3.182157408446074E-003;-2.483826130628586E-003;
2.412666666666667E+009;1.693851649761200E-001;-3.632587566971779E-002;3.026608144864440E-003;-2.634036354720593E-003;
2.412833333333334E+009;1.695130467414856E-001;-3.840715438127518E-002;2.957463497295976E-003;-2.783258911222220E-003;
2.413000000000000E+009;1.698013097047806E-001;-3.982487693428993E-002;2.924121450632811E-003;-2.810248406603932E-003;
2.413166666666667E+009;1.703345775604248E-001;-4.154659062623978E-002;2.775579923763871E-003;-2.849658252671361E-003;
2.413333333333334E+009;1.706978827714920E-001;-4.328412935137749E-002;2.465647412464023E-003;-2.998998388648033E-003;
2.413500000000000E+009;1.711945235729218E-001;-4.483909532427788E-002;2.282430650666356E-003;-3.037549555301666E-003;
2.413666666666667E+009;1.717289537191391E-001;-4.636298865079880E-002;2.027590991929174E-003;-3.097716253250837E-003;
2.413833333333334E+009;1.720931828022003E-001;-4.796089231967926E-002;1.824326463975012E-003;-3.104198724031448E-003;
2.414000000000000E+009;1.726522147655487E-001;-4.924378544092178E-002;1.791585702449083E-003;-3.125161398202181E-003;
2.414166666666667E+009;1.733530312776566E-001;-5.041239783167839E-002;1.523523009382188E-003;-3.208655398339033E-003;
2.414333333333334E+009;1.736969947814941E-001;-5.183769762516022E-002;1.449284376576543E-003;-3.360688686370850E-003;
2.414500000000000E+009;1.743077337741852E-001;-5.281724780797958E-002;1.138190855272114E-003;-3.197187790647149E-003;
2.414666666666667E+009;1.747796088457108E-001;-5.379089713096619E-002;1.006054924800992E-003;-3.070119069889188E-003;
2.414833333333334E+009;1.751812845468521E-001;-5.473839491605759E-002;8.236981811933219E-004;-3.105903277173638E-003;
2.415000000000000E+009;1.756156235933304E-001;-5.566867068409920E-002;7.665426819585264E-004;-3.184611676260829E-003;
2.415166666666667E+009;1.759843081235886E-001;-5.643001943826675E-002;5.291298148222268E-004;-3.051192266866565E-003;
2.415333333333334E+009;1.763851642608643E-001;-5.727134644985199E-002;2.737630275078118E-004;-3.077110741287470E-003;
2.415500000000000E+009;1.766812354326248E-001;-5.775601416826248E-002;2.237674198113382E-004;-3.064743010327220E-003;
2.415666666666667E+009;1.769613623619080E-001;-5.829861760139465E-002;6.750261945853708E-006;-2.930276794359088E-003;
2.415833333333334E+009;1.770761460065842E-001;-5.878847464919090E-002;-1.228288747370243E-004;-2.705936087295413E-003;
2.416000000000000E+009;1.769980341196060E-001;-5.925079807639122E-002;-1.657113316468895E-004;-2.681600162759423E-003;
2.416166666666667E+009;1.772288978099823E-001;-5.964432656764984E-002;-2.559533750172705E-004;-2.737680217251182E-003;
2.416333333333334E+009;1.772010326385498E-001;-5.993144586682320E-002;-4.730407090391964E-004;-2.581560052931309E-003;
2.416500000000000E+009;1.770547330379486E-001;-6.032001599669457E-002;-4.878994659520686E-004;-2.451225882396102E-003;
2.416666666666667E+009;1.768442988395691E-001;-6.062475219368935E-002;-6.053678807802498E-004;-2.390040084719658E-003;
2.416833333333334E+009;1.766074299812317E-001;-6.090692058205605E-002;-5.201980238780379E-004;-2.212767954915762E-003;
2.417000000000000E+009;1.760676354169846E-001;-6.116457656025887E-002;-8.071329211816192E-004;-2.228728495538235E-003;
2.417166666666667E+009;1.756619215011597E-001;-6.136794760823250E-002;-5.877993535250425E-004;-2.199817681685090E-003;
2.417333333333334E+009;1.751956492662430E-001;-6.155780702829361E-002;-8.825250552035868E-004;-1.962900627404451E-003;
2.417500000000000E+009;1.745045185089111E-001;-6.202814728021622E-002;-8.846676792018116E-004;-1.921963412314653E-003;
2.417666666666667E+009;1.738699227571487E-001;-6.198250874876976E-002;-8.824322721920908E-004;-1.845572609454393E-003;
2.417833333333334E+009;1.730482578277588E-001;-6.228619441390038E-002;-9.349031606689096E-004;-1.871350104920566E-003;
2.418000000000000E+009;1.722313910722733E-001;-6.275956332683563E-002;-8.825565455481410E-004;-1.599207869730890E-003;
2.418166666666667E+009;1.711787879467011E-001;-6.299215555191040E-002;-9.161271154880524E-004;-1.602528616786003E-003;
2.418333333333334E+009;1.704649478197098E-001;-6.350425630807877E-002;-1.102533191442490E-003;-1.619922462850809E-003;
2.418500000000000E+009;1.692771911621094E-001;-6.386671215295792E-002;-1.093517872504890E-003;-1.407004077918828E-003;
2.418666666666667E+009;1.683162897825241E-001;-6.445114314556122E-002;-9.885720210149884E-004;-1.407375908456743E-003;
2.418833333333334E+009;1.669925749301910E-001;-6.507653743028641E-002;-1.071872306056321E-003;-1.263772719539702E-003;
2.419000000000000E+009;1.658262759447098E-001;-6.564857065677643E-002;-1.062085852026939E-003;-1.270318287424743E-003;
2.419166666666667E+009;1.648071259260178E-001;-6.639443337917328E-002;-1.000060583464801E-003;-1.172233955003321E-003;
2.419333333333334E+009;1.634457111358643E-001;-6.692443042993546E-002;-1.218020566739142E-003;-1.056080101989210E-003;
2.419500000000000E+009;1.622733622789383E-001;-6.795343756675720E-002;-1.112724188715220E-003;-1.061450806446374E-003;
2.419666666666667E+009;1.612351685762405E-001;-6.886188685894013E-002;-1.156564452685416E-003;-8.580480935052037E-004;
2.419833333333334E+009;1.599495261907578E-001;-6.963208317756653E-002;-9.757300140336156E-004;-9.715335327200592E-004;
2.420000000000000E+009;1.590256094932556E-001;-7.079210877418518E-002;-9.731216705404222E-004;-9.485080954618752E-004;
2.420166666666667E+009;1.578149646520615E-001;-7.178516685962677E-002;-1.032898668199778E-003;-7.293536909855902E-004;
2.420333333333334E+009;1.569344401359558E-001;-7.314760982990265E-002;-9.172427235171199E-004;-6.236191256903112E-004;
2.420500000000000E+009;1.558794826269150E-001;-7.419230043888092E-002;-9.675109176896513E-004;-6.593464640900493E-004;
2.420666666666667E+009;1.548859626054764E-001;-7.553076744079590E-002;-9.685513796284795E-004;-6.611258722841740E-004;
2.420833333333334E+009;1.541597992181778E-001;-7.693454623222351E-002;-1.056107459589839E-003;-5.842482205480337E-004;
2.421000000000000E+009;1.532235890626907E-001;-7.832215726375580E-002;-9.708061697892845E-004;-5.076727829873562E-004;
2.421166666666667E+009;1.526841819286346E-001;-8.000244945287705E-002;-9.624362573958933E-004;-4.126515996176750E-004;
2.421333333333334E+009;1.519586592912674E-001;-8.134494721889496E-002;-8.110488997772336E-004;-4.023049841634929E-004;
2.421500000000000E+009;1.513157933950424E-001;-8.299165219068527E-002;-8.152322261594236E-004;-2.602699678391218E-004;
2.421666666666667E+009;1.508481651544571E-001;-8.449957519769669E-002;-8.157309493981302E-004;-1.939121139002964E-004;
2.421833333333334E+009;1.505377292633057E-001;-8.627319335937500E-002;-8.428838918916881E-004;-2.119849232258275E-004;
2.422000000000000E+009;1.500918567180634E-001;-8.782432973384857E-002;-7.938582566566765E-004;-1.876614696811885E-004;
2.422166666666667E+009;1.497832536697388E-001;-8.958122879266739E-002;-7.302289013750851E-004;4.984797215001890E-006;
2.422333333333334E+009;1.496561914682388E-001;-9.121608734130859E-002;-6.363358115777373E-004;-1.587641891092062E-004;
2.422500000000000E+009;1.494844555854797E-001;-9.288650006055832E-002;-6.574042490683496E-004;-1.437787577742711E-004;
2.422666666666667E+009;1.494513452053070E-001;-9.454725682735443E-002;-6.786858430132270E-004;-2.785143151413649E-004;
2.422833333333334E+009;1.496038436889648E-001;-9.619715064764023E-002;-6.792843923904002E-004;-1.318196736974642E-004;
2.423000000000000E+009;1.497557163238525E-001;-9.781348705291748E-002;-7.037904579192400E-004;-1.808226625144016E-005;
2.423166666666667E+009;1.501633971929550E-001;-9.958020597696304E-002;-4.920131177641451E-004;-5.612884342554025E-005;
2.423333333333334E+009;1.504002362489700E-001;-1.008655428886414E-001;-6.336230435408652E-004;3.852036752505228E-005;
2.423500000000000E+009;1.507978439331055E-001;-1.024953797459602E-001;-6.209511193446815E-004;6.410670903278515E-005;
2.423666666666667E+009;1.509647518396378E-001;-1.042845249176025E-001;-5.839513032697141E-004;1.068506171577610E-004;
2.423833333333334E+009;1.515300720930100E-001;-1.056155413389206E-001;-4.407398519106209E-004;1.014645968098193E-004;
2.424000000000000E+009;1.516710370779038E-001;-1.068931519985199E-001;-4.869260010309517E-004;1.587240512890276E-005;
2.424166666666667E+009;1.520361304283142E-001;-1.081631183624268E-001;-4.602237313520163E-004;5.382591552915983E-005;
2.424333333333334E+009;1.525841057300568E-001;-1.092971786856651E-001;-4.023549263365567E-004;1.856700982898474E-004;
2.424500000000000E+009;1.530858427286148E-001;-1.104334443807602E-001;-3.290852182544768E-004;1.510404545115307E-004;
2.424666666666667E+009;1.536009013652802E-001;-1.113945394754410E-001;-4.701155412476510E-004;2.885549911297858E-004;
2.424833333333334E+009;1.540594398975372E-001;-1.125777810811997E-001;-4.217053647153080E-004;1.886856043711305E-004;
2.425000000000000E+009;1.543891578912735E-001;-1.134255602955818E-001;-2.106733736582100E-004;2.204393822466955E-004;
2.425166666666667E+009;1.546036154031754E-001;-1.142714843153954E-001;-1.545239501865581E-004;1.517266500741243E-004;
2.425333333333334E+009;1.550599485635757E-001;-1.150802820920944E-001;-4.950503353029490E-005;1.717883569654077E-004;
2.425500000000000E+009;1.554212123155594E-001;-1.157422438263893E-001;-2.345229440834373E-004;1.913110754685476E-004;
2.425666666666667E+009;1.555894613265991E-001;-1.163015365600586E-001;-8.522196731064469E-005;1.750582596287131E-004;
2.425833333333334E+009;1.558074057102203E-001;-1.168972402811050E-001;-1.485862012486905E-004;7.382022158708423E-005;
2.426000000000000E+009;1.560789644718170E-001;-1.174092516303062E-001;-7.228403410408646E-005;1.652118371566758E-004;
2.426166666666667E+009;1.563413739204407E-001;-1.176871359348297E-001;1.212811839650385E-004;1.748313225107268E-004;
2.426333333333334E+009;1.562685966491699E-001;-1.180027276277542E-001;1.021924035740085E-004;9.532739932183176E-005;
2.426500000000000E+009;1.561612784862518E-001;-1.183415651321411E-001;2.749876002781093E-004;1.523403043393046E-004;
2.426666666666667E+009;1.561502218246460E-001;-1.183442622423172E-001;2.569814387243241E-004;7.254948286572471E-005;
2.426833333333334E+009;1.559860557317734E-001;-1.186082586646080E-001;2.695393341127783E-004;1.031758656608872E-004;
2.427000000000000E+009;1.555377393960953E-001;-1.188534274697304E-001;2.944889711216092E-004;-1.307732018176466E-004;
2.427166666666667E+009;1.551189869642258E-001;-1.189375147223473E-001;2.889986790250987E-004;-2.103190672642086E-005;
2.427333333333334E+009;1.545625030994415E-001;-1.191261932253838E-001;3.719227970577776E-004;-4.439741678652354E-005;
2.427500000000000E+009;1.541563272476196E-001;-1.192488297820091E-001;5.109209450893104E-004;-1.838675525505096E-004;
2.427666666666667E+009;1.533476859331131E-001;-1.192645579576492E-001;3.601730277296156E-004;-1.612617234059144E-005;
