# Version 1.00
#
freq[Hz];re:Trc1_S11;im:Trc1_S11;re:Trc2_S21;im:Trc2_S21;
2.400000000000000E+009;1.553273350000382E-001;1.070598959922791E-001;-2.337639685720205E-003;3.451961092650890E-003;
2.400166666666667E+009;1.550862342119217E-001;1.046604216098785E-001;-2.508347854018211E-003;3.792489878833294E-003;
2.400333333333334E+009;1.551907211542130E-001;1.022198796272278E-001;-2.421475015580654E-003;4.114014096558094E-003;
2.400500000000000E+009;1.552400290966034E-001;9.957394003868103E-002;-2.405902836471796E-003;4.351010080426931E-003;
2.400666666666667E+009;1.553416997194290E-001;9.702414274215698E-002;-2.427532337605953E-003;4.838271532207727E-003;
2.400833333333334E+009;1.550922989845276E-001;9.408837556838989E-002;-2.255842555314302E-003;4.908853676170111E-003;
2.401000000000000E+009;1.556080281734467E-001;9.122110903263092E-002;-2.066728891804814E-003;5.419702269136906E-003;
2.401166666666667E+009;1.556754708290100E-001;8.856533467769623E-002;-1.773115480318666E-003;5.750079639256001E-003;
2.401333333333334E+009;1.560518443584442E-001;8.561588078737259E-002;-1.431930810213089E-003;6.040113046765328E-003;
2.401500000000000E+009;1.563356965780258E-001;8.264997601509094E-002;-1.020520692691207E-003;6.331631448119879E-003;
2.401666666666667E+009;1.566855162382126E-001;7.994821667671204E-002;-4.865618830081075E-004;6.526005454361439E-003;
2.401833333333334E+009;1.571487635374069E-001;7.701773941516876E-002;7.914314483059570E-005;6.626788992434740E-003;
2.402000000000000E+009;1.579309105873108E-001;7.418990880250931E-002;5.744870286434889E-004;6.493174936622381E-003;
2.402166666666667E+009;1.588388830423355E-001;7.155414670705795E-002;9.760599932633340E-004;6.512691266834736E-003;
2.402333333333334E+009;1.596871614456177E-001;6.883571296930313E-002;1.526145380921662E-003;6.577267311513424E-003;
2.402500000000000E+009;1.608194708824158E-001;6.633873283863068E-002;2.049361122772098E-003;6.426578853279352E-003;
2.402666666666667E+009;1.620123386383057E-001;6.389673054218292E-002;2.408148022368550E-003;6.052574608474970E-003;
2.402833333333334E+009;1.633176356554031E-001;6.147566437721252E-002;2.907877555117011E-003;5.908343009650707E-003;
2.403000000000000E+009;1.645741313695908E-001;5.901833996176720E-002;3.194272750988603E-003;5.564822815358639E-003;
2.403166666666667E+009;1.663321405649185E-001;5.684816092252731E-002;3.430724842473865E-003;5.220679566264153E-003;
2.403333333333334E+009;1.677760779857636E-001;5.462222546339035E-002;3.626240417361260E-003;5.123370792716742E-003;
2.403500000000000E+009;1.694590747356415E-001;5.236431956291199E-002;3.878730582073331E-003;4.822845105081797E-003;
2.403666666666667E+009;1.710490137338638E-001;5.057398974895477E-002;4.071866162121296E-003;4.456016235053539E-003;
2.403833333333334E+009;1.726409792900085E-001;4.863795265555382E-002;4.293663892894983E-003;4.079912789165974E-003;
2.404000000000000E+009;1.741035282611847E-001;4.691623523831368E-002;4.299788270145655E-003;3.742994274944067E-003;
2.404166666666667E+009;1.760797500610352E-001;4.534654319286346E-002;4.521842114627361E-003;3.541537560522556E-003;
2.404333333333334E+009;1.777366399765015E-001;4.390953108668327E-002;4.437473602592945E-003;3.415281185880303E-003;
2.404500000000000E+009;1.792548000812531E-001;4.251237958669663E-002;4.577241372317076E-003;2.923484425991774E-003;
2.404666666666667E+009;1.807414144277573E-001;4.156141355633736E-002;4.604112356901169E-003;2.817008178681135E-003;
2.404833333333334E+009;1.825343966484070E-001;4.056495055556297E-002;4.863651469349861E-003;2.445374615490437E-003;
2.405000000000000E+009;1.839372664690018E-001;3.985750302672386E-002;4.639788996428251E-003;2.282151021063328E-003;
2.405166666666667E+009;1.852881014347076E-001;3.909650444984436E-002;4.686931148171425E-003;1.849196851253510E-003;
2.405333333333334E+009;1.867540180683136E-001;3.869090974330902E-002;4.634154494851828E-003;1.566705643199384E-003;
2.405500000000000E+009;1.881846487522125E-001;3.801177069544792E-002;4.815073683857918E-003;1.513439230620861E-003;
2.405666666666667E+009;1.893434822559357E-001;3.779487311840057E-002;4.831432364881039E-003;1.245204592123628E-003;
2.405833333333334E+009;1.907290220260620E-001;3.752525150775909E-002;4.855931270867586E-003;9.916623821482062E-004;
2.406000000000000E+009;1.917058527469635E-001;3.749854117631912E-002;4.741262178868055E-003;7.458240143023431E-004;
2.406166666666667E+009;1.926775872707367E-001;3.719090670347214E-002;4.563031252473593E-003;3.802049322985113E-004;
2.406333333333334E+009;1.935528814792633E-001;3.730747103691101E-002;4.501657094806433E-003;1.786382345017046E-004;
2.406500000000000E+009;1.943676471710205E-001;3.747416660189629E-002;4.526698496192694E-003;4.155982878728537E-006;
2.406666666666667E+009;1.950737982988358E-001;3.746163472533226E-002;4.310544580221176E-003;-2.029645547736436E-004;
2.406833333333334E+009;1.955597251653671E-001;3.744243457913399E-002;4.177962895482779E-003;-5.396908381953836E-004;
2.407000000000000E+009;1.959771364927292E-001;3.777038305997849E-002;4.113242495805025E-003;-6.663741660304368E-004;
2.407166666666667E+009;1.962542384862900E-001;3.767731785774231E-002;3.989312332123518E-003;-8.647044887766242E-004;
2.407333333333334E+009;1.962495595216751E-001;3.787189349532127E-002;3.722201567143202E-003;-8.928103488869965E-004;
2.407500000000000E+009;1.962231546640396E-001;3.786255419254303E-002;3.460680833086371E-003;-1.037854119203985E-003;
2.407666666666667E+009;1.962332129478455E-001;3.780667856335640E-002;3.413749858736992E-003;-1.404960174113512E-003;
2.407833333333334E+009;1.958055496215820E-001;3.779986500740051E-002;3.147183451801539E-003;-1.408832496963441E-003;
2.408000000000000E+009;1.956247836351395E-001;3.766129910945892E-002;2.838966203853488E-003;-1.492469222284854E-003;
2.408166666666667E+009;1.950881332159042E-001;3.725930675864220E-002;2.673056675121188E-003;-1.566226012073457E-003;
2.408333333333334E+009;1.946392953395844E-001;3.682572394609451E-002;2.370438538491726E-003;-1.588059938512743E-003;
2.408500000000000E+009;1.939724236726761E-001;3.657782077789307E-002;2.235593041405082E-003;-1.720876200124621E-003;
2.408666666666667E+009;1.934049874544144E-001;3.609378635883331E-002;1.980417640879750E-003;-1.384632079862058E-003;
2.408833333333334E+009;1.926335990428925E-001;3.533626720309258E-002;1.810508314520121E-003;-1.580484677106142E-003;
2.409000000000000E+009;1.917449235916138E-001;3.434756025671959E-002;1.676873536780477E-003;-1.561605371534824E-003;
2.409166666666667E+009;1.908140927553177E-001;3.335430845618248E-002;1.387197175063193E-003;-1.552819856442511E-003;
2.409333333333334E+009;1.898829936981201E-001;3.248066827654839E-002;1.104072551243007E-003;-1.644178875721991E-003;
2.409500000000000E+009;1.887110322713852E-001;3.113397024571896E-002;1.063212053850293E-003;-1.308464561589062E-003;
2.409666666666667E+009;1.877491027116776E-001;2.969530038535595E-002;7.511994917877019E-004;-1.188699970953167E-003;
2.409833333333334E+009;1.867598742246628E-001;2.828536555171013E-002;6.941846222616732E-004;-9.353872155770659E-004;
2.410000000000000E+009;1.857987195253372E-001;2.646831981837750E-002;6.480978918261826E-004;-7.351294625550509E-004;
2.410166666666667E+009;1.846998184919357E-001;2.477987483143807E-002;6.505132769234479E-004;-5.619661533273757E-004;
2.410333333333334E+009;1.836835891008377E-001;2.300922572612763E-002;7.424704381264746E-004;-4.148079606238753E-004;
2.410500000000000E+009;1.827415823936462E-001;2.089638262987137E-002;5.591182271018624E-004;-2.256674924865365E-004;
2.410666666666667E+009;1.817991584539414E-001;1.859926432371140E-002;7.306740735657513E-004;-2.667587832547724E-004;
2.410833333333334E+009;1.811414510011673E-001;1.645009219646454E-002;8.718828321434557E-004;-2.133548332494684E-005;
2.411000000000000E+009;1.803099513053894E-001;1.437921263277531E-002;9.059403673745692E-004;5.289450200507417E-005;
2.411166666666667E+009;1.797658354043961E-001;1.205954700708389E-002;1.073260675184429E-003;1.617170346435159E-004;
2.411333333333334E+009;1.790354847908020E-001;9.640110656619072E-003;1.117418287321925E-003;3.280046803411096E-004;
2.411500000000000E+009;1.786716580390930E-001;7.136330939829350E-003;1.353422761894763E-003;2.300304040545598E-004;
2.411666666666667E+009;1.783107668161392E-001;4.746639169752598E-003;1.466046436689794E-003;2.811956510413438E-004;
2.411833333333334E+009;1.781645268201828E-001;2.597700804471970E-003;1.699975575320423E-003;2.252239064546302E-004;
2.412000000000000E+009;1.781845241785049E-001;-7.057763286866248E-005;1.733259181492031E-003;2.586419577710331E-004;
2.412166666666667E+009;1.784477978944778E-001;-2.590488176792860E-003;1.794819021597505E-003;4.713925591204315E-006;
2.412333333333334E+009;1.784902215003967E-001;-5.064080469310284E-003;1.954491715878248E-003;8.213394175982103E-005;
2.412500000000000E+009;1.790393888950348E-001;-7.433030288666487E-003;1.949527417309582E-003;-1.669831108301878E-004;
2.412666666666667E+009;1.795031428337097E-001;-1.004650350660086E-002;1.860498450696468E-003;-1.739280123729259E-004;
2.412833333333334E+009;1.802154332399368E-001;-1.249368209391832E-002;1.929285004734993E-003;-3.622994408942759E-004;
2.413000000000000E+009;1.809429675340653E-001;-1.472671423107386E-002;1.931954175233841E-003;-4.187994345556945E-004;
2.413166666666667E+009;1.816996634006500E-001;-1.721932366490364E-002;1.863589510321617E-003;-3.934359119739384E-004;
2.413333333333334E+009;1.826973557472229E-001;-1.934799365699291E-002;1.825660117901862E-003;-7.709494093433023E-004;
2.413500000000000E+009;1.835608780384064E-001;-2.165441773831844E-002;1.797257456928492E-003;-6.053831311874092E-004;
2.413666666666667E+009;1.848424077033997E-001;-2.371946163475514E-002;1.786722801625729E-003;-6.095737917348743E-004;
2.413833333333334E+009;1.860520839691162E-001;-2.576003968715668E-002;1.810848480090499E-003;-6.400830461643636E-004;
2.414000000000000E+009;1.869608759880066E-001;-2.778084389865398E-002;1.646557939238846E-003;-7.024841033853591E-004;
2.414166666666667E+009;1.883986741304398E-001;-2.959894202649593E-002;1.687850803136826E-003;-7.322957389988005E-004;
2.414333333333334E+009;1.892938911914825E-001;-3.161787986755371E-002;1.798158162273467E-003;-7.139481604099274E-004;
2.414500000000000E+009;1.906665861606598E-001;-3.315188735723496E-002;1.804118277505040E-003;-7.393778651021421E-004;
2.414666666666667E+009;1.918084323406220E-001;-3.465441986918449E-002;1.805825042538345E-003;-4.595153441186994E-004;
2.414833333333334E+009;1.930435150861740E-001;-3.595867380499840E-002;1.726045389659703E-003;-6.648232811130583E-004;
2.415000000000000E+009;1.939637213945389E-001;-3.724963963031769E-002;1.824243227019906E-003;-5.719680339097977E-004;
2.415166666666667E+009;1.953230798244476E-001;-3.838510066270828E-002;1.855954644270241E-003;-6.542491610161960E-004;
2.415333333333334E+009;1.965188384056091E-001;-3.931732848286629E-002;1.845487160608172E-003;-5.892607732675970E-004;
2.415500000000000E+009;1.974932700395584E-001;-3.985115140676498E-002;1.983500551432371E-003;-8.341430802829564E-004;
2.415666666666667E+009;1.986482143402100E-001;-4.084136337041855E-002;2.092126058414578E-003;-7.189965108409524E-004;
2.415833333333334E+009;1.993095725774765E-001;-4.146618396043778E-002;2.225446049124003E-003;-8.906070725060999E-004;
2.416000000000000E+009;2.001170367002487E-001;-4.195339977741242E-002;2.307185204699636E-003;-1.098400680348277E-003;
2.416166666666667E+009;2.008592188358307E-001;-4.247701913118362E-002;2.401399193331599E-003;-1.255463925190270E-003;
2.416333333333334E+009;2.015070468187332E-001;-4.265377297997475E-002;2.502204617485404E-003;-1.291154650971293E-003;
2.416500000000000E+009;2.020039856433868E-001;-4.289070144295692E-002;2.439271425828338E-003;-1.441639731638134E-003;
2.416666666666667E+009;2.023504078388214E-001;-4.320912063121796E-002;2.523956121876836E-003;-1.752446522004902E-003;
2.416833333333334E+009;2.025408744812012E-001;-4.327076673507690E-002;2.369974972680211E-003;-1.950998790562153E-003;
2.417000000000000E+009;2.026309520006180E-001;-4.325901716947556E-002;2.186492783948779E-003;-1.974540762603283E-003;
2.417166666666667E+009;2.023762464523315E-001;-4.321048408746719E-002;2.235073130577803E-003;-2.307044807821512E-003;
2.417333333333334E+009;2.019884288311005E-001;-4.297410696744919E-002;2.074156654998660E-003;-2.375799464061856E-003;
2.417500000000000E+009;2.018728554248810E-001;-4.295247048139572E-002;1.875887042842805E-003;-2.332278760150075E-003;
2.417666666666667E+009;2.014118582010269E-001;-4.272926971316338E-002;1.784539432264864E-003;-2.597161568701267E-003;
2.417833333333334E+009;2.009380459785461E-001;-4.244130104780197E-002;1.570763881318271E-003;-2.679639495909214E-003;
2.418000000000000E+009;2.002625316381455E-001;-4.217619448900223E-002;1.604375196620822E-003;-2.692353678867221E-003;
2.418166666666667E+009;1.993521302938461E-001;-4.212456196546555E-002;1.405854360200465E-003;-2.649658592417836E-003;
2.418333333333334E+009;1.985676288604736E-001;-4.182960838079453E-002;1.259850221686065E-003;-2.811035141348839E-003;
2.418500000000000E+009;1.975147873163223E-001;-4.200174286961556E-002;1.126229413785040E-003;-2.849512966349721E-003;
2.418666666666667E+009;1.966051608324051E-001;-4.185549169778824E-002;1.030378160066903E-003;-2.724242629483342E-003;
2.418833333333334E+009;1.952504515647888E-001;-4.191541671752930E-002;9.060231386683881E-004;-2.891852287575603E-003;
2.419000000000000E+009;1.939184218645096E-001;-4.225936159491539E-002;8.416980854235590E-004;-2.770458115264773E-003;
2.419166666666667E+009;1.927170455455780E-001;-4.264001920819283E-002;7.931304862722755E-004;-2.870249561965466E-003;
2.419333333333334E+009;1.913447976112366E-001;-4.306584224104881E-002;8.283338975161314E-004;-2.983510959893465E-003;
2.419500000000000E+009;1.897959709167481E-001;-4.349295422434807E-002;6.857769330963492E-004;-2.961383434012532E-003;
2.419666666666667E+009;1.881935596466065E-001;-4.419817775487900E-002;4.425086372066289E-004;-3.084327327087522E-003;
2.419833333333334E+009;1.865816116333008E-001;-4.490837827324867E-002;4.936567274853587E-004;-3.017520764842629E-003;
2.420000000000000E+009;1.849799454212189E-001;-4.580022394657135E-002;4.655047086998820E-004;-3.217543009668589E-003;
2.420166666666667E+009;1.834014952182770E-001;-4.680236801505089E-002;3.182400250807405E-004;-3.224498359486461E-003;
2.420333333333334E+009;1.817391514778137E-001;-4.791939631104469E-002;2.736377355176956E-004;-3.445282811298966E-003;
2.420500000000000E+009;1.800794899463654E-001;-4.927612841129303E-002;-1.899847666209098E-005;-3.463096916675568E-003;
2.420666666666667E+009;1.783693432807922E-001;-5.046120658516884E-002;-2.079794794553891E-004;-3.539060708135366E-003;
2.420833333333334E+009;1.767832338809967E-001;-5.201269313693047E-002;-4.311389348004013E-004;-3.734173486009240E-003;
2.421000000000000E+009;1.752077043056488E-001;-5.365196615457535E-002;-7.113915053196251E-004;-3.590640146285296E-003;
2.421166666666667E+009;1.737875044345856E-001;-5.529496818780899E-002;-9.980481117963791E-004;-3.596922149881721E-003;
2.421333333333334E+009;1.721100807189941E-001;-5.672455951571465E-002;-1.269825967028737E-003;-3.512693103402853E-003;
2.421500000000000E+009;1.708018481731415E-001;-5.864822492003441E-002;-1.511490903794766E-003;-3.359144320711494E-003;
2.421666666666667E+009;1.695738434791565E-001;-6.062959507107735E-002;-1.664426294155419E-003;-3.363039810210466E-003;
2.421833333333334E+009;1.684608757495880E-001;-6.243627890944481E-002;-2.119336044415832E-003;-3.220839658752084E-003;
2.422000000000000E+009;1.672803908586502E-001;-6.421419978141785E-002;-2.203008392825723E-003;-3.030075458809733E-003;
2.422166666666667E+009;1.664309799671173E-001;-6.649829447269440E-002;-2.482282230630517E-003;-2.775667468085885E-003;
2.422333333333334E+009;1.654360294342041E-001;-6.844988465309143E-002;-2.606755122542381E-003;-2.379409736022353E-003;
2.422500000000000E+009;1.646071076393127E-001;-7.036533206701279E-002;-2.560054417699575E-003;-2.307996386662126E-003;
2.422666666666667E+009;1.637803465127945E-001;-7.243204116821289E-002;-2.800506306812167E-003;-2.015808597207069E-003;
2.422833333333334E+009;1.635760962963104E-001;-7.450404763221741E-002;-2.908135298639536E-003;-1.800374477170408E-003;
2.423000000000000E+009;1.630455106496811E-001;-7.658808678388596E-002;-3.013819921761751E-003;-1.481913612224162E-003;
2.423166666666667E+009;1.627518683671951E-001;-7.841601222753525E-002;-2.793847583234310E-003;-1.331455423496664E-003;
2.423333333333334E+009;1.624004989862442E-001;-8.048673719167709E-002;-2.992594148963690E-003;-1.085620373487473E-003;
2.423500000000000E+009;1.624282300472260E-001;-8.222568035125732E-002;-2.876795595511794E-003;-8.892303449101746E-004;
2.423666666666667E+009;1.624644994735718E-001;-8.425935357809067E-002;-2.809292403981090E-003;-6.437433767132461E-004;
2.423833333333334E+009;1.624306142330170E-001;-8.590598404407501E-002;-2.791679231449962E-003;-3.549024113453925E-004;
2.424000000000000E+009;1.625940948724747E-001;-8.775691688060761E-002;-2.700832672417164E-003;-2.537289983592928E-004;
2.424166666666667E+009;1.626951843500137E-001;-8.931706845760346E-002;-2.513463143259287E-003;2.978242991957814E-005;
2.424333333333334E+009;1.629219353199005E-001;-9.088484197854996E-002;-2.464182442054153E-003;4.803522460861132E-005;
2.424500000000000E+009;1.634220778942108E-001;-9.251749515533447E-002;-2.409983426332474E-003;3.057440044358373E-004;
2.424666666666667E+009;1.634647250175476E-001;-9.385566413402557E-002;-2.294050063937903E-003;4.748938081320375E-004;
2.424833333333334E+009;1.641960740089417E-001;-9.521502256393433E-002;-1.984848640859127E-003;6.355293444357812E-004;
2.425000000000000E+009;1.644895076751709E-001;-9.641531109809876E-002;-1.872271532192826E-003;8.137866389006376E-004;
2.425166666666667E+009;1.649630963802338E-001;-9.749604016542435E-002;-1.789713976904750E-003;7.862686761654913E-004;
2.425333333333334E+009;1.652575135231018E-001;-9.836534410715103E-002;-1.421136432327330E-003;9.015234536491334E-004;
2.425500000000000E+009;1.658072471618652E-001;-9.944234043359757E-002;-1.408481388352811E-003;1.015960238873959E-003;
2.425666666666667E+009;1.661960482597351E-001;-1.000698730349541E-001;-1.173789380118251E-003;1.093937549740076E-003;
2.425833333333334E+009;1.665888875722885E-001;-1.009447574615479E-001;-9.689127327874303E-004;1.049844198860228E-003;
2.426000000000000E+009;1.670006960630417E-001;-1.013839766383171E-001;-7.455345476046205E-004;1.030955463647842E-003;
2.426166666666667E+009;1.674269288778305E-001;-1.018710955977440E-001;-6.256974302232266E-004;1.003264449536800E-003;
2.426333333333334E+009;1.675266623497009E-001;-1.024016216397286E-001;-4.799253947567195E-004;8.131940849125385E-004;
2.426500000000000E+009;1.679816097021103E-001;-1.026607006788254E-001;-3.476484853308648E-004;8.111792849376798E-004;
2.426666666666667E+009;1.682016551494598E-001;-1.030545160174370E-001;-2.732028369791806E-004;7.378663867712021E-004;
2.426833333333334E+009;1.686011999845505E-001;-1.032551676034927E-001;-1.440355990780518E-004;6.205525132827461E-004;
2.427000000000000E+009;1.684469133615494E-001;-1.034535020589829E-001;8.501355296175461E-006;4.664268926717341E-004;
2.427166666666667E+009;1.685223579406738E-001;-1.035540774464607E-001;3.699362423503771E-005;3.691417805384845E-004;
2.427333333333334E+009;1.684067547321320E-001;-1.037516221404076E-001;-4.830006673728349E-006;3.987101081293076E-004;
2.427500000000000E+009;1.681843549013138E-001;-1.038715764880180E-001;1.576415525050834E-004;4.377438162919134E-004;
2.427666666666667E+009;1.678714901208878E-001;-1.039388924837112E-001;9.135621803579852E-005;2.878156956285238E-004;
2.427833333333334E+009;1.674774140119553E-001;-1.040282472968102E-001;2.119522978318855E-004;3.248035500291735E-004;
