# Version 1.00
#
freq[Hz];re:Trc1_S11;im:Trc1_S11;re:Trc2_S21;im:Trc2_S21;
2.400000000000000E+009;1.553322225809097E-001;1.064419969916344E-001;-2.456695074215531E-003;3.567104693502188E-003;
2.400166666666667E+009;1.550742387771606E-001;1.042359992861748E-001;-2.388584660366178E-003;3.789226524531841E-003;
2.400333333333334E+009;1.550572663545609E-001;1.018154025077820E-001;-2.314471872523427E-003;4.190111998468638E-003;
2.400500000000000E+009;1.549653261899948E-001;9.919059276580811E-002;-2.444893354550004E-003;4.395819269120693E-003;
2.400666666666667E+009;1.551091820001602E-001;9.659811109304428E-002;-2.298834966495633E-003;4.832329228520393E-003;
2.400833333333334E+009;1.550892442464829E-001;9.381025284528732E-002;-2.251090016216040E-003;5.005414597690105E-003;
2.401000000000000E+009;1.552500277757645E-001;9.099168330430985E-002;-2.074504969641566E-003;5.597453098744154E-003;
2.401166666666667E+009;1.554326117038727E-001;8.829566091299057E-002;-1.551444758661091E-003;5.839097313582897E-003;
2.401333333333334E+009;1.557687520980835E-001;8.536054939031601E-002;-1.282701268792152E-003;6.170258857309818E-003;
2.401500000000000E+009;1.561927795410156E-001;8.216255903244019E-002;-8.450485765933991E-004;6.336680147796869E-003;
2.401666666666667E+009;1.564054787158966E-001;7.953952997922897E-002;-4.150395689066500E-004;6.582291796803474E-003;
2.401833333333334E+009;1.570958793163300E-001;7.675222307443619E-002;5.493231947184540E-005;6.735611241310835E-003;
2.402000000000000E+009;1.578792929649353E-001;7.380038499832153E-002;5.424823611974716E-004;6.812411826103926E-003;
2.402166666666667E+009;1.586335748434067E-001;7.123790681362152E-002;1.022185431793332E-003;6.749276537448168E-003;
2.402333333333334E+009;1.594984084367752E-001;6.843421608209610E-002;1.687855925410986E-003;6.660647224634886E-003;
2.402500000000000E+009;1.606966555118561E-001;6.606192886829376E-002;2.098287688568234E-003;6.382509134709835E-003;
2.402666666666667E+009;1.617437452077866E-001;6.364434957504273E-002;2.445850288495421E-003;6.433889735490084E-003;
2.402833333333334E+009;1.630469709634781E-001;6.108674779534340E-002;2.850858727470040E-003;6.044469308108091E-003;
2.403000000000000E+009;1.644591242074966E-001;5.872533470392227E-002;3.111890051513910E-003;5.792482290416956E-003;
2.403166666666667E+009;1.660386621952057E-001;5.637076869606972E-002;3.282833145931363E-003;5.575678311288357E-003;
2.403333333333334E+009;1.675287038087845E-001;5.413720384240151E-002;3.631458384916186E-003;5.127138923853636E-003;
2.403500000000000E+009;1.692472398281097E-001;5.222616344690323E-002;4.049433860927820E-003;4.829803016036749E-003;
2.403666666666667E+009;1.708011627197266E-001;5.038692429661751E-002;4.176587332040072E-003;4.541071131825447E-003;
2.403833333333334E+009;1.724702864885330E-001;4.844349622726440E-002;4.191916435956955E-003;4.258604720234871E-003;
2.404000000000000E+009;1.739100366830826E-001;4.673700034618378E-002;4.322771448642016E-003;3.849237691611052E-003;
2.404166666666667E+009;1.757661849260330E-001;4.525891691446304E-002;4.545816220343113E-003;3.501902334392071E-003;
2.404333333333334E+009;1.773481518030167E-001;4.361018165946007E-002;4.638035781681538E-003;3.151157870888710E-003;
2.404500000000000E+009;1.790488511323929E-001;4.243587329983711E-002;4.648840520530939E-003;3.048536367714405E-003;
2.404666666666667E+009;1.806558966636658E-001;4.133971035480499E-002;4.635248798877001E-003;2.756031230092049E-003;
2.404833333333334E+009;1.822997182607651E-001;4.044384136795998E-002;4.626424051821232E-003;2.538361120969057E-003;
2.405000000000000E+009;1.836747527122498E-001;3.961258009076119E-002;4.710523411631584E-003;2.224451629444957E-003;
2.405166666666667E+009;1.852536946535111E-001;3.898812830448151E-002;4.793177824467421E-003;2.065980574116111E-003;
2.405333333333334E+009;1.864547878503799E-001;3.838108107447624E-002;4.767934791743755E-003;1.722205430269241E-003;
2.405500000000000E+009;1.880070865154266E-001;3.798665851354599E-002;4.875515121966600E-003;1.416978775523603E-003;
2.405666666666667E+009;1.891879886388779E-001;3.765745460987091E-002;4.698809701949358E-003;1.160021522082388E-003;
2.405833333333334E+009;1.903894245624542E-001;3.747809678316116E-002;4.811392165720463E-003;1.093141152523458E-003;
2.406000000000000E+009;1.914278268814087E-001;3.731885924935341E-002;4.614672623574734E-003;7.375049754045904E-004;
2.406166666666667E+009;1.924122571945190E-001;3.702565282583237E-002;4.519223701208830E-003;4.472033469937742E-004;
2.406333333333334E+009;1.934139281511307E-001;3.709071129560471E-002;4.550012294203043E-003;2.663372142706066E-004;
2.406500000000000E+009;1.941244155168533E-001;3.717140108346939E-002;4.446184262633324E-003;1.218831530422904E-004;
2.406666666666667E+009;1.947673708200455E-001;3.739709407091141E-002;4.403605125844479E-003;-2.651841496117413E-004;
2.406833333333334E+009;1.953666061162949E-001;3.742564842104912E-002;4.338229540735483E-003;-3.965251089539379E-004;
2.407000000000000E+009;1.955202072858810E-001;3.761678189039230E-002;4.087950568646193E-003;-6.855346728116274E-004;
2.407166666666667E+009;1.959987878799439E-001;3.753376752138138E-002;4.015774000436068E-003;-8.377608028240502E-004;
2.407333333333334E+009;1.960062682628632E-001;3.775281831622124E-002;3.678510198369622E-003;-1.021474483422935E-003;
2.407500000000000E+009;1.958553940057755E-001;3.776993975043297E-002;3.667300567030907E-003;-1.211824943311513E-003;
2.407666666666667E+009;1.959698647260666E-001;3.773150220513344E-002;3.443162422627211E-003;-1.280202064663172E-003;
2.407833333333334E+009;1.954367756843567E-001;3.770409151911736E-002;3.191614756360650E-003;-1.400426262989640E-003;
2.408000000000000E+009;1.953728944063187E-001;3.772142902016640E-002;2.996228402480483E-003;-1.545429695397615E-003;
2.408166666666667E+009;1.948976069688797E-001;3.737487643957138E-002;2.736684400588274E-003;-1.534847775474191E-003;
2.408333333333334E+009;1.945069879293442E-001;3.700372204184532E-002;2.551190089434385E-003;-1.678175176493824E-003;
2.408500000000000E+009;1.937565058469772E-001;3.664617985486984E-002;2.277675317600370E-003;-1.652442384511232E-003;
2.408666666666667E+009;1.930724978446960E-001;3.616615012288094E-002;2.169304527342320E-003;-1.434727571904659E-003;
2.408833333333334E+009;1.924126744270325E-001;3.538661450147629E-002;1.934901112690568E-003;-1.689040800556541E-003;
2.409000000000000E+009;1.914825141429901E-001;3.448433056473732E-002;1.645421725697815E-003;-1.565928221680224E-003;
2.409166666666667E+009;1.905614733695984E-001;3.356616944074631E-002;1.536395051516593E-003;-1.629101810976863E-003;
2.409333333333334E+009;1.896369308233261E-001;3.243691474199295E-002;1.325078774243593E-003;-1.476568635553122E-003;
2.409500000000000E+009;1.885152012109757E-001;3.121550567448139E-002;1.292353728786111E-003;-1.292744651436806E-003;
2.409666666666667E+009;1.876134276390076E-001;2.966785244643688E-002;1.163304783403873E-003;-1.320279203355312E-003;
2.409833333333334E+009;1.864947974681854E-001;2.835948206484318E-002;1.051986124366522E-003;-1.163548789918423E-003;
2.410000000000000E+009;1.855230778455734E-001;2.657728083431721E-002;7.482882356271148E-004;-8.485134458169341E-004;
2.410166666666667E+009;1.844821274280548E-001;2.496444061398506E-002;7.647625752724707E-004;-7.374809356406331E-004;
2.410333333333334E+009;1.835189908742905E-001;2.303733676671982E-002;7.042351062409580E-004;-5.053938948549330E-004;
2.410500000000000E+009;1.824431121349335E-001;2.103346772491932E-002;7.111175800673664E-004;-4.758604918606579E-004;
2.410666666666667E+009;1.815550476312637E-001;1.868648268282414E-002;8.648611255921423E-004;-3.719021697179414E-005;
2.410833333333334E+009;1.809046417474747E-001;1.663188077509403E-002;9.184658410958946E-004;-1.364749186905101E-004;
2.411000000000000E+009;1.800129860639572E-001;1.442399434745312E-002;9.881051955744624E-004;8.753967267693952E-005;
2.411166666666667E+009;1.795416027307510E-001;1.204271614551544E-002;1.115648541599512E-003;1.332389801973477E-004;
2.411333333333334E+009;1.789772063493729E-001;9.590734727680683E-003;1.410832395777106E-003;3.163549990858883E-004;
2.411500000000000E+009;1.785946488380432E-001;7.265099324285984E-003;1.489471993409097E-003;3.441178996581584E-004;
2.411666666666667E+009;1.782799065113068E-001;4.816203378140926E-003;1.510600559413433E-003;2.321230858797208E-004;
2.411833333333334E+009;1.778152585029602E-001;2.526211086660624E-003;1.775404787622392E-003;2.475903020240367E-004;
2.412000000000000E+009;1.781059652566910E-001;-2.778416674118489E-004;1.687258947640657E-003;1.650545309530571E-004;
2.412166666666667E+009;1.780587583780289E-001;-2.374425297603011E-003;2.125956118106842E-003;1.954683684743941E-004;
2.412333333333334E+009;1.783561259508133E-001;-4.952673800289631E-003;1.956641674041748E-003;9.111741383094341E-005;
2.412500000000000E+009;1.786885261535645E-001;-7.391952909529209E-003;2.039602492004633E-003;-2.125614555552602E-004;
2.412666666666667E+009;1.793573498725891E-001;-9.725359268486500E-003;2.062928397208452E-003;-1.883789518615231E-004;
2.412833333333334E+009;1.800336986780167E-001;-1.228202041238546E-002;2.070063026621938E-003;-3.260614175815135E-004;
2.413000000000000E+009;1.807699501514435E-001;-1.463832147419453E-002;2.037760801613331E-003;-3.644944808911532E-004;
2.413166666666667E+009;1.815159469842911E-001;-1.692356169223785E-002;1.985539449378848E-003;-3.803022555075586E-004;
2.413333333333334E+009;1.825319677591324E-001;-1.906953006982803E-002;1.992238452658057E-003;-6.056490819901228E-004;
2.413500000000000E+009;1.835617423057556E-001;-2.146132290363312E-002;2.001613378524780E-003;-5.756345344707370E-004;
2.413666666666667E+009;1.846930384635925E-001;-2.369328960776329E-002;2.097539370879531E-003;-6.898462306708098E-004;
2.413833333333334E+009;1.857321858406067E-001;-2.550609968602657E-002;1.974571729078889E-003;-6.886381306685507E-004;
2.414000000000000E+009;1.869460791349411E-001;-2.765388973057270E-002;1.912104315124452E-003;-7.292482769116759E-004;
2.414166666666667E+009;1.881631612777710E-001;-2.931515313684940E-002;1.959173707291484E-003;-6.338585517369211E-004;
2.414333333333334E+009;1.892603486776352E-001;-3.145723044872284E-002;1.763873966410756E-003;-6.299415836110711E-004;
2.414500000000000E+009;1.905135959386826E-001;-3.289426490664482E-002;1.815462019294500E-003;-8.305399096570909E-004;
2.414666666666667E+009;1.916918307542801E-001;-3.442776948213577E-002;1.899830182082951E-003;-9.414741653017700E-004;
2.414833333333334E+009;1.928599178791046E-001;-3.579498827457428E-002;1.858534640632570E-003;-7.304113241843879E-004;
2.415000000000000E+009;1.939200907945633E-001;-3.708017244935036E-002;2.057804493233562E-003;-7.485455134883523E-004;
2.415166666666667E+009;1.952319145202637E-001;-3.828429430723190E-002;2.036260208114982E-003;-6.683656247332692E-004;
2.415333333333334E+009;1.963487267494202E-001;-3.913366049528122E-002;2.122307661920786E-003;-7.956398185342550E-004;
2.415500000000000E+009;1.974570751190186E-001;-3.976924717426300E-002;2.133069327101111E-003;-7.960934308357537E-004;
2.415666666666667E+009;1.984564512968063E-001;-4.064309597015381E-002;2.183821052312851E-003;-9.194096783176065E-004;
2.415833333333334E+009;1.993260979652405E-001;-4.115289449691773E-002;2.401555655524135E-003;-9.028731146827340E-004;
2.416000000000000E+009;2.001415938138962E-001;-4.178145527839661E-002;2.329663606360555E-003;-1.250368426553905E-003;
2.416166666666667E+009;2.008505463600159E-001;-4.249609261751175E-002;2.432420616969466E-003;-1.247165142558515E-003;
2.416333333333334E+009;2.015233933925629E-001;-4.258151352405548E-002;2.504481468349695E-003;-1.435164595022798E-003;
2.416500000000000E+009;2.018802911043167E-001;-4.273429140448570E-002;2.392413793131709E-003;-1.664936775341630E-003;
2.416666666666667E+009;2.023026943206787E-001;-4.307778924703598E-002;2.521194750443101E-003;-1.709391712211072E-003;
2.416833333333334E+009;2.023655325174332E-001;-4.294161498546600E-002;2.378927776589990E-003;-1.995624508708715E-003;
2.417000000000000E+009;2.026012390851975E-001;-4.305605217814446E-002;2.299042651429772E-003;-2.115881303325295E-003;
2.417166666666667E+009;2.023515254259110E-001;-4.297163337469101E-002;2.128121443092823E-003;-2.337867161259055E-003;
2.417333333333334E+009;2.020193189382553E-001;-4.274497181177139E-002;2.055867109447718E-003;-2.540164161473513E-003;
2.417500000000000E+009;2.018566727638245E-001;-4.274326935410500E-002;1.903599360957742E-003;-2.592294476926327E-003;
2.417666666666667E+009;2.014143764972687E-001;-4.254355654120445E-002;1.550876651890576E-003;-2.665449865162373E-003;
2.417833333333334E+009;2.008839696645737E-001;-4.235680028796196E-002;1.596808549948037E-003;-2.781253308057785E-003;
2.418000000000000E+009;2.003221660852432E-001;-4.194793105125427E-002;1.574855181388557E-003;-2.761023119091988E-003;
2.418166666666667E+009;1.994298845529556E-001;-4.198017343878746E-002;1.212171046063304E-003;-2.916455501690507E-003;
2.418333333333334E+009;1.986166983842850E-001;-4.176989570260048E-002;1.335126347839832E-003;-2.979516051709652E-003;
2.418500000000000E+009;1.975076198577881E-001;-4.182362928986549E-002;1.063739880919457E-003;-2.739070216193795E-003;
2.418666666666667E+009;1.965697109699249E-001;-4.174585267901421E-002;9.999562753364444E-004;-2.923897467553616E-003;
2.418833333333334E+009;1.953324526548386E-001;-4.180925711989403E-002;1.117992913350463E-003;-2.812001155689359E-003;
2.419000000000000E+009;1.940700709819794E-001;-4.203316569328308E-002;9.632884175516665E-004;-2.942149061709642E-003;
2.419166666666667E+009;1.926908344030380E-001;-4.222806543111801E-002;9.110665996558964E-004;-3.076670924201608E-003;
2.419333333333334E+009;1.913753300905228E-001;-4.269440472126007E-002;7.147848373278976E-004;-3.011649474501610E-003;
2.419500000000000E+009;1.898859888315201E-001;-4.311026632785797E-002;6.193234585225582E-004;-3.092666622251272E-003;
2.419666666666667E+009;1.883296072483063E-001;-4.401712492108345E-002;6.498352740891278E-004;-3.205658169463277E-003;
2.419833333333334E+009;1.866773664951325E-001;-4.459142684936523E-002;3.826469474006444E-004;-3.360928269103169E-003;
2.420000000000000E+009;1.851247400045395E-001;-4.559263586997986E-002;3.331169136799872E-004;-3.146781818941236E-003;
2.420166666666667E+009;1.834136545658112E-001;-4.656803607940674E-002;2.614366821944714E-004;-3.360526170581579E-003;
2.420333333333334E+009;1.818951517343521E-001;-4.766485095024109E-002;1.641501585254446E-004;-3.541996004059911E-003;
2.420500000000000E+009;1.802691370248795E-001;-4.901260882616043E-002;-6.626675167353824E-005;-3.489591879770160E-003;
2.420666666666667E+009;1.786464154720306E-001;-5.031714215874672E-002;-2.526936295907944E-004;-3.719998989254236E-003;
2.420833333333334E+009;1.769158095121384E-001;-5.176513642072678E-002;-4.293061792850494E-004;-3.668040037155151E-003;
2.421000000000000E+009;1.753275990486145E-001;-5.337603762745857E-002;-7.108190329745412E-004;-3.829961176961660E-003;
2.421166666666667E+009;1.738495379686356E-001;-5.504695698618889E-002;-1.032627420499921E-003;-3.833701834082604E-003;
2.421333333333334E+009;1.723405420780182E-001;-5.651244521141052E-002;-1.152366981841624E-003;-3.807653440162540E-003;
2.421500000000000E+009;1.709686517715454E-001;-5.862176045775414E-002;-1.508626621216536E-003;-3.666168311610818E-003;
2.421666666666667E+009;1.695474982261658E-001;-6.047201156616211E-002;-1.794652431271970E-003;-3.641817253082991E-003;
2.421833333333334E+009;1.686028540134430E-001;-6.224760040640831E-002;-1.986804651096463E-003;-3.410739824175835E-003;
2.422000000000000E+009;1.672704368829727E-001;-6.417187303304672E-002;-2.206515055149794E-003;-3.140915650874376E-003;
2.422166666666667E+009;1.664831042289734E-001;-6.624519824981690E-002;-2.463372657075524E-003;-2.944659674540162E-003;
2.422333333333334E+009;1.654546707868576E-001;-6.840816140174866E-002;-2.846735995262861E-003;-2.728149527683854E-003;
2.422500000000000E+009;1.646800637245178E-001;-7.021453976631165E-002;-2.795164007693529E-003;-2.474629320204258E-003;
2.422666666666667E+009;1.642125397920609E-001;-7.244331389665604E-002;-2.861101180315018E-003;-2.105315448716283E-003;
2.422833333333334E+009;1.636378765106201E-001;-7.436465471982956E-002;-2.991121960803866E-003;-1.878718845546246E-003;
2.423000000000000E+009;1.631082147359848E-001;-7.640403509140015E-002;-3.011088818311691E-003;-1.664753537625074E-003;
2.423166666666667E+009;1.627905964851379E-001;-7.838598638772965E-002;-2.991394838318229E-003;-1.293416484259069E-003;
2.423333333333334E+009;1.626173555850983E-001;-8.029808104038239E-002;-2.913547679781914E-003;-1.162330037914217E-003;
2.423500000000000E+009;1.626871079206467E-001;-8.204799145460129E-002;-2.909872448071837E-003;-9.205600363202393E-004;
2.423666666666667E+009;1.626262515783310E-001;-8.412894606590271E-002;-2.921704901382327E-003;-7.650830084457994E-004;
2.423833333333334E+009;1.626210659742355E-001;-8.581225574016571E-002;-2.980712801218033E-003;-5.861524259671569E-004;
2.424000000000000E+009;1.626974642276764E-001;-8.760556578636169E-002;-2.659049583598971E-003;-3.132253768853843E-004;
2.424166666666667E+009;1.628499478101730E-001;-8.921688795089722E-002;-2.614803146570921E-003;-1.766040950315073E-004;
2.424333333333334E+009;1.629965901374817E-001;-9.093414992094040E-002;-2.415655646473169E-003;1.600245886947960E-004;
2.424500000000000E+009;1.635122001171112E-001;-9.247283637523651E-002;-2.490613842383027E-003;3.828123735729605E-004;
2.424666666666667E+009;1.638197302818298E-001;-9.386344254016876E-002;-2.264411188662052E-003;4.512295708991587E-004;
2.424833333333334E+009;1.643062978982925E-001;-9.528034925460815E-002;-2.207285724580288E-003;5.990806967020035E-004;
2.425000000000000E+009;1.647977977991104E-001;-9.637729823589325E-002;-2.117796568199992E-003;7.909308187663555E-004;
2.425166666666667E+009;1.650582104921341E-001;-9.743195772171021E-002;-1.711752149276435E-003;7.969030993990600E-004;
2.425333333333334E+009;1.654888540506363E-001;-9.840857982635498E-002;-1.621342031285167E-003;9.423032170161605E-004;
2.425500000000000E+009;1.658531427383423E-001;-9.932479262351990E-002;-1.495856908150017E-003;9.151228005066514E-004;
2.425666666666667E+009;1.662980914115906E-001;-1.000255122780800E-001;-1.326754456385970E-003;1.084839925169945E-003;
2.425833333333334E+009;1.666489094495773E-001;-1.009212657809258E-001;-1.177162746898830E-003;9.925911435857415E-004;
2.426000000000000E+009;1.670732796192169E-001;-1.012800708413124E-001;-9.484391193836927E-004;1.026872429065406E-003;
2.426166666666667E+009;1.675246655941010E-001;-1.018568277359009E-001;-8.171496447175741E-004;9.153418941423297E-004;
2.426333333333334E+009;1.676398217678070E-001;-1.023233607411385E-001;-6.182958604767919E-004;8.932451019063592E-004;
2.426500000000000E+009;1.680665910243988E-001;-1.026754006743431E-001;-5.856967181898654E-004;7.330022053793073E-004;
2.426666666666667E+009;1.682809740304947E-001;-1.028810739517212E-001;-3.821372520178556E-004;8.777247858233750E-004;
2.426833333333334E+009;1.685876697301865E-001;-1.031879931688309E-001;-3.314673085696995E-004;6.686465931124985E-004;
2.427000000000000E+009;1.685168147087097E-001;-1.033473163843155E-001;-2.373414608882740E-004;5.022867117077112E-004;
2.427166666666667E+009;1.685521751642227E-001;-1.034746244549751E-001;-2.148794446839020E-004;5.249664536677301E-004;
2.427333333333334E+009;1.685200035572052E-001;-1.036957278847694E-001;-1.242359430762008E-004;4.482448566704989E-004;
2.427500000000000E+009;1.682440936565399E-001;-1.038769260048866E-001;-5.004070408176631E-005;2.946535241790116E-004;
2.427666666666667E+009;1.680928468704224E-001;-1.038611233234406E-001;-7.075924258970190E-006;3.440553846303374E-004;
2.427833333333334E+009;1.675219237804413E-001;-1.039785072207451E-001;4.502594310906716E-005;3.754993085749447E-004;
