# Version 1.00
#
freq[Hz];re:Trc1_S11;im:Trc1_S11;re:Trc2_S21;im:Trc2_S21;
2.400000000000000E+009;1.687234789133072E-001;4.701626673340797E-002;1.260472112335265E-003;2.705931197851896E-003;
2.400166666666667E+009;1.697910428047180E-001;4.612367600202560E-002;1.372977276332676E-003;2.509586047381163E-003;
2.400333333333334E+009;1.706233173608780E-001;4.483687132596970E-002;1.273320638574660E-003;2.308097667992115E-003;
2.400500000000000E+009;1.715876907110214E-001;4.386361315846443E-002;1.315111294388771E-003;2.334712306037545E-003;
2.400666666666667E+009;1.724405139684677E-001;4.288465529680252E-002;1.167066744528711E-003;2.182365860790014E-003;
2.400833333333334E+009;1.734735071659088E-001;4.220399633049965E-002;1.157763763330877E-003;1.933628809638321E-003;
2.401000000000000E+009;1.740833073854446E-001;4.122941568493843E-002;1.165498746559024E-003;1.777693512849510E-003;
2.401166666666667E+009;1.746639460325241E-001;4.062607884407044E-002;1.064045820385218E-003;2.043512882664800E-003;
2.401333333333334E+009;1.753060966730118E-001;3.985742852091789E-002;1.004585647024214E-003;2.019483130425215E-003;
2.401500000000000E+009;1.762986779212952E-001;3.926627710461617E-002;1.056291512213647E-003;1.751226955093443E-003;
2.401666666666667E+009;1.767835617065430E-001;3.867077082395554E-002;1.093782018870115E-003;1.758851110935211E-003;
2.401833333333334E+009;1.772392541170120E-001;3.800978884100914E-002;9.024304454214871E-004;1.780838123522699E-003;
2.402000000000000E+009;1.774517595767975E-001;3.742908686399460E-002;7.535198237746954E-004;1.807860215194523E-003;
2.402166666666667E+009;1.780201196670532E-001;3.675574436783791E-002;8.769117994233966E-004;1.848726999014616E-003;
2.402333333333334E+009;1.782861799001694E-001;3.596995025873184E-002;7.101712399162352E-004;1.742682419717312E-003;
2.402500000000000E+009;1.789055764675140E-001;3.537103533744812E-002;6.307857693172991E-004;1.968966098502278E-003;
2.402666666666667E+009;1.788101196289063E-001;3.480957075953484E-002;6.410336936824024E-004;1.849159016273916E-003;
2.402833333333334E+009;1.791154295206070E-001;3.409822657704353E-002;6.762648699805141E-004;1.883651129901409E-003;
2.403000000000000E+009;1.791781336069107E-001;3.337993472814560E-002;6.797793321311474E-004;2.058092737570405E-003;
2.403166666666667E+009;1.793083101511002E-001;3.243270888924599E-002;6.146847154013813E-004;2.051481045782566E-003;
2.403333333333334E+009;1.791996210813522E-001;3.168027848005295E-002;8.555838139727712E-004;2.040432533249259E-003;
2.403500000000000E+009;1.788463443517685E-001;3.056562505662441E-002;6.667837733402848E-004;2.258092863485217E-003;
2.403666666666667E+009;1.788087785243988E-001;2.957877516746521E-002;7.421681657433510E-004;2.238010289147496E-003;
2.403833333333334E+009;1.785521358251572E-001;2.855414152145386E-002;7.444982184097171E-004;2.283706795424223E-003;
2.404000000000000E+009;1.782540231943131E-001;2.730119973421097E-002;9.010984795168042E-004;2.415273338556290E-003;
2.404166666666667E+009;1.777854859828949E-001;2.593209221959114E-002;7.795562851242721E-004;2.470230683684349E-003;
2.404333333333334E+009;1.774863600730896E-001;2.477003447711468E-002;9.058022988028824E-004;2.726303879171610E-003;
2.404500000000000E+009;1.768783777952194E-001;2.345819771289825E-002;1.162941800430417E-003;2.876785350963473E-003;
2.404666666666667E+009;1.765528023242950E-001;2.206761576235294E-002;1.391173223964870E-003;2.843638183549047E-003;
2.404833333333334E+009;1.761759221553803E-001;2.053590305149555E-002;1.537736738100648E-003;2.949997549876571E-003;
2.405000000000000E+009;1.756436228752136E-001;1.876588910818100E-002;1.570576918311417E-003;2.994691720232368E-003;
2.405166666666667E+009;1.751353293657303E-001;1.737299375236034E-002;1.694770995527506E-003;2.872148994356394E-003;
2.405333333333334E+009;1.747416853904724E-001;1.568001694977284E-002;1.846190774813294E-003;2.853740472346544E-003;
2.405500000000000E+009;1.743415445089340E-001;1.400289963930845E-002;2.181966090574861E-003;2.847136696800590E-003;
2.405666666666667E+009;1.741162687540054E-001;1.238451991230249E-002;2.404210390523076E-003;2.898665843531489E-003;
2.405833333333334E+009;1.735141128301621E-001;1.050218474119902E-002;2.475769259035587E-003;2.866123570129275E-003;
2.406000000000000E+009;1.735686957836151E-001;8.459020406007767E-003;2.726055914536119E-003;2.868204144760966E-003;
2.406166666666667E+009;1.730544865131378E-001;6.655585020780563E-003;2.850452670827508E-003;2.753785811364651E-003;
2.406333333333334E+009;1.730577796697617E-001;4.839237779378891E-003;3.049801336601377E-003;2.688982756808400E-003;
2.406500000000000E+009;1.730114817619324E-001;2.742376178503037E-003;3.067288780584931E-003;2.720448886975646E-003;
2.406666666666667E+009;1.727249026298523E-001;6.925268098711968E-004;3.360541071742773E-003;2.674069954082370E-003;
2.406833333333334E+009;1.727864593267441E-001;-1.515886280685663E-003;3.594068344682455E-003;2.362086437642574E-003;
2.407000000000000E+009;1.728780120611191E-001;-3.478025319054723E-003;3.772765630856156E-003;2.438769210129976E-003;
2.407166666666667E+009;1.731945276260376E-001;-5.499822553247213E-003;3.846897976472974E-003;2.064807806164026E-003;
2.407333333333334E+009;1.731303632259369E-001;-7.649084553122520E-003;4.192067310214043E-003;2.021407242864370E-003;
2.407500000000000E+009;1.733531355857849E-001;-9.587451815605164E-003;4.227706696838141E-003;1.759669627062976E-003;
2.407666666666667E+009;1.737423390150070E-001;-1.166013535112143E-002;4.439732059836388E-003;1.633970299735665E-003;
2.407833333333334E+009;1.738715171813965E-001;-1.376231387257576E-002;4.468102939426899E-003;1.354864099994302E-003;
2.408000000000000E+009;1.743431240320206E-001;-1.572556421160698E-002;4.759320989251137E-003;1.187895191833377E-003;
2.408166666666667E+009;1.748519241809845E-001;-1.759190484881401E-002;4.672045353800058E-003;8.736135205253959E-004;
2.408333333333334E+009;1.753284633159638E-001;-1.954147405922413E-002;4.900049418210983E-003;5.890725878998637E-004;
2.408500000000000E+009;1.755785644054413E-001;-2.152430452406406E-002;4.918986465781927E-003;3.852728405036032E-004;
2.408666666666667E+009;1.760898530483246E-001;-2.328874170780182E-002;5.035888403654099E-003;7.297874981304631E-005;
2.408833333333334E+009;1.764141768217087E-001;-2.486881799995899E-002;4.963015671819449E-003;-2.426370483590290E-004;
2.409000000000000E+009;1.766945123672485E-001;-2.657880261540413E-002;4.772167652845383E-003;-5.216028657741845E-004;
2.409166666666667E+009;1.773226708173752E-001;-2.812959812581539E-002;4.650303162634373E-003;-8.589287754148245E-004;
2.409333333333334E+009;1.778829246759415E-001;-2.946180664002895E-002;4.800992552191019E-003;-1.268769265152514E-003;
2.409500000000000E+009;1.781949996948242E-001;-3.074045479297638E-002;4.516819026321173E-003;-1.425247057341039E-003;
2.409666666666667E+009;1.787389218807221E-001;-3.198147937655449E-002;4.443966317921877E-003;-1.529142027720809E-003;
2.409833333333334E+009;1.791244000196457E-001;-3.291534259915352E-002;4.471624270081520E-003;-1.739254337735474E-003;
2.410000000000000E+009;1.797242313623428E-001;-3.393898531794548E-002;4.181189462542534E-003;-1.991479191929102E-003;
2.410166666666667E+009;1.801276504993439E-001;-3.492231667041779E-002;4.153911024332047E-003;-2.130992012098432E-003;
2.410333333333334E+009;1.804429441690445E-001;-3.564014658331871E-002;4.025784786790609E-003;-2.296157181262970E-003;
2.410500000000000E+009;1.808670908212662E-001;-3.638476505875588E-002;3.912669606506825E-003;-2.364099258556962E-003;
2.410666666666667E+009;1.812231093645096E-001;-3.726561740040779E-002;3.589818021282554E-003;-2.554420381784439E-003;
2.410833333333334E+009;1.816627979278565E-001;-3.756265714764595E-002;3.491054521873593E-003;-2.707799430936575E-003;
2.411000000000000E+009;1.818685233592987E-001;-3.838335350155830E-002;3.406466683372855E-003;-2.653035335242748E-003;
2.411166666666667E+009;1.819433271884918E-001;-3.902373835444450E-002;3.162856912240386E-003;-2.765747718513012E-003;
2.411333333333334E+009;1.821494698524475E-001;-3.919169679284096E-002;3.064921125769615E-003;-2.952567767351866E-003;
2.411500000000000E+009;1.820752322673798E-001;-3.984905034303665E-002;2.933992538601160E-003;-3.087618155404925E-003;
2.411666666666667E+009;1.822894215583801E-001;-4.025528952479363E-002;2.821601228788495E-003;-2.869404852390289E-003;
2.411833333333334E+009;1.822145134210587E-001;-4.064149409532547E-002;2.753202570602298E-003;-3.103037830442190E-003;
2.412000000000000E+009;1.818820089101791E-001;-4.095904529094696E-002;2.474120352417231E-003;-3.125838236883283E-003;
2.412166666666667E+009;1.813718080520630E-001;-4.139770939946175E-002;2.478732261806727E-003;-3.225571708753705E-003;
2.412333333333334E+009;1.813145577907562E-001;-4.160205647349358E-002;2.217412460595369E-003;-3.326742909848690E-003;
2.412500000000000E+009;1.805520802736282E-001;-4.195705056190491E-002;2.096292795613408E-003;-3.317221999168396E-003;
2.412666666666667E+009;1.800904422998428E-001;-4.260357841849327E-002;1.911938423290849E-003;-3.343612421303988E-003;
2.412833333333334E+009;1.792437434196472E-001;-4.283837229013443E-002;1.785920350812376E-003;-3.453440498560667E-003;
2.413000000000000E+009;1.784944683313370E-001;-4.313470050692558E-002;1.622792799025774E-003;-3.304041456431150E-003;
2.413166666666667E+009;1.776251792907715E-001;-4.361818358302116E-002;1.502788974903524E-003;-3.344660624861717E-003;
2.413333333333334E+009;1.766165643930435E-001;-4.426761344075203E-002;1.602614880539477E-003;-3.356922650709748E-003;
2.413500000000000E+009;1.757165789604187E-001;-4.462473466992378E-002;1.429775264114142E-003;-3.548143198713660E-003;
2.413666666666667E+009;1.746698915958405E-001;-4.529654607176781E-002;1.253265421837568E-003;-3.362130606546998E-003;
2.413833333333334E+009;1.734793782234192E-001;-4.576311632990837E-002;1.138058491051197E-003;-3.419596701860428E-003;
2.414000000000000E+009;1.720812320709229E-001;-4.661677405238152E-002;1.064426614902914E-003;-3.404643386602402E-003;
2.414166666666667E+009;1.710748076438904E-001;-4.728108271956444E-002;1.007551327347755E-003;-3.573760157451034E-003;
2.414333333333334E+009;1.698731929063797E-001;-4.821255058050156E-002;7.926819962449372E-004;-3.342808224260807E-003;
2.414500000000000E+009;1.688525825738907E-001;-4.900445416569710E-002;6.084931083023548E-004;-3.632334992289543E-003;
2.414666666666667E+009;1.674033701419830E-001;-4.996304586529732E-002;6.331233889795840E-004;-3.465048968791962E-003;
2.414833333333334E+009;1.661629676818848E-001;-5.103611946105957E-002;4.136084462516010E-004;-3.456338774412870E-003;
2.415000000000000E+009;1.648814827203751E-001;-5.216493457555771E-002;3.172798897139728E-004;-3.389194142073393E-003;
2.415166666666667E+009;1.637309789657593E-001;-5.347368121147156E-002;8.620627340860665E-005;-3.335223766043782E-003;
2.415333333333334E+009;1.626694351434708E-001;-5.478472635149956E-002;1.332962419837713E-004;-3.246375825256109E-003;
2.415500000000000E+009;1.616305261850357E-001;-5.610948055982590E-002;3.468060094746761E-005;-3.338335547596216E-003;
2.415666666666667E+009;1.603707522153854E-001;-5.761088058352470E-002;-2.692621819733176E-005;-3.205813467502594E-003;
2.415833333333334E+009;1.593838185071945E-001;-5.921239033341408E-002;-1.392969279550016E-004;-3.209947841241956E-003;
2.416000000000000E+009;1.581821143627167E-001;-6.090530008077622E-002;-3.166263340972364E-004;-3.106801770627499E-003;
2.416166666666667E+009;1.573575735092163E-001;-6.268309801816940E-002;-2.502411662135273E-004;-2.993982052430511E-003;
2.416333333333334E+009;1.563817411661148E-001;-6.440053880214691E-002;-3.084278141614050E-004;-3.087323158979416E-003;
2.416500000000000E+009;1.555170267820358E-001;-6.617315858602524E-002;-3.187815018463880E-004;-2.968045184388757E-003;
2.416666666666667E+009;1.546245962381363E-001;-6.800213456153870E-002;-4.723507154267281E-004;-2.920255064964294E-003;
2.416833333333334E+009;1.538117974996567E-001;-7.001450657844544E-002;-5.245727370493114E-004;-2.886896487325430E-003;
2.417000000000000E+009;1.530232131481171E-001;-7.192194461822510E-002;-6.836425163783133E-004;-2.737070899456739E-003;
2.417166666666667E+009;1.523813903331757E-001;-7.380630820989609E-002;-5.565119208768010E-004;-2.633555326610804E-003;
2.417333333333334E+009;1.518818885087967E-001;-7.580636441707611E-002;-6.634553428739309E-004;-2.626744797453284E-003;
2.417500000000000E+009;1.514435559511185E-001;-7.786898314952850E-002;-5.790157010778785E-004;-2.621281193569303E-003;
2.417666666666667E+009;1.510437130928040E-001;-7.943367958068848E-002;-5.920144030824304E-004;-2.615384291857481E-003;
2.417833333333334E+009;1.506488472223282E-001;-8.133550733327866E-002;-5.959468544460833E-004;-2.567506162449718E-003;
2.418000000000000E+009;1.502894312143326E-001;-8.326441794633865E-002;-6.087186047807336E-004;-2.618816681206226E-003;
2.418166666666667E+009;1.500491201877594E-001;-8.482760936021805E-002;-8.060931577347219E-004;-2.643808024004102E-003;
2.418333333333334E+009;1.501697897911072E-001;-8.666910231113434E-002;-6.113771232776344E-004;-2.688174834474921E-003;
2.418500000000000E+009;1.499364674091339E-001;-8.818418532609940E-002;-9.152299026027322E-004;-2.623260952532291E-003;
2.418666666666667E+009;1.500008106231690E-001;-8.972097188234329E-002;-7.587419822812080E-004;-2.766759600490332E-003;
2.418833333333334E+009;1.498323529958725E-001;-9.124634414911270E-002;-9.525425266474485E-004;-2.698792610317469E-003;
2.419000000000000E+009;1.497544199228287E-001;-9.239635616540909E-002;-1.016761059872806E-003;-2.824285766109824E-003;
2.419166666666667E+009;1.500271409749985E-001;-9.373653680086136E-002;-1.025712350383401E-003;-2.782591618597508E-003;
2.419333333333334E+009;1.500066816806793E-001;-9.473191946744919E-002;-1.141170156188309E-003;-2.870238618925214E-003;
2.419500000000000E+009;1.502696573734283E-001;-9.599155932664871E-002;-1.296570873819292E-003;-2.720408840104938E-003;
2.419666666666667E+009;1.505986899137497E-001;-9.695838391780853E-002;-1.481215818785131E-003;-2.732046414166689E-003;
2.419833333333334E+009;1.506174057722092E-001;-9.738283604383469E-002;-1.674565835855901E-003;-2.580406609922648E-003;
2.420000000000000E+009;1.510211229324341E-001;-9.810934960842133E-002;-1.611951855011284E-003;-2.598238177597523E-003;
2.420166666666667E+009;1.512983441352844E-001;-9.868523478507996E-002;-1.848456216976047E-003;-2.550872974097729E-003;
2.420333333333334E+009;1.517597287893295E-001;-9.921654313802719E-002;-1.896289875730872E-003;-2.454385394230485E-003;
2.420500000000000E+009;1.518951356410980E-001;-9.944206476211548E-002;-1.909792423248291E-003;-2.431861124932766E-003;
2.420666666666667E+009;1.520460546016693E-001;-9.951152652502060E-002;-1.962406560778618E-003;-2.362505299970508E-003;
2.420833333333334E+009;1.525482088327408E-001;-9.979007393121719E-002;-1.950925448909402E-003;-2.407342661172152E-003;
2.421000000000000E+009;1.526120305061340E-001;-9.995625168085098E-002;-2.026529749855399E-003;-2.334164222702384E-003;
2.421166666666667E+009;1.527961641550064E-001;-9.998514503240585E-002;-2.121711848303676E-003;-2.327876631170511E-003;
2.421333333333334E+009;1.531038880348206E-001;-9.978111833333969E-002;-2.322078915312886E-003;-2.127385465428233E-003;
2.421500000000000E+009;1.529727131128311E-001;-9.967997670173645E-002;-2.226814627647400E-003;-2.146735088899732E-003;
2.421666666666667E+009;1.531842350959778E-001;-9.939838200807571E-002;-2.394721144810319E-003;-1.982168992981315E-003;
2.421833333333334E+009;1.529933810234070E-001;-9.919691830873489E-002;-2.457348862662911E-003;-2.047795802354813E-003;
2.422000000000000E+009;1.529014557600021E-001;-9.913261979818344E-002;-2.444505458697677E-003;-1.880699885077775E-003;
2.422166666666667E+009;1.525228619575501E-001;-9.891580790281296E-002;-2.530951984226704E-003;-1.844202401116490E-003;
2.422333333333334E+009;1.523610800504684E-001;-9.850108623504639E-002;-2.450124127790332E-003;-1.874747336842120E-003;
2.422500000000000E+009;1.517357826232910E-001;-9.797703474760056E-002;-2.640316961333156E-003;-1.798113924451172E-003;
2.422666666666667E+009;1.511067003011704E-001;-9.788821637630463E-002;-2.726699924096465E-003;-1.756425248458982E-003;
2.422833333333334E+009;1.504458636045456E-001;-9.757348895072937E-002;-2.826978685334325E-003;-1.623636344447732E-003;
2.423000000000000E+009;1.496849954128265E-001;-9.703747183084488E-002;-2.779686590656638E-003;-1.617789617739618E-003;
2.423166666666667E+009;1.489470154047012E-001;-9.685103595256805E-002;-2.827576361596584E-003;-1.522491336800158E-003;
2.423333333333334E+009;1.478495299816132E-001;-9.634500741958618E-002;-2.859116299077869E-003;-1.472396194003522E-003;
2.423500000000000E+009;1.467336565256119E-001;-9.604047983884811E-002;-3.049357794225216E-003;-1.383058843202889E-003;
2.423666666666667E+009;1.453918218612671E-001;-9.597374498844147E-002;-3.046792000532150E-003;-1.259604468941689E-003;
2.423833333333334E+009;1.442766636610031E-001;-9.567228704690933E-002;-3.066466189920902E-003;-1.322851283475757E-003;
2.424000000000000E+009;1.429257094860077E-001;-9.549847990274429E-002;-3.261939389631152E-003;-1.032246742397547E-003;
2.424166666666667E+009;1.415089666843414E-001;-9.533672034740448E-002;-3.302733181044459E-003;-1.027433667331934E-003;
2.424333333333334E+009;1.402460485696793E-001;-9.512363374233246E-002;-3.232070244848728E-003;-8.062409469857812E-004;
2.424500000000000E+009;1.386490613222122E-001;-9.534197300672531E-002;-3.182466141879559E-003;-8.563092560507357E-004;
2.424666666666667E+009;1.374267488718033E-001;-9.521359950304031E-002;-3.277512267231941E-003;-7.338951108977199E-004;
2.424833333333334E+009;1.357238143682480E-001;-9.548237174749374E-002;-3.361315932124853E-003;-6.713495822623372E-004;
2.425000000000000E+009;1.341556906700134E-001;-9.579554945230484E-002;-3.548200475051999E-003;-5.593719542957842E-004;
2.425166666666667E+009;1.325336545705795E-001;-9.622981399297714E-002;-3.638768102973700E-003;-3.827978798653930E-004;
2.425333333333334E+009;1.311781704425812E-001;-9.678401798009872E-002;-3.615775844082236E-003;-3.136889718007296E-004;
2.425500000000000E+009;1.297801882028580E-001;-9.748128801584244E-002;-3.699649590998888E-003;-6.772773485863581E-005;
2.425666666666667E+009;1.281852722167969E-001;-9.831709414720535E-002;-3.644043579697609E-003;1.034124798025005E-004;
2.425833333333334E+009;1.267982423305512E-001;-9.908475726842880E-002;-3.751702141016722E-003;1.708942290861160E-004;
2.426000000000000E+009;1.253881603479385E-001;-1.002257689833641E-001;-3.740567946806550E-003;2.657322620507330E-004;
2.426166666666667E+009;1.241645589470863E-001;-1.012861654162407E-001;-3.741835942491889E-003;6.203527445904911E-004;
2.426333333333334E+009;1.227391883730888E-001;-1.024532020092011E-001;-3.755203913897276E-003;6.424923194572330E-004;
2.426500000000000E+009;1.215227693319321E-001;-1.037844121456146E-001;-3.740880638360977E-003;8.535815868526697E-004;
2.426666666666667E+009;1.205187365412712E-001;-1.052099540829659E-001;-3.536197822540999E-003;1.052382984198630E-003;
2.426833333333334E+009;1.193391308188438E-001;-1.066118553280830E-001;-3.474364290013909E-003;1.344935502856970E-003;
2.427000000000000E+009;1.182684898376465E-001;-1.082655116915703E-001;-3.354364540427923E-003;1.581803662702441E-003;
2.427166666666667E+009;1.172897517681122E-001;-1.097494512796402E-001;-3.258573357015848E-003;1.537709147669375E-003;
2.427333333333334E+009;1.161797940731049E-001;-1.116181313991547E-001;-3.162336302921176E-003;1.688543357886374E-003;
2.427500000000000E+009;1.155982315540314E-001;-1.132669970393181E-001;-2.820532303303480E-003;1.895296620205045E-003;
2.427666666666667E+009;1.147697046399117E-001;-1.150142103433609E-001;-2.900688210502267E-003;2.015515929087997E-003;
