# Version 1.00
#
freq[Hz];re:Trc1_S11;im:Trc1_S11;re:Trc2_S21;im:Trc2_S21;
2.400000000000000E+009;1.691738963127136E-001;4.585595056414604E-002;-1.683847280219197E-003;3.831814741715789E-003;
2.400166666666667E+009;1.701001673936844E-001;4.480145871639252E-002;-1.593658002093434E-003;3.783310297876597E-003;
2.400333333333334E+009;1.709654480218887E-001;4.376284405589104E-002;-1.387154450640082E-003;3.722892142832279E-003;
2.400500000000000E+009;1.719633489847183E-001;4.258305579423904E-002;-1.266561332158744E-003;3.624274628236890E-003;
2.400666666666667E+009;1.728717684745789E-001;4.152857512235642E-002;-1.141014974564314E-003;3.725795308127999E-003;
2.400833333333334E+009;1.739251613616943E-001;4.085925221443176E-002;-9.950877865776420E-004;3.782692365348339E-003;
2.401000000000000E+009;1.744296699762344E-001;4.005286097526550E-002;-9.337569936178625E-004;3.757293336093426E-003;
2.401166666666667E+009;1.752570271492004E-001;3.926122188568115E-002;-8.095398661680520E-004;3.769963048398495E-003;
2.401333333333334E+009;1.758545041084290E-001;3.850344941020012E-002;-6.827607285231352E-004;3.827910404652357E-003;
2.401500000000000E+009;1.765812784433365E-001;3.810447826981545E-002;-5.437020445242524E-004;3.747913986444473E-003;
2.401666666666667E+009;1.771791875362396E-001;3.760579973459244E-002;-4.517814668361098E-004;3.671672195196152E-003;
2.401833333333334E+009;1.778539121150971E-001;3.688485175371170E-002;-2.969979541376233E-004;3.739660605788231E-003;
2.402000000000000E+009;1.782412678003311E-001;3.620263561606407E-002;-5.116791362524964E-005;3.698023967444897E-003;
2.402166666666667E+009;1.787339746952057E-001;3.562924638390541E-002;3.752700649783947E-005;3.753404133021832E-003;
2.402333333333334E+009;1.788864582777023E-001;3.505644574761391E-002;4.369891030364670E-005;3.584363730624318E-003;
2.402500000000000E+009;1.793464124202728E-001;3.436364978551865E-002;2.592679229564965E-004;3.569667926058173E-003;
2.402666666666667E+009;1.795139759778976E-001;3.389522805809975E-002;1.563323021400720E-004;3.434238256886601E-003;
2.402833333333334E+009;1.798260807991028E-001;3.309076651930809E-002;2.599474391900003E-004;3.420161549001932E-003;
2.403000000000000E+009;1.797850579023361E-001;3.237874805927277E-002;3.636685432866216E-004;3.295186907052994E-003;
2.403166666666667E+009;1.798784434795380E-001;3.167432174086571E-002;4.261232388671488E-004;3.286487422883511E-003;
2.403333333333334E+009;1.795972287654877E-001;3.084819763898850E-002;4.113173054065555E-004;3.322700038552284E-003;
2.403500000000000E+009;1.794074773788452E-001;3.013198636472225E-002;4.597623483277857E-004;3.139154752716422E-003;
2.403666666666667E+009;1.792657971382141E-001;2.894819900393486E-002;4.506117547862232E-004;3.073919331654906E-003;
2.403833333333334E+009;1.790594607591629E-001;2.797440811991692E-002;2.392288588453084E-004;3.133123507723212E-003;
2.404000000000000E+009;1.785662770271301E-001;2.691480703651905E-002;4.902888904325664E-004;3.157953266054392E-003;
2.404166666666667E+009;1.782922446727753E-001;2.558044530451298E-002;8.288972312584519E-004;3.373056417331100E-003;
2.404333333333334E+009;1.778060048818588E-001;2.458108961582184E-002;7.949519203975797E-004;3.141988301649690E-003;
2.404500000000000E+009;1.773467808961868E-001;2.320186980068684E-002;7.414348656311631E-004;3.194599878042936E-003;
2.404666666666667E+009;1.768518090248108E-001;2.202091552317143E-002;8.939626859501004E-004;3.111046506091952E-003;
2.404833333333334E+009;1.763115674257278E-001;2.039009332656860E-002;8.224428165704012E-004;3.300826065242291E-003;
2.405000000000000E+009;1.758763045072556E-001;1.894732192158699E-002;1.192571828141809E-003;3.327046986669302E-003;
2.405166666666667E+009;1.754312366247177E-001;1.733409613370895E-002;1.277364324778318E-003;3.251850605010986E-003;
2.405333333333334E+009;1.749043613672257E-001;1.568501070141792E-002;1.343235373497009E-003;3.170783165842295E-003;
2.405500000000000E+009;1.745713353157044E-001;1.418430544435978E-002;1.436119782738388E-003;3.304986516013742E-003;
2.405666666666667E+009;1.741909831762314E-001;1.243331376463175E-002;1.553987734951079E-003;3.353649750351906E-003;
2.405833333333334E+009;1.737633496522903E-001;1.071751397103071E-002;1.857745693996549E-003;3.102050395682454E-003;
2.406000000000000E+009;1.734715104103088E-001;8.698101155459881E-003;1.733131473883987E-003;3.113664686679840E-003;
2.406166666666667E+009;1.731137186288834E-001;6.951211020350456E-003;2.054289216175675E-003;3.073935164138675E-003;
2.406333333333334E+009;1.731475293636322E-001;4.970283713191748E-003;2.169046550989151E-003;3.084277734160423E-003;
2.406500000000000E+009;1.728208661079407E-001;2.925435313954949E-003;2.250640420243144E-003;2.971723210066557E-003;
2.406666666666667E+009;1.727359592914581E-001;1.058763242326677E-003;2.444064477458596E-003;2.857488580048084E-003;
2.406833333333334E+009;1.727558970451355E-001;-1.105609931983054E-003;2.632167655974627E-003;2.788854762911797E-003;
2.407000000000000E+009;1.728089451789856E-001;-3.198390826582909E-003;2.542822388932109E-003;2.670967252925038E-003;
2.407166666666667E+009;1.729070097208023E-001;-5.218725185841322E-003;2.771250903606415E-003;2.664756262674928E-003;
2.407333333333334E+009;1.730512231588364E-001;-7.438191212713718E-003;2.898228820413351E-003;2.475636312738061E-003;
2.407500000000000E+009;1.731956899166107E-001;-9.371473453938961E-003;3.307092003524303E-003;2.360003534704447E-003;
2.407666666666667E+009;1.735816150903702E-001;-1.144278235733509E-002;3.181592328473926E-003;2.183608012273908E-003;
2.407833333333334E+009;1.737325787544251E-001;-1.383273117244244E-002;3.283835947513580E-003;1.863826881162822E-003;
2.408000000000000E+009;1.741082072257996E-001;-1.594784110784531E-002;3.465686924755573E-003;1.776744844391942E-003;
2.408166666666667E+009;1.745896786451340E-001;-1.772092655301094E-002;3.418906359001994E-003;1.613807165995240E-003;
2.408333333333334E+009;1.750979125499725E-001;-1.977607980370522E-002;3.466774476692081E-003;1.273968839086592E-003;
2.408500000000000E+009;1.754897683858872E-001;-2.174451574683189E-002;3.455776721239090E-003;1.090681878849864E-003;
2.408666666666667E+009;1.757786273956299E-001;-2.359405905008316E-002;3.543258644640446E-003;8.662993786856532E-004;
2.408833333333334E+009;1.760886311531067E-001;-2.542109228670597E-002;3.495360026136041E-003;7.067426340654492E-004;
2.409000000000000E+009;1.766295880079269E-001;-2.702026627957821E-002;3.457026788964868E-003;4.065672110300511E-004;
2.409166666666667E+009;1.769649684429169E-001;-2.858109213411808E-002;3.463005181401968E-003;1.952496240846813E-004;
2.409333333333334E+009;1.775206476449966E-001;-3.020295500755310E-002;3.141013439744711E-003;1.243315928149968E-004;
2.409500000000000E+009;1.778528839349747E-001;-3.154275938868523E-002;3.145710565149784E-003;-4.482003350858577E-005;
2.409666666666667E+009;1.781566739082336E-001;-3.265721350908279E-002;3.044480457901955E-003;-1.882114593172446E-004;
2.409833333333334E+009;1.784980744123459E-001;-3.382032737135887E-002;2.892564283683896E-003;-3.678301291074604E-004;
2.410000000000000E+009;1.792427748441696E-001;-3.472999110817909E-002;2.822748385369778E-003;-3.326770383864641E-004;
2.410166666666667E+009;1.796958148479462E-001;-3.577082976698875E-002;2.683163620531559E-003;-3.468210925348103E-004;
2.410333333333334E+009;1.801324933767319E-001;-3.660476952791214E-002;2.547510666772723E-003;-4.988462314940989E-004;
2.410500000000000E+009;1.803376078605652E-001;-3.728445246815682E-002;2.372073009610176E-003;-5.686960066668689E-004;
2.410666666666667E+009;1.806573867797852E-001;-3.809358552098274E-002;2.254378516227007E-003;-5.578178679570556E-004;
2.410833333333334E+009;1.812443584203720E-001;-3.862692788243294E-002;2.318107057362795E-003;-5.771801806986332E-004;
2.411000000000000E+009;1.813898831605911E-001;-3.912829235196114E-002;2.207324374467135E-003;-6.252804887481034E-004;
2.411166666666667E+009;1.816714555025101E-001;-3.968942537903786E-002;2.069332636892796E-003;-7.442872738465667E-004;
2.411333333333334E+009;1.817477345466614E-001;-4.044829681515694E-002;1.933024148456752E-003;-6.849829806014895E-004;
2.411500000000000E+009;1.819114536046982E-001;-4.092260822653770E-002;1.956479623913765E-003;-6.104249041527510E-004;
2.411666666666667E+009;1.820511519908905E-001;-4.129701107740402E-002;1.919864094816148E-003;-5.721963825635612E-004;
2.411833333333334E+009;1.819054782390595E-001;-4.156780242919922E-002;1.802555401809514E-003;-7.284824387170374E-004;
2.412000000000000E+009;1.818103343248367E-001;-4.201820120215416E-002;1.760562648996711E-003;-7.748561911284924E-004;
2.412166666666667E+009;1.813296079635620E-001;-4.251235723495483E-002;1.688493182882667E-003;-7.142052636481822E-004;
2.412333333333334E+009;1.813424676656723E-001;-4.272336140275002E-002;1.660447684116662E-003;-6.329457974061370E-004;
2.412500000000000E+009;1.805368512868881E-001;-4.299334064126015E-002;1.599352341145277E-003;-7.385125500150025E-004;
2.412666666666667E+009;1.801172792911530E-001;-4.360385239124298E-002;1.554424641653895E-003;-6.917142309248447E-004;
2.412833333333334E+009;1.794088482856751E-001;-4.393561556935310E-002;1.384909846819937E-003;-7.150085293687880E-004;
2.413000000000000E+009;1.787234097719193E-001;-4.426356405019760E-002;1.459515769965947E-003;-6.907134666107595E-004;
2.413166666666667E+009;1.776874661445618E-001;-4.474272578954697E-002;1.174671342596412E-003;-6.316401413641870E-004;
2.413333333333334E+009;1.767840832471848E-001;-4.507147148251534E-002;1.129582640714943E-003;-6.955681601539254E-004;
2.413500000000000E+009;1.756986379623413E-001;-4.562993720173836E-002;1.215016469359398E-003;-5.517192184925079E-004;
2.413666666666667E+009;1.750834286212921E-001;-4.632409289479256E-002;1.244561397470534E-003;-4.783126350957900E-004;
2.413833333333334E+009;1.738043874502182E-001;-4.675158113241196E-002;1.234350958839059E-003;-6.268695578910410E-004;
2.414000000000000E+009;1.726287454366684E-001;-4.749070480465889E-002;1.080378540791571E-003;-3.775325894821435E-004;
2.414166666666667E+009;1.716193258762360E-001;-4.811089858412743E-002;1.004261313937604E-003;-4.826535587199032E-004;
2.414333333333334E+009;1.704061627388001E-001;-4.889575392007828E-002;1.035983790643513E-003;-3.087076474912465E-004;
2.414500000000000E+009;1.693599969148636E-001;-4.972387850284576E-002;9.147793753072619E-004;-3.164625959470868E-004;
2.414666666666667E+009;1.680260598659515E-001;-5.064613744616509E-002;9.504273766651750E-004;-2.488194149918854E-004;
2.414833333333334E+009;1.666816771030426E-001;-5.171713605523109E-002;1.011051936075091E-003;-1.996954815695062E-004;
2.415000000000000E+009;1.654754281044006E-001;-5.292602628469467E-002;1.041308278217912E-003;-6.356935773510486E-005;
2.415166666666667E+009;1.642570942640305E-001;-5.406782776117325E-002;1.122538582421839E-003;-2.021138207055628E-004;
2.415333333333334E+009;1.631941646337509E-001;-5.523113906383514E-002;1.253892900422216E-003;7.841596379876137E-005;
2.415500000000000E+009;1.620985865592957E-001;-5.661328509449959E-002;1.274219597689807E-003;6.904402107466012E-005;
2.415666666666667E+009;1.607683897018433E-001;-5.802197381854057E-002;1.383883412927389E-003;1.376914296997711E-004;
2.415833333333334E+009;1.599037796258926E-001;-5.963609367609024E-002;1.469011651352048E-003;2.440092939650640E-004;
2.416000000000000E+009;1.586211621761322E-001;-6.132432445883751E-002;1.549879671074450E-003;2.843843503796961E-005;
2.416166666666667E+009;1.577772647142410E-001;-6.301251053810120E-002;1.614992390386760E-003;1.047984333126806E-004;
2.416333333333334E+009;1.566780805587769E-001;-6.465788930654526E-002;1.754579949192703E-003;-1.327611585111299E-006;
2.416500000000000E+009;1.558655947446823E-001;-6.652431190013886E-002;1.950765494257212E-003;1.897380716400221E-004;
2.416666666666667E+009;1.549043506383896E-001;-6.839932501316071E-002;2.099976409226656E-003;9.130991384154186E-005;
2.416833333333334E+009;1.542901992797852E-001;-7.038933783769608E-002;2.214033855125308E-003;1.364569470752031E-004;
2.417000000000000E+009;1.532923579216003E-001;-7.233551144599915E-002;2.240218920633197E-003;1.328315011051018E-005;
2.417166666666667E+009;1.526271700859070E-001;-7.409591972827911E-002;2.385188592597842E-003;-5.916264854022302E-005;
2.417333333333334E+009;1.520033627748489E-001;-7.595361769199371E-002;2.558352658525109E-003;-3.252045135013759E-004;
2.417500000000000E+009;1.513290852308273E-001;-7.807038724422455E-002;2.476445632055402E-003;-4.834189603570849E-004;
2.417666666666667E+009;1.509760916233063E-001;-7.987311482429504E-002;2.762816380709410E-003;-4.142355464864522E-004;
2.417833333333334E+009;1.505965292453766E-001;-8.166670799255371E-002;2.726567443460226E-003;-5.400097579695284E-004;
2.418000000000000E+009;1.500926464796066E-001;-8.355899900197983E-002;2.955690957605839E-003;-7.920996285974979E-004;
2.418166666666667E+009;1.498236358165741E-001;-8.507823199033737E-002;2.847634721547365E-003;-1.054478343576193E-003;
2.418333333333334E+009;1.497038751840591E-001;-8.686244487762451E-002;2.976242918521166E-003;-1.202297629788518E-003;
2.418500000000000E+009;1.496118158102036E-001;-8.842454850673676E-002;2.978487405925989E-003;-1.355555956251919E-003;
2.418666666666667E+009;1.494033783674240E-001;-8.988997340202332E-002;2.911075949668884E-003;-1.673301449045539E-003;
2.418833333333334E+009;1.493151336908341E-001;-9.150651842355728E-002;2.938688965514302E-003;-1.804311294108629E-003;
2.419000000000000E+009;1.493077725172043E-001;-9.265573322772980E-002;2.690131776034832E-003;-2.062396612018347E-003;
2.419166666666667E+009;1.494142413139343E-001;-9.399400651454926E-002;2.745050936937332E-003;-2.138173673301935E-003;
2.419333333333334E+009;1.493793576955795E-001;-9.496649354696274E-002;2.644261810928583E-003;-2.252913080155850E-003;
2.419500000000000E+009;1.496137082576752E-001;-9.614995121955872E-002;2.523226663470268E-003;-2.493993379175663E-003;
2.419666666666667E+009;1.498987525701523E-001;-9.702128916978836E-002;2.397192642092705E-003;-2.532834187150002E-003;
2.419833333333334E+009;1.499938517808914E-001;-9.782987833023071E-002;2.222487470135093E-003;-2.701591467484832E-003;
2.420000000000000E+009;1.502707153558731E-001;-9.848053753376007E-002;2.150945831090212E-003;-2.771990140900016E-003;
2.420166666666667E+009;1.506792753934860E-001;-9.900083392858505E-002;2.025942550972104E-003;-2.642115810886025E-003;
2.420333333333334E+009;1.509107649326325E-001;-9.955362975597382E-002;1.961209345608950E-003;-2.760909963399172E-003;
2.420500000000000E+009;1.511717140674591E-001;-9.978292137384415E-002;1.758069731295109E-003;-2.851988188922405E-003;
2.420666666666667E+009;1.513418257236481E-001;-9.987668693065643E-002;1.600573305040598E-003;-3.018303308635950E-003;
2.420833333333334E+009;1.517385840415955E-001;-1.001255065202713E-001;1.422000350430608E-003;-3.110305638983846E-003;
2.421000000000000E+009;1.518970876932144E-001;-1.003188863396645E-001;1.559609780088067E-003;-3.196521196514368E-003;
2.421166666666667E+009;1.520354151725769E-001;-1.001989692449570E-001;1.351660466752946E-003;-3.194762626662850E-003;
2.421333333333334E+009;1.522804796695709E-001;-1.004323363304138E-001;1.320787821896374E-003;-3.260550089180470E-003;
2.421500000000000E+009;1.523879170417786E-001;-1.001129597425461E-001;1.233292277902365E-003;-3.355035092681646E-003;
2.421666666666667E+009;1.522334963083267E-001;-1.001340746879578E-001;1.143013010732830E-003;-3.450273070484400E-003;
2.421833333333334E+009;1.523616611957550E-001;-9.975770115852356E-002;1.267393119633198E-003;-3.463542088866234E-003;
2.422000000000000E+009;1.520219296216965E-001;-9.955177456140518E-002;9.979781461879611E-004;-3.528052940964699E-003;
2.422166666666667E+009;1.519255340099335E-001;-9.962236136198044E-002;8.787518017925322E-004;-3.678412176668644E-003;
2.422333333333334E+009;1.515059024095535E-001;-9.900978952646256E-002;8.648165385238826E-004;-3.860214026644826E-003;
2.422500000000000E+009;1.512116640806198E-001;-9.864368289709091E-002;6.665757973678410E-004;-3.775444580242038E-003;
2.422666666666667E+009;1.506235599517822E-001;-9.850502759218216E-002;6.276674685068429E-004;-3.993203863501549E-003;
2.422833333333334E+009;1.499876827001572E-001;-9.812790155410767E-002;4.598088271450251E-004;-4.256410058587790E-003;
2.423000000000000E+009;1.492074877023697E-001;-9.776354581117630E-002;2.776366891339421E-004;-4.246577154844999E-003;
2.423166666666667E+009;1.482630074024200E-001;-9.750621020793915E-002;3.639123679022305E-005;-4.432595334947109E-003;
2.423333333333334E+009;1.474230140447617E-001;-9.700658172369003E-002;-1.413757272530347E-004;-4.500866867601872E-003;
2.423500000000000E+009;1.463225483894348E-001;-9.675694257020950E-002;-3.268435248173773E-004;-4.679257515817881E-003;
2.423666666666667E+009;1.451028138399124E-001;-9.672529250383377E-002;-7.336430717259646E-004;-4.481201991438866E-003;
2.423833333333334E+009;1.440086662769318E-001;-9.648745507001877E-002;-9.583023493178189E-004;-4.476843867450953E-003;
2.424000000000000E+009;1.427415758371353E-001;-9.610120207071304E-002;-1.015243120491505E-003;-4.499987699091435E-003;
2.424166666666667E+009;1.412153840065002E-001;-9.612011909484863E-002;-1.371192862279713E-003;-4.391742870211601E-003;
2.424333333333334E+009;1.400091946125031E-001;-9.599833935499191E-002;-1.545445993542671E-003;-4.456238355487585E-003;
2.424500000000000E+009;1.385740786790848E-001;-9.604953229427338E-002;-1.802695682272315E-003;-4.330093506723642E-003;
2.424666666666667E+009;1.372353136539459E-001;-9.586327522993088E-002;-2.020002575591207E-003;-4.247766919434071E-003;
2.424833333333334E+009;1.356892138719559E-001;-9.625112265348434E-002;-2.327045658603311E-003;-4.070734605193138E-003;
2.425000000000000E+009;1.343294978141785E-001;-9.664531052112579E-002;-2.616818062961102E-003;-4.073749296367168E-003;
2.425166666666667E+009;1.327120512723923E-001;-9.707685559988022E-002;-2.907844958826900E-003;-3.808143548667431E-003;
2.425333333333334E+009;1.312095820903778E-001;-9.748187661170960E-002;-2.857594285160303E-003;-3.737205406650901E-003;
2.425500000000000E+009;1.298780292272568E-001;-9.819498658180237E-002;-3.109376411885023E-003;-3.507684916257858E-003;
2.425666666666667E+009;1.282165497541428E-001;-9.894400835037231E-002;-3.259025281295180E-003;-3.417103318497539E-003;
2.425833333333334E+009;1.268483847379684E-001;-9.991009533405304E-002;-3.519933205097914E-003;-3.137653693556786E-003;
2.426000000000000E+009;1.254418343305588E-001;-1.008796468377113E-001;-3.483340842649341E-003;-2.996435388922691E-003;
2.426166666666667E+009;1.242871582508087E-001;-1.019999012351036E-001;-3.535130294039846E-003;-2.652325667440891E-003;
2.426333333333334E+009;1.228783205151558E-001;-1.031679213047028E-001;-3.830496687442064E-003;-2.564384602010250E-003;
2.426500000000000E+009;1.215331479907036E-001;-1.045296117663384E-001;-3.840955672785640E-003;-2.268928103148937E-003;
2.426666666666667E+009;1.205687820911408E-001;-1.057664230465889E-001;-3.847234416753054E-003;-2.116428222507238E-003;
2.426833333333334E+009;1.194416061043739E-001;-1.072578504681587E-001;-3.920694347470999E-003;-1.906906254589558E-003;
2.427000000000000E+009;1.182866990566254E-001;-1.088777184486389E-001;-3.885904094204307E-003;-1.641642418690026E-003;
2.427166666666667E+009;1.172429770231247E-001;-1.103558540344238E-001;-3.952161874622107E-003;-1.440040301531553E-003;
2.427333333333334E+009;1.163102015852928E-001;-1.120949462056160E-001;-3.859346034005284E-003;-1.369511359371245E-003;
2.427500000000000E+009;1.156931146979332E-001;-1.137368157505989E-001;-3.878887277096510E-003;-1.134320045821369E-003;
2.427666666666667E+009;1.149317100644112E-001;-1.155259981751442E-001;-3.927697427570820E-003;-1.075407024472952E-003;
