# Version 1.00
#
freq[Hz];re:Trc1_S11;im:Trc1_S11;re:Trc2_S21;im:Trc2_S21;
2.400000000000000E+009;1.559709459543228E-001;6.008675321936607E-002;-3.515818854793906E-003;6.776524242013693E-004;
2.400166666666667E+009;1.562378108501434E-001;5.840657651424408E-002;-3.590781707316637E-003;8.234160486608744E-004;
2.400333333333334E+009;1.561146974563599E-001;5.631090700626373E-002;-3.552817972376943E-003;1.028677099384368E-003;
2.400500000000000E+009;1.565535813570023E-001;5.425646901130676E-002;-3.405824070796371E-003;1.053149229846895E-003;
2.400666666666667E+009;1.566995233297348E-001;5.205840617418289E-002;-3.391481470316649E-003;9.239705395884812E-004;
2.400833333333334E+009;1.572096943855286E-001;5.011892691254616E-002;-3.376762149855495E-003;1.084161107428372E-003;
2.401000000000000E+009;1.573742926120758E-001;4.789210110902786E-002;-3.384711453691125E-003;1.126145827583969E-003;
2.401166666666667E+009;1.577992439270020E-001;4.577997326850891E-002;-3.385386895388365E-003;1.327114063315094E-003;
2.401333333333334E+009;1.583552509546280E-001;4.380472004413605E-002;-3.174991114065051E-003;1.245055347681046E-003;
2.401500000000000E+009;1.588498055934906E-001;4.167882353067398E-002;-3.142172470688820E-003;1.372309401631355E-003;
2.401666666666667E+009;1.594820171594620E-001;3.977539017796516E-002;-3.118143184110522E-003;1.352850929833949E-003;
2.401833333333334E+009;1.601025909185410E-001;3.761174157261848E-002;-3.037094837054610E-003;1.491693081334233E-003;
2.402000000000000E+009;1.606264263391495E-001;3.599239513278008E-002;-2.927379449829459E-003;1.372965867631137E-003;
2.402166666666667E+009;1.612973511219025E-001;3.400959447026253E-002;-2.829432487487793E-003;1.602864707820118E-003;
2.402333333333334E+009;1.622206568717957E-001;3.235336393117905E-002;-2.820303663611412E-003;1.615947927348316E-003;
2.402500000000000E+009;1.632044315338135E-001;3.066947497427464E-002;-2.644271822646260E-003;1.589399762451649E-003;
2.402666666666667E+009;1.639292538166046E-001;2.914803661406040E-002;-2.642149338498712E-003;1.697015250101686E-003;
2.402833333333334E+009;1.649073809385300E-001;2.769833989441395E-002;-2.661775331944227E-003;1.468010246753693E-003;
2.403000000000000E+009;1.658907979726791E-001;2.637471072375774E-002;-2.613120013847947E-003;1.656117499805987E-003;
2.403166666666667E+009;1.669387817382813E-001;2.496788091957569E-002;-2.516992622986436E-003;1.541762962006033E-003;
2.403333333333334E+009;1.677704304456711E-001;2.377743832767010E-002;-2.547285752370954E-003;1.620387774892151E-003;
2.403500000000000E+009;1.687326729297638E-001;2.263706550002098E-002;-2.482386305928230E-003;1.702021574601531E-003;
2.403666666666667E+009;1.696695685386658E-001;2.145663276314735E-002;-2.316690981388092E-003;1.946159172803164E-003;
2.403833333333334E+009;1.708326041698456E-001;2.049379982054234E-002;-2.289383439347148E-003;1.647019525989890E-003;
2.404000000000000E+009;1.717393994331360E-001;1.960324123501778E-002;-2.242973307147622E-003;1.835945993661881E-003;
2.404166666666667E+009;1.725728958845139E-001;1.866372488439083E-002;-2.358358120545745E-003;1.884002354927361E-003;
2.404333333333334E+009;1.733932942152023E-001;1.794478669762611E-002;-2.266583731397986E-003;1.869817846454680E-003;
2.404500000000000E+009;1.742275804281235E-001;1.727636344730854E-002;-2.313652075827122E-003;2.015414182096720E-003;
2.404666666666667E+009;1.751617491245270E-001;1.650338247418404E-002;-2.256544074043632E-003;2.082667313516140E-003;
2.404833333333334E+009;1.758377701044083E-001;1.619774475693703E-002;-2.146108541637659E-003;2.144480124115944E-003;
2.405000000000000E+009;1.765330284833908E-001;1.556163188070059E-002;-2.348569221794605E-003;1.970138633623719E-003;
2.405166666666667E+009;1.772108376026154E-001;1.526218280196190E-002;-2.128377323970199E-003;2.194460714235902E-003;
2.405333333333334E+009;1.778355240821838E-001;1.474629249423742E-002;-2.070380840450525E-003;2.044818596914411E-003;
2.405500000000000E+009;1.784889400005341E-001;1.467734761536121E-002;-2.081396523863077E-003;2.272851997986436E-003;
2.405666666666667E+009;1.788145899772644E-001;1.427581720054150E-002;-1.904124394059181E-003;2.261830493807793E-003;
2.405833333333334E+009;1.790334135293961E-001;1.405105460435152E-002;-1.932815765030682E-003;2.195732435211539E-003;
2.406000000000000E+009;1.794535517692566E-001;1.367367338389158E-002;-1.822236343286932E-003;2.218391513451934E-003;
2.406166666666667E+009;1.795065551996231E-001;1.360577903687954E-002;-1.882724696770310E-003;2.316300757229328E-003;
2.406333333333334E+009;1.797918826341629E-001;1.323328353464603E-002;-1.830952009186149E-003;2.307943534106016E-003;
2.406500000000000E+009;1.798622161149979E-001;1.279701478779316E-002;-1.711938064545393E-003;2.473735250532627E-003;
2.406666666666667E+009;1.796128004789352E-001;1.269440166652203E-002;-1.727753435261548E-003;2.530382247641683E-003;
2.406833333333334E+009;1.796551197767258E-001;1.235279534012079E-002;-1.576775335706770E-003;2.573615405708551E-003;
2.407000000000000E+009;1.795544922351837E-001;1.195278950035572E-002;-1.711902557872236E-003;2.561788307502866E-003;
2.407166666666667E+009;1.793064326047897E-001;1.161945331841707E-002;-1.571469590999186E-003;2.528859768062830E-003;
2.407333333333334E+009;1.788179725408554E-001;1.089811604470015E-002;-1.567514147609472E-003;2.742340555414558E-003;
2.407500000000000E+009;1.785179227590561E-001;1.042922120541334E-002;-1.560522592626512E-003;2.722545992583036E-003;
2.407666666666667E+009;1.781180500984192E-001;9.868180379271507E-003;-1.255930284969509E-003;2.643797546625137E-003;
2.407833333333334E+009;1.774871796369553E-001;8.989712223410606E-003;-1.365972915664315E-003;2.733001485466957E-003;
2.408000000000000E+009;1.769982427358627E-001;8.241501636803150E-003;-1.351163606159389E-003;2.731409389525652E-003;
2.408166666666667E+009;1.764058917760849E-001;7.462023757398129E-003;-1.174585078842938E-003;2.783695701509714E-003;
2.408333333333334E+009;1.759236156940460E-001;6.548596546053886E-003;-1.177224447019398E-003;2.749957609921694E-003;
2.408500000000000E+009;1.751044243574143E-001;5.485857836902142E-003;-1.034263870678842E-003;2.923273248597980E-003;
2.408666666666667E+009;1.744472682476044E-001;4.388704430311918E-003;-1.070096739567816E-003;2.738443668931723E-003;
2.408833333333334E+009;1.737242490053177E-001;3.030974883586168E-003;-1.065749325789511E-003;2.798950765281916E-003;
2.409000000000000E+009;1.731543242931366E-001;1.959517830982804E-003;-9.135066648013890E-004;2.763628726825118E-003;
2.409166666666667E+009;1.723983734846115E-001;5.282401689328253E-004;-7.655061199329794E-004;2.773125655949116E-003;
2.409333333333334E+009;1.718236804008484E-001;-1.033970038406551E-003;-8.186048944480717E-004;2.978923730552197E-003;
2.409500000000000E+009;1.711007207632065E-001;-2.799666486680508E-003;-8.340677595697343E-004;3.001605859026313E-003;
2.409666666666667E+009;1.704643666744232E-001;-4.228835925459862E-003;-7.898824405856431E-004;2.969217719510198E-003;
2.409833333333334E+009;1.698602586984634E-001;-5.841037724167109E-003;-7.947031408548355E-004;2.764812204986811E-003;
2.410000000000000E+009;1.695092320442200E-001;-7.593553978949785E-003;-7.867550011724234E-004;2.859039930626750E-003;
2.410166666666667E+009;1.690068095922470E-001;-9.497242979705334E-003;-7.499603671021760E-004;2.821096917614341E-003;
2.410333333333334E+009;1.684250086545944E-001;-1.130552031099796E-002;-6.632669828832150E-004;3.053993452340365E-003;
2.410500000000000E+009;1.682123094797134E-001;-1.296586170792580E-002;-6.590089760720730E-004;2.841402776539326E-003;
2.410666666666667E+009;1.677409261465073E-001;-1.516394037753344E-002;-6.256323540583253E-004;2.972983056679368E-003;
2.410833333333334E+009;1.676905602216721E-001;-1.692458242177963E-002;-5.404636613093317E-004;2.950820606201887E-003;
2.411000000000000E+009;1.675046235322952E-001;-1.882490329444408E-002;-4.546925774775446E-004;3.049045801162720E-003;
2.411166666666667E+009;1.673112511634827E-001;-2.101995237171650E-002;-4.213898791931570E-004;3.036617534235120E-003;
2.411333333333334E+009;1.672505587339401E-001;-2.297047898173332E-002;-4.439200565684587E-004;3.093337872996926E-003;
2.411500000000000E+009;1.672936528921127E-001;-2.508163452148438E-002;-4.946683766320348E-004;3.268242347985506E-003;
2.411666666666667E+009;1.676528453826904E-001;-2.696241438388825E-002;-3.961091279052198E-004;3.314071800559759E-003;
2.411833333333334E+009;1.679575443267822E-001;-2.881615795195103E-002;-1.920823851833120E-004;3.315084846690297E-003;
2.412000000000000E+009;1.681498736143112E-001;-3.096262738108635E-002;-1.940445072250441E-004;3.317523747682571E-003;
2.412166666666667E+009;1.684688925743103E-001;-3.272131085395813E-002;-2.915818186011165E-004;3.456095699220896E-003;
2.412333333333334E+009;1.690944284200668E-001;-3.453291207551956E-002;-2.657941950019449E-004;3.319043666124344E-003;
2.412500000000000E+009;1.692415624856949E-001;-3.631026670336723E-002;2.211574319517240E-004;3.356115659698844E-003;
2.412666666666667E+009;1.699962466955185E-001;-3.822946175932884E-002;4.572736088448437E-006;3.618252929300070E-003;
2.412833333333334E+009;1.705704480409622E-001;-3.994872421026230E-002;1.746128546074033E-004;3.609036793932319E-003;
2.413000000000000E+009;1.710586249828339E-001;-4.152018949389458E-002;2.186881174566224E-004;3.643202129751444E-003;
2.413166666666667E+009;1.717337667942047E-001;-4.313027113676071E-002;5.001658573746681E-004;3.653012216091156E-003;
2.413333333333334E+009;1.722688823938370E-001;-4.462004452943802E-002;5.329641862772405E-004;3.696645144373179E-003;
2.413500000000000E+009;1.730696260929108E-001;-4.605692252516747E-002;8.715615840628743E-004;3.839822951704264E-003;
2.413666666666667E+009;1.736917495727539E-001;-4.737531766295433E-002;8.665337227284908E-004;3.876759205013514E-003;
2.413833333333334E+009;1.742694079875946E-001;-4.862608015537262E-002;1.130311517044902E-003;3.844436025246978E-003;
2.414000000000000E+009;1.746530979871750E-001;-4.988073557615280E-002;1.182113657705486E-003;3.751975484192371E-003;
2.414166666666667E+009;1.755756139755249E-001;-5.095798522233963E-002;1.307017053477466E-003;3.751742187887430E-003;
2.414333333333334E+009;1.760590225458145E-001;-5.199900642037392E-002;1.380130532197654E-003;3.671813989058137E-003;
2.414500000000000E+009;1.767573207616806E-001;-5.280831083655357E-002;1.738397753797472E-003;3.835619892925024E-003;
2.414666666666667E+009;1.771534681320190E-001;-5.360353738069534E-002;1.846595434471965E-003;3.762075677514076E-003;
2.414833333333334E+009;1.774893999099731E-001;-5.451907962560654E-002;1.891836407594383E-003;3.780923550948501E-003;
2.415000000000000E+009;1.779203116893768E-001;-5.504648759961128E-002;2.301021246239543E-003;3.855099435895681E-003;
2.415166666666667E+009;1.782416254281998E-001;-5.562401562929153E-002;2.290145494043827E-003;3.639637492597103E-003;
2.415333333333334E+009;1.785694658756256E-001;-5.616912245750427E-002;2.573682693764567E-003;3.489571856334806E-003;
2.415500000000000E+009;1.786993145942688E-001;-5.662134662270546E-002;2.625658875331283E-003;3.377853427082300E-003;
2.415666666666667E+009;1.787872463464737E-001;-5.683658272027969E-002;2.865167567506433E-003;3.349820850417018E-003;
2.415833333333334E+009;1.788746267557144E-001;-5.728897079825401E-002;2.961652353405953E-003;3.283554455265403E-003;
2.416000000000000E+009;1.786627322435379E-001;-5.754077807068825E-002;3.030619584023953E-003;3.143141744658351E-003;
2.416166666666667E+009;1.786238700151444E-001;-5.775627866387367E-002;3.174247918650508E-003;2.898755483329296E-003;
2.416333333333334E+009;1.783850640058518E-001;-5.801925063133240E-002;3.329755971208215E-003;2.837568754330277E-003;
2.416500000000000E+009;1.781173795461655E-001;-5.825253203511238E-002;3.409293247386813E-003;2.693500369787216E-003;
2.416666666666667E+009;1.775560677051544E-001;-5.837899446487427E-002;3.576161107048392E-003;2.620845567435026E-003;
2.416833333333334E+009;1.771660149097443E-001;-5.861354991793633E-002;3.614921821281314E-003;2.557713771238923E-003;
2.417000000000000E+009;1.764363795518875E-001;-5.887903645634651E-002;3.716893028467894E-003;2.427204046398401E-003;
2.417166666666667E+009;1.757150888442993E-001;-5.892837047576904E-002;3.786857472732663E-003;2.198448404669762E-003;
2.417333333333334E+009;1.750104874372482E-001;-5.909371748566628E-002;3.789778333157301E-003;1.976897707208991E-003;
2.417500000000000E+009;1.740896552801132E-001;-5.964012816548348E-002;3.857232397422195E-003;1.929609919898212E-003;
2.417666666666667E+009;1.732680648565292E-001;-5.966213345527649E-002;4.065833054482937E-003;1.915896311402321E-003;
2.417833333333334E+009;1.722570508718491E-001;-6.007049605250359E-002;4.009627737104893E-003;1.752058393321931E-003;
2.418000000000000E+009;1.711198836565018E-001;-6.062051653862000E-002;4.180892836302519E-003;1.608775346539915E-003;
2.418166666666667E+009;1.699876189231873E-001;-6.078438088297844E-002;4.295804537832737E-003;1.337642315775156E-003;
2.418333333333334E+009;1.689417660236359E-001;-6.145002692937851E-002;4.163183271884918E-003;1.228601322509348E-003;
2.418500000000000E+009;1.676778346300125E-001;-6.204692646861076E-002;4.380086436867714E-003;1.028342987410724E-003;
2.418666666666667E+009;1.665881425142288E-001;-6.269351392984390E-002;4.426899831742048E-003;9.221881045959890E-004;
2.418833333333334E+009;1.651847362518311E-001;-6.334920227527618E-002;4.364956635981798E-003;8.257049485109747E-004;
2.419000000000000E+009;1.637929975986481E-001;-6.417772173881531E-002;4.359053913503885E-003;6.316987564787269E-004;
2.419166666666667E+009;1.626261323690414E-001;-6.513535231351852E-002;4.424688871949911E-003;4.041955689899623E-004;
2.419333333333334E+009;1.612048596143723E-001;-6.572458148002625E-002;4.339899402111769E-003;3.096349828410894E-004;
2.419500000000000E+009;1.601271480321884E-001;-6.695303320884705E-002;4.536783322691917E-003;2.055700897471979E-004;
2.419666666666667E+009;1.590297818183899E-001;-6.815794110298157E-002;4.506322555243969E-003;-4.410787369124591E-005;
2.419833333333334E+009;1.578132957220078E-001;-6.914363801479340E-002;4.392790608108044E-003;-9.540146857034415E-005;
2.420000000000000E+009;1.567343473434448E-001;-7.046724855899811E-002;4.345983266830444E-003;-3.998482425231487E-004;
2.420166666666667E+009;1.557099521160126E-001;-7.180153578519821E-002;4.414072260260582E-003;-3.947924997191876E-004;
2.420333333333334E+009;1.546627581119537E-001;-7.316219061613083E-002;4.344637505710125E-003;-7.473549339920282E-004;
2.420500000000000E+009;1.537656635046005E-001;-7.456070929765701E-002;4.521267022937536E-003;-1.011784304864705E-003;
2.420666666666667E+009;1.530133783817291E-001;-7.610153406858444E-002;4.466288723051548E-003;-1.013919943943620E-003;
2.420833333333334E+009;1.522144079208374E-001;-7.771477848291397E-002;4.427380859851837E-003;-1.201582723297179E-003;
2.421000000000000E+009;1.515068113803864E-001;-7.931660860776901E-002;4.271627403795719E-003;-1.290635322220624E-003;
2.421166666666667E+009;1.507881134748459E-001;-8.092345297336578E-002;4.118382930755615E-003;-1.450465526431799E-003;
2.421333333333334E+009;1.504521965980530E-001;-8.258195221424103E-002;4.279431421309710E-003;-1.562838209792972E-003;
2.421500000000000E+009;1.500305086374283E-001;-8.421722054481506E-002;4.101176746189594E-003;-1.851489068940282E-003;
2.421666666666667E+009;1.497379690408707E-001;-8.599799871444702E-002;3.980899229645729E-003;-2.095941687002778E-003;
2.421833333333334E+009;1.495189815759659E-001;-8.770484477281570E-002;3.841046476736665E-003;-2.193245338276029E-003;
2.422000000000000E+009;1.493005007505417E-001;-8.936756104230881E-002;3.864445723593235E-003;-2.352721756324172E-003;
2.422166666666667E+009;1.492678970098496E-001;-9.126488119363785E-002;3.691366408020258E-003;-2.420362317934632E-003;
2.422333333333334E+009;1.494315266609192E-001;-9.286639094352722E-002;3.543298458680511E-003;-2.613172866404057E-003;
2.422500000000000E+009;1.493138074874878E-001;-9.431792050600052E-002;3.414085367694497E-003;-2.860801061615348E-003;
2.422666666666667E+009;1.494624763727188E-001;-9.619139879941940E-002;3.209643764421344E-003;-2.867239061743021E-003;
2.422833333333334E+009;1.497657746076584E-001;-9.771739691495895E-002;3.118229797109962E-003;-2.958831144496799E-003;
2.423000000000000E+009;1.500300914049149E-001;-9.933545440435410E-002;3.025098703801632E-003;-3.132156329229474E-003;
2.423166666666667E+009;1.504555344581604E-001;-1.009430363774300E-001;2.646186156198382E-003;-3.271390916779637E-003;
2.423333333333334E+009;1.510069221258164E-001;-1.022947877645493E-001;2.609935821965337E-003;-3.153510624542832E-003;
2.423500000000000E+009;1.512908190488815E-001;-1.037715747952461E-001;2.437306102365255E-003;-3.414263715967536E-003;
2.423666666666667E+009;1.517371833324432E-001;-1.051559820771217E-001;2.110912464559078E-003;-3.430470125749707E-003;
2.423833333333334E+009;1.523813456296921E-001;-1.064609661698341E-001;1.979817869141698E-003;-3.443969413638115E-003;
2.424000000000000E+009;1.527508795261383E-001;-1.074743494391441E-001;1.956971362233162E-003;-3.543366678059101E-003;
2.424166666666667E+009;1.532070785760880E-001;-1.086486950516701E-001;1.658774330280721E-003;-3.471790580078960E-003;
2.424333333333334E+009;1.537683606147766E-001;-1.095772013068199E-001;1.603909186087549E-003;-3.636364359408617E-003;
2.424500000000000E+009;1.542779356241226E-001;-1.107009947299957E-001;1.389284851029515E-003;-3.556804265826941E-003;
2.424666666666667E+009;1.549285352230072E-001;-1.112023964524269E-001;1.301623880863190E-003;-3.494362579658628E-003;
2.424833333333334E+009;1.553559154272080E-001;-1.121666654944420E-001;1.017173985019326E-003;-3.808657871559262E-003;
2.425000000000000E+009;1.558582186698914E-001;-1.131141856312752E-001;9.493021643720567E-004;-3.499670652672648E-003;
2.425166666666667E+009;1.560745984315872E-001;-1.136346608400345E-001;9.154635481536388E-004;-3.607826773077250E-003;
2.425333333333334E+009;1.564332395792007E-001;-1.141246259212494E-001;7.286205072887242E-004;-3.555873641744256E-003;
2.425500000000000E+009;1.569206565618515E-001;-1.146214827895165E-001;4.995688213966787E-004;-3.461484331637621E-003;
2.425666666666667E+009;1.568931192159653E-001;-1.150299236178398E-001;4.910056013613939E-004;-3.419226268306375E-003;
2.425833333333334E+009;1.571280509233475E-001;-1.154230311512947E-001;2.687362721189857E-004;-3.401589347049594E-003;
2.426000000000000E+009;1.572264432907105E-001;-1.157137379050255E-001;2.814825274981558E-004;-3.381523769348860E-003;
2.426166666666667E+009;1.573896557092667E-001;-1.160506010055542E-001;2.913093194365501E-004;-3.468812443315983E-003;
2.426333333333334E+009;1.570487916469574E-001;-1.163747161626816E-001;-3.362901770742610E-005;-3.340204944834113E-003;
2.426500000000000E+009;1.570039838552475E-001;-1.163538172841072E-001;-1.262029254576191E-004;-3.354057669639587E-003;
2.426666666666667E+009;1.569516658782959E-001;-1.163887828588486E-001;-3.157344472128898E-004;-3.181315958499908E-003;
2.426833333333334E+009;1.564199030399323E-001;-1.164987981319428E-001;-4.469747946131975E-004;-3.214748110622168E-003;
2.427000000000000E+009;1.559206098318100E-001;-1.168427541851997E-001;-4.875505983363837E-004;-3.077541477978230E-003;
2.427166666666667E+009;1.553666889667511E-001;-1.167746186256409E-001;-4.173038760200143E-004;-2.967369044199586E-003;
2.427333333333334E+009;1.547709256410599E-001;-1.168848201632500E-001;-4.969406872987747E-004;-3.081423696130514E-003;
2.427500000000000E+009;1.540693193674088E-001;-1.170335412025452E-001;-5.846766289323568E-004;-2.962261671200395E-003;
2.427666666666667E+009;1.531863361597061E-001;-1.171883493661881E-001;-7.965619442984462E-004;-2.884029410779476E-003;
2.427833333333334E+009;1.521158367395401E-001;-1.173286586999893E-001;-9.056041017174721E-004;-2.715535229071975E-003;
