# Version 1.00
#
freq[Hz];re:Trc1_S11;im:Trc1_S11;re:Trc2_S21;im:Trc2_S21;
2.400000000000000E+009;1.561153978109360E-001;6.003482639789581E-002;-3.692123573273420E-003;9.019513963721693E-004;
2.400166666666667E+009;1.560962647199631E-001;5.832620710134506E-002;-3.721345448866487E-003;1.078875036910176E-003;
2.400333333333334E+009;1.561333686113358E-001;5.624867603182793E-002;-3.772463183850050E-003;1.075749285519123E-003;
2.400500000000000E+009;1.562668085098267E-001;5.408044159412384E-002;-3.678094595670700E-003;1.085562398657203E-003;
2.400666666666667E+009;1.566210985183716E-001;5.207669734954834E-002;-3.525615669786930E-003;1.170375617220998E-003;
2.400833333333334E+009;1.570571660995483E-001;5.009026825428009E-002;-3.655104432255030E-003;1.302852644585073E-003;
2.401000000000000E+009;1.573440581560135E-001;4.797229915857315E-002;-3.620113944634795E-003;1.254840521141887E-003;
2.401166666666667E+009;1.576735228300095E-001;4.593643918633461E-002;-3.498442471027374E-003;1.458510872907937E-003;
2.401333333333334E+009;1.582094281911850E-001;4.383936151862145E-002;-3.413687692955136E-003;1.397516462020576E-003;
2.401500000000000E+009;1.589422076940537E-001;4.174575582146645E-002;-3.295526141300798E-003;1.620913390070200E-003;
2.401666666666667E+009;1.594564765691757E-001;3.981134667992592E-002;-3.172897035256028E-003;1.615718356333673E-003;
2.401833333333334E+009;1.601533740758896E-001;3.778177499771118E-002;-3.121843328699470E-003;1.579114818014205E-003;
2.402000000000000E+009;1.607559472322464E-001;3.596977889537811E-002;-3.106379648670554E-003;1.918648486025631E-003;
2.402166666666667E+009;1.614950150251389E-001;3.401229530572891E-002;-3.069376107305288E-003;1.808536122553051E-003;
2.402333333333334E+009;1.621292829513550E-001;3.226140514016151E-002;-3.007058054208756E-003;1.897192909382284E-003;
2.402500000000000E+009;1.632346510887146E-001;3.080978430807591E-002;-2.874288707971573E-003;1.863563782535493E-003;
2.402666666666667E+009;1.640169620513916E-001;2.898705750703812E-002;-2.735181245952845E-003;1.804438885301352E-003;
2.402833333333334E+009;1.647226214408875E-001;2.762182615697384E-002;-2.804693998768926E-003;1.872194232419133E-003;
2.403000000000000E+009;1.657486557960510E-001;2.628222294151783E-002;-2.767781261354685E-003;1.944936811923981E-003;
2.403166666666667E+009;1.668723970651627E-001;2.497452124953270E-002;-2.720584860071540E-003;1.903912634588778E-003;
2.403333333333334E+009;1.676856875419617E-001;2.374471724033356E-002;-2.650015056133270E-003;2.059876685962081E-003;
2.403500000000000E+009;1.685738116502762E-001;2.261475846171379E-002;-2.491958672180772E-003;2.090142341330648E-003;
2.403666666666667E+009;1.696075350046158E-001;2.139755524694920E-002;-2.430740045383573E-003;2.078836550936103E-003;
2.403833333333334E+009;1.707462519407272E-001;2.041931077837944E-002;-2.382074017077684E-003;2.228647936135531E-003;
2.404000000000000E+009;1.716770231723785E-001;1.951529271900654E-002;-2.487270161509514E-003;2.119293902069330E-003;
2.404166666666667E+009;1.725231558084488E-001;1.873705349862576E-002;-2.418330172076821E-003;2.268856391310692E-003;
2.404333333333334E+009;1.733100563287735E-001;1.805229298770428E-002;-2.260258886963129E-003;2.267797943204641E-003;
2.404500000000000E+009;1.742868125438690E-001;1.727546937763691E-002;-2.401239005848765E-003;2.410321263596416E-003;
2.404666666666667E+009;1.751343309879303E-001;1.662181876599789E-002;-2.149012405425310E-003;2.513447077944875E-003;
2.404833333333334E+009;1.758114099502564E-001;1.608519256114960E-002;-1.991034252569079E-003;2.509799785912037E-003;
2.405000000000000E+009;1.765685975551605E-001;1.565214619040489E-002;-1.976359635591507E-003;2.631936455145478E-003;
2.405166666666667E+009;1.771710515022278E-001;1.521914917975664E-002;-2.020041225478053E-003;2.539473120123148E-003;
2.405333333333334E+009;1.778225004673004E-001;1.471462007611990E-002;-1.985662849619985E-003;2.688417211174965E-003;
2.405500000000000E+009;1.783863753080368E-001;1.454636268317699E-002;-1.756209880113602E-003;2.660642378032208E-003;
2.405666666666667E+009;1.787216812372208E-001;1.417968887835741E-002;-1.835293718613684E-003;2.619134727865458E-003;
2.405833333333334E+009;1.789264529943466E-001;1.397140417248011E-002;-1.666655763983727E-003;2.716544782742858E-003;
2.406000000000000E+009;1.792633384466171E-001;1.348112896084786E-002;-1.590501051396132E-003;2.673367969691753E-003;
2.406166666666667E+009;1.793332844972611E-001;1.351291686296463E-002;-1.526053529232740E-003;2.777423709630966E-003;
2.406333333333334E+009;1.797797977924347E-001;1.324076857417822E-002;-1.521021942608059E-003;2.904330613091588E-003;
2.406500000000000E+009;1.797188818454742E-001;1.310442015528679E-002;-1.357047120109201E-003;2.921890467405319E-003;
2.406666666666667E+009;1.794784963130951E-001;1.269213669002056E-002;-1.467803143896163E-003;2.823235699906945E-003;
2.406833333333334E+009;1.795251965522766E-001;1.229512505233288E-002;-1.229087938554585E-003;2.769659273326397E-003;
2.407000000000000E+009;1.794013828039169E-001;1.192189380526543E-002;-1.192763564176858E-003;2.636248711496592E-003;
2.407166666666667E+009;1.792122274637222E-001;1.152100134640932E-002;-1.200592960231006E-003;3.021958284080029E-003;
2.407333333333334E+009;1.787556111812592E-001;1.096883043646812E-002;-9.436810505576432E-004;2.847307128831744E-003;
2.407500000000000E+009;1.784249246120453E-001;1.053852401673794E-002;-1.122162910178304E-003;2.855851082131267E-003;
2.407666666666667E+009;1.779499500989914E-001;9.967667050659657E-003;-1.113000675104559E-003;2.936367411166430E-003;
2.407833333333334E+009;1.774135082960129E-001;9.155462495982647E-003;-7.773107499815524E-004;2.902735723182559E-003;
2.408000000000000E+009;1.768435835838318E-001;8.344406262040138E-003;-7.818860467523336E-004;2.889529103413224E-003;
2.408166666666667E+009;1.762937009334564E-001;7.795364595949650E-003;-8.006034768186510E-004;2.870742930099368E-003;
2.408333333333334E+009;1.758868843317032E-001;6.779524032026529E-003;-7.160929380916059E-004;2.833111211657524E-003;
2.408500000000000E+009;1.751571446657181E-001;5.607089027762413E-003;-6.918442668393254E-004;2.856200793758035E-003;
2.408666666666667E+009;1.743923127651215E-001;4.508228041231632E-003;-5.886612343601883E-004;3.000975353643298E-003;
2.408833333333334E+009;1.737022548913956E-001;3.255933756008744E-003;-4.483891534619033E-004;2.949855756014586E-003;
2.409000000000000E+009;1.729530096054077E-001;2.023578388616443E-003;-4.207561723887920E-004;2.890475327149034E-003;
2.409166666666667E+009;1.722919940948486E-001;5.391138256527484E-004;-4.924776731058955E-004;2.929843962192535E-003;
2.409333333333334E+009;1.717918068170548E-001;-8.739085169509053E-004;-4.434563452377915E-004;3.019533818587661E-003;
2.409500000000000E+009;1.710326075553894E-001;-2.483355347067118E-003;-1.863492943812162E-004;2.886868547648192E-003;
2.409666666666667E+009;1.703489571809769E-001;-4.056467674672604E-003;-2.842257090378553E-004;2.925618551671505E-003;
2.409833333333334E+009;1.698438972234726E-001;-5.667840596288443E-003;-2.395382616668940E-004;2.881017746403813E-003;
2.410000000000000E+009;1.693737357854843E-001;-7.626058533787727E-003;-3.009357023984194E-004;2.863898873329163E-003;
2.410166666666667E+009;1.688503324985504E-001;-9.196815080940723E-003;-1.706709736026824E-004;2.939578378573060E-003;
2.410333333333334E+009;1.683346927165985E-001;-1.110490132123232E-002;-1.082075395970605E-004;2.944872714579105E-003;
2.410500000000000E+009;1.680531352758408E-001;-1.306663174182177E-002;-1.856806484283879E-004;2.927951514720917E-003;
2.410666666666667E+009;1.678071171045303E-001;-1.494929566979408E-002;2.190310806327034E-005;2.904093591496348E-003;
2.410833333333334E+009;1.677542030811310E-001;-1.678068563342094E-002;-1.468884966016049E-005;2.901521045714617E-003;
2.411000000000000E+009;1.673714369535446E-001;-1.884963922202587E-002;-7.476159225916490E-005;3.039042232558131E-003;
2.411166666666667E+009;1.671785861253738E-001;-2.093295753002167E-002;7.536356861237437E-005;3.162582172080874E-003;
2.411333333333334E+009;1.671797931194305E-001;-2.273724600672722E-002;2.258855383843184E-004;2.970841713249683E-003;
2.411500000000000E+009;1.672689616680145E-001;-2.495175786316395E-002;3.335975634399802E-005;2.968687796965241E-003;
2.411666666666667E+009;1.675391197204590E-001;-2.699224650859833E-002;1.850418921094388E-004;3.158981679007411E-003;
2.411833333333334E+009;1.678554713726044E-001;-2.863255888223648E-002;2.906742156483233E-004;3.100465983152390E-003;
2.412000000000000E+009;1.679939180612564E-001;-3.072542138397694E-002;2.797115012072027E-004;3.032378386706114E-003;
2.412166666666667E+009;1.683198660612106E-001;-3.267661109566689E-002;3.510640526656061E-004;3.280245931819081E-003;
2.412333333333334E+009;1.688585132360458E-001;-3.441257774829865E-002;6.153414142318070E-004;3.423423506319523E-003;
2.412500000000000E+009;1.693522632122040E-001;-3.609561175107956E-002;5.359685746952891E-004;3.300927579402924E-003;
2.412666666666667E+009;1.697912216186523E-001;-3.806339204311371E-002;4.405206127557904E-004;3.443025518208742E-003;
2.412833333333334E+009;1.703546792268753E-001;-3.981159627437592E-002;6.974331336095929E-004;3.558506025001407E-003;
2.413000000000000E+009;1.710820049047470E-001;-4.153405502438545E-002;8.624513284303248E-004;3.580168122425675E-003;
2.413166666666667E+009;1.714813560247421E-001;-4.306410253047943E-002;8.759664488025010E-004;3.467620583251119E-003;
2.413333333333334E+009;1.722223162651062E-001;-4.435433447360992E-002;1.259288867004216E-003;3.534235991537571E-003;
2.413500000000000E+009;1.728070527315140E-001;-4.586279019713402E-002;1.325253746472299E-003;3.519409801810980E-003;
2.413666666666667E+009;1.734589189291000E-001;-4.720614477992058E-002;1.383879221975803E-003;3.591147717088461E-003;
2.413833333333334E+009;1.742614209651947E-001;-4.832398146390915E-002;1.553304609842598E-003;3.557660849764943E-003;
2.414000000000000E+009;1.747310459613800E-001;-4.972174391150475E-002;1.727830269373953E-003;3.672005841508508E-003;
2.414166666666667E+009;1.755332350730896E-001;-5.072072893381119E-002;1.863739686086774E-003;3.409154014661908E-003;
2.414333333333334E+009;1.759772896766663E-001;-5.184113606810570E-002;2.057064091786742E-003;3.471473231911659E-003;
2.414500000000000E+009;1.768832057714462E-001;-5.260305851697922E-002;2.029001014307141E-003;3.420582506805658E-003;
2.414666666666667E+009;1.770976930856705E-001;-5.349120125174522E-002;2.239173045381904E-003;3.437813371419907E-003;
2.414833333333334E+009;1.775005459785461E-001;-5.430682376027107E-002;2.377337310463190E-003;3.249442437663674E-003;
2.415000000000000E+009;1.778533011674881E-001;-5.481616780161858E-002;2.763537922874093E-003;3.324826247990131E-003;
2.415166666666667E+009;1.783095151185989E-001;-5.531253665685654E-002;2.826258074492216E-003;3.299201140180230E-003;
2.415333333333334E+009;1.785933226346970E-001;-5.606567114591599E-002;2.862684428691864E-003;3.048895625397563E-003;
2.415500000000000E+009;1.788465231657028E-001;-5.640017613768578E-002;2.991853049024940E-003;2.895337529480457E-003;
2.415666666666667E+009;1.787671595811844E-001;-5.674213171005249E-002;3.051252337172627E-003;2.641181927174330E-003;
2.415833333333334E+009;1.788742989301682E-001;-5.710025131702423E-002;3.117350628599525E-003;2.642325358465314E-003;
2.416000000000000E+009;1.787871271371841E-001;-5.738131329417229E-002;3.466666443273425E-003;2.626894507557154E-003;
2.416166666666667E+009;1.788616180419922E-001;-5.766383931040764E-002;3.488970221951604E-003;2.533064922317863E-003;
2.416333333333334E+009;1.784205585718155E-001;-5.791889131069183E-002;3.536854870617390E-003;2.274278551340103E-003;
2.416500000000000E+009;1.780882626771927E-001;-5.811284855008125E-002;3.689438337460160E-003;2.108120825141668E-003;
2.416666666666667E+009;1.777016222476959E-001;-5.821213498711586E-002;3.664714517071843E-003;2.221344038844109E-003;
2.416833333333334E+009;1.772326231002808E-001;-5.850980058312416E-002;3.771216841414571E-003;1.946098287589848E-003;
2.417000000000000E+009;1.764295697212219E-001;-5.875084921717644E-002;3.942661918699741E-003;1.809980138204992E-003;
2.417166666666667E+009;1.758105158805847E-001;-5.882946029305458E-002;3.952752333134413E-003;1.700767665170133E-003;
2.417333333333334E+009;1.750664860010147E-001;-5.909100174903870E-002;4.049225244671106E-003;1.561567303724587E-003;
2.417500000000000E+009;1.741228550672531E-001;-5.957575887441635E-002;3.903558012098074E-003;1.389949116855860E-003;
2.417666666666667E+009;1.733271479606628E-001;-5.964314937591553E-002;4.063131753355265E-003;1.213219715282321E-003;
2.417833333333334E+009;1.722885966300964E-001;-5.998985096812248E-002;4.145871382206678E-003;1.188579015433788E-003;
2.418000000000000E+009;1.711887717247009E-001;-6.056417897343636E-002;4.171243868768215E-003;1.030635670758784E-003;
2.418166666666667E+009;1.699774265289307E-001;-6.078023463487625E-002;4.108561668545008E-003;7.037250325083733E-004;
2.418333333333334E+009;1.691030859947205E-001;-6.138176470994949E-002;4.248848650604487E-003;5.824179388582707E-004;
2.418500000000000E+009;1.677733212709427E-001;-6.195847690105438E-002;4.256070125848055E-003;5.300139309838414E-004;
2.418666666666667E+009;1.665301918983460E-001;-6.262688338756561E-002;4.270843695849180E-003;3.567739331629127E-004;
2.418833333333334E+009;1.651927381753922E-001;-6.335839629173279E-002;4.256261046975851E-003;2.412403991911560E-004;
2.419000000000000E+009;1.639157533645630E-001;-6.423549354076386E-002;4.272310528904200E-003;2.579380088718608E-005;
2.419166666666667E+009;1.627092063426971E-001;-6.503888964653015E-002;4.328211303800345E-003;-8.284026989713311E-005;
2.419333333333334E+009;1.612340658903122E-001;-6.578586995601654E-002;4.226227290928364E-003;-2.165235491702333E-004;
2.419500000000000E+009;1.602178514003754E-001;-6.692939996719360E-002;4.381811711937189E-003;-4.608107556123287E-004;
2.419666666666667E+009;1.591766029596329E-001;-6.818234175443649E-002;4.172938875854015E-003;-4.763943434227258E-004;
2.419833333333334E+009;1.577455997467041E-001;-6.919720023870468E-002;4.190146923065186E-003;-7.525495602749288E-004;
2.420000000000000E+009;1.567336022853851E-001;-7.052026689052582E-002;4.263174254447222E-003;-8.230732055380940E-004;
2.420166666666667E+009;1.557632982730866E-001;-7.185304909944534E-002;4.156730137765408E-003;-9.181268978863955E-004;
2.420333333333334E+009;1.547740399837494E-001;-7.322242856025696E-002;4.135393071919680E-003;-1.020851312205195E-003;
2.420500000000000E+009;1.538301855325699E-001;-7.454384118318558E-002;4.127252846956253E-003;-1.216990989632905E-003;
2.420666666666667E+009;1.530078649520874E-001;-7.598268985748291E-002;3.974561113864183E-003;-1.440674415789545E-003;
2.420833333333334E+009;1.523037850856781E-001;-7.779821753501892E-002;4.007766023278236E-003;-1.558702788315713E-003;
2.421000000000000E+009;1.514192968606949E-001;-7.937060296535492E-002;3.834480419754982E-003;-1.726356684230268E-003;
2.421166666666667E+009;1.507692337036133E-001;-8.094395697116852E-002;3.919028211385012E-003;-1.708664000034332E-003;
2.421333333333334E+009;1.505516469478607E-001;-8.269028365612030E-002;3.692313795909286E-003;-2.028335351496935E-003;
2.421500000000000E+009;1.499906480312347E-001;-8.415449410676956E-002;3.679029177874327E-003;-2.169374842196703E-003;
2.421666666666667E+009;1.496626138687134E-001;-8.608878403902054E-002;3.485491033643484E-003;-2.288882620632649E-003;
2.421833333333334E+009;1.493396908044815E-001;-8.767729252576828E-002;3.638308728113771E-003;-2.429499756544828E-003;
2.422000000000000E+009;1.493309438228607E-001;-8.939698338508606E-002;3.304280806332827E-003;-2.670655027031899E-003;
2.422166666666667E+009;1.492463201284409E-001;-9.129767864942551E-002;3.350218059495091E-003;-2.655917778611183E-003;
2.422333333333334E+009;1.492674648761749E-001;-9.286949783563614E-002;3.081186907365918E-003;-2.848544158041477E-003;
2.422500000000000E+009;1.492486000061035E-001;-9.438290446996689E-002;2.963627688586712E-003;-3.010242246091366E-003;
2.422666666666667E+009;1.493143439292908E-001;-9.604222327470779E-002;2.715504495427012E-003;-3.066286444664002E-003;
2.422833333333334E+009;1.497256755828857E-001;-9.782055020332336E-002;2.533840015530586E-003;-3.134890226647258E-003;
2.423000000000000E+009;1.501278877258301E-001;-9.925459325313568E-002;2.391357440501452E-003;-3.306733909994364E-003;
2.423166666666667E+009;1.504226177930832E-001;-1.009196564555168E-001;2.240117173641920E-003;-3.503493731841445E-003;
2.423333333333334E+009;1.507015824317932E-001;-1.021586060523987E-001;2.043102169409394E-003;-3.486434696242213E-003;
2.423500000000000E+009;1.513192206621170E-001;-1.036822423338890E-001;1.914362306706607E-003;-3.463212167844176E-003;
2.423666666666667E+009;1.515443027019501E-001;-1.051504239439964E-001;1.850713510066271E-003;-3.462344873696566E-003;
2.423833333333334E+009;1.523157805204392E-001;-1.062999814748764E-001;1.720967702567577E-003;-3.585270373150706E-003;
2.424000000000000E+009;1.527604162693024E-001;-1.073736622929573E-001;1.268069492653012E-003;-3.511318704113364E-003;
2.424166666666667E+009;1.532364636659622E-001;-1.084815263748169E-001;1.184578402899206E-003;-3.436762606725097E-003;
2.424333333333334E+009;1.537809669971466E-001;-1.095496639609337E-001;1.151838456280530E-003;-3.366785589605570E-003;
2.424500000000000E+009;1.543253809213638E-001;-1.104647740721703E-001;9.068291983567178E-004;-3.572088200598955E-003;
2.424666666666667E+009;1.549515724182129E-001;-1.112477257847786E-001;7.456909515894949E-004;-3.582732984796166E-003;
2.424833333333334E+009;1.553040742874146E-001;-1.120614185929298E-001;6.001180736348033E-004;-3.510242560878396E-003;
2.425000000000000E+009;1.557477414608002E-001;-1.128371581435204E-001;4.581424000207335E-004;-3.502355655655265E-003;
2.425166666666667E+009;1.561052650213242E-001;-1.135542765259743E-001;4.663831787183881E-004;-3.528656670823693E-003;
2.425333333333334E+009;1.564946621656418E-001;-1.140218675136566E-001;1.800675963750109E-004;-3.393876133486629E-003;
2.425500000000000E+009;1.568450927734375E-001;-1.145419925451279E-001;1.359577436232939E-004;-3.291253698989749E-003;
2.425666666666667E+009;1.569518744945526E-001;-1.149920821189880E-001;1.085536860045977E-004;-3.384260460734367E-003;
2.425833333333334E+009;1.571197509765625E-001;-1.154175549745560E-001;-2.061261038761586E-004;-3.312441287562251E-003;
2.426000000000000E+009;1.571632623672485E-001;-1.157358214259148E-001;-2.447079168632627E-004;-3.111967118456960E-003;
2.426166666666667E+009;1.573794335126877E-001;-1.158887743949890E-001;-4.525354597717524E-004;-3.136526094749570E-003;
2.426333333333334E+009;1.571404784917831E-001;-1.161245703697205E-001;-4.310244403313845E-004;-3.047766629606485E-003;
2.426500000000000E+009;1.570603251457214E-001;-1.163285300135613E-001;-7.353472174145281E-004;-3.053242806345224E-003;
2.426666666666667E+009;1.569142788648605E-001;-1.163959875702858E-001;-5.622829194180667E-004;-2.929328940808773E-003;
2.426833333333334E+009;1.564129739999771E-001;-1.165667548775673E-001;-8.219691808335483E-004;-2.866852097213268E-003;
2.427000000000000E+009;1.558839231729507E-001;-1.166696101427078E-001;-7.778698927722871E-004;-2.806959208101034E-003;
2.427166666666667E+009;1.554383039474487E-001;-1.166786476969719E-001;-8.279905305244029E-004;-2.699090866371989E-003;
2.427333333333334E+009;1.546532809734345E-001;-1.168617159128189E-001;-9.713459294289351E-004;-2.505403477698565E-003;
2.427500000000000E+009;1.539465337991715E-001;-1.169949173927307E-001;-1.125138835050166E-003;-2.569590695202351E-003;
2.427666666666667E+009;1.532258093357086E-001;-1.171729341149330E-001;-1.010145293548703E-003;-2.503457479178906E-003;
2.427833333333334E+009;1.521398425102234E-001;-1.172560676932335E-001;-1.049243495799601E-003;-2.401004545390606E-003;
