# Version 1.00
#
freq[Hz];re:Trc1_S11;im:Trc1_S11;re:Trc2_S21;im:Trc2_S21;
2.400000000000000E+009;1.559131294488907E-001;6.013785302639008E-002;-4.054571036249399E-003;1.082919654436410E-003;
2.400166666666667E+009;1.560744643211365E-001;5.838288739323616E-002;-4.289538133889437E-003;1.099939225241542E-003;
2.400333333333334E+009;1.562833636999130E-001;5.629076436161995E-002;-4.009972326457501E-003;1.142838271334767E-003;
2.400500000000000E+009;1.565771549940109E-001;5.421729013323784E-002;-3.904995042830706E-003;1.285278820432723E-003;
2.400666666666667E+009;1.567943394184113E-001;5.227842926979065E-002;-3.942302428185940E-003;1.368366414681077E-003;
2.400833333333334E+009;1.570816189050674E-001;5.010093376040459E-002;-3.746037138625979E-003;1.345058437436819E-003;
2.401000000000000E+009;1.573011428117752E-001;4.806657880544663E-002;-3.733101068064570E-003;1.312048407271504E-003;
2.401166666666667E+009;1.578942388296127E-001;4.584619775414467E-002;-3.766179783269763E-003;1.463458756916225E-003;
2.401333333333334E+009;1.582010835409164E-001;4.363144189119339E-002;-3.679237561300397E-003;1.711989287286997E-003;
2.401500000000000E+009;1.589261293411255E-001;4.178733006119728E-002;-3.515463788062334E-003;1.874321373179555E-003;
2.401666666666667E+009;1.594243794679642E-001;3.994620218873024E-002;-3.507985733449459E-003;1.692784833721817E-003;
2.401833333333334E+009;1.601841002702713E-001;3.775611519813538E-002;-3.386176656931639E-003;1.887185848318040E-003;
2.402000000000000E+009;1.606143414974213E-001;3.586187586188316E-002;-3.246047534048557E-003;1.972086261957884E-003;
2.402166666666667E+009;1.614169180393219E-001;3.389812260866165E-002;-3.189636161550880E-003;2.127612475305796E-003;
2.402333333333334E+009;1.621223986148834E-001;3.235999494791031E-002;-3.217740682885051E-003;2.234507817775011E-003;
2.402500000000000E+009;1.632426083087921E-001;3.083198703825474E-002;-3.068445250391960E-003;2.297086175531149E-003;
2.402666666666667E+009;1.641169786453247E-001;2.901974320411682E-002;-3.000060096383095E-003;2.172582084313035E-003;
2.402833333333334E+009;1.649332344532013E-001;2.782766707241535E-002;-3.000141354277730E-003;2.165856538340449E-003;
2.403000000000000E+009;1.657441705465317E-001;2.617385797202587E-002;-2.858853433281183E-003;2.312649972736836E-003;
2.403166666666667E+009;1.670285463333130E-001;2.472606860101223E-002;-2.863730769604445E-003;2.326162764802575E-003;
2.403333333333334E+009;1.679614484310150E-001;2.389084734022617E-002;-2.800794318318367E-003;2.311502583324909E-003;
2.403500000000000E+009;1.686837375164032E-001;2.250308543443680E-002;-2.575358375906944E-003;2.464297693222761E-003;
2.403666666666667E+009;1.698109954595566E-001;2.133381366729736E-002;-2.505544340237975E-003;2.392834750935435E-003;
2.403833333333334E+009;1.707336306571960E-001;2.036134526133537E-002;-2.515855245292187E-003;2.550541423261166E-003;
2.404000000000000E+009;1.716732531785965E-001;1.950838044285774E-002;-2.510791644454002E-003;2.576133236289024E-003;
2.404166666666667E+009;1.726437211036682E-001;1.857938989996910E-002;-2.408810891211033E-003;2.674957970157266E-003;
2.404333333333334E+009;1.734618544578552E-001;1.797052472829819E-002;-2.269156742841005E-003;2.681978512555361E-003;
2.404500000000000E+009;1.742404848337174E-001;1.723558083176613E-002;-2.159121446311474E-003;2.635463140904903E-003;
2.404666666666667E+009;1.750992387533188E-001;1.659641228616238E-002;-2.093555638566613E-003;2.761959331110120E-003;
2.404833333333334E+009;1.759208142757416E-001;1.603909023106098E-002;-2.049094764515758E-003;2.759440336376429E-003;
2.405000000000000E+009;1.766159385442734E-001;1.551784668117762E-002;-2.011013450101018E-003;2.937598386779428E-003;
2.405166666666667E+009;1.772533357143402E-001;1.523130387067795E-002;-1.899927039630711E-003;2.965838415548205E-003;
2.405333333333334E+009;1.778749525547028E-001;1.477594766765833E-002;-1.646157936193049E-003;2.909350907430053E-003;
2.405500000000000E+009;1.783873587846756E-001;1.450672466307879E-002;-1.823776052333415E-003;2.941328100860119E-003;
2.405666666666667E+009;1.787330955266953E-001;1.429374050348997E-002;-1.872563268989325E-003;3.010619198903441E-003;
2.405833333333334E+009;1.790238767862320E-001;1.394326891750097E-002;-1.725603011436760E-003;3.011753782629967E-003;
2.406000000000000E+009;1.793383806943893E-001;1.364342216402292E-002;-1.494720694608986E-003;3.110883524641395E-003;
2.406166666666667E+009;1.794130951166153E-001;1.366018969565630E-002;-1.380127971060574E-003;3.012028289958835E-003;
2.406333333333334E+009;1.797635257244110E-001;1.327173784375191E-002;-1.281632459722459E-003;3.253439441323280E-003;
2.406500000000000E+009;1.796661019325256E-001;1.300037186592817E-002;-1.199855352751911E-003;3.240510821342468E-003;
2.406666666666667E+009;1.795765906572342E-001;1.274047978222370E-002;-1.178086618892849E-003;3.170125884935260E-003;
2.406833333333334E+009;1.795264929533005E-001;1.229415275156498E-002;-1.187759102322161E-003;3.097014268860221E-003;
2.407000000000000E+009;1.795074790716171E-001;1.188700366765261E-002;-9.417186956852675E-004;3.117837477475405E-003;
2.407166666666667E+009;1.793080121278763E-001;1.158404536545277E-002;-9.577730670571327E-004;3.041306976228952E-003;
2.407333333333334E+009;1.788396090269089E-001;1.093605998903513E-002;-7.753221434541047E-004;3.101966809481382E-003;
2.407500000000000E+009;1.784141957759857E-001;1.052280049771071E-002;-6.944879423826933E-004;3.195507917553186E-003;
2.407666666666667E+009;1.780305951833725E-001;9.945729747414589E-003;-6.924234912730753E-004;3.193910233676434E-003;
2.407833333333334E+009;1.774211376905441E-001;9.232209064066410E-003;-5.541104474104941E-004;3.252080176025629E-003;
2.408000000000000E+009;1.768761128187180E-001;8.301297202706337E-003;-4.903084482066333E-004;3.002919489517808E-003;
2.408166666666667E+009;1.763820946216583E-001;7.654013577848673E-003;-4.896629834547639E-004;3.257859731093049E-003;
2.408333333333334E+009;1.759957075119019E-001;6.620167754590511E-003;-3.722079272847623E-004;3.141246270388365E-003;
2.408500000000000E+009;1.752944439649582E-001;5.593244452029467E-003;-2.992971567437053E-004;2.988268854096532E-003;
2.408666666666667E+009;1.745210886001587E-001;4.420174285769463E-003;-2.182294119847938E-004;3.074544714763761E-003;
2.408833333333334E+009;1.737042069435120E-001;3.261713543906808E-003;8.219618393923156E-006;3.106304910033941E-003;
2.409000000000000E+009;1.731029897928238E-001;1.964408205822110E-003;-6.116533040767536E-005;2.993673784658313E-003;
2.409166666666667E+009;1.725045442581177E-001;6.151509587652981E-004;3.343951902934350E-005;3.026035847142339E-003;
2.409333333333334E+009;1.718726456165314E-001;-9.091297397390008E-004;-3.504671894916100E-006;3.078251145780087E-003;
2.409500000000000E+009;1.710927039384842E-001;-2.619557082653046E-003;1.440023479517549E-004;2.968999091535807E-003;
2.409666666666667E+009;1.705659478902817E-001;-4.140182863920927E-003;4.144162812735885E-005;2.904493361711502E-003;
2.409833333333334E+009;1.697542220354080E-001;-5.746633745729923E-003;1.695936080068350E-004;2.963207662105560E-003;
2.410000000000000E+009;1.694663614034653E-001;-7.449872791767120E-003;8.819079084787518E-005;2.924832049757242E-003;
2.410166666666667E+009;1.689644753932953E-001;-9.342409670352936E-003;1.076940534403548E-004;2.785913413390517E-003;
2.410333333333334E+009;1.684215962886810E-001;-1.110827270895243E-002;1.739288127282634E-004;2.849020529538393E-003;
2.410500000000000E+009;1.682327985763550E-001;-1.297757681459189E-002;2.623860200401396E-004;2.889069495722652E-003;
2.410666666666667E+009;1.678163260221481E-001;-1.507595088332892E-002;1.962078385986388E-004;2.951006172224879E-003;
2.410833333333334E+009;1.676928400993347E-001;-1.688066497445107E-002;2.985844912473112E-004;2.906820736825466E-003;
2.411000000000000E+009;1.674667447805405E-001;-1.895955763757229E-002;3.307954757474363E-004;2.895160811021924E-003;
2.411166666666667E+009;1.673053056001663E-001;-2.088873274624348E-002;3.524751227814704E-004;2.908695489168167E-003;
2.411333333333334E+009;1.673472076654434E-001;-2.283224835991859E-002;4.395251162350178E-004;2.854801015928388E-003;
2.411500000000000E+009;1.673134416341782E-001;-2.502978406846523E-002;3.710392920766026E-004;3.031692700460553E-003;
2.411666666666667E+009;1.676790267229080E-001;-2.687341161072254E-002;5.418669315986335E-004;3.041469259187579E-003;
2.411833333333334E+009;1.679332405328751E-001;-2.871547453105450E-002;3.885676560457796E-004;3.055988345295191E-003;
2.412000000000000E+009;1.682095080614090E-001;-3.074034303426743E-002;4.636071971617639E-004;3.164794528856874E-003;
2.412166666666667E+009;1.684499979019165E-001;-3.263191133737564E-002;6.924184272065759E-004;3.008957486599684E-003;
2.412333333333334E+009;1.691383719444275E-001;-3.447521850466728E-002;7.145885610952973E-004;3.110333345830441E-003;
2.412500000000000E+009;1.692573726177216E-001;-3.644750267267227E-002;8.680022438056767E-004;3.110739169642329E-003;
2.412666666666667E+009;1.699394583702087E-001;-3.821031004190445E-002;1.042311196215451E-003;3.153715282678604E-003;
2.412833333333334E+009;1.705268919467926E-001;-3.984896838665009E-002;1.144030946306884E-003;3.226502565667033E-003;
2.413000000000000E+009;1.710357815027237E-001;-4.133766144514084E-002;1.195974997244775E-003;3.241763217374682E-003;
2.413166666666667E+009;1.717426776885986E-001;-4.313217848539352E-002;1.297057606279850E-003;3.266907529905438E-003;
2.413333333333334E+009;1.721896380186081E-001;-4.448491707444191E-002;1.414904720149934E-003;3.308668732643127E-003;
2.413500000000000E+009;1.729573607444763E-001;-4.598115384578705E-002;1.589737483300269E-003;3.080916125327349E-003;
2.413666666666667E+009;1.735928803682327E-001;-4.739795997738838E-002;1.768138376064599E-003;3.223138628527522E-003;
2.413833333333334E+009;1.741652488708496E-001;-4.863951355218887E-002;1.806924236007035E-003;3.133238526061177E-003;
2.414000000000000E+009;1.747283637523651E-001;-4.982031509280205E-002;2.100418321788311E-003;3.232003888115287E-003;
2.414166666666667E+009;1.753228455781937E-001;-5.083893612027168E-002;2.058210084214807E-003;3.212417475879192E-003;
2.414333333333334E+009;1.759161651134491E-001;-5.179612338542938E-002;2.126398030668497E-003;2.995565999299288E-003;
2.414500000000000E+009;1.767209321260452E-001;-5.267736315727234E-002;2.493129577487707E-003;3.054020926356316E-003;
2.414666666666667E+009;1.771901845932007E-001;-5.364122614264488E-002;2.495176624506712E-003;3.146734321489930E-003;
2.414833333333334E+009;1.775332987308502E-001;-5.432662740349770E-002;2.710309578105807E-003;3.017736831679940E-003;
2.415000000000000E+009;1.777656227350235E-001;-5.489262938499451E-002;2.720336662605405E-003;2.967648673802614E-003;
2.415166666666667E+009;1.782355904579163E-001;-5.544326826930046E-002;2.852389588952065E-003;2.666846150532365E-003;
2.415333333333334E+009;1.785809248685837E-001;-5.612824857234955E-002;2.936554839834571E-003;2.616845536977053E-003;
2.415500000000000E+009;1.787628829479218E-001;-5.645773559808731E-002;3.214816795662046E-003;2.437138231471181E-003;
2.415666666666667E+009;1.788076907396317E-001;-5.683028325438500E-002;3.195912344381213E-003;2.477364381775260E-003;
2.415833333333334E+009;1.789716929197311E-001;-5.711344256997109E-002;3.326515201479197E-003;2.394721144810319E-003;
2.416000000000000E+009;1.786569654941559E-001;-5.741185694932938E-002;3.230672795325518E-003;2.136466559022665E-003;
2.416166666666667E+009;1.787468045949936E-001;-5.767619237303734E-002;3.486994188278914E-003;2.112617250531912E-003;
2.416333333333334E+009;1.784162968397141E-001;-5.791710317134857E-002;3.597867907956243E-003;1.866369275376201E-003;
2.416500000000000E+009;1.781222671270371E-001;-5.818914994597435E-002;3.673524828627706E-003;1.932966406457126E-003;
2.416666666666667E+009;1.776141226291657E-001;-5.826483666896820E-002;3.755399491637945E-003;1.677382853813469E-003;
2.416833333333334E+009;1.772629469633102E-001;-5.857544019818306E-002;3.792785806581378E-003;1.487878966145217E-003;
2.417000000000000E+009;1.764553189277649E-001;-5.875001847743988E-002;3.909767139703035E-003;1.428256742656231E-003;
2.417166666666667E+009;1.757642924785614E-001;-5.884641036391258E-002;3.891424508765340E-003;1.491204602643848E-003;
2.417333333333334E+009;1.749960184097290E-001;-5.902307853102684E-002;4.111622925847769E-003;1.230099005624652E-003;
2.417500000000000E+009;1.741243749856949E-001;-5.953014642000198E-002;3.912353422492743E-003;9.781909175217152E-004;
2.417666666666667E+009;1.733501553535461E-001;-5.965328961610794E-002;4.039944149553776E-003;9.394254884682596E-004;
2.417833333333334E+009;1.722947657108307E-001;-5.996752530336380E-002;3.892769804224372E-003;8.196238777600229E-004;
2.418000000000000E+009;1.710533052682877E-001;-6.045255810022354E-002;4.104300867766142E-003;5.716508021578193E-004;
2.418166666666667E+009;1.700732707977295E-001;-6.076135113835335E-002;4.059363156557083E-003;4.975340561941266E-004;
2.418333333333334E+009;1.690423190593720E-001;-6.145962700247765E-002;4.035818390548229E-003;3.680320805869997E-004;
2.418500000000000E+009;1.678132116794586E-001;-6.204068660736084E-002;4.090911243110895E-003;2.143414458259940E-004;
2.418666666666667E+009;1.665667146444321E-001;-6.276210397481918E-002;4.086278844624758E-003;3.729867967194878E-005;
2.418833333333334E+009;1.651512831449509E-001;-6.334894895553589E-002;4.021370783448219E-003;-7.562310929642990E-005;
2.419000000000000E+009;1.638123989105225E-001;-6.419889628887177E-002;3.986375872045755E-003;-3.086378856096417E-004;
2.419166666666667E+009;1.627349853515625E-001;-6.498172879219055E-002;4.070379305630922E-003;-2.669793611858040E-004;
2.419333333333334E+009;1.612871140241623E-001;-6.584349274635315E-002;4.092934075742960E-003;-3.610858111642301E-004;
2.419500000000000E+009;1.602605283260346E-001;-6.701130419969559E-002;4.026561044156551E-003;-6.776699447073042E-004;
2.419666666666667E+009;1.590977311134338E-001;-6.810974329710007E-002;4.079034086316824E-003;-7.899858173914254E-004;
2.419833333333334E+009;1.578956395387650E-001;-6.916169822216034E-002;3.898623865097761E-003;-8.628257201053202E-004;
2.420000000000000E+009;1.567127257585526E-001;-7.056628912687302E-002;3.972730133682489E-003;-1.084307674318552E-003;
2.420166666666667E+009;1.556292623281479E-001;-7.190919667482376E-002;3.883225610479713E-003;-1.196917495690286E-003;
2.420333333333334E+009;1.548087745904923E-001;-7.344245165586472E-002;3.785856533795595E-003;-1.320248818956316E-003;
2.420500000000000E+009;1.539383232593536E-001;-7.450860738754273E-002;3.818299155682325E-003;-1.601166324689984E-003;
2.420666666666667E+009;1.529759913682938E-001;-7.607599347829819E-002;3.808285575360060E-003;-1.620693015865982E-003;
2.420833333333334E+009;1.523353755474091E-001;-7.795606553554535E-002;3.755793673917651E-003;-1.785451313480735E-003;
2.421000000000000E+009;1.514172703027725E-001;-7.935602217912674E-002;3.408416640013456E-003;-1.877731061540544E-003;
2.421166666666667E+009;1.509232372045517E-001;-8.089864999055862E-002;3.678181674331427E-003;-1.997709739953280E-003;
2.421333333333334E+009;1.504513323307037E-001;-8.273163437843323E-002;3.305736230686307E-003;-2.234599320217967E-003;
2.421500000000000E+009;1.500921100378037E-001;-8.444288372993469E-002;3.340296214446425E-003;-2.327114110812545E-003;
2.421666666666667E+009;1.497858464717865E-001;-8.605397492647171E-002;3.199115162715316E-003;-2.518045017495751E-003;
2.421833333333334E+009;1.493294239044190E-001;-8.770728111267090E-002;3.032851964235306E-003;-2.767794067040086E-003;
2.422000000000000E+009;1.491741687059403E-001;-8.943587541580200E-002;3.139383159577847E-003;-2.752064960077405E-003;
2.422166666666667E+009;1.492390632629395E-001;-9.129772335290909E-002;2.773965941742063E-003;-2.871775999665260E-003;
2.422333333333334E+009;1.491248011589050E-001;-9.275727719068527E-002;2.762802410870791E-003;-2.899362239986658E-003;
2.422500000000000E+009;1.492881029844284E-001;-9.453517943620682E-002;2.558210399001837E-003;-2.879228908568621E-003;
2.422666666666667E+009;1.493517905473709E-001;-9.623441100120544E-002;2.339439699426293E-003;-3.047977108508349E-003;
2.422833333333334E+009;1.496856063604355E-001;-9.779766201972961E-002;2.304339781403542E-003;-3.201702842488885E-003;
2.423000000000000E+009;1.498456448316574E-001;-9.933266043663025E-002;2.099991776049137E-003;-3.364261239767075E-003;
2.423166666666667E+009;1.503826379776001E-001;-1.009944602847099E-001;1.875547342933714E-003;-3.166296053677797E-003;
2.423333333333334E+009;1.508253961801529E-001;-1.023417860269547E-001;1.634736428968608E-003;-3.422561101615429E-003;
2.423500000000000E+009;1.512171775102615E-001;-1.036717668175697E-001;1.650207908824086E-003;-3.342012176290155E-003;
2.423666666666667E+009;1.515045166015625E-001;-1.051183342933655E-001;1.448223949410021E-003;-3.425579052418470E-003;
2.423833333333334E+009;1.522696018218994E-001;-1.062603220343590E-001;1.150876167230308E-003;-3.474906785413623E-003;
2.424000000000000E+009;1.525656282901764E-001;-1.073559448122978E-001;1.099764835089445E-003;-3.341738600283861E-003;
2.424166666666667E+009;1.531402617692947E-001;-1.086179763078690E-001;1.014104462228715E-003;-3.302090568467975E-003;
2.424333333333334E+009;1.537699103355408E-001;-1.094479262828827E-001;8.345018140971661E-004;-3.339131828397512E-003;
2.424500000000000E+009;1.542711555957794E-001;-1.106604114174843E-001;6.569442921318114E-004;-3.239999525249004E-003;
2.424666666666667E+009;1.549049466848373E-001;-1.111861690878868E-001;5.149813368916512E-004;-3.377905581146479E-003;
2.424833333333334E+009;1.552790403366089E-001;-1.120747774839401E-001;2.329929411644116E-004;-3.328924532979727E-003;
2.425000000000000E+009;1.557938158512116E-001;-1.128154844045639E-001;2.550397184677422E-004;-3.186187241226435E-003;
2.425166666666667E+009;1.560203135013580E-001;-1.135500520467758E-001;2.088969777105376E-004;-3.231434151530266E-003;
2.425333333333334E+009;1.564412564039230E-001;-1.140586137771606E-001;-1.365731986879837E-005;-3.224296960979700E-003;
2.425500000000000E+009;1.568218022584915E-001;-1.145823672413826E-001;-2.101451682392508E-004;-3.071851795539260E-003;
2.425666666666667E+009;1.568441390991211E-001;-1.149903759360313E-001;-2.526310854591429E-004;-3.022380871698260E-003;
2.425833333333334E+009;1.570773720741272E-001;-1.153107285499573E-001;-3.672830644063652E-004;-3.106181044131517E-003;
2.426000000000000E+009;1.571188122034073E-001;-1.156998500227928E-001;-4.568216972984374E-004;-2.903081243857741E-003;
2.426166666666667E+009;1.573680043220520E-001;-1.159420534968376E-001;-6.646211259067059E-004;-2.880829153582454E-003;
2.426333333333334E+009;1.570779830217362E-001;-1.161171719431877E-001;-6.295591592788696E-004;-2.820134162902832E-003;
2.426500000000000E+009;1.570487767457962E-001;-1.164145991206169E-001;-8.582124137319624E-004;-2.707062987610698E-003;
2.426666666666667E+009;1.568870097398758E-001;-1.163055449724197E-001;-7.256072713062167E-004;-2.742783166468144E-003;
2.426833333333334E+009;1.563028991222382E-001;-1.165362522006035E-001;-6.568230455741286E-004;-2.608069218695164E-003;
2.427000000000000E+009;1.560385674238205E-001;-1.166839152574539E-001;-8.760237833485007E-004;-2.550413366407156E-003;
2.427166666666667E+009;1.553522944450378E-001;-1.166794821619988E-001;-9.535414865240455E-004;-2.488487865775824E-003;
2.427333333333334E+009;1.546631604433060E-001;-1.168251559138298E-001;-1.051194733008742E-003;-2.302363282069564E-003;
2.427500000000000E+009;1.540812849998474E-001;-1.169870644807816E-001;-1.105208764784038E-003;-2.263956237584353E-003;
2.427666666666667E+009;1.530523747205734E-001;-1.170159131288528E-001;-1.262229750864208E-003;-2.305600326508284E-003;
2.427833333333334E+009;1.520633697509766E-001;-1.173356473445892E-001;-1.126791466958821E-003;-2.160742413252592E-003;
