# Version 1.00
#
freq[Hz];re:Trc1_S11;im:Trc1_S11;re:Trc2_S21;im:Trc2_S21;
2.400000000000000E+009;1.570990830659866E-001;6.078023463487625E-002;-3.997734747827053E-003;8.960912236943841E-004;
2.400166666666667E+009;1.570938229560852E-001;5.916777625679970E-002;-3.976235166192055E-003;9.605146478861570E-004;
2.400333333333334E+009;1.572416126728058E-001;5.705726891756058E-002;-4.009060095995665E-003;1.169820199720562E-003;
2.400500000000000E+009;1.573844105005264E-001;5.525345727801323E-002;-3.857759758830071E-003;1.112730591557920E-003;
2.400666666666667E+009;1.574718356132507E-001;5.311004072427750E-002;-3.839530283585191E-003;1.477319048717618E-003;
2.400833333333334E+009;1.578268408775330E-001;5.120126903057098E-002;-3.823601175099611E-003;1.466430490836501E-003;
2.401000000000000E+009;1.579998284578323E-001;4.912421479821205E-002;-3.778656944632530E-003;1.565674669109285E-003;
2.401166666666667E+009;1.585549414157867E-001;4.684458300471306E-002;-3.851006971672177E-003;1.596444635652006E-003;
2.401333333333334E+009;1.585593819618225E-001;4.495060071349144E-002;-3.581246826797724E-003;1.698506879620254E-003;
2.401500000000000E+009;1.592599749565125E-001;4.284787178039551E-002;-3.422250971198082E-003;1.841691439040005E-003;
2.401666666666667E+009;1.597268283367157E-001;4.106107726693153E-002;-3.321292344480753E-003;2.047847257927060E-003;
2.401833333333334E+009;1.604125350713730E-001;3.909191489219666E-002;-3.379982663318515E-003;2.115991665050387E-003;
2.402000000000000E+009;1.606254130601883E-001;3.699872270226479E-002;-3.154482459649444E-003;2.141769044101238E-003;
2.402166666666667E+009;1.614247262477875E-001;3.495062515139580E-002;-3.089935751631856E-003;2.097610384225845E-003;
2.402333333333334E+009;1.620814949274063E-001;3.342177346348763E-002;-3.079680260270834E-003;2.287075622007251E-003;
2.402500000000000E+009;1.629880070686340E-001;3.168247267603874E-002;-3.028141800314188E-003;2.306085545569658E-003;
2.402666666666667E+009;1.636485606431961E-001;3.014579787850380E-002;-2.877694321796298E-003;2.305388217791915E-003;
2.402833333333334E+009;1.645676791667938E-001;2.848500385880470E-002;-2.728844759985805E-003;2.418668940663338E-003;
2.403000000000000E+009;1.653837412595749E-001;2.684490941464901E-002;-2.627901500090957E-003;2.403840655460954E-003;
2.403166666666667E+009;1.662362366914749E-001;2.553074248135090E-002;-2.408310072496533E-003;2.362163038924336E-003;
2.403333333333334E+009;1.670563817024231E-001;2.440647408366203E-002;-2.420674776658416E-003;2.492102561518550E-003;
2.403500000000000E+009;1.680275201797485E-001;2.309563010931015E-002;-2.328117610886693E-003;2.571766264736652E-003;
2.403666666666667E+009;1.690758168697357E-001;2.183488383889198E-002;-2.305200556293130E-003;2.334408927708864E-003;
2.403833333333334E+009;1.700070500373840E-001;2.064355276525021E-002;-2.117880387231708E-003;2.400075551122427E-003;
2.404000000000000E+009;1.709774583578110E-001;1.967844553291798E-002;-1.974432729184628E-003;2.389920176938176E-003;
2.404166666666667E+009;1.718310564756393E-001;1.855420693755150E-002;-1.963896909728646E-003;2.459156094118953E-003;
2.404333333333334E+009;1.727715730667114E-001;1.804561354219914E-002;-1.953931758180261E-003;2.401259029284120E-003;
2.404500000000000E+009;1.733328104019165E-001;1.719974353909493E-002;-1.976614817976952E-003;2.465889789164066E-003;
2.404666666666667E+009;1.744219660758972E-001;1.636826433241367E-002;-1.864084159024060E-003;2.559321466833353E-003;
2.404833333333334E+009;1.750214695930481E-001;1.569541729986668E-002;-1.739138504490256E-003;2.477866830304265E-003;
2.405000000000000E+009;1.758124679327011E-001;1.513545867055655E-002;-1.819393248297274E-003;2.529495628550649E-003;
2.405166666666667E+009;1.764989793300629E-001;1.458994112908840E-002;-1.652912585996091E-003;2.488856436684728E-003;
2.405333333333334E+009;1.772638857364655E-001;1.391858793795109E-002;-1.611491781659424E-003;2.595277270302177E-003;
2.405500000000000E+009;1.777649223804474E-001;1.367262937128544E-002;-1.510280184447765E-003;2.577911363914609E-003;
2.405666666666667E+009;1.784367412328720E-001;1.332375034689903E-002;-1.465813955292106E-003;2.534610219299793E-003;
2.405833333333334E+009;1.785106658935547E-001;1.295906491577625E-002;-1.487422734498978E-003;2.616129582747817E-003;
2.406000000000000E+009;1.789948493242264E-001;1.266942918300629E-002;-1.412056037224829E-003;2.737944712862372E-003;
2.406166666666667E+009;1.792177110910416E-001;1.235942170023918E-002;-1.334145781584084E-003;2.680626465007663E-003;
2.406333333333334E+009;1.795489639043808E-001;1.212505716830492E-002;-1.322152558714151E-003;2.712132409214973E-003;
2.406500000000000E+009;1.796532571315765E-001;1.184775866568089E-002;-1.153011922724545E-003;2.600590931251645E-003;
2.406666666666667E+009;1.794843971729279E-001;1.151394844055176E-002;-1.177511177957058E-003;2.656345022842288E-003;
2.406833333333334E+009;1.797230094671249E-001;1.106472313404083E-002;-9.805115405470133E-004;2.750707091763616E-003;
2.407000000000000E+009;1.796028316020966E-001;1.073112990707159E-002;-1.039047143422067E-003;2.722741570323706E-003;
2.407166666666667E+009;1.796642243862152E-001;1.031974144279957E-002;-1.011751242913306E-003;2.554259961470962E-003;
2.407333333333334E+009;1.791531294584274E-001;9.900861419737339E-003;-8.853169856593013E-004;2.636774210259318E-003;
2.407500000000000E+009;1.789582222700119E-001;9.353816509246826E-003;-8.163983002305031E-004;2.443095436319709E-003;
2.407666666666667E+009;1.786159574985504E-001;8.864407427608967E-003;-6.862059817649424E-004;2.544827759265900E-003;
2.407833333333334E+009;1.780860275030136E-001;8.197424001991749E-003;-7.237017853185535E-004;2.623171079903841E-003;
2.408000000000000E+009;1.777525097131729E-001;7.309797219932079E-003;-7.187687442637980E-004;2.545759081840515E-003;
2.408166666666667E+009;1.771463304758072E-001;6.656405981630087E-003;-5.107750184834003E-004;2.612684154883027E-003;
2.408333333333334E+009;1.766894310712814E-001;5.910656414926052E-003;-5.238145822659135E-004;2.680142642930150E-003;
2.408500000000000E+009;1.760646700859070E-001;4.790585022419691E-003;-5.970066995359957E-004;2.583497436717153E-003;
2.408666666666667E+009;1.754968613386154E-001;3.665248164907098E-003;-6.526671350002289E-004;2.522409195080400E-003;
2.408833333333334E+009;1.747333407402039E-001;2.654626965522766E-003;-5.316552123986185E-004;2.528229728341103E-003;
2.409000000000000E+009;1.740995049476624E-001;1.563772675581276E-003;-3.099260211456567E-004;2.423539990559220E-003;
2.409166666666667E+009;1.735556721687317E-001;2.477766247466207E-004;-3.929967351723462E-004;2.471885178238154E-003;
2.409333333333334E+009;1.729190200567246E-001;-1.251699286513031E-003;-4.120658850297332E-004;2.514112507924438E-003;
2.409500000000000E+009;1.720981895923615E-001;-2.761852694675326E-003;-3.222498053219169E-004;2.468019723892212E-003;
2.409666666666667E+009;1.717422306537628E-001;-4.216873552650213E-003;-3.170895215589553E-004;2.443495672196150E-003;
2.409833333333334E+009;1.709111481904984E-001;-5.619137082248926E-003;-2.786979021038860E-004;2.377309836447239E-003;
2.410000000000000E+009;1.705079525709152E-001;-7.360332645475864E-003;-1.687234180280939E-004;2.531108679249883E-003;
2.410166666666667E+009;1.698611080646515E-001;-8.748913183808327E-003;-2.463716373313218E-004;2.546965843066573E-003;
2.410333333333334E+009;1.693646013736725E-001;-1.069717574864626E-002;-2.141806326108053E-004;2.394480165094137E-003;
2.410500000000000E+009;1.691738069057465E-001;-1.250436529517174E-002;-3.127300005871803E-004;2.422639867290855E-003;
2.410666666666667E+009;1.686114966869354E-001;-1.451828330755234E-002;-2.052540075965226E-004;2.470392035320401E-003;
2.410833333333334E+009;1.684028208255768E-001;-1.633427105844021E-002;-3.381071437615901E-004;2.467223908752203E-003;
2.411000000000000E+009;1.680306941270828E-001;-1.803502254188061E-002;-1.981763925869018E-004;2.373319817706943E-003;
2.411166666666667E+009;1.678652763366699E-001;-2.004694752395153E-002;-1.977743813768029E-004;2.437219489365816E-003;
2.411333333333334E+009;1.678828001022339E-001;-2.215647511184216E-002;-1.021749631036073E-004;2.486952114850283E-003;
2.411500000000000E+009;1.677783876657486E-001;-2.411128953099251E-002;-1.648128818487749E-004;2.535227220505476E-003;
2.411666666666667E+009;1.680162400007248E-001;-2.598167397081852E-002;-8.833412721287459E-005;2.645200351253152E-003;
2.411833333333334E+009;1.681251525878906E-001;-2.768781594932079E-002;-1.792862167349085E-004;2.702880883589387E-003;
2.412000000000000E+009;1.683616042137146E-001;-2.953069284558296E-002;9.491459786659107E-005;2.737110946327448E-003;
2.412166666666667E+009;1.683858931064606E-001;-3.177308291196823E-002;3.828381522907876E-005;2.696933923289180E-003;
2.412333333333334E+009;1.689929664134979E-001;-3.344688564538956E-002;1.927425330450205E-007;2.774584339931607E-003;
2.412500000000000E+009;1.691619902849197E-001;-3.511621057987213E-002;1.421844644937664E-004;2.839501248672605E-003;
2.412666666666667E+009;1.697874814271927E-001;-3.722377493977547E-002;2.429361193208024E-004;2.842524088919163E-003;
2.412833333333334E+009;1.700530350208283E-001;-3.877025470137596E-002;3.824410086963326E-004;2.874088007956743E-003;
2.413000000000000E+009;1.707872450351715E-001;-4.055927321314812E-002;5.490775220096111E-004;2.779488451778889E-003;
2.413166666666667E+009;1.711291372776032E-001;-4.203543812036514E-002;3.784017462749034E-004;2.931098453700542E-003;
2.413333333333334E+009;1.715982258319855E-001;-4.373000934720039E-002;6.241497467271984E-004;2.969669178128243E-003;
2.413500000000000E+009;1.723970472812653E-001;-4.521177709102631E-002;6.276882486417890E-004;2.859611064195633E-003;
2.413666666666667E+009;1.730871796607971E-001;-4.669767618179321E-002;7.877959869801998E-004;3.011437132954598E-003;
2.413833333333334E+009;1.735346913337708E-001;-4.797904938459396E-002;8.743735961616039E-004;2.911504125222564E-003;
2.414000000000000E+009;1.739644557237625E-001;-4.938104748725891E-002;9.562446502968669E-004;3.073480213060975E-003;
2.414166666666667E+009;1.747293770313263E-001;-5.051801353693008E-002;1.051008468493819E-003;2.959553617984057E-003;
2.414333333333334E+009;1.752108186483383E-001;-5.164138972759247E-002;1.273282105103135E-003;2.918181242421269E-003;
2.414500000000000E+009;1.761021167039871E-001;-5.250436067581177E-002;1.334844040684402E-003;3.055311273783445E-003;
2.414666666666667E+009;1.763840168714523E-001;-5.350235477089882E-002;1.444567460566759E-003;2.859689062461257E-003;
2.414833333333334E+009;1.768115460872650E-001;-5.442287027835846E-002;1.425727852620184E-003;2.856238745152950E-003;
2.415000000000000E+009;1.771024614572525E-001;-5.497793108224869E-002;1.538001582957804E-003;2.763589844107628E-003;
2.415166666666667E+009;1.773785203695297E-001;-5.575542896986008E-002;1.739279832690954E-003;2.838030224665999E-003;
2.415333333333334E+009;1.778891682624817E-001;-5.646007508039475E-002;1.813451177440584E-003;2.830146811902523E-003;
2.415500000000000E+009;1.781526803970337E-001;-5.687088146805763E-002;1.870947889983654E-003;2.711475128307939E-003;
2.415666666666667E+009;1.780837327241898E-001;-5.723082646727562E-002;2.016538521274924E-003;2.485072240233421E-003;
2.415833333333334E+009;1.783464848995209E-001;-5.776762589812279E-002;2.040697028860450E-003;2.649797126650810E-003;
2.416000000000000E+009;1.782232522964478E-001;-5.807723850011826E-002;2.114288508892059E-003;2.681963611394167E-003;
2.416166666666667E+009;1.783383339643478E-001;-5.847558379173279E-002;2.171240979805589E-003;2.552175661548972E-003;
2.416333333333334E+009;1.780661195516586E-001;-5.872701108455658E-002;2.387170679867268E-003;2.299322513863444E-003;
2.416500000000000E+009;1.779239624738693E-001;-5.914736539125443E-002;2.414023270830512E-003;2.357455436140299E-003;
2.416666666666667E+009;1.774190515279770E-001;-5.918709188699722E-002;2.408807864412665E-003;2.340373117476702E-003;
2.416833333333334E+009;1.771443933248520E-001;-5.959354341030121E-002;2.541039837524295E-003;2.168202539905906E-003;
2.417000000000000E+009;1.765283644199371E-001;-5.977492034435272E-002;2.521260874345899E-003;2.166837221011519E-003;
2.417166666666667E+009;1.759595870971680E-001;-5.989155918359757E-002;2.716969931498170E-003;2.070410177111626E-003;
2.417333333333334E+009;1.753124743700028E-001;-6.011291965842247E-002;2.624260960146785E-003;1.946263248100877E-003;
2.417500000000000E+009;1.744496822357178E-001;-6.059826165437698E-002;2.668738598003984E-003;1.894537243060768E-003;
2.417666666666667E+009;1.736855804920197E-001;-6.075939536094666E-002;2.737838309258223E-003;1.903108553960919E-003;
2.417833333333334E+009;1.728154122829437E-001;-6.095011904835701E-002;2.698493190109730E-003;1.736300997436047E-003;
2.418000000000000E+009;1.718031167984009E-001;-6.143701821565628E-002;2.855516970157623E-003;1.600849209353328E-003;
2.418166666666667E+009;1.707609593868256E-001;-6.184462085366249E-002;2.823054557666183E-003;1.633590669371188E-003;
2.418333333333334E+009;1.698565036058426E-001;-6.240382418036461E-002;2.884574234485626E-003;1.569187501445413E-003;
2.418500000000000E+009;1.686703860759735E-001;-6.286382675170898E-002;2.893044846132398E-003;1.449828268960118E-003;
2.418666666666667E+009;1.675366312265396E-001;-6.348008662462235E-002;2.926090266555548E-003;1.346304314211011E-003;
2.418833333333334E+009;1.662046760320664E-001;-6.415795534849167E-002;3.134001046419144E-003;1.292455475777388E-003;
2.419000000000000E+009;1.648817211389542E-001;-6.488268077373505E-002;2.991135930642486E-003;1.168903894722462E-003;
2.419166666666667E+009;1.637813448905945E-001;-6.565345078706741E-002;3.030379535630345E-003;1.065295422449708E-003;
2.419333333333334E+009;1.623958647251129E-001;-6.624777615070343E-002;3.085937816649675E-003;1.127795781940222E-003;
2.419500000000000E+009;1.613182425498962E-001;-6.745444238185883E-002;3.088724100962281E-003;1.045496086589992E-003;
2.419666666666667E+009;1.602089256048203E-001;-6.858785450458527E-002;3.061856143176556E-003;1.077494700439274E-003;
2.419833333333334E+009;1.590243726968765E-001;-6.943383812904358E-002;3.143424401059747E-003;8.468625019304454E-004;
2.420000000000000E+009;1.579035222530365E-001;-7.064376026391983E-002;3.257710486650467E-003;8.398267673328519E-004;
2.420166666666667E+009;1.568735688924789E-001;-7.209617644548416E-002;3.344574244692922E-003;7.983875111676753E-004;
2.420333333333334E+009;1.558038592338562E-001;-7.351240515708923E-002;3.366834484040737E-003;6.250176811590791E-004;
2.420500000000000E+009;1.548560857772827E-001;-7.466184347867966E-002;3.440148895606399E-003;5.204905173741281E-004;
2.420666666666667E+009;1.540072709321976E-001;-7.594712823629379E-002;3.419578075408936E-003;4.110495501663536E-004;
2.420833333333334E+009;1.530857682228088E-001;-7.754180580377579E-002;3.310226602479816E-003;4.320527077652514E-004;
2.421000000000000E+009;1.523943841457367E-001;-7.910358160734177E-002;3.405437106266618E-003;3.024005272891372E-004;
2.421166666666667E+009;1.516012698411942E-001;-8.061347901821137E-002;3.517066128551960E-003;1.338347647106275E-004;
2.421333333333334E+009;1.511649340391159E-001;-8.226336538791657E-002;3.552674548700452E-003;4.302275192458183E-005;
2.421500000000000E+009;1.504973024129868E-001;-8.386492729187012E-002;3.514874493703246E-003;-4.642532439902425E-005;
2.421666666666667E+009;1.501489877700806E-001;-8.549568057060242E-002;3.563108155503869E-003;-3.725894202943891E-004;
2.421833333333334E+009;1.499604731798172E-001;-8.710152655839920E-002;3.475132165476680E-003;-2.342268708162010E-004;
2.422000000000000E+009;1.495763063430786E-001;-8.891316503286362E-002;3.584078745916486E-003;-5.566109903156757E-004;
2.422166666666667E+009;1.493563503026962E-001;-9.070904552936554E-002;3.489233786240220E-003;-4.629745671991259E-004;
2.422333333333334E+009;1.494771391153336E-001;-9.223852306604385E-002;3.573557361960411E-003;-7.307591149583459E-004;
2.422500000000000E+009;1.493178755044937E-001;-9.383129328489304E-002;3.492484102025628E-003;-9.498092113062739E-004;
2.422666666666667E+009;1.491314768791199E-001;-9.563284367322922E-002;3.298434661701322E-003;-1.091683050617576E-003;
2.422833333333334E+009;1.496675759553909E-001;-9.730632603168488E-002;3.322378499433398E-003;-1.146605587564409E-003;
2.423000000000000E+009;1.496420949697495E-001;-9.863169491291046E-002;3.461264539510012E-003;-1.197421574033797E-003;
2.423166666666667E+009;1.500902175903320E-001;-1.003666520118713E-001;3.111327299848199E-003;-1.338129513897002E-003;
2.423333333333334E+009;1.504234969615936E-001;-1.017107963562012E-001;3.119731089100242E-003;-1.473759999498725E-003;
2.423500000000000E+009;1.508138775825501E-001;-1.031892746686935E-001;2.874667523428798E-003;-1.475062803365290E-003;
2.423666666666667E+009;1.510150730609894E-001;-1.046934127807617E-001;2.898739650845528E-003;-1.682534464634955E-003;
2.423833333333334E+009;1.516440361738205E-001;-1.061152443289757E-001;2.988816238939762E-003;-1.703540794551373E-003;
2.424000000000000E+009;1.520324349403381E-001;-1.071318462491036E-001;2.702374011278153E-003;-1.704925321973860E-003;
2.424166666666667E+009;1.523531228303909E-001;-1.082361638545990E-001;2.616474637761712E-003;-2.021154621616006E-003;
2.424333333333334E+009;1.530068367719650E-001;-1.092423722147942E-001;2.572776051238179E-003;-1.887086895294488E-003;
2.424500000000000E+009;1.534997373819351E-001;-1.104811057448387E-001;2.376977587118745E-003;-2.062908373773098E-003;
2.424666666666667E+009;1.541647613048554E-001;-1.111740395426750E-001;2.195444190874696E-003;-2.120808931067586E-003;
2.424833333333334E+009;1.544335782527924E-001;-1.120744347572327E-001;2.282438799738884E-003;-2.082168124616146E-003;
2.425000000000000E+009;1.549749225378037E-001;-1.130659133195877E-001;2.153058303520083E-003;-2.106229076161981E-003;
2.425166666666667E+009;1.551899164915085E-001;-1.136115491390228E-001;1.877301139757037E-003;-2.383779967203736E-003;
2.425333333333334E+009;1.557300537824631E-001;-1.142935901880264E-001;1.875866786576808E-003;-2.271364675834775E-003;
2.425500000000000E+009;1.560290306806564E-001;-1.149229332804680E-001;1.941112219356000E-003;-2.348258625715971E-003;
2.425666666666667E+009;1.561519503593445E-001;-1.153707578778267E-001;1.761975465342403E-003;-2.405393635854125E-003;
2.425833333333334E+009;1.563530117273331E-001;-1.157532334327698E-001;1.676512300036848E-003;-2.378725679591298E-003;
2.426000000000000E+009;1.564009934663773E-001;-1.163204982876778E-001;1.496293116360903E-003;-2.191655337810516E-003;
2.426166666666667E+009;1.566786766052246E-001;-1.166275739669800E-001;1.584781217388809E-003;-2.367767738178372E-003;
2.426333333333334E+009;1.565482169389725E-001;-1.168895587325096E-001;1.414048019796610E-003;-2.259869128465653E-003;
2.426500000000000E+009;1.565035283565521E-001;-1.170958131551743E-001;1.280965283513069E-003;-2.380916615948081E-003;
2.426666666666667E+009;1.564035266637802E-001;-1.171491146087647E-001;1.016275491565466E-003;-2.269670367240906E-003;
2.426833333333334E+009;1.559755951166153E-001;-1.173885539174080E-001;9.796387748792768E-004;-2.093793125823140E-003;
2.427000000000000E+009;1.556253284215927E-001;-1.176113635301590E-001;1.069019432179630E-003;-2.191075123846531E-003;
2.427166666666667E+009;1.551977545022965E-001;-1.176459416747093E-001;8.700049947947264E-004;-2.212760038673878E-003;
2.427333333333334E+009;1.544691175222397E-001;-1.178049668669701E-001;8.958457037806511E-004;-2.067231107503176E-003;
2.427500000000000E+009;1.540461182594299E-001;-1.179241463541985E-001;9.007271146401763E-004;-2.113077323883772E-003;
2.427666666666667E+009;1.531501859426498E-001;-1.180418059229851E-001;9.061281452886760E-004;-2.099480014294386E-003;
2.427833333333334E+009;1.522693783044815E-001;-1.183026432991028E-001;7.609004969708622E-004;-2.035308163613081E-003;
