# Version 1.00
#
freq[Hz];re:Trc1_S11;im:Trc1_S11;re:Trc2_S21;im:Trc2_S21;
2.400000000000000E+009;1.560918688774109E-001;5.990539863705635E-002;-2.189879072830081E-003;-1.186130219139159E-003;
2.400166666666667E+009;1.560393571853638E-001;5.837793275713921E-002;-2.276752609759569E-003;-1.079496461898089E-003;
2.400333333333334E+009;1.561282128095627E-001;5.613820999860764E-002;-2.163914032280445E-003;-1.169030671007931E-003;
2.400500000000000E+009;1.565448790788651E-001;5.407882109284401E-002;-2.124354010447860E-003;-1.041605602949858E-003;
2.400666666666667E+009;1.566628962755203E-001;5.202127993106842E-002;-2.177915768697858E-003;-9.280235972255468E-004;
2.400833333333334E+009;1.571440696716309E-001;4.994952306151390E-002;-2.137470990419388E-003;-7.318117422983050E-004;
2.401000000000000E+009;1.574075073003769E-001;4.785040393471718E-002;-2.140224678441882E-003;-5.429398152045906E-004;
2.401166666666667E+009;1.577436476945877E-001;4.587110131978989E-002;-2.054029144346714E-003;-6.549623794853687E-004;
2.401333333333334E+009;1.582820266485214E-001;4.364561289548874E-002;-1.996218692511320E-003;-7.491261931136251E-004;
2.401500000000000E+009;1.590226590633392E-001;4.161754995584488E-002;-1.913210260681808E-003;-4.363887419458479E-004;
2.401666666666667E+009;1.594600379467011E-001;3.984147682785988E-002;-1.894378219731152E-003;-6.345732253976166E-004;
2.401833333333334E+009;1.601753383874893E-001;3.774573281407356E-002;-1.771434326656163E-003;-5.219911108724773E-004;
2.402000000000000E+009;1.605466157197952E-001;3.608714044094086E-002;-1.896302681416273E-003;-4.505079414229840E-004;
2.402166666666667E+009;1.615155637264252E-001;3.403389826416969E-002;-1.702993060462177E-003;-5.611778469756246E-004;
2.402333333333334E+009;1.621970385313034E-001;3.232575207948685E-002;-1.739310100674629E-003;-5.078430986031890E-004;
2.402500000000000E+009;1.631737351417542E-001;3.078344836831093E-002;-1.466194516979158E-003;-3.153747529722750E-004;
2.402666666666667E+009;1.637736409902573E-001;2.913809567689896E-002;-1.709661795757711E-003;-4.674134543165565E-004;
2.402833333333334E+009;1.649280637502670E-001;2.761637046933174E-002;-1.695310580544174E-003;-4.924616077914834E-004;
2.403000000000000E+009;1.658267080783844E-001;2.633803524076939E-002;-1.721684588119388E-003;-6.312089972198010E-004;
2.403166666666667E+009;1.666517853736877E-001;2.492296323180199E-002;-1.615884248167276E-003;-4.076360200997442E-004;
2.403333333333334E+009;1.678227931261063E-001;2.367710508406162E-002;-1.733125071041286E-003;-3.761243424378336E-004;
2.403500000000000E+009;1.687169373035431E-001;2.244518697261810E-002;-1.624780008569360E-003;-3.715138300321996E-004;
2.403666666666667E+009;1.696305871009827E-001;2.136286161839962E-002;-1.595523441210389E-003;-4.266681498847902E-004;
2.403833333333334E+009;1.708092689514160E-001;2.048927173018456E-002;-1.596600282937288E-003;-3.907583886757493E-004;
2.404000000000000E+009;1.718361377716065E-001;1.951060630381107E-002;-1.706666895188391E-003;-4.844748473260552E-004;
2.404166666666667E+009;1.725930720567703E-001;1.871743425726891E-002;-1.594011439010501E-003;-4.965957487002015E-004;
2.404333333333334E+009;1.736281514167786E-001;1.797661930322647E-002;-1.845610328018665E-003;-4.610749019775540E-004;
2.404500000000000E+009;1.742319762706757E-001;1.717218756675720E-002;-1.704146503470838E-003;-4.300503933336586E-004;
2.404666666666667E+009;1.752664148807526E-001;1.672204956412315E-002;-1.620615017600358E-003;-4.205084405839443E-004;
2.404833333333334E+009;1.758529245853424E-001;1.606291905045509E-002;-1.503738109022379E-003;-4.312830569688231E-004;
2.405000000000000E+009;1.767014712095261E-001;1.559617556631565E-002;-1.601978554390371E-003;-4.100497171748430E-004;
2.405166666666667E+009;1.773464679718018E-001;1.512331515550613E-002;-1.754589960910380E-003;-4.399134777486324E-004;
2.405333333333334E+009;1.779441535472870E-001;1.478768978267908E-002;-1.717153238132596E-003;-3.228584537282586E-004;
2.405500000000000E+009;1.784442812204361E-001;1.459072250872850E-002;-1.679822336882353E-003;-3.520913596730679E-004;
2.405666666666667E+009;1.787695288658142E-001;1.438882015645504E-002;-1.687839976511896E-003;-4.120256926398724E-004;
2.405833333333334E+009;1.790434122085571E-001;1.412124559283257E-002;-1.741862040944397E-003;-3.124327922705561E-004;
2.406000000000000E+009;1.795087456703186E-001;1.367444451898336E-002;-1.837864285334945E-003;-3.165272355545312E-004;
2.406166666666667E+009;1.796413362026215E-001;1.353767141699791E-002;-1.900419127196074E-003;-1.162944317911752E-004;
2.406333333333334E+009;1.798516362905502E-001;1.323688030242920E-002;-1.951148849911988E-003;-3.107974480371922E-004;
2.406500000000000E+009;1.798022389411926E-001;1.298885047435761E-002;-1.938269007951021E-003;-2.565627801232040E-004;
2.406666666666667E+009;1.796673536300659E-001;1.272008009254932E-002;-1.928745768964291E-003;-1.981344830710441E-004;
2.406833333333334E+009;1.797054857015610E-001;1.232521794736385E-002;-2.046136884018779E-003;-7.991110760485753E-005;
2.407000000000000E+009;1.795239746570587E-001;1.181345619261265E-002;-1.892452593892813E-003;-1.505854452261701E-004;
2.407166666666667E+009;1.794062554836273E-001;1.155606471002102E-002;-1.900878967717290E-003;-9.576013690093532E-005;
2.407333333333334E+009;1.789699345827103E-001;1.082562562078238E-002;-2.171063097193837E-003;-2.403104917902965E-005;
2.407500000000000E+009;1.785238236188889E-001;1.037374231964350E-002;-1.992248930037022E-003;-7.052704404486576E-006;
2.407666666666667E+009;1.781352758407593E-001;9.865907020866871E-003;-2.015484496951103E-003;9.524004417471588E-005;
2.407833333333334E+009;1.775163561105728E-001;9.017393924295902E-003;-2.103422535583377E-003;7.578341319458559E-005;
2.408000000000000E+009;1.770121604204178E-001;8.054289035499096E-003;-1.996629871428013E-003;1.557443756610155E-004;
2.408166666666667E+009;1.764860302209854E-001;7.488234434276819E-003;-1.923175179399550E-003;2.230572717962787E-004;
2.408333333333334E+009;1.759675592184067E-001;6.511206738650799E-003;-1.923349336721003E-003;2.938453108072281E-004;
2.408500000000000E+009;1.752168983221054E-001;5.445799324661493E-003;-1.800788217224181E-003;4.101302474737167E-004;
2.408666666666667E+009;1.745436936616898E-001;4.273419734090567E-003;-1.892235828563571E-003;3.068288206122816E-004;
2.408833333333334E+009;1.737081706523895E-001;3.144989488646388E-003;-1.877141534350812E-003;4.789151134900749E-004;
2.409000000000000E+009;1.730323284864426E-001;1.831978093832731E-003;-1.844549900852144E-003;5.188951035961509E-004;
2.409166666666667E+009;1.723662465810776E-001;3.571334236767143E-004;-1.777692930772901E-003;5.553595838136971E-004;
2.409333333333334E+009;1.718081533908844E-001;-1.108865486457944E-003;-1.800355385057628E-003;4.907125257886946E-004;
2.409500000000000E+009;1.711309403181076E-001;-2.608763286843896E-003;-1.817660522647202E-003;6.002843147143722E-004;
2.409666666666667E+009;1.702739149332047E-001;-4.280893597751856E-003;-1.801155507564545E-003;5.015708738937974E-004;
2.409833333333334E+009;1.697405427694321E-001;-5.712310317903757E-003;-1.777758356183767E-003;5.616368725895882E-004;
2.410000000000000E+009;1.693033277988434E-001;-7.539408281445503E-003;-1.670921454206109E-003;5.997936823405325E-004;
2.410166666666667E+009;1.688817888498306E-001;-9.397110901772976E-003;-1.610758830793202E-003;7.109235157258809E-004;
2.410333333333334E+009;1.682938188314438E-001;-1.126086805015802E-002;-1.745755784213543E-003;4.901353968307376E-004;
2.410500000000000E+009;1.680013984441757E-001;-1.312644314020872E-002;-1.692584832198918E-003;5.702981143258512E-004;
2.410666666666667E+009;1.677374392747879E-001;-1.525682024657726E-002;-1.681615132838488E-003;5.872717010788620E-004;
2.410833333333334E+009;1.676726937294006E-001;-1.698555611073971E-002;-1.678679371252656E-003;5.387646378949285E-004;
2.411000000000000E+009;1.672447174787521E-001;-1.906454190611839E-002;-1.559101277962327E-003;5.140639259479940E-004;
2.411166666666667E+009;1.673051565885544E-001;-2.091424167156220E-002;-1.743748434819281E-003;4.874602891504765E-004;
2.411333333333334E+009;1.671801954507828E-001;-2.298664301633835E-002;-1.677767839282751E-003;5.809763679280877E-004;
2.411500000000000E+009;1.672112196683884E-001;-2.506298758089542E-002;-1.720290631055832E-003;6.409763591364026E-004;
2.411666666666667E+009;1.675970256328583E-001;-2.703754790127277E-002;-1.920091453939676E-003;6.226113182492554E-004;
2.411833333333334E+009;1.677159667015076E-001;-2.877171710133553E-002;-1.885696081444621E-003;6.863377639092505E-004;
2.412000000000000E+009;1.680994033813477E-001;-3.075000457465649E-002;-1.872096909210086E-003;6.295723724178970E-004;
2.412166666666667E+009;1.683969944715500E-001;-3.255391493439674E-002;-1.987046562135220E-003;6.666723638772965E-004;
2.412333333333334E+009;1.689676493406296E-001;-3.441489115357399E-002;-1.879347837530077E-003;8.405679254792631E-004;
2.412500000000000E+009;1.691729724407196E-001;-3.627692535519600E-002;-1.989047043025494E-003;7.832851842977107E-004;
2.412666666666667E+009;1.697911471128464E-001;-3.808318078517914E-002;-2.055230783298612E-003;7.635235670022667E-004;
2.412833333333334E+009;1.703919917345047E-001;-3.980985283851624E-002;-2.131248591467738E-003;8.697326411493123E-004;
2.413000000000000E+009;1.710378676652908E-001;-4.140628874301910E-002;-2.143749035894871E-003;1.079914276488125E-003;
2.413166666666667E+009;1.717460900545120E-001;-4.302510619163513E-002;-2.056085970252752E-003;9.999412577599287E-004;
2.413333333333334E+009;1.720740497112274E-001;-4.450570791959763E-002;-2.049832371994853E-003;1.146031660027802E-003;
2.413500000000000E+009;1.729779392480850E-001;-4.602997377514839E-002;-2.175226807594299E-003;1.322487951256335E-003;
2.413666666666667E+009;1.737332791090012E-001;-4.739535599946976E-002;-2.224907511845231E-003;1.159193343482912E-003;
2.413833333333334E+009;1.741429120302200E-001;-4.855636507272720E-002;-2.326686400920153E-003;1.259161042980850E-003;
2.414000000000000E+009;1.747751682996750E-001;-4.979203641414642E-002;-2.237685257568955E-003;1.418068655766547E-003;
2.414166666666667E+009;1.755240410566330E-001;-5.082378908991814E-002;-2.306753303855658E-003;1.532011898234487E-003;
2.414333333333334E+009;1.759214401245117E-001;-5.192172527313232E-002;-2.341890707612038E-003;1.468898029997945E-003;
2.414500000000000E+009;1.766016334295273E-001;-5.271890759468079E-002;-2.190810861065984E-003;1.812890404835343E-003;
2.414666666666667E+009;1.770962178707123E-001;-5.350537970662117E-002;-2.155440161004663E-003;1.825649989768863E-003;
2.414833333333334E+009;1.775838583707809E-001;-5.427340790629387E-002;-2.162572694942355E-003;1.925501041114330E-003;
2.415000000000000E+009;1.780072450637817E-001;-5.486883968114853E-002;-2.269711811095476E-003;2.105326391756535E-003;
2.415166666666667E+009;1.782421320676804E-001;-5.551847442984581E-002;-2.091106260195375E-003;2.197714289650321E-003;
2.415333333333334E+009;1.786907315254211E-001;-5.599971115589142E-002;-2.118997741490603E-003;2.127833198755980E-003;
2.415500000000000E+009;1.787591874599457E-001;-5.644277483224869E-002;-1.896711532026529E-003;2.316088415682316E-003;
2.415666666666667E+009;1.789098232984543E-001;-5.679971724748612E-002;-1.944392104633153E-003;2.547028008848429E-003;
2.415833333333334E+009;1.789499223232269E-001;-5.717148259282112E-002;-1.939697656780481E-003;2.688286826014519E-003;
2.416000000000000E+009;1.788473725318909E-001;-5.750646814703941E-002;-1.870226464234293E-003;2.695060567930341E-003;
2.416166666666667E+009;1.788631975650787E-001;-5.770451948046684E-002;-1.774322940036655E-003;2.711313543841243E-003;
2.416333333333334E+009;1.785049438476563E-001;-5.782641097903252E-002;-1.482310006394982E-003;2.820554189383984E-003;
2.416500000000000E+009;1.782649010419846E-001;-5.806274712085724E-002;-1.635840511880815E-003;2.939999802038074E-003;
2.416666666666667E+009;1.777331382036209E-001;-5.834538117051125E-002;-1.430563977919519E-003;2.957361284643412E-003;
2.416833333333334E+009;1.773497462272644E-001;-5.864688009023666E-002;-1.280499855056405E-003;3.020905889570713E-003;
2.417000000000000E+009;1.764823049306870E-001;-5.878316983580589E-002;-1.034817309118807E-003;3.112101461738348E-003;
2.417166666666667E+009;1.759196817874908E-001;-5.890135094523430E-002;-1.055813743732870E-003;3.327088663354516E-003;
2.417333333333334E+009;1.751265376806259E-001;-5.908967554569244E-002;-9.380014380440116E-004;3.337340429425240E-003;
2.417500000000000E+009;1.742123365402222E-001;-5.951547250151634E-002;-7.212556665763259E-004;3.247431945055723E-003;
2.417666666666667E+009;1.735064089298248E-001;-5.966145545244217E-002;-7.063245866447687E-004;3.366485005244613E-003;
2.417833333333334E+009;1.723760664463043E-001;-6.004501506686211E-002;-6.352511700242758E-004;3.488307585939765E-003;
2.418000000000000E+009;1.711813211441040E-001;-6.057529523968697E-002;-4.513713647611439E-004;3.391685429960489E-003;
2.418166666666667E+009;1.700766235589981E-001;-6.086191162467003E-002;-2.898773236665875E-004;3.405132330954075E-003;
2.418333333333334E+009;1.691182553768158E-001;-6.154708936810494E-002;-2.719306212384254E-004;3.503015730530024E-003;
2.418500000000000E+009;1.679439842700958E-001;-6.215260922908783E-002;-5.608794162981212E-005;3.395274281501770E-003;
2.418666666666667E+009;1.667474061250687E-001;-6.277848780155182E-002;8.940146653912962E-005;3.411494661122561E-003;
2.418833333333334E+009;1.652840971946716E-001;-6.358662247657776E-002;1.009161424008198E-004;3.487032372504473E-003;
2.419000000000000E+009;1.639704257249832E-001;-6.431999057531357E-002;3.000008873641491E-004;3.455261467024684E-003;
2.419166666666667E+009;1.627932488918304E-001;-6.519816815853119E-002;3.557665331754834E-004;3.376635955646634E-003;
2.419333333333334E+009;1.614175736904144E-001;-6.586951017379761E-002;6.172914872877300E-004;3.300587181001902E-003;
2.419500000000000E+009;1.601966172456741E-001;-6.714689731597900E-002;5.854477058164775E-004;3.247049404308200E-003;
2.419666666666667E+009;1.591022163629532E-001;-6.832332164049149E-002;7.565374835394323E-004;3.198427380993962E-003;
2.419833333333334E+009;1.577799022197723E-001;-6.934050470590591E-002;7.876720628701150E-004;3.188963746652007E-003;
2.420000000000000E+009;1.568292677402496E-001;-7.061011344194412E-002;8.610032382421196E-004;3.207515925168991E-003;
2.420166666666667E+009;1.556805670261383E-001;-7.196076214313507E-002;9.361305856145918E-004;3.194806165993214E-003;
2.420333333333334E+009;1.546354293823242E-001;-7.346089184284210E-002;9.810045594349504E-004;3.128541633486748E-003;
2.420500000000000E+009;1.539266705513001E-001;-7.474484294652939E-002;1.067625940777361E-003;3.085765056312084E-003;
2.420666666666667E+009;1.529509723186493E-001;-7.614967972040176E-002;1.036286004818976E-003;3.118833294138312E-003;
2.420833333333334E+009;1.522474288940430E-001;-7.785187661647797E-002;1.176524558104575E-003;2.929953392595053E-003;
2.421000000000000E+009;1.514721363782883E-001;-7.953981310129166E-002;1.196952769532800E-003;2.822631737217307E-003;
2.421166666666667E+009;1.508092284202576E-001;-8.114425837993622E-002;1.426781294867396E-003;3.011465538293123E-003;
2.421333333333334E+009;1.504980623722076E-001;-8.277133107185364E-002;1.542861224152148E-003;2.893501892685890E-003;
2.421500000000000E+009;1.499407887458801E-001;-8.442807197570801E-002;1.425708178430796E-003;2.780932700261474E-003;
2.421666666666667E+009;1.495731920003891E-001;-8.607003092765808E-002;1.544362050481141E-003;2.593019511550665E-003;
2.421833333333334E+009;1.493549197912216E-001;-8.784531056880951E-002;1.720278873108327E-003;2.661308040842414E-003;
2.422000000000000E+009;1.491851210594177E-001;-8.959191292524338E-002;1.591071253642440E-003;2.743105636909604E-003;
2.422166666666667E+009;1.492100358009338E-001;-9.133736044168472E-002;1.682233996689320E-003;2.592018106952310E-003;
2.422333333333334E+009;1.490900516510010E-001;-9.295732527971268E-002;1.866766135208309E-003;2.610832219943404E-003;
2.422500000000000E+009;1.492341905832291E-001;-9.452664107084274E-002;1.826010411605239E-003;2.602990716695786E-003;
2.422666666666667E+009;1.493448466062546E-001;-9.641917794942856E-002;1.948865014128387E-003;2.534874249249697E-003;
2.422833333333334E+009;1.496688723564148E-001;-9.791552275419235E-002;2.007565693929792E-003;2.629961352795363E-003;
2.423000000000000E+009;1.499340683221817E-001;-9.957893192768097E-002;2.229673787951469E-003;2.571132965385914E-003;
2.423166666666667E+009;1.503484100103378E-001;-1.010706722736359E-001;2.246393822133541E-003;2.362166531383991E-003;
2.423333333333334E+009;1.505775153636932E-001;-1.023088768124580E-001;2.249038079753518E-003;2.339590108022094E-003;
2.423500000000000E+009;1.510578542947769E-001;-1.036948710680008E-001;2.347651636227965E-003;2.339161932468414E-003;
2.423666666666667E+009;1.516077369451523E-001;-1.052691936492920E-001;2.474497770890594E-003;2.303780289366841E-003;
2.423833333333334E+009;1.519301235675812E-001;-1.064605936408043E-001;2.441527321934700E-003;2.155217342078686E-003;
2.424000000000000E+009;1.526253968477249E-001;-1.075095310807228E-001;2.490718150511384E-003;2.184210112318397E-003;
2.424166666666667E+009;1.530336290597916E-001;-1.086596250534058E-001;2.540881745517254E-003;2.103844424709678E-003;
2.424333333333334E+009;1.536147594451904E-001;-1.096694245934486E-001;2.598880091682077E-003;1.936714630573988E-003;
2.424500000000000E+009;1.541816443204880E-001;-1.105365455150604E-001;2.761656651273370E-003;1.859827782027423E-003;
2.424666666666667E+009;1.549064368009567E-001;-1.112885922193527E-001;2.854746067896485E-003;1.959549495950341E-003;
2.424833333333334E+009;1.551643759012222E-001;-1.121493130922318E-001;2.859248314052820E-003;1.780628343112767E-003;
2.425000000000000E+009;1.557227522134781E-001;-1.129490733146668E-001;2.673412440344691E-003;1.672398648224771E-003;
2.425166666666667E+009;1.558689177036285E-001;-1.135122552514076E-001;3.037750255316496E-003;1.697213388979435E-003;
2.425333333333334E+009;1.564133018255234E-001;-1.139941588044167E-001;2.900117309764028E-003;1.722165034152567E-003;
2.425500000000000E+009;1.567754447460175E-001;-1.144682839512825E-001;3.175819991156459E-003;1.583095989190042E-003;
2.425666666666667E+009;1.568303853273392E-001;-1.149393096566200E-001;3.183345543220639E-003;1.461735460907221E-003;
2.425833333333334E+009;1.569454371929169E-001;-1.153227612376213E-001;3.299398813396692E-003;1.310932799242437E-003;
2.426000000000000E+009;1.571705788373947E-001;-1.156781911849976E-001;3.234668867662549E-003;1.226883963681758E-003;
2.426166666666667E+009;1.572501957416534E-001;-1.158986240625382E-001;3.259172663092613E-003;1.130672753788531E-003;
2.426333333333334E+009;1.570520997047424E-001;-1.160278692841530E-001;3.265107516199350E-003;1.102108391933143E-003;
2.426500000000000E+009;1.569857895374298E-001;-1.162396073341370E-001;3.259065095335245E-003;9.180258493870497E-004;
2.426666666666667E+009;1.567747443914414E-001;-1.161657497286797E-001;3.455338301137090E-003;8.866554708220065E-004;
2.426833333333334E+009;1.564207077026367E-001;-1.164395362138748E-001;3.541392739862204E-003;7.086250698193908E-004;
2.427000000000000E+009;1.558857262134552E-001;-1.166229471564293E-001;3.348155179992318E-003;4.001992056146264E-004;
2.427166666666667E+009;1.553139835596085E-001;-1.165064200758934E-001;3.610217478126288E-003;4.737500858027488E-004;
2.427333333333334E+009;1.546275913715363E-001;-1.167129650712013E-001;3.516917349770665E-003;4.377113073132932E-004;
2.427500000000000E+009;1.540455371141434E-001;-1.168250143527985E-001;3.562721423804760E-003;2.457812079228461E-004;
2.427666666666667E+009;1.531995534896851E-001;-1.170340627431870E-001;3.435382619500160E-003;2.539141569286585E-004;
