# Version 1.00
#
freq[Hz];re:Trc1_S11;im:Trc1_S11;re:Trc2_S21;im:Trc2_S21;
2.400000000000000E+009;1.559164226055145E-001;5.990512669086456E-002;-2.174904569983482E-003;-1.286947866901755E-003;
2.400166666666667E+009;1.560682952404022E-001;5.834980681538582E-002;-2.285947091877461E-003;-1.127105671912432E-003;
2.400333333333334E+009;1.562600582838059E-001;5.610253661870956E-002;-2.280951943248510E-003;-1.075623556971550E-003;
2.400500000000000E+009;1.564382463693619E-001;5.415736138820648E-002;-2.164487028494477E-003;-9.159875335171819E-004;
2.400666666666667E+009;1.566805988550186E-001;5.199981108307838E-002;-2.098951954394579E-003;-8.013306651264429E-004;
2.400833333333334E+009;1.570216566324234E-001;5.016458407044411E-002;-2.102756407111883E-003;-8.058411767706275E-004;
2.401000000000000E+009;1.572704613208771E-001;4.779027402400971E-002;-2.224192721769214E-003;-7.010254194028676E-004;
2.401166666666667E+009;1.577750742435455E-001;4.575681313872337E-002;-2.132468391209841E-003;-7.367228972725570E-004;
2.401333333333334E+009;1.582965254783630E-001;4.364802315831184E-002;-1.992563484236598E-003;-5.750646814703941E-004;
2.401500000000000E+009;1.588835418224335E-001;4.159942269325256E-002;-2.123410813510418E-003;-5.857305368408561E-004;
2.401666666666667E+009;1.595144271850586E-001;3.987792134284973E-002;-1.808031345717609E-003;-5.973954685032368E-004;
2.401833333333334E+009;1.600611656904221E-001;3.794658184051514E-002;-1.685946132056415E-003;-5.036047659814358E-004;
2.402000000000000E+009;1.606634706258774E-001;3.595657646656036E-002;-1.819862169213593E-003;-3.675674961414188E-004;
2.402166666666667E+009;1.615356951951981E-001;3.401735424995422E-002;-1.852635410614312E-003;-5.290557164698839E-004;
2.402333333333334E+009;1.621563285589218E-001;3.236449882388115E-002;-1.796725206077099E-003;-4.144390113651753E-004;
2.402500000000000E+009;1.630536317825317E-001;3.072698600590229E-002;-1.611903309822083E-003;-5.988024640828371E-004;
2.402666666666667E+009;1.640665233135223E-001;2.919198013842106E-002;-1.861488446593285E-003;-5.016892100684345E-004;
2.402833333333334E+009;1.649974435567856E-001;2.779592014849186E-002;-1.694849575869739E-003;-6.206442485563457E-004;
2.403000000000000E+009;1.658987253904343E-001;2.631171420216560E-002;-1.761937164701521E-003;-3.946850192733109E-004;
2.403166666666667E+009;1.667548567056656E-001;2.486257627606392E-002;-1.707893563434482E-003;-5.571082583628595E-004;
2.403333333333334E+009;1.678037792444229E-001;2.392305806279182E-002;-1.547244959510863E-003;-5.387977580539882E-004;
2.403500000000000E+009;1.687704771757126E-001;2.261999994516373E-002;-1.637097797356546E-003;-4.628397873602808E-004;
2.403666666666667E+009;1.695875972509384E-001;2.148452028632164E-002;-1.494213938713074E-003;-4.781483439728618E-004;
2.403833333333334E+009;1.708095520734787E-001;2.038840204477310E-002;-1.485068234615028E-003;-5.351825384423137E-004;
2.404000000000000E+009;1.716590076684952E-001;1.955510303378105E-002;-1.546849962323904E-003;-5.980737623758614E-004;
2.404166666666667E+009;1.725440770387650E-001;1.876712217926979E-002;-1.727940165437758E-003;-4.518823698163033E-004;
2.404333333333334E+009;1.734144687652588E-001;1.804447732865810E-002;-1.635926193557680E-003;-5.475272773765028E-004;
2.404500000000000E+009;1.741010248661041E-001;1.722514070570469E-002;-1.576065551489592E-003;-4.906560061499476E-004;
2.404666666666667E+009;1.750657856464386E-001;1.663183234632015E-002;-1.779042300768197E-003;-4.573101468849927E-004;
2.404833333333334E+009;1.758002340793610E-001;1.610778272151947E-002;-1.752531854435802E-003;-5.133954109624028E-004;
2.405000000000000E+009;1.764832586050034E-001;1.565319485962391E-002;-1.680952380411327E-003;-4.591803299263120E-004;
2.405166666666667E+009;1.772209256887436E-001;1.534590311348438E-002;-1.764707383699715E-003;-3.697218780871481E-004;
2.405333333333334E+009;1.778493374586105E-001;1.472189277410507E-002;-1.714015495963395E-003;-3.625271201599389E-004;
2.405500000000000E+009;1.783542782068253E-001;1.456130016595125E-002;-1.842286321334541E-003;-3.336742229294032E-004;
2.405666666666667E+009;1.788298934698105E-001;1.421948615461588E-002;-1.807435066439211E-003;-1.525132829556242E-004;
2.405833333333334E+009;1.790469288825989E-001;1.405291352421045E-002;-1.856504473835230E-003;-2.286646777065471E-004;
2.406000000000000E+009;1.794343739748001E-001;1.368062477558851E-002;-1.936371088959277E-003;-4.527964629232884E-004;
2.406166666666667E+009;1.795305460691452E-001;1.353650912642479E-002;-1.871903077699244E-003;-2.781893126666546E-004;
2.406333333333334E+009;1.797439604997635E-001;1.319680642336607E-002;-1.896483125165105E-003;-2.047570160357282E-004;
2.406500000000000E+009;1.798195838928223E-001;1.310673169791699E-002;-2.060780068859458E-003;-1.950989826582372E-004;
2.406666666666667E+009;1.796605437994003E-001;1.273420918732882E-002;-1.935851527377963E-003;-5.843306644237600E-005;
2.406833333333334E+009;1.796043068170548E-001;1.227564644068480E-002;-2.047019312158227E-003;-2.275495935464278E-004;
2.407000000000000E+009;1.794269233942032E-001;1.194247975945473E-002;-1.968623604625464E-003;-1.964663970284164E-004;
2.407166666666667E+009;1.793763339519501E-001;1.159665826708078E-002;-2.113048220053315E-003;5.199282168177888E-005;
2.407333333333334E+009;1.787472665309906E-001;1.098426058888435E-002;-2.091561909765005E-003;-1.626855191716459E-005;
2.407500000000000E+009;1.785414367914200E-001;1.070012431591749E-002;-2.039863495156169E-003;-7.049922601254366E-007;
2.407666666666667E+009;1.780977398157120E-001;1.002431567758322E-002;-2.160352421924472E-003;2.197229478042573E-004;
2.407833333333334E+009;1.774171441793442E-001;9.186794050037861E-003;-1.989028649404645E-003;2.035921352216974E-004;
2.408000000000000E+009;1.768754273653030E-001;8.296472951769829E-003;-1.942558912560344E-003;2.025986323133111E-004;
2.408166666666667E+009;1.763811409473419E-001;7.676261942833662E-003;-2.034028759226203E-003;2.760464267339557E-004;
2.408333333333334E+009;1.758910268545151E-001;6.737165153026581E-003;-1.871937303803861E-003;3.732888726517558E-004;
2.408500000000000E+009;1.752393692731857E-001;5.531211849302054E-003;-1.875508110970259E-003;3.783926658798009E-004;
2.408666666666667E+009;1.744852513074875E-001;4.253932740539312E-003;-1.731196767650545E-003;4.491373547352850E-004;
2.408833333333334E+009;1.737194061279297E-001;3.295499132946134E-003;-1.859700190834701E-003;5.133989616297185E-004;
2.409000000000000E+009;1.729956418275833E-001;1.847220584750176E-003;-2.002997323870659E-003;5.679645691998303E-004;
2.409166666666667E+009;1.723021566867828E-001;6.088134250603616E-004;-1.886661746539176E-003;4.977328353561461E-004;
2.409333333333334E+009;1.718062311410904E-001;-1.012224936857820E-003;-1.712619559839368E-003;5.130771314725280E-004;
2.409500000000000E+009;1.711087673902512E-001;-2.805256284773350E-003;-1.829064683988690E-003;7.118040230125189E-004;
2.409666666666667E+009;1.704479753971100E-001;-4.114314448088408E-003;-1.743304543197155E-003;6.513227708637714E-004;
2.409833333333334E+009;1.698521673679352E-001;-5.623392760753632E-003;-1.768909045495093E-003;5.238122539594770E-004;
2.410000000000000E+009;1.693432480096817E-001;-7.598632480949163E-003;-1.693357829935849E-003;5.202820757403970E-004;
2.410166666666667E+009;1.690021306276321E-001;-9.218942373991013E-003;-1.616229652427137E-003;5.741487257182598E-004;
2.410333333333334E+009;1.684168279170990E-001;-1.114031393080950E-002;-1.607457990758121E-003;4.852250567637384E-004;
2.410500000000000E+009;1.680403053760529E-001;-1.311048585921526E-002;-1.777176046743989E-003;5.270144902169704E-004;
2.410666666666667E+009;1.678368300199509E-001;-1.509997900575399E-002;-1.705629401840270E-003;5.188342765904963E-004;
2.410833333333334E+009;1.675174832344055E-001;-1.701467297971249E-002;-1.634991262108088E-003;6.780900876037777E-004;
2.411000000000000E+009;1.674253791570664E-001;-1.877893134951592E-002;-1.721473410725594E-003;5.910104955546558E-004;
2.411166666666667E+009;1.673734188079834E-001;-2.095429226756096E-002;-1.650304417125881E-003;5.897685769014061E-004;
2.411333333333334E+009;1.672296524047852E-001;-2.292536757886410E-002;-1.642136485315859E-003;5.323306540958583E-004;
2.411500000000000E+009;1.673109233379364E-001;-2.491653338074684E-002;-1.745335757732391E-003;6.104687927290797E-004;
2.411666666666667E+009;1.676386594772339E-001;-2.682717330753803E-002;-1.874751294963062E-003;5.918797105550766E-004;
2.411833333333334E+009;1.677531749010086E-001;-2.880942448973656E-002;-1.753184944391251E-003;7.067164988256991E-004;
2.412000000000000E+009;1.680810749530792E-001;-3.072072751820087E-002;-1.767296344041824E-003;4.823399358429015E-004;
2.412166666666667E+009;1.683501005172730E-001;-3.268892318010330E-002;-1.918389229103923E-003;6.035975529812276E-004;
2.412333333333334E+009;1.689151823520660E-001;-3.436437249183655E-002;-1.875345129519701E-003;6.319803069345653E-004;
2.412500000000000E+009;1.691017001867294E-001;-3.626336529850960E-002;-1.999017316848040E-003;7.558538927696645E-004;
2.412666666666667E+009;1.699944883584976E-001;-3.795887529850006E-002;-1.960137858986855E-003;8.207433857023716E-004;
2.412833333333334E+009;1.703457385301590E-001;-3.968278691172600E-002;-2.052410505712032E-003;8.421325474046171E-004;
2.413000000000000E+009;1.710192859172821E-001;-4.112633317708969E-002;-2.152534900233150E-003;7.661592680960894E-004;
2.413166666666667E+009;1.715065091848373E-001;-4.296461120247841E-002;-2.207683399319649E-003;1.005509053356946E-003;
2.413333333333334E+009;1.723169237375259E-001;-4.445803165435791E-002;-2.284971065819264E-003;9.905139449983835E-004;
2.413500000000000E+009;1.728576421737671E-001;-4.582918435335159E-002;-2.365055494010449E-003;1.152300857938826E-003;
2.413666666666667E+009;1.735439002513886E-001;-4.735582694411278E-002;-2.288965974003077E-003;1.258695963770151E-003;
2.413833333333334E+009;1.742470115423203E-001;-4.837250337004662E-002;-2.270362805575132E-003;1.191566465422511E-003;
2.414000000000000E+009;1.746797561645508E-001;-4.958542436361313E-002;-2.170830033719540E-003;1.317508635111153E-003;
2.414166666666667E+009;1.754815727472305E-001;-5.075480043888092E-002;-2.194519154727459E-003;1.442477107048035E-003;
2.414333333333334E+009;1.759670078754425E-001;-5.181692168116570E-002;-2.415161347016692E-003;1.666756113991141E-003;
2.414500000000000E+009;1.767271757125855E-001;-5.259355530142784E-002;-2.285645343363285E-003;1.714956248179078E-003;
2.414666666666667E+009;1.772647500038147E-001;-5.333912372589111E-002;-2.242386573925614E-003;1.772700576111674E-003;
2.414833333333334E+009;1.774865984916687E-001;-5.414000898599625E-002;-2.107566921040416E-003;1.977623673155904E-003;
2.415000000000000E+009;1.779881417751312E-001;-5.489496886730194E-002;-2.223775023594499E-003;2.126049017533660E-003;
2.415166666666667E+009;1.782577037811279E-001;-5.544809252023697E-002;-2.168599981814623E-003;2.191626932471991E-003;
2.415333333333334E+009;1.786082386970520E-001;-5.608418956398964E-002;-1.917203306220472E-003;2.206342993304133E-003;
2.415500000000000E+009;1.787519454956055E-001;-5.639900639653206E-002;-1.948859193362296E-003;2.397443167865276E-003;
2.415666666666667E+009;1.788697689771652E-001;-5.673685669898987E-002;-1.996297389268875E-003;2.637264551594853E-003;
2.415833333333334E+009;1.789834052324295E-001;-5.712420120835304E-002;-1.960644265636802E-003;2.600789768621326E-003;
2.416000000000000E+009;1.787152290344238E-001;-5.738421157002449E-002;-1.849874039180577E-003;2.766380319371820E-003;
2.416166666666667E+009;1.788277924060822E-001;-5.769361183047295E-002;-1.637407462112606E-003;2.720686607062817E-003;
2.416333333333334E+009;1.785319000482559E-001;-5.782706290483475E-002;-1.669689780101180E-003;2.922482788562775E-003;
2.416500000000000E+009;1.782321482896805E-001;-5.811547487974167E-002;-1.524328486993909E-003;2.928099827840924E-003;
2.416666666666667E+009;1.777609735727310E-001;-5.824903026223183E-002;-1.476387144066393E-003;3.029953688383102E-003;
2.416833333333334E+009;1.773567199707031E-001;-5.846744030714035E-002;-1.309341867454350E-003;3.213202580809593E-003;
2.417000000000000E+009;1.765143126249313E-001;-5.880455300211906E-002;-1.129254698753357E-003;3.075684653595090E-003;
2.417166666666667E+009;1.758859455585480E-001;-5.881706252694130E-002;-1.006207196041942E-003;3.288774052634835E-003;
2.417333333333334E+009;1.752867400646210E-001;-5.894920602440834E-002;-8.541371789760888E-004;3.251726971939206E-003;
2.417500000000000E+009;1.743235290050507E-001;-5.955691263079643E-002;-8.161538862623274E-004;3.223275998607278E-003;
2.417666666666667E+009;1.734452545642853E-001;-5.965566635131836E-002;-7.202533306553960E-004;3.244098974391818E-003;
2.417833333333334E+009;1.723161935806274E-001;-6.008030101656914E-002;-5.259169265627861E-004;3.608480328693986E-003;
2.418000000000000E+009;1.712606251239777E-001;-6.061401218175888E-002;-4.639980616047978E-004;3.406381700187922E-003;
2.418166666666667E+009;1.700490415096283E-001;-6.090314313769341E-002;-3.246626583859325E-004;3.384172217920423E-003;
2.418333333333334E+009;1.692011803388596E-001;-6.151574477553368E-002;-1.385714858770371E-004;3.524616127833724E-003;
2.418500000000000E+009;1.679134815931320E-001;-6.200451776385307E-002;7.425755029544234E-005;3.473971039056778E-003;
2.418666666666667E+009;1.667864620685577E-001;-6.286392360925674E-002;2.035175020864699E-005;3.354280022904277E-003;
2.418833333333334E+009;1.652733087539673E-001;-6.343491375446320E-002;1.429813128197566E-004;3.363816766068339E-003;
2.419000000000000E+009;1.639915108680725E-001;-6.420101970434189E-002;3.337261150591075E-004;3.405644092708826E-003;
2.419166666666667E+009;1.628272682428360E-001;-6.527845561504364E-002;3.841260913759470E-004;3.430189099162817E-003;
2.419333333333334E+009;1.615010201931000E-001;-6.602238863706589E-002;4.380025493446738E-004;3.238259814679623E-003;
2.419500000000000E+009;1.604111790657044E-001;-6.722417473793030E-002;5.719963228330016E-004;3.337573260068893E-003;
2.419666666666667E+009;1.591429561376572E-001;-6.819725036621094E-002;7.057288894429803E-004;3.260318422690034E-003;
2.419833333333334E+009;1.579097360372543E-001;-6.927741318941116E-002;6.179102347232401E-004;3.256204305216670E-003;
2.420000000000000E+009;1.568719744682312E-001;-7.070999592542648E-002;9.157039457932115E-004;3.165962407365441E-003;
2.420166666666667E+009;1.557339280843735E-001;-7.201777398586273E-002;9.307341533713043E-004;3.252009628340602E-003;
2.420333333333334E+009;1.547752618789673E-001;-7.345386594533920E-002;1.094613457098603E-003;3.074116772040725E-003;
2.420500000000000E+009;1.539683938026428E-001;-7.471355795860291E-002;1.286685699597001E-003;3.107269527390599E-003;
2.420666666666667E+009;1.529812365770340E-001;-7.616969197988510E-002;1.045131124556065E-003;2.877835417166352E-003;
2.420833333333334E+009;1.521171033382416E-001;-7.769694179296494E-002;1.329209771938622E-003;2.934093819931150E-003;
2.421000000000000E+009;1.514576226472855E-001;-7.951355725526810E-002;1.409040647558868E-003;2.967205364257097E-003;
2.421166666666667E+009;1.508682221174240E-001;-8.099162578582764E-002;1.432445249520242E-003;2.885691123083234E-003;
2.421333333333334E+009;1.505453884601593E-001;-8.279322832822800E-002;1.426166389137507E-003;2.905888948589563E-003;
2.421500000000000E+009;1.500635594129562E-001;-8.433777093887329E-002;1.615878543816507E-003;2.831183606758714E-003;
2.421666666666667E+009;1.495009660720825E-001;-8.615767955780029E-002;1.558641553856432E-003;2.815042389556766E-003;
2.421833333333334E+009;1.493560224771500E-001;-8.771998435258865E-002;1.609733095392585E-003;2.589703304693103E-003;
2.422000000000000E+009;1.492486596107483E-001;-8.954727649688721E-002;1.836932147853077E-003;2.835900988429785E-003;
2.422166666666667E+009;1.490847468376160E-001;-9.134926646947861E-002;1.651114667765796E-003;2.626165747642517E-003;
2.422333333333334E+009;1.490621268749237E-001;-9.291429072618485E-002;1.922996481880546E-003;2.713826950639486E-003;
2.422500000000000E+009;1.491918265819550E-001;-9.457361698150635E-002;1.956292893737555E-003;2.546771895140410E-003;
2.422666666666667E+009;1.491304188966751E-001;-9.627763926982880E-002;2.050635172054172E-003;2.542722038924694E-003;
2.422833333333334E+009;1.493426412343979E-001;-9.799671918153763E-002;2.087743720039725E-003;2.476515015587211E-003;
2.423000000000000E+009;1.497837454080582E-001;-9.935585409402847E-002;2.230170415714383E-003;2.495390363037586E-003;
2.423166666666667E+009;1.502330005168915E-001;-1.008839011192322E-001;2.047421643510461E-003;2.264143899083138E-003;
2.423333333333334E+009;1.507149636745453E-001;-1.021979972720146E-001;2.204724820330739E-003;2.330062445253134E-003;
2.423500000000000E+009;1.512159556150436E-001;-1.037075519561768E-001;2.231869613751769E-003;2.387312008067966E-003;
2.423666666666667E+009;1.514460146427155E-001;-1.050859540700913E-001;2.367714419960976E-003;2.214977052062750E-003;
2.423833333333334E+009;1.521299034357071E-001;-1.064240261912346E-001;2.264244481921196E-003;2.117886440828443E-003;
2.424000000000000E+009;1.525969952344894E-001;-1.074155643582344E-001;2.637287601828575E-003;2.289022086188197E-003;
2.424166666666667E+009;1.530232429504395E-001;-1.086634472012520E-001;2.662219805642963E-003;2.058185171335936E-003;
2.424333333333334E+009;1.536991596221924E-001;-1.095099449157715E-001;2.616266487166286E-003;1.907677389681339E-003;
2.424500000000000E+009;1.542252749204636E-001;-1.105379909276962E-001;2.628549234941602E-003;2.024819841608405E-003;
2.424666666666667E+009;1.548747569322586E-001;-1.111850216984749E-001;2.792789135128260E-003;1.742699416354299E-003;
2.424833333333334E+009;1.552164852619171E-001;-1.120417639613152E-001;2.920863451436162E-003;1.790056121535599E-003;
2.425000000000000E+009;1.556612998247147E-001;-1.128538846969605E-001;2.910034032538533E-003;1.753465388901532E-003;
2.425166666666667E+009;1.559955328702927E-001;-1.133542805910111E-001;2.804276766255498E-003;1.546157174743712E-003;
2.425333333333334E+009;1.564075946807861E-001;-1.140000596642494E-001;3.089587902650237E-003;1.507721026428044E-003;
2.425500000000000E+009;1.567087620496750E-001;-1.145937219262123E-001;3.077554516494274E-003;1.430743723176420E-003;
2.425666666666667E+009;1.568326801061630E-001;-1.148643419146538E-001;3.210625611245632E-003;1.530976267531514E-003;
2.425833333333334E+009;1.569280773401260E-001;-1.152350306510925E-001;3.188905538991094E-003;1.334864296950400E-003;
2.426000000000000E+009;1.570776104927063E-001;-1.156293004751205E-001;3.118676831945777E-003;1.260272460058332E-003;
2.426166666666667E+009;1.572407633066177E-001;-1.158467233181000E-001;3.354469081386924E-003;1.301335869356990E-003;
2.426333333333334E+009;1.570699661970139E-001;-1.160214021801949E-001;3.209096379578114E-003;1.045134267769754E-003;
2.426500000000000E+009;1.568525582551956E-001;-1.161729320883751E-001;3.377957502380014E-003;8.957267855294049E-004;
2.426666666666667E+009;1.569172888994217E-001;-1.162261366844177E-001;3.441179636865854E-003;9.646201506257057E-004;
2.426833333333334E+009;1.564578115940094E-001;-1.163413673639298E-001;3.428917145356536E-003;6.637650658376515E-004;
2.427000000000000E+009;1.559162437915802E-001;-1.165642887353897E-001;3.315330250188708E-003;5.596278351731598E-004;
2.427166666666667E+009;1.553175747394562E-001;-1.165758073329926E-001;3.602339187636972E-003;5.547084147110581E-004;
2.427333333333334E+009;1.546586453914642E-001;-1.167333796620369E-001;3.415371757000685E-003;3.383220173418522E-004;
2.427500000000000E+009;1.540210247039795E-001;-1.168324127793312E-001;3.484555985778570E-003;2.301894564880058E-004;
2.427666666666667E+009;1.530562043190002E-001;-1.170446500182152E-001;3.534216433763504E-003;2.375714248046279E-004;
