# Version 1.00
#
freq[Hz];re:Trc1_S11;im:Trc1_S11;re:Trc2_S21;im:Trc2_S21;
2.400000000000000E+009;1.712953150272369E-001;4.011398181319237E-002;3.094374667853117E-003;5.114839877933264E-003;
2.400166666666667E+009;1.718287467956543E-001;3.974318876862526E-002;3.264951519668102E-003;4.962470382452011E-003;
2.400333333333334E+009;1.722566187381744E-001;3.902651742100716E-002;3.590928623452783E-003;4.500604700297117E-003;
2.400500000000000E+009;1.728054881095886E-001;3.850370272994041E-002;3.750490723177791E-003;4.354156553745270E-003;
2.400666666666667E+009;1.730700433254242E-001;3.785018250346184E-002;3.855453338474035E-003;4.196836147457361E-003;
2.400833333333334E+009;1.733385324478149E-001;3.738749772310257E-002;4.191233310848475E-003;3.858729964122176E-003;
2.401000000000000E+009;1.735206693410873E-001;3.690567985177040E-002;4.059795755892992E-003;3.477063030004501E-003;
2.401166666666667E+009;1.736930459737778E-001;3.593010827898979E-002;4.328025970607996E-003;3.338599577546120E-003;
2.401333333333334E+009;1.736245751380920E-001;3.538598120212555E-002;4.350373987108469E-003;2.737874165177345E-003;
2.401500000000000E+009;1.736602187156677E-001;3.492281958460808E-002;4.675062373280525E-003;2.598600462079048E-003;
2.401666666666667E+009;1.735506355762482E-001;3.415331616997719E-002;4.486541729420424E-003;2.390381181612611E-003;
2.401833333333334E+009;1.734659373760223E-001;3.340568393468857E-002;4.596031736582518E-003;2.077250741422176E-003;
2.402000000000000E+009;1.733988523483276E-001;3.265817835927010E-002;4.662432242184877E-003;1.741990097798407E-003;
2.402166666666667E+009;1.730434298515320E-001;3.188239037990570E-002;4.551413469016552E-003;1.557182287797332E-003;
2.402333333333334E+009;1.728196889162064E-001;3.106272034347057E-002;4.640673287212849E-003;1.221190788783133E-003;
2.402500000000000E+009;1.726616024971008E-001;3.023053891956806E-002;4.617115482687950E-003;8.100657723844051E-004;
2.402666666666667E+009;1.722498834133148E-001;2.905832044780254E-002;4.456306342035532E-003;6.087173242121935E-004;
2.402833333333334E+009;1.719377785921097E-001;2.819719910621643E-002;4.421365447342396E-003;3.166867536492646E-004;
2.403000000000000E+009;1.715510338544846E-001;2.711443416774273E-002;4.287605173885822E-003;8.479541065753438E-006;
2.403166666666667E+009;1.714061349630356E-001;2.592121809720993E-002;4.018818959593773E-003;-6.251290324144065E-005;
2.403333333333334E+009;1.709348410367966E-001;2.459165081381798E-002;3.779527498409152E-003;-3.812941431533545E-004;
2.403500000000000E+009;1.705207228660584E-001;2.323151938617230E-002;3.731569042429328E-003;-5.569580825977027E-004;
2.403666666666667E+009;1.700190305709839E-001;2.206138521432877E-002;3.516787430271506E-003;-7.306693005375564E-004;
2.403833333333334E+009;1.697788238525391E-001;2.068683132529259E-002;3.217010525986552E-003;-6.702991086058319E-004;
2.404000000000000E+009;1.693698614835739E-001;1.920094154775143E-002;2.933387178927660E-003;-9.827249450609088E-004;
2.404166666666667E+009;1.690999120473862E-001;1.761262491345406E-002;2.767621306702495E-003;-8.518114336766303E-004;
2.404333333333334E+009;1.687638461589813E-001;1.600239798426628E-002;2.488703001290560E-003;-8.152638911269605E-004;
2.404500000000000E+009;1.683214008808136E-001;1.444283314049244E-002;2.395921619608998E-003;-9.443293092772365E-004;
2.404666666666667E+009;1.682997047901154E-001;1.294978428632021E-002;2.252300968393683E-003;-7.263793377205730E-004;
2.404833333333334E+009;1.679847985506058E-001;1.118939369916916E-002;2.047423971816897E-003;-7.626848528161645E-004;
2.405000000000000E+009;1.678938865661621E-001;9.348643943667412E-003;1.780636841431260E-003;-5.890547763556242E-004;
2.405166666666667E+009;1.676898896694183E-001;7.660719566047192E-003;1.699450425803661E-003;-4.887073300778866E-004;
2.405333333333334E+009;1.677096039056778E-001;5.672697443515062E-003;1.684523071162403E-003;-4.086834960617125E-004;
2.405500000000000E+009;1.677737236022949E-001;3.889895975589752E-003;1.687629497610033E-003;-3.832964575849474E-004;
2.405666666666667E+009;1.676852554082871E-001;2.122113248333335E-003;1.555651659145951E-003;-2.801871742121875E-004;
2.405833333333334E+009;1.675300747156143E-001;5.270176916383207E-004;1.510237110778689E-003;-1.250557834282517E-004;
2.406000000000000E+009;1.676360517740250E-001;-1.699013868346810E-003;1.510159927420318E-003;-4.536527922027744E-005;
2.406166666666667E+009;1.675831973552704E-001;-3.210855182260275E-003;1.481044571846724E-003;-4.501644798438065E-005;
2.406333333333334E+009;1.677376329898834E-001;-5.206482019275427E-003;1.669852295890451E-003;-1.877330214483663E-005;
2.406500000000000E+009;1.677605360746384E-001;-6.889193784445524E-003;1.525222207419574E-003;1.745887971082993E-006;
2.406666666666667E+009;1.676542907953262E-001;-8.630616590380669E-003;1.573654939420521E-003;4.803144111065194E-005;
2.406833333333334E+009;1.679227203130722E-001;-1.043556164950132E-002;1.611754065379500E-003;3.713112528203055E-005;
2.407000000000000E+009;1.679012924432755E-001;-1.205056812614203E-002;1.807678723707795E-003;2.731694257818162E-004;
2.407166666666667E+009;1.681485176086426E-001;-1.344421505928040E-002;1.628479571081698E-003;1.946354605024681E-004;
2.407333333333334E+009;1.681182384490967E-001;-1.501996442675591E-002;1.764027983881533E-003;4.053230513818562E-004;
2.407500000000000E+009;1.680563837289810E-001;-1.638745516538620E-002;1.913222484290600E-003;5.052327760495246E-004;
2.407666666666667E+009;1.681949198246002E-001;-1.762371324002743E-002;1.837346120737493E-003;5.827521672472358E-004;
2.407833333333334E+009;1.683018356561661E-001;-1.893555745482445E-002;2.008286770433188E-003;4.158060473855585E-004;
2.408000000000000E+009;1.684044450521469E-001;-2.005629241466522E-002;1.992998877540231E-003;6.553968996740878E-004;
2.408166666666667E+009;1.687045246362686E-001;-2.108120918273926E-002;2.235390478745103E-003;6.956272409297526E-004;
2.408333333333334E+009;1.690900921821594E-001;-2.197313867509365E-002;2.340311650186777E-003;4.791135725099593E-004;
2.408500000000000E+009;1.691443473100662E-001;-2.296064607799053E-002;2.400330733507872E-003;4.566661373246461E-004;
2.408666666666667E+009;1.695199608802795E-001;-2.369827032089233E-002;2.563085872679949E-003;3.261763777118176E-004;
2.408833333333334E+009;1.696868985891342E-001;-2.467249520123005E-002;2.562872366979718E-003;3.074517589993775E-004;
2.409000000000000E+009;1.701644659042358E-001;-2.517901547253132E-002;2.730510663241148E-003;3.971080295741558E-004;
2.409166666666667E+009;1.703140884637833E-001;-2.582387812435627E-002;3.000239608809352E-003;1.300982257816941E-004;
2.409333333333334E+009;1.708943396806717E-001;-2.678975835442543E-002;3.053222084417939E-003;-1.472776784794405E-004;
2.409500000000000E+009;1.711324006319046E-001;-2.752524986863136E-002;3.035121597349644E-003;-1.875122143246699E-005;
2.409666666666667E+009;1.714024096727371E-001;-2.811872772872448E-002;3.137493040412664E-003;-2.350144204683602E-004;
2.409833333333334E+009;1.715563982725143E-001;-2.864957600831986E-002;2.981488592922688E-003;-2.989818458445370E-004;
2.410000000000000E+009;1.718389093875885E-001;-2.947139181196690E-002;2.994810929521918E-003;-3.729828167706728E-004;
2.410166666666667E+009;1.719550192356110E-001;-3.021985664963722E-002;3.165920265018940E-003;-5.813381285406649E-004;
2.410333333333334E+009;1.720084547996521E-001;-3.075528889894486E-002;3.232951043173671E-003;-6.025267648510635E-004;
2.410500000000000E+009;1.720279008150101E-001;-3.147702291607857E-002;3.264790866523981E-003;-8.071625488810241E-004;
2.410666666666667E+009;1.719186007976532E-001;-3.223242238163948E-002;3.201798303052783E-003;-9.031582740135491E-004;
2.410833333333334E+009;1.720295399427414E-001;-3.272115066647530E-002;3.225024323910475E-003;-8.692517876625061E-004;
2.411000000000000E+009;1.717004776000977E-001;-3.328713029623032E-002;3.306380473077297E-003;-1.002713921479881E-003;
2.411166666666667E+009;1.713617742061615E-001;-3.417175263166428E-002;3.270115237683058E-003;-1.346398959867656E-003;
2.411333333333334E+009;1.710887700319290E-001;-3.451107069849968E-002;3.414996899664402E-003;-1.270758803002536E-003;
2.411500000000000E+009;1.707828193902969E-001;-3.539363667368889E-002;3.386385040357709E-003;-1.389703131280839E-003;
2.411666666666667E+009;1.704500019550324E-001;-3.596913814544678E-002;3.453709883615375E-003;-1.541371340863407E-003;
2.411833333333334E+009;1.700778007507324E-001;-3.651506826281548E-002;3.474875818938017E-003;-1.830431865528226E-003;
2.412000000000000E+009;1.696310639381409E-001;-3.735988587141037E-002;3.351095598191023E-003;-2.022033324465156E-003;
2.412166666666667E+009;1.691420525312424E-001;-3.792790323495865E-002;3.411726327612996E-003;-2.098474651575089E-003;
2.412333333333334E+009;1.687494665384293E-001;-3.861276805400848E-002;3.349539823830128E-003;-2.309558447450399E-003;
2.412500000000000E+009;1.679882109165192E-001;-3.960710391402245E-002;3.069343511015177E-003;-2.483257092535496E-003;
2.412666666666667E+009;1.675279438495636E-001;-4.054755717515945E-002;3.236163640394807E-003;-2.679778495803475E-003;
2.412833333333334E+009;1.669678986072540E-001;-4.157309606671333E-002;2.953325863927603E-003;-2.807578770443797E-003;
2.413000000000000E+009;1.660112440586090E-001;-4.248283430933952E-002;3.025673096999526E-003;-2.912186784669757E-003;
2.413166666666667E+009;1.654966473579407E-001;-4.345110431313515E-002;2.913742326200008E-003;-3.153608879074454E-003;
2.413333333333334E+009;1.646794676780701E-001;-4.442385584115982E-002;2.720416756346822E-003;-3.182694548740983E-003;
2.413500000000000E+009;1.641207188367844E-001;-4.544963687658310E-002;2.695958362892270E-003;-3.316027810797095E-003;
2.413666666666667E+009;1.634820401668549E-001;-4.646516591310501E-002;2.507006051018834E-003;-3.461656160652638E-003;
2.413833333333334E+009;1.626528650522232E-001;-4.764983430504799E-002;2.384587423875928E-003;-3.530749585479498E-003;
2.414000000000000E+009;1.617893278598785E-001;-4.885915666818619E-002;2.170337364077568E-003;-3.690654179081321E-003;
2.414166666666667E+009;1.612817943096161E-001;-4.993067309260368E-002;2.135946182534099E-003;-3.637581365182996E-003;
2.414333333333334E+009;1.606237292289734E-001;-5.093498528003693E-002;1.891657477244735E-003;-3.681154455989599E-003;
2.414500000000000E+009;1.603780984878540E-001;-5.219454690814018E-002;1.850708038546145E-003;-3.845857689157128E-003;
2.414666666666667E+009;1.597263067960739E-001;-5.322783067822456E-002;1.601343159563839E-003;-4.033089615404606E-003;
2.414833333333334E+009;1.593170613050461E-001;-5.453628301620483E-002;1.445229630917311E-003;-3.959313035011292E-003;
2.415000000000000E+009;1.589252352714539E-001;-5.590830370783806E-002;1.274409121833742E-003;-3.960631787776947E-003;
2.415166666666667E+009;1.585903018712997E-001;-5.716121569275856E-002;1.301472773775458E-003;-4.038209561258555E-003;
2.415333333333334E+009;1.583673357963562E-001;-5.860126763582230E-002;1.065912889316678E-003;-4.126576706767082E-003;
2.415500000000000E+009;1.580912172794342E-001;-5.991625040769577E-002;9.300688980147243E-004;-4.238976165652275E-003;
2.415666666666667E+009;1.579320728778839E-001;-6.125222519040108E-002;7.569151348434389E-004;-4.240160807967186E-003;
2.415833333333334E+009;1.576693654060364E-001;-6.274950504302979E-002;5.814344040118158E-004;-4.320775158703327E-003;
2.416000000000000E+009;1.572626382112503E-001;-6.423944979906082E-002;3.136883024126291E-004;-4.280573222786188E-003;
2.416166666666667E+009;1.573256254196167E-001;-6.563827395439148E-002;4.023263463750482E-004;-4.382100887596607E-003;
2.416333333333334E+009;1.571365892887116E-001;-6.698409467935562E-002;-3.213400850654580E-005;-4.286748357117176E-003;
2.416500000000000E+009;1.568685621023178E-001;-6.855659186840057E-002;-2.586835762485862E-004;-4.298510961234570E-003;
2.416666666666667E+009;1.567705869674683E-001;-6.981576234102249E-002;-2.854959748219699E-004;-4.306006710976362E-003;
2.416833333333334E+009;1.566840410232544E-001;-7.124901562929153E-002;-5.507736932486296E-004;-4.125729203224182E-003;
2.417000000000000E+009;1.562219858169556E-001;-7.249729335308075E-002;-7.533538737334311E-004;-3.977946471422911E-003;
2.417166666666667E+009;1.561881303787231E-001;-7.375019788742065E-002;-9.082634933292866E-004;-3.767284797504544E-003;
2.417333333333334E+009;1.560225039720535E-001;-7.486078143119812E-002;-1.006900332868099E-003;-3.796368604525924E-003;
2.417500000000000E+009;1.558514535427094E-001;-7.624801993370056E-002;-1.071836682967842E-003;-3.799726488068700E-003;
2.417666666666667E+009;1.559170782566071E-001;-7.704245299100876E-002;-1.177345518954098E-003;-3.742145607247949E-003;
2.417833333333334E+009;1.557959318161011E-001;-7.795683294534683E-002;-1.308670500293374E-003;-3.535444149747491E-003;
2.418000000000000E+009;1.557348072528839E-001;-7.907837629318237E-002;-1.230004592798650E-003;-3.527691587805748E-003;
2.418166666666667E+009;1.555419117212296E-001;-7.969103753566742E-002;-1.383714610710740E-003;-3.447526833042502E-003;
2.418333333333334E+009;1.558842808008194E-001;-8.067449182271957E-002;-1.487487927079201E-003;-3.353403182700276E-003;
2.418500000000000E+009;1.557613909244537E-001;-8.142782002687454E-002;-1.582489581778646E-003;-3.428839845582843E-003;
2.418666666666667E+009;1.555939465761185E-001;-8.227965980768204E-002;-1.613089465536177E-003;-3.418312640860677E-003;
2.418833333333334E+009;1.554318517446518E-001;-8.307383954524994E-002;-1.651626196689904E-003;-3.367026103660464E-003;
2.419000000000000E+009;1.553100943565369E-001;-8.362862467765808E-002;-1.749638817273080E-003;-3.374230349436402E-003;
2.419166666666667E+009;1.553089469671249E-001;-8.418679982423782E-002;-1.879191957414150E-003;-3.291697939857841E-003;
2.419333333333334E+009;1.550852656364441E-001;-8.451385796070099E-002;-1.939268433488905E-003;-3.226001048460603E-003;
2.419500000000000E+009;1.549940109252930E-001;-8.524601161479950E-002;-2.079546684399247E-003;-3.235461423173547E-003;
2.419666666666667E+009;1.549541801214218E-001;-8.579678833484650E-002;-2.146197017282248E-003;-3.127577481791377E-003;
2.419833333333334E+009;1.545317471027374E-001;-8.599088340997696E-002;-2.328106667846441E-003;-3.176467493176460E-003;
2.420000000000000E+009;1.544597446918488E-001;-8.639337122440338E-002;-2.317348495125771E-003;-3.043323755264282E-003;
2.420166666666667E+009;1.542642712593079E-001;-8.666168153285980E-002;-2.557342406362295E-003;-2.855723025277257E-003;
2.420333333333334E+009;1.539738327264786E-001;-8.705522119998932E-002;-2.544386545196176E-003;-2.708086278289557E-003;
2.420500000000000E+009;1.536876708269119E-001;-8.734579384326935E-002;-2.715790877118707E-003;-2.578668529167771E-003;
2.420666666666667E+009;1.534205675125122E-001;-8.768799901008606E-002;-2.634937409311533E-003;-2.575278514996171E-003;
2.420833333333334E+009;1.530531793832779E-001;-8.797261863946915E-002;-2.867026953026652E-003;-2.350199967622757E-003;
2.421000000000000E+009;1.527384668588638E-001;-8.847797662019730E-002;-2.924011554569006E-003;-2.344679320231080E-003;
2.421166666666667E+009;1.523145139217377E-001;-8.883455395698547E-002;-2.977560041472316E-003;-2.115403534844518E-003;
2.421333333333334E+009;1.517057567834854E-001;-8.931460976600647E-002;-2.985155908390880E-003;-1.944288029335439E-003;
2.421500000000000E+009;1.511497795581818E-001;-8.962596952915192E-002;-3.197247860953212E-003;-1.779096433892846E-003;
2.421666666666667E+009;1.505895256996155E-001;-9.024039655923843E-002;-3.207234200090170E-003;-1.596625545062125E-003;
2.421833333333334E+009;1.501592546701431E-001;-9.069359302520752E-002;-3.145661903545260E-003;-1.487419474869967E-003;
2.422000000000000E+009;1.492586582899094E-001;-9.133736044168472E-002;-3.151988144963980E-003;-1.443021232262254E-003;
2.422166666666667E+009;1.485034674406052E-001;-9.199640899896622E-002;-3.146425122395158E-003;-1.403679256327450E-003;
2.422333333333334E+009;1.478642970323563E-001;-9.245652705430985E-002;-2.956055570393801E-003;-1.116005354560912E-003;
2.422500000000000E+009;1.469527631998062E-001;-9.307373315095902E-002;-3.131165634840727E-003;-1.036914414726198E-003;
2.422666666666667E+009;1.457803547382355E-001;-9.368636459112167E-002;-3.153943689540029E-003;-9.373591747134924E-004;
2.422833333333334E+009;1.452503055334091E-001;-9.454753994941711E-002;-3.130375407636166E-003;-9.257863857783377E-004;
2.423000000000000E+009;1.442348510026932E-001;-9.525585174560547E-002;-2.905506175011396E-003;-8.136256365105510E-004;
2.423166666666667E+009;1.434085965156555E-001;-9.621887654066086E-002;-3.033081302419305E-003;-6.967715453356504E-004;
2.423333333333334E+009;1.426141113042831E-001;-9.675821661949158E-002;-2.907238900661469E-003;-8.054418140091002E-004;
2.423500000000000E+009;1.415749192237854E-001;-9.786602109670639E-002;-2.909659175202251E-003;-6.105530774220824E-004;
2.423666666666667E+009;1.405471265316010E-001;-9.888859093189240E-002;-2.846012357622385E-003;-5.728538963012397E-004;
2.423833333333334E+009;1.399089992046356E-001;-9.992219507694244E-002;-2.839367138221860E-003;-4.785362107213587E-004;
2.424000000000000E+009;1.387783288955689E-001;-1.005993336439133E-001;-2.894210396334529E-003;-4.994132323190570E-004;
2.424166666666667E+009;1.379156261682510E-001;-1.016699746251106E-001;-2.776393666863442E-003;-4.227685567457229E-004;
2.424333333333334E+009;1.371237933635712E-001;-1.027728021144867E-001;-2.752386732026935E-003;-4.882243229076266E-004;
2.424500000000000E+009;1.362738162279129E-001;-1.037880107760429E-001;-2.801924245432019E-003;-3.497827565297484E-004;
2.424666666666667E+009;1.355944424867630E-001;-1.047662571072578E-001;-2.591059077531099E-003;-3.682982060126960E-004;
2.424833333333334E+009;1.347564160823822E-001;-1.060420200228691E-001;-2.896800637245178E-003;-3.850811626762152E-004;
2.425000000000000E+009;1.341241896152496E-001;-1.070896089076996E-001;-2.864225069060922E-003;-3.767670423258096E-004;
2.425166666666667E+009;1.332382261753082E-001;-1.084672957658768E-001;-2.766022924333811E-003;-2.470578765496612E-004;
2.425333333333334E+009;1.327685862779617E-001;-1.095433458685875E-001;-2.826005453243852E-003;-1.598114758962765E-004;
2.425500000000000E+009;1.322477459907532E-001;-1.106955707073212E-001;-2.972161164507270E-003;-3.782246130867861E-005;
2.425666666666667E+009;1.316316276788712E-001;-1.118969321250916E-001;-2.843127120286226E-003;-4.829198951483704E-005;
2.425833333333334E+009;1.310831457376480E-001;-1.132553964853287E-001;-2.869788790121675E-003;1.554663613205776E-004;
2.426000000000000E+009;1.305754780769348E-001;-1.144205033779144E-001;-2.935379277914763E-003;7.535312033724040E-005;
2.426166666666667E+009;1.302737593650818E-001;-1.155962273478508E-001;-2.874989062547684E-003;2.452796034049243E-004;
2.426333333333334E+009;1.297705769538879E-001;-1.167357414960861E-001;-2.916819183155894E-003;4.179856623522937E-004;
2.426500000000000E+009;1.293668001890183E-001;-1.179466396570206E-001;-2.756610512733460E-003;3.574166912585497E-004;
2.426666666666667E+009;1.291382759809494E-001;-1.188847124576569E-001;-2.661157166585326E-003;5.713808932341635E-004;
2.426833333333334E+009;1.287005990743637E-001;-1.199883595108986E-001;-2.829877659678459E-003;4.790547536686063E-004;
2.427000000000000E+009;1.284992992877960E-001;-1.211300343275070E-001;-2.631754847243428E-003;4.460976633708924E-004;
2.427166666666667E+009;1.282065063714981E-001;-1.218525692820549E-001;-2.728745108470321E-003;5.408677970990539E-004;
2.427333333333334E+009;1.279270499944687E-001;-1.228011995553970E-001;-2.554631792008877E-003;6.613769801333547E-004;
2.427500000000000E+009;1.279717981815338E-001;-1.236549615859985E-001;-2.549295779317617E-003;6.505756173282862E-004;
2.427666666666667E+009;1.277267336845398E-001;-1.244747415184975E-001;-2.620661165565252E-003;6.125047802925110E-004;
