# Version 1.00
#
freq[Hz];re:Trc1_S11;im:Trc1_S11;re:Trc2_S21;im:Trc2_S21;
2.400000000000000E+009;1.548057645559311E-001;1.061467304825783E-001;-4.005418624728918E-003;-4.315188620239496E-003;
2.400166666666667E+009;1.545441895723343E-001;1.037687882781029E-001;-4.044990986585617E-003;-4.338709171861410E-003;
2.400333333333334E+009;1.546716690063477E-001;1.013556718826294E-001;-4.350993316620588E-003;-4.443558864295483E-003;
2.400500000000000E+009;1.545005887746811E-001;9.872314333915710E-002;-4.569557495415211E-003;-4.368925467133522E-003;
2.400666666666667E+009;1.543505638837814E-001;9.615417569875717E-002;-4.764047916978598E-003;-4.371687304228544E-003;
2.400833333333334E+009;1.544421166181564E-001;9.333158284425736E-002;-5.028322339057922E-003;-4.209348931908608E-003;
2.401000000000000E+009;1.544789820909500E-001;9.035897254943848E-002;-5.310250911861658E-003;-4.340648185461760E-003;
2.401166666666667E+009;1.545552462339401E-001;8.758680522441864E-002;-5.623055156320334E-003;-4.024518188089132E-003;
2.401333333333334E+009;1.550112366676331E-001;8.504487574100494E-002;-5.860156845301390E-003;-3.838696749880910E-003;
2.401500000000000E+009;1.551788449287415E-001;8.210354298353195E-002;-6.033160723745823E-003;-3.738015424460173E-003;
2.401666666666667E+009;1.555029302835465E-001;7.916145026683807E-002;-6.419224664568901E-003;-3.541032085195184E-003;
2.401833333333334E+009;1.560529172420502E-001;7.668560743331909E-002;-6.694208364933729E-003;-3.512039780616760E-003;
2.402000000000000E+009;1.568730622529984E-001;7.374122738838196E-002;-6.879596970975399E-003;-3.126680618152022E-003;
2.402166666666667E+009;1.577289998531342E-001;7.139969617128372E-002;-7.184562273323536E-003;-2.828154247254133E-003;
2.402333333333334E+009;1.585046947002411E-001;6.869712471961975E-002;-7.434397470206022E-003;-2.741086296737194E-003;
2.402500000000000E+009;1.597245186567307E-001;6.614443659782410E-002;-7.570059038698673E-003;-2.421431476250291E-003;
2.402666666666667E+009;1.609394252300263E-001;6.393053382635117E-002;-7.839825935661793E-003;-1.932009938172996E-003;
2.402833333333334E+009;1.620689183473587E-001;6.130200996994972E-002;-7.985122501850128E-003;-1.632957835681737E-003;
2.403000000000000E+009;1.636340320110321E-001;5.921608209609985E-002;-8.259871043264866E-003;-1.330333412624896E-003;
2.403166666666667E+009;1.654144972562790E-001;5.693603679537773E-002;-8.381619118154049E-003;-9.321892866864801E-004;
2.403333333333334E+009;1.668217331171036E-001;5.487336590886116E-002;-8.460456505417824E-003;-2.938644902314991E-004;
2.403500000000000E+009;1.684510856866837E-001;5.274406075477600E-002;-8.525126613676548E-003;9.218288323609158E-005;
2.403666666666667E+009;1.702170968055725E-001;5.089189857244492E-002;-8.378958329558373E-003;4.757519636768848E-004;
2.403833333333334E+009;1.719309389591217E-001;4.910547658801079E-002;-8.413427509367466E-003;1.104668248444796E-003;
2.404000000000000E+009;1.734368801116943E-001;4.743861779570580E-002;-8.248377591371536E-003;1.404264359734952E-003;
2.404166666666667E+009;1.754328608512878E-001;4.600188881158829E-002;-8.147137239575386E-003;1.724947127513588E-003;
2.404333333333334E+009;1.769578605890274E-001;4.437267780303955E-002;-7.897773757576942E-003;2.230454469099641E-003;
2.404500000000000E+009;1.786763966083527E-001;4.300566390156746E-002;-7.798646111041307E-003;2.465128200128675E-003;
2.404666666666667E+009;1.804810613393784E-001;4.210354387760162E-002;-7.472359575331211E-003;2.690438181161881E-003;
2.404833333333334E+009;1.821684539318085E-001;4.093599691987038E-002;-7.361191324889660E-003;3.032383276149631E-003;
2.405000000000000E+009;1.834485232830048E-001;4.041269794106484E-002;-7.030887994915247E-003;3.207911737263203E-003;
2.405166666666667E+009;1.849755793809891E-001;3.962004184722900E-002;-6.938765291124582E-003;3.542152699083090E-003;
2.405333333333334E+009;1.864377260208130E-001;3.911230340600014E-002;-6.692005787044764E-003;3.726135008037090E-003;
2.405500000000000E+009;1.878081858158112E-001;3.852656483650208E-002;-6.439160089939833E-003;3.897837130352855E-003;
2.405666666666667E+009;1.891784369945526E-001;3.832802921533585E-002;-6.268566474318504E-003;4.095439333468676E-003;
2.405833333333334E+009;1.903804689645767E-001;3.795267269015312E-002;-6.134605500847101E-003;4.313462413847446E-003;
2.406000000000000E+009;1.912646293640137E-001;3.784321621060371E-002;-5.988015327602625E-003;4.633444361388683E-003;
2.406166666666667E+009;1.924496889114380E-001;3.771156445145607E-002;-5.652831401675940E-003;4.711057990789414E-003;
2.406333333333334E+009;1.932277232408524E-001;3.773510456085205E-002;-5.426211282610893E-003;4.884624388068914E-003;
2.406500000000000E+009;1.940991729497910E-001;3.768967092037201E-002;-5.220612976700068E-003;4.915594588965178E-003;
2.406666666666667E+009;1.946335881948471E-001;3.777218982577324E-002;-4.919384140521288E-003;5.204810760915279E-003;
2.406833333333334E+009;1.952599734067917E-001;3.781144320964813E-002;-4.811940249055624E-003;5.276255309581757E-003;
2.407000000000000E+009;1.955017745494843E-001;3.807544335722923E-002;-4.458703100681305E-003;5.292281042784452E-003;
2.407166666666667E+009;1.959408670663834E-001;3.794360905885696E-002;-4.221062641590834E-003;5.438467022031546E-003;
2.407333333333334E+009;1.959063708782196E-001;3.818389028310776E-002;-4.024825524538755E-003;5.560154560953379E-003;
2.407500000000000E+009;1.958702206611633E-001;3.822819888591766E-002;-3.743054112419486E-003;5.449782125651836E-003;
2.407666666666667E+009;1.959393620491028E-001;3.821329399943352E-002;-3.424255643039942E-003;5.514698568731546E-003;
2.407833333333334E+009;1.953953653573990E-001;3.815464302897453E-002;-3.316923277452588E-003;5.483713466674089E-003;
2.408000000000000E+009;1.952296048402786E-001;3.797583654522896E-002;-3.003223799169064E-003;5.516708828508854E-003;
2.408166666666667E+009;1.947587877511978E-001;3.774227201938629E-002;-2.916617784649134E-003;5.381555296480656E-003;
2.408333333333334E+009;1.944264322519302E-001;3.725759685039520E-002;-2.855630824342370E-003;5.450665485113859E-003;
2.408500000000000E+009;1.936898678541184E-001;3.690809756517410E-002;-2.619064645841718E-003;5.486824549734592E-003;
2.408666666666667E+009;1.930309385061264E-001;3.640379756689072E-002;-2.458766335621476E-003;5.166834685951471E-003;
2.408833333333334E+009;1.925030350685120E-001;3.584265336394310E-002;-2.312108874320984E-003;5.109520163387060E-003;
2.409000000000000E+009;1.914921104907990E-001;3.477934747934341E-002;-2.345314715057612E-003;5.264837294816971E-003;
2.409166666666667E+009;1.906506568193436E-001;3.386136889457703E-002;-2.072929171845317E-003;5.166086368262768E-003;
2.409333333333334E+009;1.896927207708359E-001;3.288549184799194E-002;-2.194840693846345E-003;5.153829697519541E-003;
2.409500000000000E+009;1.884878426790237E-001;3.151794523000717E-002;-1.910643419250846E-003;5.265275016427040E-003;
2.409666666666667E+009;1.875535100698471E-001;3.016219846904278E-002;-2.018191618844867E-003;5.142658017575741E-003;
2.409833333333334E+009;1.867024600505829E-001;2.860791049897671E-002;-1.955405808985233E-003;5.171169061213732E-003;
2.410000000000000E+009;1.856783181428909E-001;2.688409760594368E-002;-1.859196228906512E-003;5.288022104650736E-003;
2.410166666666667E+009;1.846995353698731E-001;2.500961348414421E-002;-1.733918557874858E-003;5.186150781810284E-003;
2.410333333333334E+009;1.834874302148819E-001;2.321997471153736E-002;-1.597473979927599E-003;5.300920922309160E-003;
2.410500000000000E+009;1.825772225856781E-001;2.127450518310070E-002;-1.574807101860642E-003;5.527409724891186E-003;
2.410666666666667E+009;1.818010509014130E-001;1.918521337211132E-002;-1.389820128679276E-003;5.516228266060352E-003;
2.410833333333334E+009;1.808840930461884E-001;1.682152785360813E-002;-1.304712961427867E-003;5.461506545543671E-003;
2.411000000000000E+009;1.801219582557678E-001;1.460667792707682E-002;-1.166925765573978E-003;5.336888134479523E-003;
2.411166666666667E+009;1.796075999736786E-001;1.250269170850515E-002;-1.103585003875196E-003;5.347413010895252E-003;
2.411333333333334E+009;1.790025383234024E-001;9.867397136986256E-003;-9.629652486182749E-004;5.501538515090942E-003;
2.411500000000000E+009;1.785718053579330E-001;7.444122806191444E-003;-7.724693859927356E-004;5.322366021573544E-003;
2.411666666666667E+009;1.784556210041046E-001;5.170872900635004E-003;-8.054336649365723E-004;5.302317906171084E-003;
2.411833333333334E+009;1.781618595123291E-001;2.753482898697257E-003;-5.737669416703284E-004;5.315712653100491E-003;
2.412000000000000E+009;1.784048825502396E-001;1.686187461018562E-004;-5.634390399791300E-004;5.251540336757898E-003;
2.412166666666667E+009;1.783435642719269E-001;-2.128772204741836E-003;-4.803498450201005E-004;5.359858740121126E-003;
2.412333333333334E+009;1.787789314985275E-001;-4.834358114749193E-003;-4.134090850129724E-004;5.325297825038433E-003;
2.412500000000000E+009;1.791347414255142E-001;-7.223749998956919E-003;-3.058809670619667E-004;5.237696226686239E-003;
2.412666666666667E+009;1.795793026685715E-001;-9.649342857301235E-003;-1.750246010487899E-004;5.207555834203959E-003;
2.412833333333334E+009;1.802461445331574E-001;-1.208915747702122E-002;-1.872447464847937E-004;5.322481505572796E-003;
2.413000000000000E+009;1.809770017862320E-001;-1.453096978366375E-002;-2.410562447039411E-004;5.571310874074698E-003;
2.413166666666667E+009;1.819109767675400E-001;-1.670679450035095E-002;-8.707547385711223E-005;5.424351431429386E-003;
2.413333333333334E+009;1.830089241266251E-001;-1.909724809229374E-002;-1.042419826262631E-004;5.678073037415743E-003;
2.413500000000000E+009;1.838348358869553E-001;-2.144218795001507E-002;1.116844578064047E-004;5.853308830410242E-003;
2.413666666666667E+009;1.849041134119034E-001;-2.383798360824585E-002;1.791351678548381E-004;6.055443547666073E-003;
2.413833333333334E+009;1.860227584838867E-001;-2.574228495359421E-002;4.046508693136275E-004;6.032563745975494E-003;
2.414000000000000E+009;1.871963888406754E-001;-2.773558348417282E-002;7.381890318356454E-004;6.047459319233894E-003;
2.414166666666667E+009;1.883999705314636E-001;-2.951049245893955E-002;9.048897190950811E-004;6.132035981863737E-003;
2.414333333333334E+009;1.895358413457871E-001;-3.143579512834549E-002;9.220670326612890E-004;6.219686474651098E-003;
2.414500000000000E+009;1.909048259258270E-001;-3.281247243285179E-002;1.266592647880316E-003;6.126583088189364E-003;
2.414666666666667E+009;1.917833387851715E-001;-3.440765291452408E-002;1.567238476127386E-003;6.189238280057907E-003;
2.414833333333334E+009;1.932591199874878E-001;-3.585991263389587E-002;1.727388706058264E-003;6.183635443449020E-003;
2.415000000000000E+009;1.942115277051926E-001;-3.713594749569893E-002;2.066677203401923E-003;6.150321569293737E-003;
2.415166666666667E+009;1.954671740531921E-001;-3.819957375526428E-002;2.227090531960130E-003;5.915981251746416E-003;
2.415333333333334E+009;1.965887546539307E-001;-3.909306600689888E-002;2.576879691332579E-003;5.988223012536764E-003;
2.415500000000000E+009;1.977668702602387E-001;-3.977568075060844E-002;2.630017232149839E-003;5.854094866663218E-003;
2.415666666666667E+009;1.987247020006180E-001;-4.067556932568550E-002;2.704386366531253E-003;5.673947744071484E-003;
2.415833333333334E+009;1.994453221559525E-001;-4.115445911884308E-002;2.915150718763471E-003;5.633994936943054E-003;
2.416000000000000E+009;2.003704905509949E-001;-4.179780930280685E-002;2.969365101307631E-003;5.742580629885197E-003;
2.416166666666667E+009;2.011674642562866E-001;-4.231515154242516E-002;3.267779015004635E-003;5.644829012453556E-003;
2.416333333333334E+009;2.016600519418716E-001;-4.254837334156036E-002;3.322360571473837E-003;5.570600740611553E-003;
2.416500000000000E+009;2.021978646516800E-001;-4.275041446089745E-002;3.535795025527477E-003;5.504626315087080E-003;
2.416666666666667E+009;2.024322748184204E-001;-4.312801361083984E-002;3.597651375457645E-003;5.411168094724417E-003;
2.416833333333334E+009;2.025719285011292E-001;-4.297837615013123E-002;3.837387776002288E-003;5.284840706735849E-003;
2.417000000000000E+009;2.026945352554321E-001;-4.309442266821861E-002;3.977522253990173E-003;5.348825361579657E-003;
2.417166666666667E+009;2.024122774600983E-001;-4.302467405796051E-002;4.158324562013149E-003;5.182303022593260E-003;
2.417333333333334E+009;2.022774070501328E-001;-4.279286041855812E-002;4.593093879520893E-003;5.133792292326689E-003;
2.417500000000000E+009;2.019704431295395E-001;-4.279422014951706E-002;4.583294037729502E-003;5.160771775990725E-003;
2.417666666666667E+009;2.014049887657166E-001;-4.251895099878311E-002;4.837315529584885E-003;5.036046728491783E-003;
2.417833333333334E+009;2.009812593460083E-001;-4.240845516324043E-002;5.065257195383310E-003;4.821231588721275E-003;
2.418000000000000E+009;2.003898322582245E-001;-4.207916930317879E-002;5.283103790134192E-003;4.590307362377644E-003;
2.418166666666667E+009;1.996423900127411E-001;-4.195342585444450E-002;5.461905151605606E-003;4.682363942265511E-003;
2.418333333333334E+009;1.986305117607117E-001;-4.185888171195984E-002;5.621165502816439E-003;4.363884218037128E-003;
2.418500000000000E+009;1.976761072874069E-001;-4.179674759507179E-002;5.883817095309496E-003;4.133183974772692E-003;
2.418666666666667E+009;1.966629773378372E-001;-4.164979606866837E-002;6.026289425790310E-003;3.961626905947924E-003;
2.418833333333334E+009;1.953949481248856E-001;-4.186419025063515E-002;6.092477589845657E-003;3.941043745726347E-003;
2.419000000000000E+009;1.940954625606537E-001;-4.211918264627457E-002;6.312640849500895E-003;3.580732038244605E-003;
2.419166666666667E+009;1.928231418132782E-001;-4.232164472341538E-002;6.587847601622343E-003;3.257491858676076E-003;
2.419333333333334E+009;1.914329826831818E-001;-4.290369525551796E-002;6.648702081292868E-003;3.131714649498463E-003;
2.419500000000000E+009;1.898112893104553E-001;-4.329098388552666E-002;6.634130142629147E-003;2.923594787716866E-003;
2.419666666666667E+009;1.883086413145065E-001;-4.400656372308731E-002;6.884231697767973E-003;2.632030518725514E-003;
2.419833333333334E+009;1.866444796323776E-001;-4.467966035008431E-002;6.847960408776999E-003;2.402857877314091E-003;
2.420000000000000E+009;1.851228475570679E-001;-4.560428857803345E-002;7.038643117994070E-003;2.221565926447511E-003;
2.420166666666667E+009;1.834174096584320E-001;-4.644400998950005E-002;7.230950985103846E-003;1.863298704847693E-003;
2.420333333333334E+009;1.818465441465378E-001;-4.751757159829140E-002;7.191943936049938E-003;1.834682654589415E-003;
2.420500000000000E+009;1.802898198366165E-001;-4.900875315070152E-002;7.224410306662321E-003;1.470472663640976E-003;
2.420666666666667E+009;1.785260438919067E-001;-5.019203945994377E-002;7.305270060896874E-003;1.369762467220426E-003;
2.420833333333334E+009;1.769952178001404E-001;-5.160197615623474E-002;7.456832565367222E-003;1.201900420710445E-003;
2.421000000000000E+009;1.754919141530991E-001;-5.309299379587174E-002;7.539105601608753E-003;6.992156850174069E-004;
2.421166666666667E+009;1.741318404674530E-001;-5.498815700411797E-002;7.546264212578535E-003;5.759570631198585E-004;
2.421333333333334E+009;1.723467707633972E-001;-5.644981563091278E-002;7.663228549063206E-003;1.165517824119888E-004;
2.421500000000000E+009;1.710859835147858E-001;-5.857966840267181E-002;7.592325098812580E-003;-4.707143671112135E-005;
2.421666666666667E+009;1.698886007070541E-001;-6.035881862044334E-002;7.480438798666000E-003;-5.069137550890446E-004;
2.421833333333334E+009;1.687981188297272E-001;-6.225170195102692E-002;7.704902905970812E-003;-8.603606256656349E-004;
2.422000000000000E+009;1.676305234432221E-001;-6.396385282278061E-002;7.537712343037128E-003;-1.053837011568248E-003;
2.422166666666667E+009;1.668868809938431E-001;-6.618926674127579E-002;7.395037915557623E-003;-1.424195594154298E-003;
2.422333333333334E+009;1.657469570636749E-001;-6.838669627904892E-002;7.330711930990219E-003;-1.716596772894263E-003;
2.422500000000000E+009;1.650653034448624E-001;-7.023916393518448E-002;7.155488710850477E-003;-2.018145285546780E-003;
2.422666666666667E+009;1.643258631229401E-001;-7.225399464368820E-002;7.048936560750008E-003;-2.311620861291885E-003;
2.422833333333334E+009;1.639109104871750E-001;-7.438508421182632E-002;6.999518722295761E-003;-2.622089115902782E-003;
2.423000000000000E+009;1.633962541818619E-001;-7.637555152177811E-002;6.564391311258078E-003;-2.990316366776824E-003;
2.423166666666667E+009;1.630201339721680E-001;-7.840173691511154E-002;6.325421854853630E-003;-3.121606074273586E-003;
2.423333333333334E+009;1.628780663013458E-001;-8.050417900085449E-002;6.260930094867945E-003;-3.458417486399412E-003;
2.423500000000000E+009;1.629381477832794E-001;-8.229620009660721E-002;6.020850501954556E-003;-3.810055553913117E-003;
2.423666666666667E+009;1.628134995698929E-001;-8.423992246389389E-002;5.646393168717623E-003;-3.834549104794860E-003;
2.423833333333334E+009;1.627864688634872E-001;-8.604107797145844E-002;5.451655481010675E-003;-3.930300939828157E-003;
2.424000000000000E+009;1.629201173782349E-001;-8.793483674526215E-002;5.138183012604713E-003;-4.074483178555965E-003;
2.424166666666667E+009;1.631350964307785E-001;-8.944379538297653E-002;4.878106527030468E-003;-4.222251474857330E-003;
2.424333333333334E+009;1.633351296186447E-001;-9.103728830814362E-002;4.590244963765144E-003;-4.196465481072664E-003;
2.424500000000000E+009;1.635871529579163E-001;-9.282455593347549E-002;4.284060094505549E-003;-4.198371898382902E-003;
2.424666666666667E+009;1.639163792133331E-001;-9.405224770307541E-002;4.167356062680483E-003;-4.474921151995659E-003;
2.424833333333334E+009;1.645589917898178E-001;-9.544178098440170E-002;3.943004645407200E-003;-4.440824966877699E-003;
2.425000000000000E+009;1.648762524127960E-001;-9.659112989902496E-002;3.768890863284469E-003;-4.506961908191443E-003;
2.425166666666667E+009;1.651787459850311E-001;-9.764372557401657E-002;3.512692870572209E-003;-4.529591649770737E-003;
2.425333333333334E+009;1.656028330326080E-001;-9.866816550493240E-002;3.185258246958256E-003;-4.529380705207586E-003;
2.425500000000000E+009;1.659240424633026E-001;-9.960103034973145E-002;3.082677023485303E-003;-4.335021600127220E-003;
2.425666666666667E+009;1.664893925189972E-001;-1.002858057618141E-001;2.939628204330802E-003;-4.407017957419157E-003;
2.425833333333334E+009;1.666392236948013E-001;-1.011295318603516E-001;2.742083510383964E-003;-4.479916766285896E-003;
2.426000000000000E+009;1.671529412269592E-001;-1.015454009175301E-001;2.565390896052122E-003;-4.406711086630821E-003;
2.426166666666667E+009;1.676310598850250E-001;-1.021064445376396E-001;2.445897320285440E-003;-4.340989049524069E-003;
2.426333333333334E+009;1.676993072032929E-001;-1.025904193520546E-001;2.248671837151051E-003;-4.391529597342014E-003;
2.426500000000000E+009;1.680706292390823E-001;-1.028385236859322E-001;2.045806031674147E-003;-4.077129065990448E-003;
2.426666666666667E+009;1.682908684015274E-001;-1.031571701169014E-001;2.177522284910083E-003;-4.155263304710388E-003;
2.426833333333334E+009;1.687071919441223E-001;-1.034013628959656E-001;1.874060719273984E-003;-3.972678910940886E-003;
2.427000000000000E+009;1.686743944883347E-001;-1.036246344447136E-001;1.724994392134249E-003;-4.046848509460688E-003;
2.427166666666667E+009;1.686571687459946E-001;-1.036389395594597E-001;1.600717077963054E-003;-3.845494706183672E-003;
2.427333333333334E+009;1.684979200363159E-001;-1.038252040743828E-001;1.639156718738377E-003;-3.755040001124144E-003;
2.427500000000000E+009;1.682848334312439E-001;-1.040010005235672E-001;1.570603344589472E-003;-3.686143783852458E-003;
2.427666666666667E+009;1.678953915834427E-001;-1.040509045124054E-001;1.450440729968250E-003;-3.785632783547044E-003;
2.427833333333334E+009;1.675486266613007E-001;-1.041930243372917E-001;1.432954566553235E-003;-3.615920431911945E-003;
