# Version 1.00
#
freq[Hz];re:Trc1_S11;im:Trc1_S11;re:Trc2_S21;im:Trc2_S21;
2.400000000000000E+009;1.549809873104096E-001;1.059674024581909E-001;-3.730702679604292E-003;-4.446856211870909E-003;
2.400166666666667E+009;1.545513123273850E-001;1.037172824144363E-001;-4.067734815180302E-003;-4.403821658343077E-003;
2.400333333333334E+009;1.546594947576523E-001;1.013348028063774E-001;-4.355716053396463E-003;-4.397075157612562E-003;
2.400500000000000E+009;1.547384113073349E-001;9.888495504856110E-002;-4.335789475589991E-003;-4.439577925950289E-003;
2.400666666666667E+009;1.545430570840836E-001;9.625942260026932E-002;-4.769605584442616E-003;-4.512457177042961E-003;
2.400833333333334E+009;1.542615741491318E-001;9.356386214494705E-002;-4.829423967748880E-003;-4.378782119601965E-003;
2.401000000000000E+009;1.549603193998337E-001;9.109302610158920E-002;-5.234580487012863E-003;-4.144396632909775E-003;
2.401166666666667E+009;1.548141688108444E-001;8.805777877569199E-002;-5.298458505421877E-003;-4.046346526592970E-003;
2.401333333333334E+009;1.549904495477676E-001;8.529441803693771E-002;-5.766516085714102E-003;-4.013186320662499E-003;
2.401500000000000E+009;1.553526222705841E-001;8.224619179964066E-002;-6.043223664164543E-003;-3.944336902350187E-003;
2.401666666666667E+009;1.556305736303330E-001;7.951340824365616E-002;-6.283018738031387E-003;-3.602942917495966E-003;
2.401833333333334E+009;1.560173183679581E-001;7.676914334297180E-002;-6.478950846940279E-003;-3.332581138238311E-003;
2.402000000000000E+009;1.569808423519135E-001;7.406572252511978E-002;-6.875583436340094E-003;-3.283924888819456E-003;
2.402166666666667E+009;1.575586348772049E-001;7.148018479347229E-002;-6.979119498282671E-003;-2.972393296658993E-003;
2.402333333333334E+009;1.586877405643463E-001;6.874939799308777E-002;-7.130452897399664E-003;-2.559256972745061E-003;
2.402500000000000E+009;1.598038077354431E-001;6.637717038393021E-002;-7.645141333341599E-003;-2.393446862697601E-003;
2.402666666666667E+009;1.610335260629654E-001;6.400975584983826E-002;-7.768796756863594E-003;-1.974867656826973E-003;
2.402833333333334E+009;1.621893197298050E-001;6.161411851644516E-002;-7.950660772621632E-003;-1.610070350579917E-003;
2.403000000000000E+009;1.638950854539871E-001;5.942720919847488E-002;-8.031262084841728E-003;-1.137569081038237E-003;
2.403166666666667E+009;1.655267924070358E-001;5.722401291131973E-002;-8.196102455258369E-003;-7.824486237950623E-004;
2.403333333333334E+009;1.667907685041428E-001;5.498725548386574E-002;-8.122645318508148E-003;-5.592657835222781E-004;
2.403500000000000E+009;1.686047911643982E-001;5.305198580026627E-002;-8.322483859956265E-003;-1.431611599400640E-004;
2.403666666666667E+009;1.704375594854355E-001;5.130063369870186E-002;-8.406787179410458E-003;3.834651433862746E-004;
2.403833333333334E+009;1.720136106014252E-001;4.919980466365814E-002;-8.247650228440762E-003;9.348515304736793E-004;
2.404000000000000E+009;1.738071590662003E-001;4.754381254315376E-002;-8.148516528308392E-003;1.134693156927824E-003;
2.404166666666667E+009;1.756783425807953E-001;4.605522751808167E-002;-8.136127144098282E-003;1.616975292563438E-003;
2.404333333333334E+009;1.773519814014435E-001;4.447025805711746E-002;-7.903682999312878E-003;2.058838028460741E-003;
2.404500000000000E+009;1.789772659540176E-001;4.308504238724709E-002;-7.715096231549978E-003;2.323420485481620E-003;
2.404666666666667E+009;1.806414723396301E-001;4.212301969528198E-002;-7.318513002246618E-003;2.799951238557696E-003;
2.404833333333334E+009;1.822340637445450E-001;4.101541265845299E-002;-7.321046199649572E-003;2.870028838515282E-003;
2.405000000000000E+009;1.835886240005493E-001;4.024941846728325E-002;-7.144051138311625E-003;3.092963714152575E-003;
2.405166666666667E+009;1.851886510848999E-001;3.959042206406593E-002;-6.796985398977995E-003;3.361937589943409E-003;
2.405333333333334E+009;1.866051554679871E-001;3.918714076280594E-002;-6.608973257243633E-003;3.639830509200692E-003;
2.405500000000000E+009;1.879960447549820E-001;3.864829242229462E-002;-6.398501805961132E-003;3.780578030273318E-003;
2.405666666666667E+009;1.893080919981003E-001;3.832462057471275E-002;-6.307424977421761E-003;4.173082765191793E-003;
2.405833333333334E+009;1.906413584947586E-001;3.793789446353912E-002;-5.996012594550848E-003;4.197266418486834E-003;
2.406000000000000E+009;1.916886568069458E-001;3.784631937742233E-002;-5.958924070000649E-003;4.282038658857346E-003;
2.406166666666667E+009;1.927988827228546E-001;3.781522065401077E-002;-5.777712911367416E-003;4.529047757387161E-003;
2.406333333333334E+009;1.935694664716721E-001;3.769013285636902E-002;-5.363401956856251E-003;4.689095541834831E-003;
2.406500000000000E+009;1.942844241857529E-001;3.774105384945869E-002;-5.098677240312100E-003;4.990459419786930E-003;
2.406666666666667E+009;1.949705928564072E-001;3.786461800336838E-002;-4.847365897148848E-003;5.173756740987301E-003;
2.406833333333334E+009;1.954343318939209E-001;3.793943673372269E-002;-4.709490109235048E-003;5.189359653741121E-003;
2.407000000000000E+009;1.957267969846726E-001;3.813533112406731E-002;-4.296088125556707E-003;5.305569153279066E-003;
2.407166666666667E+009;1.961960047483444E-001;3.790790587663651E-002;-4.109601955860853E-003;5.301013588905335E-003;
2.407333333333334E+009;1.960703879594803E-001;3.808068484067917E-002;-3.921065013855696E-003;5.493798758834600E-003;
2.407500000000000E+009;1.961236298084259E-001;3.826658427715302E-002;-3.715079044923186E-003;5.491856019943953E-003;
2.407666666666667E+009;1.961462199687958E-001;3.828753158450127E-002;-3.417389700189233E-003;5.351727362722158E-003;
2.407833333333334E+009;1.957027912139893E-001;3.811508417129517E-002;-3.165515372529626E-003;5.380358081310988E-003;
2.408000000000000E+009;1.956287324428558E-001;3.796784207224846E-002;-2.975703449919820E-003;5.250695627182722E-003;
2.408166666666667E+009;1.950630992650986E-001;3.767614811658859E-002;-2.993324771523476E-003;5.321403965353966E-003;
2.408333333333334E+009;1.946463584899902E-001;3.729972243309021E-002;-2.659717109054327E-003;5.227250047028065E-003;
2.408500000000000E+009;1.939578801393509E-001;3.692577034235001E-002;-2.624924527481198E-003;5.195348057895899E-003;
2.408666666666667E+009;1.932895481586456E-001;3.648070245981216E-002;-2.503838390111923E-003;5.201453343033791E-003;
2.408833333333334E+009;1.926568597555161E-001;3.562512993812561E-002;-2.392697613686323E-003;5.073350388556719E-003;
2.409000000000000E+009;1.917097717523575E-001;3.466970473527908E-002;-2.352636307477951E-003;5.164139904081821E-003;
2.409166666666667E+009;1.907822489738464E-001;3.386061266064644E-002;-2.220476046204567E-003;5.178975872695446E-003;
2.409333333333334E+009;1.899566948413849E-001;3.285239264369011E-002;-2.178446622565389E-003;5.023908801376820E-003;
2.409500000000000E+009;1.888526529073715E-001;3.152153268456459E-002;-2.222345676273108E-003;5.024884827435017E-003;
2.409666666666667E+009;1.877655237913132E-001;3.008682280778885E-002;-2.137056784704328E-003;5.093838553875685E-003;
2.409833333333334E+009;1.867895573377609E-001;2.862774580717087E-002;-1.983010210096836E-003;5.037214141339064E-003;
2.410000000000000E+009;1.855896413326263E-001;2.693021111190319E-002;-1.858993433415890E-003;5.043643992394209E-003;
2.410166666666667E+009;1.847764700651169E-001;2.500543929636478E-002;-1.784381107427180E-003;5.199918989092112E-003;
2.410333333333334E+009;1.837359219789505E-001;2.325577102601528E-002;-1.789877773262560E-003;5.221469327807427E-003;
2.410500000000000E+009;1.827434450387955E-001;2.108499780297279E-002;-1.570811611600220E-003;5.235934164375067E-003;
2.410666666666667E+009;1.819523870944977E-001;1.898756995797157E-002;-1.414690166711807E-003;5.299404263496399E-003;
2.410833333333334E+009;1.812031567096710E-001;1.667833700776100E-002;-1.282744808122516E-003;5.276197567582130E-003;
2.411000000000000E+009;1.802911460399628E-001;1.452089753001928E-002;-1.185686443932355E-003;5.331352818757296E-003;
2.411166666666667E+009;1.798727810382843E-001;1.216638740152121E-002;-1.136617385782301E-003;5.300739780068398E-003;
2.411333333333334E+009;1.791979521512985E-001;9.800979867577553E-003;-1.136410399340093E-003;5.430151708424091E-003;
2.411500000000000E+009;1.789767444133759E-001;7.314871996641159E-003;-1.074459752999246E-003;5.431949160993099E-003;
2.411666666666667E+009;1.786156892776489E-001;5.094305146485567E-003;-7.673493819311261E-004;5.258002318441868E-003;
2.411833333333334E+009;1.782843768596649E-001;2.541969064623117E-003;-6.466172635555267E-004;5.295427050441504E-003;
2.412000000000000E+009;1.784959584474564E-001;-7.746069604763761E-005;-6.278640357777476E-004;5.267105065286160E-003;
2.412166666666667E+009;1.786182671785355E-001;-2.302897628396750E-003;-6.707421271130443E-004;5.258467979729176E-003;
2.412333333333334E+009;1.787091940641403E-001;-5.034839268773794E-003;-5.656460416503251E-004;5.405071191489697E-003;
2.412500000000000E+009;1.792037487030029E-001;-7.319137454032898E-003;-5.102565628476441E-004;5.250234156847000E-003;
2.412666666666667E+009;1.797654330730438E-001;-9.812115691602230E-003;-4.568649455904961E-004;5.294206552207470E-003;
2.412833333333334E+009;1.805003136396408E-001;-1.232816185802221E-002;-2.538592088967562E-004;5.369732156395912E-003;
2.413000000000000E+009;1.812379956245422E-001;-1.478355936706066E-002;-2.728878462221474E-004;5.396414082497358E-003;
2.413166666666667E+009;1.818167269229889E-001;-1.693134382367134E-002;-3.642626979853958E-004;5.516694858670235E-003;
2.413333333333334E+009;1.830462813377380E-001;-1.935517042875290E-002;-1.170022005680949E-004;5.688884295523167E-003;
2.413500000000000E+009;1.838235855102539E-001;-2.158050797879696E-002;-1.783108891686425E-004;5.656756926327944E-003;
2.413666666666667E+009;1.850120127201080E-001;-2.375842630863190E-002;1.660497218836099E-005;5.821477621793747E-003;
2.413833333333334E+009;1.861082166433334E-001;-2.583185583353043E-002;3.556545998435468E-004;6.011791992932558E-003;
2.414000000000000E+009;1.872296929359436E-001;-2.783295512199402E-002;5.942163406871259E-004;5.976121407002211E-003;
2.414166666666667E+009;1.885232627391815E-001;-2.958886884152889E-002;6.623049848712981E-004;6.217885296791792E-003;
2.414333333333334E+009;1.895640045404434E-001;-3.159395605325699E-002;9.043852915056050E-004;6.120255682617426E-003;
2.414500000000000E+009;1.909171491861343E-001;-3.300449624657631E-002;1.266262377612293E-003;6.187405902892351E-003;
2.414666666666667E+009;1.919843852519989E-001;-3.450028225779533E-002;1.530132838524878E-003;6.158724427223206E-003;
2.414833333333334E+009;1.930633634328842E-001;-3.590944781899452E-002;1.735889818519354E-003;6.219255272299051E-003;
2.415000000000000E+009;1.942681968212128E-001;-3.729142621159554E-002;1.874274923466146E-003;6.013868842273951E-003;
2.415166666666667E+009;1.954979300498962E-001;-3.823890537023544E-002;2.225936390459538E-003;5.979389883577824E-003;
2.415333333333334E+009;1.965689659118652E-001;-3.917226195335388E-002;2.211162587627769E-003;5.983552895486355E-003;
2.415500000000000E+009;1.976387798786163E-001;-4.002502188086510E-002;2.512692939490080E-003;5.836013704538345E-003;
2.415666666666667E+009;1.987956911325455E-001;-4.088966548442841E-002;2.712203655391932E-003;5.745509639382362E-003;
2.415833333333334E+009;1.995726823806763E-001;-4.139521718025208E-002;2.802567556500435E-003;5.800399929285049E-003;
2.416000000000000E+009;2.002929449081421E-001;-4.190553352236748E-002;2.897160360589624E-003;5.748642608523369E-003;
2.416166666666667E+009;2.010256052017212E-001;-4.241256788372994E-002;3.130815457552671E-003;5.596062634140253E-003;
2.416333333333334E+009;2.016890496015549E-001;-4.273858293890953E-002;3.215756732970476E-003;5.610744934529066E-003;
2.416500000000000E+009;2.021283209323883E-001;-4.287134110927582E-002;3.479817416518927E-003;5.453267134726048E-003;
2.416666666666667E+009;2.023869603872299E-001;-4.319930821657181E-002;3.626943565905094E-003;5.406335927546024E-003;
2.416833333333334E+009;2.025340199470520E-001;-4.321690648794174E-002;3.767299698665738E-003;5.464889109134674E-003;
2.417000000000000E+009;2.027369439601898E-001;-4.328178241848946E-002;3.912603482604027E-003;5.504005122929812E-003;
2.417166666666667E+009;2.025469541549683E-001;-4.316173121333122E-002;4.155148752033711E-003;5.177622660994530E-003;
2.417333333333334E+009;2.022347599267960E-001;-4.299286007881165E-002;4.322712775319815E-003;5.133951548486948E-003;
2.417500000000000E+009;2.019349336624146E-001;-4.293891414999962E-002;4.551098681986332E-003;5.255685653537512E-003;
2.417666666666667E+009;2.014955282211304E-001;-4.269088432192802E-002;4.796804860234261E-003;5.090426187962294E-003;
2.417833333333334E+009;2.010905593633652E-001;-4.254702106118202E-002;5.083462689071894E-003;4.906856920570135E-003;
2.418000000000000E+009;2.004021853208542E-001;-4.218367859721184E-002;5.340343341231346E-003;4.777568392455578E-003;
2.418166666666667E+009;1.994881033897400E-001;-4.215544089674950E-002;5.516689736396074E-003;4.569740965962410E-003;
2.418333333333334E+009;1.985912472009659E-001;-4.202105104923248E-002;5.676699336618185E-003;4.437274765223265E-003;
2.418500000000000E+009;1.974574476480484E-001;-4.200188070535660E-002;5.846688058227301E-003;4.265031311661005E-003;
2.418666666666667E+009;1.965905278921127E-001;-4.198597744107246E-002;6.032322533428669E-003;4.183000884950161E-003;
2.418833333333334E+009;1.953356415033341E-001;-4.206072911620140E-002;6.170828826725483E-003;3.873796202242374E-003;
2.419000000000000E+009;1.940276175737381E-001;-4.208267107605934E-002;6.389183923602104E-003;3.616926493123174E-003;
2.419166666666667E+009;1.926916390657425E-001;-4.239234700798988E-002;6.383753847330809E-003;3.552530193701387E-003;
2.419333333333334E+009;1.912411898374558E-001;-4.296642914414406E-002;6.702659651637077E-003;3.119701752439141E-003;
2.419500000000000E+009;1.898249536752701E-001;-4.325862973928452E-002;6.671700160950422E-003;3.081913571804762E-003;
2.419666666666667E+009;1.881989687681198E-001;-4.417270049452782E-002;6.771620362997055E-003;2.916217315942049E-003;
2.419833333333334E+009;1.865430772304535E-001;-4.493378847837448E-002;7.020038552582264E-003;2.555346349254251E-003;
2.420000000000000E+009;1.850226372480393E-001;-4.570523649454117E-002;6.902353838086128E-003;2.377452794462442E-003;
2.420166666666667E+009;1.833775341510773E-001;-4.647883772850037E-002;7.028092164546251E-003;2.047906862571836E-003;
2.420333333333334E+009;1.817570477724075E-001;-4.774673283100128E-002;7.192249409854412E-003;1.792863593436778E-003;
2.420500000000000E+009;1.802150458097458E-001;-4.898423328995705E-002;7.087148725986481E-003;1.693123253062367E-003;
2.420666666666667E+009;1.784079819917679E-001;-5.018243193626404E-002;7.370698265731335E-003;1.433474943041802E-003;
2.420833333333334E+009;1.768765002489090E-001;-5.180312320590019E-002;7.588736712932587E-003;1.221035839989781E-003;
2.421000000000000E+009;1.754137724637985E-001;-5.336350575089455E-002;7.613979279994965E-003;9.851623326539993E-004;
2.421166666666667E+009;1.740501075983048E-001;-5.500930547714233E-002;7.514605764299631E-003;5.008304142393172E-004;
2.421333333333334E+009;1.722803562879562E-001;-5.664588138461113E-002;7.582674268633127E-003;2.132498630089685E-004;
2.421500000000000E+009;1.710037589073181E-001;-5.861111730337143E-002;7.622577715665102E-003;2.959097582788672E-005;
2.421666666666667E+009;1.698501557111740E-001;-6.039968132972717E-002;7.538256701081991E-003;-4.217323439661413E-004;
2.421833333333334E+009;1.687597036361694E-001;-6.217334419488907E-002;7.518474478274584E-003;-7.654720102436841E-004;
2.422000000000000E+009;1.675391793251038E-001;-6.416456401348114E-002;7.566229440271854E-003;-1.034981687553227E-003;
2.422166666666667E+009;1.666011512279511E-001;-6.636395305395126E-002;7.589795626699925E-003;-1.297375187277794E-003;
2.422333333333334E+009;1.657358407974243E-001;-6.840448826551437E-002;7.251546252518892E-003;-1.646449090912938E-003;
2.422500000000000E+009;1.650071591138840E-001;-7.020439952611923E-002;7.298561278730631E-003;-1.987765077501535E-003;
2.422666666666667E+009;1.642984002828598E-001;-7.234659045934677E-002;7.084283977746964E-003;-2.362323459237814E-003;
2.422833333333334E+009;1.638786643743515E-001;-7.447418570518494E-002;6.795361638069153E-003;-2.554042497649789E-003;
2.423000000000000E+009;1.632588505744934E-001;-7.662438601255417E-002;6.666396278887987E-003;-2.905461471527815E-003;
2.423166666666667E+009;1.629420667886734E-001;-7.851829379796982E-002;6.456860806792975E-003;-3.120238892734051E-003;
2.423333333333334E+009;1.626406461000443E-001;-8.055947721004486E-002;6.229478865861893E-003;-3.447375958785415E-003;
2.423500000000000E+009;1.627685725688934E-001;-8.245230466127396E-002;5.912229418754578E-003;-3.751386422663927E-003;
2.423666666666667E+009;1.627852916717529E-001;-8.426104485988617E-002;5.777278449386358E-003;-3.804264124482870E-003;
2.423833333333334E+009;1.627584844827652E-001;-8.607070893049240E-002;5.433277692645788E-003;-3.887215862050653E-003;
2.424000000000000E+009;1.629123240709305E-001;-8.792430162429810E-002;5.207426380366087E-003;-4.133122041821480E-003;
2.424166666666667E+009;1.629546731710434E-001;-8.948522806167603E-002;4.926393274217844E-003;-4.113337490707636E-003;
2.424333333333334E+009;1.632900238037109E-001;-9.100126475095749E-002;4.828547127544880E-003;-4.264428745955229E-003;
2.424500000000000E+009;1.635622978210449E-001;-9.279180318117142E-002;4.438575357198715E-003;-4.351434763520956E-003;
2.424666666666667E+009;1.638429760932922E-001;-9.415172785520554E-002;4.349791910499334E-003;-4.275934305042028E-003;
2.424833333333334E+009;1.644379794597626E-001;-9.545338153839111E-002;4.022262059152126E-003;-4.364186897873879E-003;
2.425000000000000E+009;1.647978276014328E-001;-9.671686589717865E-002;3.673087805509567E-003;-4.444272257387638E-003;
2.425166666666667E+009;1.649912148714066E-001;-9.772095829248428E-002;3.535036928951740E-003;-4.391103982925415E-003;
2.425333333333334E+009;1.654557883739471E-001;-9.870776534080505E-002;3.199733560904861E-003;-4.424518905580044E-003;
2.425500000000000E+009;1.659878641366959E-001;-9.969823062419891E-002;3.115821396932006E-003;-4.512990359216929E-003;
2.425666666666667E+009;1.663406938314438E-001;-1.004081591963768E-001;2.970471046864986E-003;-4.460047464817762E-003;
2.425833333333334E+009;1.667747944593430E-001;-1.013231575489044E-001;2.643581246957183E-003;-4.411811009049416E-003;
2.426000000000000E+009;1.670843213796616E-001;-1.015586480498314E-001;2.463750308379531E-003;-4.315564408898354E-003;
2.426166666666667E+009;1.675713211297989E-001;-1.021623611450195E-001;2.408565953373909E-003;-4.304009024053812E-003;
2.426333333333334E+009;1.676903963088989E-001;-1.026501730084419E-001;2.298627980053425E-003;-4.132771398872137E-003;
2.426500000000000E+009;1.680865436792374E-001;-1.029404997825623E-001;2.050255890935659E-003;-4.276199731975794E-003;
2.426666666666667E+009;1.682633012533188E-001;-1.031528636813164E-001;2.023392822593451E-003;-4.055773839354515E-003;
2.426833333333334E+009;1.684479862451553E-001;-1.034726053476334E-001;1.824194914661348E-003;-3.974088933318853E-003;
2.427000000000000E+009;1.684933602809906E-001;-1.035502031445503E-001;1.756984507665038E-003;-3.921841271221638E-003;
2.427166666666667E+009;1.684682071208954E-001;-1.036989539861679E-001;1.681136782281101E-003;-3.845996689051390E-003;
2.427333333333334E+009;1.682824641466141E-001;-1.039091795682907E-001;1.649757265113294E-003;-3.884527133777738E-003;
2.427500000000000E+009;1.681811660528183E-001;-1.040565744042397E-001;1.570766326040030E-003;-3.784306114539504E-003;
2.427666666666667E+009;1.678768992424011E-001;-1.040826663374901E-001;1.575901173055172E-003;-3.676912980154157E-003;
2.427833333333334E+009;1.673904508352280E-001;-1.041923835873604E-001;1.428880495950580E-003;-3.551224712282419E-003;
