# Version 1.00
#
freq[Hz];re:Trc1_S11;im:Trc1_S11;re:Trc2_S21;im:Trc2_S21;
2.400000000000000E+009;1.613706201314926E-001;5.363150313496590E-002;-1.097188069252297E-004;-3.093161387369037E-003;
2.400166666666667E+009;1.611906439065933E-001;5.201876536011696E-002;-1.813534036045894E-004;-3.057770198211074E-003;
2.400333333333334E+009;1.610148698091507E-001;4.986243322491646E-002;-1.985945418709889E-004;-3.124599112197757E-003;
2.400500000000000E+009;1.611056476831436E-001;4.784415662288666E-002;-1.859651092672721E-004;-3.065149532631040E-003;
2.400666666666667E+009;1.609447598457336E-001;4.583756625652313E-002;-3.982066700700671E-004;-3.021558513864875E-003;
2.400833333333334E+009;1.609544008970261E-001;4.385619983077049E-002;-4.254640080034733E-004;-3.199820173904300E-003;
2.401000000000000E+009;1.611097753047943E-001;4.155945405364037E-002;-3.984655777458102E-004;-3.298116615042090E-003;
2.401166666666667E+009;1.612218767404556E-001;3.956241533160210E-002;-6.002598092891276E-004;-3.236590651795268E-003;
2.401333333333334E+009;1.610507667064667E-001;3.731534630060196E-002;-7.322586025111377E-004;-3.203416476026177E-003;
2.401500000000000E+009;1.615886390209198E-001;3.510627895593643E-002;-8.206080528907478E-004;-3.275883151218295E-003;
2.401666666666667E+009;1.616564840078354E-001;3.319854289293289E-002;-9.528876398690045E-004;-3.278421936556697E-003;
2.401833333333334E+009;1.621433496475220E-001;3.084227815270424E-002;-1.103429705835879E-003;-3.256243187934160E-003;
2.402000000000000E+009;1.623709350824356E-001;2.885526046156883E-002;-1.169797615148127E-003;-3.342569805681706E-003;
2.402166666666667E+009;1.629188060760498E-001;2.666386589407921E-002;-1.459840568713844E-003;-3.389255842193961E-003;
2.402333333333334E+009;1.634118109941483E-001;2.479467540979385E-002;-1.574992085807025E-003;-3.198553575202823E-003;
2.402500000000000E+009;1.642292886972427E-001;2.285572327673435E-002;-1.664132112637162E-003;-3.224569372832775E-003;
2.402666666666667E+009;1.647478044033051E-001;2.102069370448589E-002;-1.771931885741651E-003;-3.105262760072947E-003;
2.402833333333334E+009;1.654511243104935E-001;1.919085904955864E-002;-1.829066779464483E-003;-3.190132789313793E-003;
2.403000000000000E+009;1.662533432245255E-001;1.766634359955788E-002;-1.770331058651209E-003;-3.011463675647974E-003;
2.403166666666667E+009;1.671285927295685E-001;1.585799641907215E-002;-2.239799825474620E-003;-3.079955698922277E-003;
2.403333333333334E+009;1.679931730031967E-001;1.447725761681795E-002;-2.191330539062619E-003;-2.918480196967721E-003;
2.403500000000000E+009;1.687764972448349E-001;1.286015845835209E-002;-2.228351775556803E-003;-3.058578353375197E-003;
2.403666666666667E+009;1.695818006992340E-001;1.147242914885283E-002;-2.352788345888257E-003;-2.963900566101074E-003;
2.403833333333334E+009;1.707181334495544E-001;1.012500282377005E-002;-2.650561975315213E-003;-2.814058447256684E-003;
2.404000000000000E+009;1.716232150793076E-001;8.876091800630093E-003;-2.750022336840630E-003;-2.647849265486002E-003;
2.404166666666667E+009;1.723772734403610E-001;7.808946538716555E-003;-2.791248494759202E-003;-2.660419559106231E-003;
2.404333333333334E+009;1.734510362148285E-001;6.738648284226656E-003;-2.865071874111891E-003;-2.751984633505344E-003;
2.404500000000000E+009;1.741582900285721E-001;5.558828823268414E-003;-3.069670870900154E-003;-2.395563526079059E-003;
2.404666666666667E+009;1.751541048288345E-001;4.904489032924175E-003;-3.148603020235896E-003;-2.415884286165237E-003;
2.404833333333334E+009;1.760103702545166E-001;4.204922821372747E-003;-3.315020119771361E-003;-2.293027937412262E-003;
2.405000000000000E+009;1.767101287841797E-001;3.437070641666651E-003;-3.370260354131460E-003;-2.141899662092328E-003;
2.405166666666667E+009;1.775421798229218E-001;2.787227975204587E-003;-3.354796674102545E-003;-2.020627027377486E-003;
2.405333333333334E+009;1.784168034791946E-001;2.145807258784771E-003;-3.680995199829340E-003;-1.805826206691563E-003;
2.405500000000000E+009;1.791622489690781E-001;1.880356459878385E-003;-3.601444885134697E-003;-1.859346637502313E-003;
2.405666666666667E+009;1.796805858612061E-001;1.504199230112135E-003;-3.746737027540803E-003;-1.794058829545975E-003;
2.405833333333334E+009;1.798865646123886E-001;1.228018663823605E-003;-3.821433521807194E-003;-1.535361632704735E-003;
2.406000000000000E+009;1.806179434061050E-001;8.907485171221197E-004;-3.956241533160210E-003;-1.292515196837485E-003;
2.406166666666667E+009;1.808318644762039E-001;8.532973006367683E-004;-3.949874080717564E-003;-1.343767507933080E-003;
2.406333333333334E+009;1.813536882400513E-001;6.129651446826756E-004;-4.002223722636700E-003;-1.187617424875498E-003;
2.406500000000000E+009;1.814875006675720E-001;3.570454427972436E-004;-4.079517908394337E-003;-9.329770109616220E-004;
2.406666666666667E+009;1.816065609455109E-001;2.735565940383822E-004;-4.228431265801191E-003;-8.683599298819900E-004;
2.406833333333334E+009;1.816571205854416E-001;9.262389357900247E-005;-4.184055607765913E-003;-5.540397833101451E-004;
2.407000000000000E+009;1.815664470195770E-001;-8.544375305064023E-005;-4.136823117733002E-003;-3.544096252880991E-004;
2.407166666666667E+009;1.815835386514664E-001;-1.918757188832387E-004;-4.139237105846405E-003;-2.755711029749364E-004;
2.407333333333334E+009;1.813853830099106E-001;-5.314904265105724E-004;-4.276887979358435E-003;-1.536070631118491E-004;
2.407500000000000E+009;1.810470372438431E-001;-6.740869721397758E-004;-4.251447971910238E-003;6.440926517825574E-005;
2.407666666666667E+009;1.808006316423416E-001;-1.081452239304781E-003;-4.092200659215450E-003;3.631127765402198E-004;
2.407833333333334E+009;1.801721155643463E-001;-1.393386628478766E-003;-4.027734044939280E-003;3.885293845087290E-004;
2.408000000000000E+009;1.796862035989761E-001;-1.938275643624365E-003;-4.102254286408424E-003;6.963237538002431E-004;
2.408166666666667E+009;1.791438609361649E-001;-2.368191257119179E-003;-3.949732054024935E-003;7.930038264021277E-004;
2.408333333333334E+009;1.786471158266068E-001;-2.880106912925839E-003;-4.064901731908321E-003;9.194564772769809E-004;
2.408500000000000E+009;1.779011487960815E-001;-3.599628573283553E-003;-3.909165039658546E-003;1.063988311216235E-003;
2.408666666666667E+009;1.771283894777298E-001;-4.371366929262877E-003;-3.924531862139702E-003;1.205021864734590E-003;
2.408833333333334E+009;1.762167513370514E-001;-5.212046205997467E-003;-3.664849326014519E-003;1.332851476036012E-003;
2.409000000000000E+009;1.753461956977844E-001;-6.006562151014805E-003;-3.739785635843873E-003;1.493672607466579E-003;
2.409166666666667E+009;1.746399104595184E-001;-7.346008438616991E-003;-3.623769385740161E-003;1.756762037985027E-003;
2.409333333333334E+009;1.737489998340607E-001;-8.385759778320789E-003;-3.432684810832143E-003;1.629406120628119E-003;
2.409500000000000E+009;1.728133857250214E-001;-9.530220180749893E-003;-3.397152759134769E-003;1.899399096146226E-003;
2.409666666666667E+009;1.719502210617065E-001;-1.085667312145233E-002;-3.285584971308708E-003;1.940609188750386E-003;
2.409833333333334E+009;1.710607260465622E-001;-1.233152020722628E-002;-3.109423676505685E-003;1.990313408896327E-003;
2.410000000000000E+009;1.702401787042618E-001;-1.361608132719994E-002;-2.935530617833138E-003;2.137706149369478E-003;
2.410166666666667E+009;1.694981604814529E-001;-1.526081655174494E-002;-2.979861805215478E-003;2.210059436038137E-003;
2.410333333333334E+009;1.686913073062897E-001;-1.697229593992233E-002;-2.819226589053869E-003;2.236841479316354E-003;
2.410500000000000E+009;1.679594069719315E-001;-1.865983568131924E-002;-2.761143492534757E-003;2.372291404753923E-003;
2.410666666666667E+009;1.672487705945969E-001;-2.047280967235565E-002;-2.622695872560144E-003;2.439953619614244E-003;
2.410833333333334E+009;1.666698455810547E-001;-2.231352403759956E-002;-2.586578018963337E-003;2.345937537029386E-003;
2.411000000000000E+009;1.661986708641052E-001;-2.414264902472496E-002;-2.467745449393988E-003;2.397674834355712E-003;
2.411166666666667E+009;1.657104939222336E-001;-2.631524577736855E-002;-2.359876642003655E-003;2.461320953443646E-003;
2.411333333333334E+009;1.653815060853958E-001;-2.806984633207321E-002;-2.384214196354151E-003;2.504836767911911E-003;
2.411500000000000E+009;1.649914979934692E-001;-3.026781789958477E-002;-2.217788482084870E-003;2.565976232290268E-003;
2.411666666666667E+009;1.650440841913223E-001;-3.239601477980614E-002;-2.273593097925186E-003;2.500071423128247E-003;
2.411833333333334E+009;1.648816168308258E-001;-3.434862568974495E-002;-2.276259474456310E-003;2.626583212986589E-003;
2.412000000000000E+009;1.648365408182144E-001;-3.649263456463814E-002;-2.095341915264726E-003;2.816679421812296E-003;
2.412166666666667E+009;1.646869629621506E-001;-3.863497823476791E-002;-2.115167677402496E-003;2.965321065858007E-003;
2.412333333333334E+009;1.649888157844544E-001;-4.061879962682724E-002;-1.977560576051474E-003;2.911156043410301E-003;
2.412500000000000E+009;1.650078296661377E-001;-4.248170927166939E-002;-1.961015397682786E-003;3.106517251580954E-003;
2.412666666666667E+009;1.652825027704239E-001;-4.475205764174461E-002;-2.039688639342785E-003;3.121207933872938E-003;
2.412833333333334E+009;1.656826734542847E-001;-4.662241041660309E-002;-1.926628989167512E-003;3.094523679465056E-003;
2.413000000000000E+009;1.659334003925324E-001;-4.850599914789200E-002;-1.775897690095007E-003;3.439571708440781E-003;
2.413166666666667E+009;1.661632210016251E-001;-5.034496262669563E-002;-1.624296186491847E-003;3.395793726667762E-003;
2.413333333333334E+009;1.666616648435593E-001;-5.213027074933052E-002;-1.439157407730818E-003;3.553072456270456E-003;
2.413500000000000E+009;1.672771275043488E-001;-5.407942458987236E-002;-1.386390067636967E-003;3.789124311879277E-003;
2.413666666666667E+009;1.679436713457108E-001;-5.563001334667206E-002;-1.141872722655535E-003;3.757970174774528E-003;
2.413833333333334E+009;1.683539599180222E-001;-5.719703435897827E-002;-1.010818639770150E-003;3.870675107464194E-003;
2.414000000000000E+009;1.688059866428375E-001;-5.858791992068291E-002;-6.083036423660815E-004;3.964938223361969E-003;
2.414166666666667E+009;1.696128100156784E-001;-6.000651419162750E-002;-5.572753725573421E-004;3.902942640706897E-003;
2.414333333333334E+009;1.701934188604355E-001;-6.130695343017578E-002;-4.530081641860306E-004;4.077054094523192E-003;
2.414500000000000E+009;1.709241420030594E-001;-6.248582527041435E-002;-1.844134967541322E-004;4.090029280632734E-003;
2.414666666666667E+009;1.713389903306961E-001;-6.354588270187378E-002;-5.621999662253074E-005;3.966667223721743E-003;
2.414833333333334E+009;1.719764024019241E-001;-6.455512344837189E-002;1.242790749529377E-004;4.087999928742647E-003;
2.415000000000000E+009;1.724905371665955E-001;-6.541519612073898E-002;4.189928295090795E-004;3.911952488124371E-003;
2.415166666666667E+009;1.729084849357605E-001;-6.636527180671692E-002;5.262652994133532E-004;3.994671627879143E-003;
2.415333333333334E+009;1.735170185565949E-001;-6.699068844318390E-002;6.916333804838359E-004;3.966271877288818E-003;
2.415500000000000E+009;1.738524287939072E-001;-6.753436475992203E-002;8.920232066884637E-004;3.958328161388636E-003;
2.415666666666667E+009;1.742308139801025E-001;-6.803295016288757E-002;1.083806040696800E-003;3.694654908031225E-003;
2.415833333333334E+009;1.745707541704178E-001;-6.846696883440018E-002;1.157304854132235E-003;3.621621988713741E-003;
2.416000000000000E+009;1.745569854974747E-001;-6.880632787942886E-002;1.508707995526493E-003;3.608189988881350E-003;
2.416166666666667E+009;1.748984009027481E-001;-6.916609406471252E-002;1.556429197080433E-003;3.623704891651869E-003;
2.416333333333334E+009;1.748024672269821E-001;-6.926929205656052E-002;1.615911838598549E-003;3.486269619315863E-003;
2.416500000000000E+009;1.748762577772141E-001;-6.950465589761734E-002;1.938141183927655E-003;3.353981534019113E-003;
2.416666666666667E+009;1.745123267173767E-001;-6.959921866655350E-002;1.922062947414815E-003;3.304044716060162E-003;
2.416833333333334E+009;1.744787096977234E-001;-6.989458948373795E-002;2.200341317802668E-003;3.075690940022469E-003;
2.417000000000000E+009;1.739146262407303E-001;-6.995790451765060E-002;2.176921349018812E-003;2.926165936514735E-003;
2.417166666666667E+009;1.734868437051773E-001;-6.987070292234421E-002;2.314232988283038E-003;2.784844487905502E-003;
2.417333333333334E+009;1.730328500270844E-001;-6.986920535564423E-002;2.422822639346123E-003;2.653320319950581E-003;
2.417500000000000E+009;1.723110377788544E-001;-7.017656415700913E-002;2.586643677204847E-003;2.656127559021115E-003;
2.417666666666667E+009;1.717645376920700E-001;-7.016521692276001E-002;2.601943910121918E-003;2.500285161659122E-003;
2.417833333333334E+009;1.707730144262314E-001;-7.011780887842178E-002;2.769702812656760E-003;2.228642581030726E-003;
2.418000000000000E+009;1.697119921445847E-001;-7.040227949619293E-002;2.729021711274982E-003;2.250785240903497E-003;
2.418166666666667E+009;1.688630133867264E-001;-7.030632346868515E-002;2.854817546904087E-003;2.029928844422102E-003;
2.418333333333334E+009;1.679326742887497E-001;-7.066606730222702E-002;2.921622013673186E-003;1.923644449561834E-003;
2.418500000000000E+009;1.666404455900192E-001;-7.081124186515808E-002;3.048602258786559E-003;1.774633303284645E-003;
2.418666666666667E+009;1.657156944274902E-001;-7.130224257707596E-002;3.082426497712731E-003;1.545394421555102E-003;
2.418833333333334E+009;1.640095561742783E-001;-7.171860337257385E-002;2.976436400786042E-003;1.542557496577501E-003;
2.419000000000000E+009;1.627635210752487E-001;-7.196369767189026E-002;3.103948198258877E-003;1.265026046894491E-003;
2.419166666666667E+009;1.614816784858704E-001;-7.270006090402603E-002;3.144522896036506E-003;1.160367508418858E-003;
2.419333333333334E+009;1.600711047649384E-001;-7.308186590671539E-002;3.070313483476639E-003;1.040001516230404E-003;
2.419500000000000E+009;1.587013304233551E-001;-7.409909367561340E-002;3.115511266514659E-003;6.891243392601609E-004;
2.419666666666667E+009;1.575300544500351E-001;-7.486517727375031E-002;3.076994093134999E-003;5.941506824456155E-004;
2.419833333333334E+009;1.560129225254059E-001;-7.560139894485474E-002;2.996906638145447E-003;5.048559396527708E-004;
2.420000000000000E+009;1.546446233987808E-001;-7.663567364215851E-002;2.951757283881307E-003;4.633716307580471E-004;
2.420166666666667E+009;1.533001959323883E-001;-7.763663679361343E-002;2.957402961328626E-003;2.363512612646446E-004;
2.420333333333334E+009;1.519664078950882E-001;-7.876396179199219E-002;3.011029213666916E-003;9.735661296872422E-005;
2.420500000000000E+009;1.508622020483017E-001;-7.996287196874619E-002;2.921934006735683E-003;7.176549843279645E-006;
2.420666666666667E+009;1.495114564895630E-001;-8.119817823171616E-002;2.861972199752927E-003;-1.559860538691282E-004;
2.420833333333334E+009;1.485915482044220E-001;-8.266149461269379E-002;2.945476211607456E-003;-4.661018028855324E-004;
2.421000000000000E+009;1.473332494497299E-001;-8.428560197353363E-002;2.906047506257892E-003;-3.943722986150533E-004;
2.421166666666667E+009;1.466652750968933E-001;-8.564460277557373E-002;2.627437235787511E-003;-7.886226521804929E-004;
2.421333333333334E+009;1.457185000181198E-001;-8.738952875137329E-002;2.592622302472591E-003;-7.439490873366594E-004;
2.421500000000000E+009;1.447970569133759E-001;-8.899582177400589E-002;2.588763600215316E-003;-8.175122784450650E-004;
2.421666666666667E+009;1.442170292139053E-001;-9.080256521701813E-002;2.403234131634235E-003;-8.990994538180530E-004;
2.421833333333334E+009;1.435023546218872E-001;-9.250941127538681E-002;2.296728780493140E-003;-1.043086987920106E-003;
2.422000000000000E+009;1.429395377635956E-001;-9.424567222595215E-002;2.196071669459343E-003;-1.052720472216606E-003;
2.422166666666667E+009;1.424652487039566E-001;-9.613087028264999E-002;2.003200585022569E-003;-1.298309653066099E-003;
2.422333333333334E+009;1.421682238578796E-001;-9.787671267986298E-002;1.933128456585109E-003;-1.255428185686469E-003;
2.422500000000000E+009;1.420007199048996E-001;-9.965229779481888E-002;1.681451220065355E-003;-1.264347811229527E-003;
2.422666666666667E+009;1.417768597602844E-001;-1.016084700822830E-001;1.697417930699885E-003;-1.315453555434942E-003;
2.422833333333334E+009;1.417317986488342E-001;-1.034438014030457E-001;1.466342946514487E-003;-1.438445993699133E-003;
2.423000000000000E+009;1.416818946599960E-001;-1.051494553685188E-001;1.358963199891150E-003;-1.399926492013037E-003;
2.423166666666667E+009;1.419433802366257E-001;-1.070374622941017E-001;1.474924152716994E-003;-1.422704081051052E-003;
2.423333333333334E+009;1.422495543956757E-001;-1.085267961025238E-001;1.078606816008687E-003;-1.402100780978799E-003;
2.423500000000000E+009;1.424394547939301E-001;-1.103438735008240E-001;1.016305992379785E-003;-1.302635646425188E-003;
2.423666666666667E+009;1.425168514251709E-001;-1.119091957807541E-001;9.561817860230804E-004;-1.302533084526658E-003;
2.423833333333334E+009;1.430552005767822E-001;-1.135472059249878E-001;8.753650472499430E-004;-1.223842031322420E-003;
2.424000000000000E+009;1.434438377618790E-001;-1.147439330816269E-001;8.443255792371929E-004;-1.416099024936557E-003;
2.424166666666667E+009;1.438244283199310E-001;-1.161750778555870E-001;8.293110877275467E-004;-1.298899645917118E-003;
2.424333333333334E+009;1.444239169359207E-001;-1.174411699175835E-001;6.535619613714516E-004;-1.254971371963620E-003;
2.424500000000000E+009;1.449171751737595E-001;-1.188131570816040E-001;5.797843332402408E-004;-1.091202488169074E-003;
2.424666666666667E+009;1.456044614315033E-001;-1.197163313627243E-001;6.789457984268665E-004;-1.211832044646144E-003;
2.424833333333334E+009;1.459037214517593E-001;-1.207963600754738E-001;5.420791567303240E-004;-9.753684862516820E-004;
2.425000000000000E+009;1.465532630681992E-001;-1.216889396309853E-001;4.963296814821661E-004;-9.753626654855907E-004;
2.425166666666667E+009;1.468923985958099E-001;-1.226494684815407E-001;3.592533466871828E-004;-1.072346582077444E-003;
2.425333333333334E+009;1.474818736314774E-001;-1.232501417398453E-001;3.512264229357243E-004;-1.172430114820600E-003;
2.425500000000000E+009;1.480182260274887E-001;-1.239763796329498E-001;3.653412277344614E-004;-1.008051913231611E-003;
2.425666666666667E+009;1.482955813407898E-001;-1.245206445455551E-001;3.914145927410573E-004;-9.133965941146016E-004;
2.425833333333334E+009;1.486319452524185E-001;-1.249548643827438E-001;3.355818043928593E-004;-1.009575324133039E-003;
2.426000000000000E+009;1.489569991827011E-001;-1.254132539033890E-001;2.329388662474230E-004;-8.992374641820788E-004;
2.426166666666667E+009;1.493131965398789E-001;-1.257641017436981E-001;1.906563120428473E-004;-1.029528910294175E-003;
2.426333333333334E+009;1.493311971426010E-001;-1.259794831275940E-001;2.156471891794354E-004;-9.875663090497255E-004;
2.426500000000000E+009;1.495572924613953E-001;-1.260050088167191E-001;1.479010679759085E-004;-1.013247761875391E-003;
2.426666666666667E+009;1.496116966009140E-001;-1.260187476873398E-001;-8.602191519457847E-005;-8.977266261354089E-004;
2.426833333333334E+009;1.494692564010620E-001;-1.261028051376343E-001;1.562228717375547E-004;-8.424194529652596E-004;
2.427000000000000E+009;1.492831408977509E-001;-1.261374801397324E-001;7.503446249756962E-005;-1.058748690411449E-003;
2.427166666666667E+009;1.489983350038528E-001;-1.260089874267578E-001;-4.772665488417260E-005;-8.902708068490028E-004;
2.427333333333334E+009;1.483740061521530E-001;-1.259800195693970E-001;-9.121293260250241E-005;-9.167494717985392E-004;
2.427500000000000E+009;1.480944752693176E-001;-1.258225739002228E-001;-1.997104700421915E-004;-7.869115797802806E-004;
2.427666666666667E+009;1.474341899156570E-001;-1.256428509950638E-001;1.511586106062168E-005;-7.997318753041327E-004;
