# Version 1.00
#
freq[Hz];re:Trc1_S11;im:Trc1_S11;re:Trc2_S21;im:Trc2_S21;
2.400000000000000E+009;1.614069342613220E-001;5.352670699357987E-002;-9.467727795708925E-005;-2.953748451545835E-003;
2.400166666666667E+009;1.612908840179443E-001;5.188363045454025E-002;-1.248568296432495E-004;-2.902668667957187E-003;
2.400333333333334E+009;1.611478179693222E-001;5.000028759241104E-002;-1.746031193761155E-004;-3.013360081240535E-003;
2.400500000000000E+009;1.609921604394913E-001;4.791652783751488E-002;-1.770339877111837E-004;-3.179503604769707E-003;
2.400666666666667E+009;1.609805673360825E-001;4.578240960836411E-002;-3.157942555844784E-004;-3.240102669224143E-003;
2.400833333333334E+009;1.609627008438110E-001;4.378110915422440E-002;-3.603729710448533E-004;-3.086415817961097E-003;
2.401000000000000E+009;1.609917432069778E-001;4.164550080895424E-002;-6.342643173411489E-004;-3.321862546727061E-003;
2.401166666666667E+009;1.610781252384186E-001;3.960804641246796E-002;-6.523351767100394E-004;-3.224985441192985E-003;
2.401333333333334E+009;1.612301915884018E-001;3.726297244429588E-002;-8.112114155665040E-004;-3.319989424198866E-003;
2.401500000000000E+009;1.614172458648682E-001;3.519150242209435E-002;-8.258898742496967E-004;-3.299277508631349E-003;
2.401666666666667E+009;1.619810909032822E-001;3.315684199333191E-002;-8.225088240578771E-004;-3.275439143180847E-003;
2.401833333333334E+009;1.623623520135880E-001;3.077949024736881E-002;-1.091463724151254E-003;-3.236208111047745E-003;
2.402000000000000E+009;1.624681055545807E-001;2.882995270192623E-002;-1.063672709278762E-003;-3.396312939003110E-003;
2.402166666666667E+009;1.629204303026199E-001;2.673067897558212E-002;-1.338093657977879E-003;-3.243798622861505E-003;
2.402333333333334E+009;1.634201258420944E-001;2.470427751541138E-002;-1.355383894406259E-003;-3.121626563370228E-003;
2.402500000000000E+009;1.641424298286438E-001;2.291826158761978E-002;-1.430332427844405E-003;-3.378527937456965E-003;
2.402666666666667E+009;1.648650169372559E-001;2.107333205640316E-002;-1.459036720916629E-003;-3.132909303531051E-003;
2.402833333333334E+009;1.654281467199326E-001;1.911522820591927E-002;-1.665939111262560E-003;-3.096074797213078E-003;
2.403000000000000E+009;1.661342829465866E-001;1.746178604662418E-002;-1.892790780402720E-003;-3.189891111105681E-003;
2.403166666666667E+009;1.671296656131744E-001;1.584206148982048E-002;-1.953892176970840E-003;-3.184794913977385E-003;
2.403333333333334E+009;1.680381149053574E-001;1.425481215119362E-002;-2.161038341000676E-003;-3.018277464434505E-003;
2.403500000000000E+009;1.687780022621155E-001;1.286623161286116E-002;-2.186314668506384E-003;-2.946605905890465E-003;
2.403666666666667E+009;1.696273982524872E-001;1.136657129973173E-002;-2.331416122615337E-003;-3.036733018234372E-003;
2.403833333333334E+009;1.707027852535248E-001;9.848239831626415E-003;-2.329418668523431E-003;-2.965891500934959E-003;
2.404000000000000E+009;1.716592013835907E-001;8.910142816603184E-003;-2.776461886242032E-003;-2.788335317745805E-003;
2.404166666666667E+009;1.723979711532593E-001;7.664595730602741E-003;-2.629725029692054E-003;-2.697543008252978E-003;
2.404333333333334E+009;1.733848750591278E-001;6.786262150853872E-003;-2.841368317604065E-003;-2.698932308703661E-003;
2.404500000000000E+009;1.741052269935608E-001;5.681706592440605E-003;-2.991781337186694E-003;-2.648235298693180E-003;
2.404666666666667E+009;1.751710474491119E-001;4.775326699018478E-003;-2.985839266330004E-003;-2.502036979421973E-003;
2.404833333333334E+009;1.759228259325028E-001;4.042058251798153E-003;-3.150639822706580E-003;-2.327894326299429E-003;
2.405000000000000E+009;1.768405586481094E-001;3.412282792851329E-003;-3.195546800270677E-003;-2.235535066574812E-003;
2.405166666666667E+009;1.776188611984253E-001;2.826203359290958E-003;-3.428523894399405E-003;-2.135708928108215E-003;
2.405333333333334E+009;1.783152967691422E-001;2.195836743339896E-003;-3.426183480769396E-003;-2.042231848463416E-003;
2.405500000000000E+009;1.789851486682892E-001;1.815950381569564E-003;-3.725446062162519E-003;-1.963685266673565E-003;
2.405666666666667E+009;1.795326024293900E-001;1.550782471895218E-003;-3.693115897476673E-003;-1.596056972630322E-003;
2.405833333333334E+009;1.799589693546295E-001;1.308690407313407E-003;-3.764800727367401E-003;-1.629853388294578E-003;
2.406000000000000E+009;1.805572807788849E-001;8.691521361470223E-004;-3.812273964285851E-003;-1.524634542874992E-003;
2.406166666666667E+009;1.808199137449265E-001;7.375714485533536E-004;-4.059235099703074E-003;-1.397633110173047E-003;
2.406333333333334E+009;1.813403069972992E-001;6.170435808598995E-004;-4.039401188492775E-003;-1.128225238062441E-003;
2.406500000000000E+009;1.815865635871887E-001;3.492792602628470E-004;-3.979310858994722E-003;-8.843403193168342E-004;
2.406666666666667E+009;1.814620345830917E-001;4.122527025174350E-004;-4.121315665543079E-003;-9.196509490720928E-004;
2.406833333333334E+009;1.815897375345230E-001;6.149624095996842E-005;-4.085888154804707E-003;-4.694712115451694E-004;
2.407000000000000E+009;1.815952807664871E-001;-1.017593167489395E-004;-4.035138059407473E-003;-3.417485277168453E-004;
2.407166666666667E+009;1.815841048955917E-001;-2.617525460664183E-004;-4.322131164371967E-003;-3.989610122516751E-004;
2.407333333333334E+009;1.812356561422348E-001;-4.683497536461800E-004;-4.267834126949310E-003;-2.962610451504588E-004;
2.407500000000000E+009;1.810291260480881E-001;-8.005048148334026E-004;-4.171346779912710E-003;5.225879067438655E-005;
2.407666666666667E+009;1.806017607450485E-001;-1.042275573126972E-003;-4.354273434728384E-003;3.039244038518518E-004;
2.407833333333334E+009;1.801930218935013E-001;-1.588965184055269E-003;-4.113642964512110E-003;4.908386035822332E-004;
2.408000000000000E+009;1.795804500579834E-001;-1.891640014946461E-003;-4.070963244885206E-003;5.815307958982885E-004;
2.408166666666667E+009;1.791007518768311E-001;-2.263842383399606E-003;-4.139716271311045E-003;7.643079734407365E-004;
2.408333333333334E+009;1.786133348941803E-001;-2.835145220160484E-003;-3.840955207124353E-003;8.919860702008009E-004;
2.408500000000000E+009;1.777862161397934E-001;-3.655679291114211E-003;-3.990358673036099E-003;1.202113809995353E-003;
2.408666666666667E+009;1.770894825458527E-001;-4.378141369670630E-003;-3.941268660128117E-003;1.219453173689544E-003;
2.408833333333334E+009;1.762632578611374E-001;-5.146382842212915E-003;-3.878495423123241E-003;1.447716611437500E-003;
2.409000000000000E+009;1.753256767988205E-001;-6.211806088685989E-003;-3.801498562097549E-003;1.647712080739439E-003;
2.409166666666667E+009;1.745692193508148E-001;-7.212341763079166E-003;-3.613843815401197E-003;1.592476735822856E-003;
2.409333333333334E+009;1.737477183341980E-001;-8.258262649178505E-003;-3.548935521394014E-003;1.718105515465140E-003;
2.409500000000000E+009;1.728020012378693E-001;-9.621699340641499E-003;-3.346603829413652E-003;1.899395138025284E-003;
2.409666666666667E+009;1.719494014978409E-001;-1.102000568062067E-002;-3.222294850274921E-003;1.950074336491525E-003;
2.409833333333334E+009;1.710595786571503E-001;-1.218610629439354E-002;-3.189407521858811E-003;2.111771143972874E-003;
2.410000000000000E+009;1.703022718429565E-001;-1.370188686996698E-002;-2.997947158291936E-003;2.199506852775812E-003;
2.410166666666667E+009;1.694939583539963E-001;-1.519130542874336E-002;-3.067818470299244E-003;2.123255049809814E-003;
2.410333333333334E+009;1.686607003211975E-001;-1.698217727243900E-002;-2.843401394784451E-003;2.213536994531751E-003;
2.410500000000000E+009;1.679701954126358E-001;-1.873788796365261E-002;-2.620829269289970E-003;2.248894656077027E-003;
2.410666666666667E+009;1.672138124704361E-001;-2.048993110656738E-002;-2.666443819180131E-003;2.240763511508703E-003;
2.410833333333334E+009;1.667979061603546E-001;-2.228009328246117E-002;-2.593228593468666E-003;2.291043987497687E-003;
2.411000000000000E+009;1.662300974130631E-001;-2.399416267871857E-002;-2.484130440279841E-003;2.395519986748695E-003;
2.411166666666667E+009;1.656513810157776E-001;-2.630889229476452E-002;-2.342912601307035E-003;2.383330836892128E-003;
2.411333333333334E+009;1.653718501329422E-001;-2.822499908506870E-002;-2.469792030751705E-003;2.268897369503975E-003;
2.411500000000000E+009;1.649015694856644E-001;-3.038367256522179E-002;-2.380867255851626E-003;2.428643405437470E-003;
2.411666666666667E+009;1.648223102092743E-001;-3.225630149245262E-002;-2.307026414200664E-003;2.487188437953591E-003;
2.411833333333334E+009;1.648341268301010E-001;-3.446392342448235E-002;-2.297254046425223E-003;2.550676232203841E-003;
2.412000000000000E+009;1.647584438323975E-001;-3.658676147460938E-002;-2.322335029020906E-003;2.740930533036590E-003;
2.412166666666667E+009;1.647047996520996E-001;-3.857812657952309E-002;-2.190086524933577E-003;2.711957087740302E-003;
2.412333333333334E+009;1.648535132408142E-001;-4.055796936154366E-002;-2.060822676867247E-003;2.694107824936509E-003;
2.412500000000000E+009;1.649596393108368E-001;-4.244077950716019E-002;-1.983055146411061E-003;3.032936481758952E-003;
2.412666666666667E+009;1.652849465608597E-001;-4.472408071160317E-002;-2.012930344790220E-003;2.974875969812274E-003;
2.412833333333334E+009;1.654915511608124E-001;-4.682159051299095E-002;-1.938527217134833E-003;3.329240018501878E-003;
2.413000000000000E+009;1.657704561948776E-001;-4.848454147577286E-002;-1.818056567572057E-003;3.194180782884359E-003;
2.413166666666667E+009;1.663205474615097E-001;-5.056569352746010E-002;-1.628570840694010E-003;3.407927462831140E-003;
2.413333333333334E+009;1.666497141122818E-001;-5.221982672810555E-002;-1.615822431631386E-003;3.490414470434189E-003;
2.413500000000000E+009;1.671888828277588E-001;-5.393940582871437E-002;-1.515473471954465E-003;3.611741587519646E-003;
2.413666666666667E+009;1.677822172641754E-001;-5.559365451335907E-002;-1.459946506656706E-003;3.655716078355908E-003;
2.413833333333334E+009;1.682847887277603E-001;-5.706150829792023E-002;-1.139826141297817E-003;3.842405742034316E-003;
2.414000000000000E+009;1.687356680631638E-001;-5.874747410416603E-002;-9.144672658294439E-004;3.756925929337740E-003;
2.414166666666667E+009;1.694219559431076E-001;-6.003769114613533E-002;-8.911446784622967E-004;3.968856763094664E-003;
2.414333333333334E+009;1.701192408800125E-001;-6.139348447322846E-002;-7.871011039242148E-004;4.012603778392077E-003;
2.414500000000000E+009;1.709224134683609E-001;-6.241691857576370E-002;-2.928983303718269E-004;3.952706698328257E-003;
2.414666666666667E+009;1.713055223226547E-001;-6.344121694564819E-002;-2.085905289277434E-004;4.085612948983908E-003;
2.414833333333334E+009;1.718199700117111E-001;-6.457286328077316E-002;1.184381399070844E-004;4.128534812480211E-003;
2.415000000000000E+009;1.723164618015289E-001;-6.535993516445160E-002;2.496993402019143E-004;4.028853960335255E-003;
2.415166666666667E+009;1.728791296482086E-001;-6.612838059663773E-002;4.238986293785274E-004;4.003293812274933E-003;
2.415333333333334E+009;1.735396683216095E-001;-6.691724061965942E-002;6.233933381736279E-004;3.916573710739613E-003;
2.415500000000000E+009;1.737385094165802E-001;-6.744433194398880E-002;6.861111614853144E-004;3.920557443052530E-003;
2.415666666666667E+009;1.742169708013535E-001;-6.792667508125305E-002;1.087801647372544E-003;3.818507771939039E-003;
2.415833333333334E+009;1.745396703481674E-001;-6.847790628671646E-002;1.133578945882618E-003;3.737399820238352E-003;
2.416000000000000E+009;1.744972020387650E-001;-6.881010532379150E-002;1.352271297946572E-003;3.636274253949523E-003;
2.416166666666667E+009;1.748591959476471E-001;-6.904547661542893E-002;1.552780973725021E-003;3.526665503159165E-003;
2.416333333333334E+009;1.748305559158325E-001;-6.932113319635391E-002;1.754174707457423E-003;3.522250102832913E-003;
2.416500000000000E+009;1.747483462095261E-001;-6.960454583168030E-002;1.794244861230254E-003;3.315524430945516E-003;
2.416666666666667E+009;1.745896637439728E-001;-6.961607933044434E-002;1.889781327918172E-003;3.261040663346648E-003;
2.416833333333334E+009;1.744066625833511E-001;-6.978681683540344E-002;2.086932770907879E-003;3.255431540310383E-003;
2.417000000000000E+009;1.739476621150971E-001;-7.006525248289108E-002;2.374268136918545E-003;2.925771987065673E-003;
2.417166666666667E+009;1.734695285558701E-001;-6.989082694053650E-002;2.300688531249762E-003;2.841847715899348E-003;
2.417333333333334E+009;1.730186641216278E-001;-6.999585777521133E-002;2.418336458504200E-003;2.760372823104262E-003;
2.417500000000000E+009;1.723078489303589E-001;-7.022010535001755E-002;2.446620259433985E-003;2.581555629149079E-003;
2.417666666666667E+009;1.717052161693573E-001;-7.003263384103775E-002;2.527343342080712E-003;2.444893354550004E-003;
2.417833333333334E+009;1.709469407796860E-001;-7.016695290803909E-002;2.696017734706402E-003;2.243427326902747E-003;
2.418000000000000E+009;1.699399650096893E-001;-7.051832973957062E-002;2.740259515121579E-003;1.980205299332738E-003;
2.418166666666667E+009;1.688811779022217E-001;-7.048168778419495E-002;2.824369817972183E-003;2.041858388110995E-003;
2.418333333333334E+009;1.679023802280426E-001;-7.076960057020187E-002;2.810076810419560E-003;1.959016779437661E-003;
2.418500000000000E+009;1.665548235177994E-001;-7.101538032293320E-002;2.860052045434713E-003;1.585643854923546E-003;
2.418666666666667E+009;1.655834019184113E-001;-7.139863073825836E-002;2.874496160075069E-003;1.388113363645971E-003;
2.418833333333334E+009;1.640915125608444E-001;-7.184577733278275E-002;3.073044819757342E-003;1.555428025312722E-003;
2.419000000000000E+009;1.627314686775208E-001;-7.219451665878296E-002;3.029078012332320E-003;1.268234918825328E-003;
2.419166666666667E+009;1.614546626806259E-001;-7.281347364187241E-002;2.883981214836240E-003;9.235112229362130E-004;
2.419333333333334E+009;1.599345654249191E-001;-7.316581904888153E-002;3.093231236562133E-003;9.541398612782359E-004;
2.419500000000000E+009;1.585781425237656E-001;-7.423400878906250E-002;3.041070885956287E-003;7.434352883137763E-004;
2.419666666666667E+009;1.572885215282440E-001;-7.490997016429901E-002;3.133619204163551E-003;8.243148331530392E-004;
2.419833333333334E+009;1.559557318687439E-001;-7.571242749691010E-002;2.879203762859106E-003;5.822799867019057E-004;
2.420000000000000E+009;1.546477973461151E-001;-7.672144472599030E-002;3.027946455404162E-003;4.945899709127843E-004;
2.420166666666667E+009;1.532775312662125E-001;-7.772540301084518E-002;3.005533479154110E-003;2.739692863542587E-004;
2.420333333333334E+009;1.519907414913178E-001;-7.899579405784607E-002;3.086538519710302E-003;8.461128891212866E-005;
2.420500000000000E+009;1.507600396871567E-001;-8.007263392210007E-002;2.980465069413185E-003;8.370076830033213E-005;
2.420666666666667E+009;1.496907770633698E-001;-8.129450678825378E-002;2.833633217960596E-003;-2.032341581070796E-004;
2.420833333333334E+009;1.484574228525162E-001;-8.276038616895676E-002;2.795943291857839E-003;-3.424738824833185E-004;
2.421000000000000E+009;1.472775936126709E-001;-8.426728099584580E-002;2.682727295905352E-003;-5.710752448067069E-004;
2.421166666666667E+009;1.466270387172699E-001;-8.577559143304825E-002;2.777472836896777E-003;-5.759949563071132E-004;
2.421333333333334E+009;1.456732153892517E-001;-8.747665584087372E-002;2.473062835633755E-003;-8.145081810653210E-004;
2.421500000000000E+009;1.448682099580765E-001;-8.906649798154831E-002;2.459124894812703E-003;-8.227734942920506E-004;
2.421666666666667E+009;1.440644115209580E-001;-9.076772630214691E-002;2.273612190037966E-003;-8.347181137651205E-004;
2.421833333333334E+009;1.434362828731537E-001;-9.248898178339005E-002;2.255776198580861E-003;-9.755493374541402E-004;
2.422000000000000E+009;1.428924649953842E-001;-9.425154328346252E-002;2.214930253103375E-003;-1.102481153793633E-003;
2.422166666666667E+009;1.424149870872498E-001;-9.625604003667831E-002;2.030862262472510E-003;-1.206891844049096E-003;
2.422333333333334E+009;1.422363668680191E-001;-9.800964593887329E-002;2.040274441242218E-003;-1.469491166062653E-003;
2.422500000000000E+009;1.419155299663544E-001;-9.976751357316971E-002;1.736041624099016E-003;-1.328305457718670E-003;
2.422666666666667E+009;1.416387110948563E-001;-1.016680598258972E-001;1.543516409583390E-003;-1.322120078839362E-003;
2.422833333333334E+009;1.416687816381455E-001;-1.034138873219490E-001;1.540945377200842E-003;-1.259017037227750E-003;
2.423000000000000E+009;1.417226940393448E-001;-1.051132008433342E-001;1.351336832158268E-003;-1.302839489653707E-003;
2.423166666666667E+009;1.419026106595993E-001;-1.069304272532463E-001;1.276080147363246E-003;-1.312580192461610E-003;
2.423333333333334E+009;1.420858502388001E-001;-1.084075719118118E-001;1.148720155470073E-003;-1.266482402570546E-003;
2.423500000000000E+009;1.423474997282028E-001;-1.102121993899345E-001;1.215083990246058E-003;-1.330728991888464E-003;
2.423666666666667E+009;1.424728929996491E-001;-1.118647530674934E-001;9.510141098871827E-004;-1.228252658620477E-003;
2.423833333333334E+009;1.431203186511993E-001;-1.134729161858559E-001;8.577445405535400E-004;-1.204762374982238E-003;
2.424000000000000E+009;1.434257477521896E-001;-1.148001179099083E-001;9.052373352460563E-004;-1.193176954984665E-003;
2.424166666666667E+009;1.437086164951325E-001;-1.163242161273956E-001;8.036314393393695E-004;-1.120660454034805E-003;
2.424333333333334E+009;1.444196552038193E-001;-1.174421682953835E-001;5.022261757403612E-004;-1.180220977403224E-003;
2.424500000000000E+009;1.449289917945862E-001;-1.186701059341431E-001;6.658174097537994E-004;-1.108468975871801E-003;
2.424666666666667E+009;1.455145180225372E-001;-1.196920499205589E-001;5.127242766320705E-004;-1.230074674822390E-003;
2.424833333333334E+009;1.459158658981323E-001;-1.208344921469688E-001;6.389421178027988E-004;-1.141212647780776E-003;
2.425000000000000E+009;1.466125100851059E-001;-1.217945441603661E-001;6.152512505650520E-004;-1.055347151122987E-003;
2.425166666666667E+009;1.468701958656311E-001;-1.225838735699654E-001;5.989515339024365E-004;-9.637185139581561E-004;
2.425333333333334E+009;1.474193781614304E-001;-1.232883110642433E-001;7.057987968437374E-004;-1.182073145173490E-003;
2.425500000000000E+009;1.480371803045273E-001;-1.240591406822205E-001;5.295980954542756E-004;-1.065513351932168E-003;
2.425666666666667E+009;1.482169926166534E-001;-1.245118975639343E-001;4.665094020310789E-004;-1.003057579509914E-003;
2.425833333333334E+009;1.487419903278351E-001;-1.249192804098129E-001;3.497383440844715E-004;-9.646328398957849E-004;
2.426000000000000E+009;1.488666236400604E-001;-1.253729909658432E-001;3.443699679337442E-004;-1.048892037943006E-003;
2.426166666666667E+009;1.493195891380310E-001;-1.257369965314865E-001;2.821652160491794E-004;-8.666816866025329E-004;
2.426333333333334E+009;1.494098007678986E-001;-1.259088963270187E-001;2.325580426258966E-004;-1.006619189865887E-003;
2.426500000000000E+009;1.494987159967423E-001;-1.260261088609695E-001;1.912564039230347E-004;-1.032002852298319E-003;
2.426666666666667E+009;1.496237367391586E-001;-1.260141879320145E-001;3.116856678389013E-004;-1.005752943456173E-003;
2.426833333333334E+009;1.494332700967789E-001;-1.260867565870285E-001;-1.127601535699796E-005;-1.035174354910851E-003;
2.427000000000000E+009;1.492568552494049E-001;-1.261603683233261E-001;5.589111606241204E-005;-8.591302321292460E-004;
2.427166666666667E+009;1.489223688840866E-001;-1.258926987648010E-001;-1.252796391781885E-005;-8.704338688403368E-004;
2.427333333333334E+009;1.484184265136719E-001;-1.259523332118988E-001;-1.719061947369482E-005;-9.131447877734900E-004;
2.427500000000000E+009;1.480653285980225E-001;-1.258454322814941E-001;-7.625567377544940E-005;-9.806726593524218E-004;
2.427666666666667E+009;1.474567204713821E-001;-1.257408708333969E-001;-6.277215561567573E-006;-8.503529825247824E-004;
