# Version 1.00
#
freq[Hz];re:Trc1_S11;im:Trc1_S11;re:Trc2_S21;im:Trc2_S21;
2.400000000000000E+009;1.638149470090866E-001;5.163273587822914E-002;5.923483055084944E-003;2.352667739614844E-003;
2.400166666666667E+009;1.636709421873093E-001;4.988232254981995E-002;6.168931256979704E-003;2.225564327090979E-003;
2.400333333333334E+009;1.635002195835114E-001;4.812581837177277E-002;6.111834663897753E-003;1.924137352034450E-003;
2.400500000000000E+009;1.634111106395721E-001;4.632940888404846E-002;6.103585939854384E-003;2.116643590852618E-003;
2.400666666666667E+009;1.634044796228409E-001;4.447632282972336E-002;6.457438692450523E-003;1.773881027474999E-003;
2.400833333333334E+009;1.635247617959976E-001;4.270958527922630E-002;6.555707193911076E-003;1.693343976512551E-003;
2.401000000000000E+009;1.635792702436447E-001;4.081125557422638E-002;6.334097124636173E-003;1.441668951883912E-003;
2.401166666666667E+009;1.635892987251282E-001;3.887811675667763E-002;6.737269461154938E-003;1.170456293039024E-003;
2.401333333333334E+009;1.634710431098938E-001;3.675130754709244E-002;6.591213867068291E-003;1.144868787378073E-003;
2.401500000000000E+009;1.638610661029816E-001;3.480867668986321E-002;6.863556336611509E-003;8.402184466831386E-004;
2.401666666666667E+009;1.639434695243835E-001;3.307794407010078E-002;6.866403389722109E-003;5.594807444140315E-004;
2.401833333333334E+009;1.641411185264587E-001;3.102540224790573E-002;6.952332798391581E-003;4.169431049376726E-004;
2.402000000000000E+009;1.644101291894913E-001;2.903129532933235E-002;7.003429811447859E-003;2.907875459641218E-004;
2.402166666666667E+009;1.646973639726639E-001;2.715160883963108E-002;7.055812049657106E-003;-6.483140896307305E-005;
2.402333333333334E+009;1.650368124246597E-001;2.531455643475056E-002;7.175041828304529E-003;-4.315518890507519E-004;
2.402500000000000E+009;1.656622439622879E-001;2.354296855628490E-002;7.233788724988699E-003;-4.517640627454966E-004;
2.402666666666667E+009;1.660550981760025E-001;2.188557758927345E-002;7.283690385520458E-003;-9.506992646493018E-004;
2.402833333333334E+009;1.665736138820648E-001;2.024332433938980E-002;7.245973218232393E-003;-1.139137428253889E-003;
2.403000000000000E+009;1.670316457748413E-001;1.857080496847630E-002;7.331868167966604E-003;-1.342586008831859E-003;
2.403166666666667E+009;1.677258908748627E-001;1.709045283496380E-002;7.300385273993015E-003;-1.813579234294593E-003;
2.403333333333334E+009;1.683818697929382E-001;1.566918753087521E-002;7.193835917860270E-003;-2.094036433845758E-003;
2.403500000000000E+009;1.689887493848801E-001;1.410391367971897E-002;7.157248444855213E-003;-2.302195411175489E-003;
2.403666666666667E+009;1.696669310331345E-001;1.266033574938774E-002;7.103221025317907E-003;-2.794406143948436E-003;
2.403833333333334E+009;1.704702228307724E-001;1.136196963489056E-002;7.130288518965244E-003;-3.020198550075293E-003;
2.404000000000000E+009;1.713224053382874E-001;1.026086416095495E-002;7.083486765623093E-003;-3.264554776251316E-003;
2.404166666666667E+009;1.719561517238617E-001;9.072826243937016E-003;6.775659509003162E-003;-3.500504652038217E-003;
2.404333333333334E+009;1.725366115570068E-001;8.006579242646694E-003;6.798361893743277E-003;-4.232334438711405E-003;
2.404500000000000E+009;1.733513474464417E-001;6.999149452894926E-003;6.543126422911882E-003;-4.371581599116325E-003;
2.404666666666667E+009;1.741272062063217E-001;5.981029942631722E-003;6.366926711052656E-003;-4.701368045061827E-003;
2.404833333333334E+009;1.749299764633179E-001;5.168727133423090E-003;6.090937647968531E-003;-5.026100203394890E-003;
2.405000000000000E+009;1.756042242050171E-001;4.333445336669684E-003;5.918391980230808E-003;-5.352969747036696E-003;
2.405166666666667E+009;1.761458218097687E-001;3.478021128103137E-003;5.535975564271212E-003;-5.433236714452505E-003;
2.405333333333334E+009;1.769738793373108E-001;2.829844132065773E-003;5.294436123222113E-003;-5.775576457381249E-003;
2.405500000000000E+009;1.774055510759354E-001;2.362052677199245E-003;4.874578211456537E-003;-5.909652449190617E-003;
2.405666666666667E+009;1.779704689979553E-001;1.774216303601861E-003;4.679848905652762E-003;-6.207338068634272E-003;
2.405833333333334E+009;1.782465875148773E-001;1.478130114264786E-003;4.423531703650951E-003;-6.382759660482407E-003;
2.406000000000000E+009;1.788959354162216E-001;8.216942078433931E-004;4.072186537086964E-003;-6.384041160345078E-003;
2.406166666666667E+009;1.792153418064117E-001;7.204653811641038E-004;3.813451388850808E-003;-6.710828281939030E-003;
2.406333333333334E+009;1.796690076589584E-001;1.175018769572489E-004;3.411812707781792E-003;-6.603680085390806E-003;
2.406500000000000E+009;1.798638403415680E-001;-1.888397673610598E-004;3.068372374400497E-003;-6.855152547359467E-003;
2.406666666666667E+009;1.798824220895767E-001;-4.450015258044004E-004;2.893284894526005E-003;-6.943279877305031E-003;
2.406833333333334E+009;1.802286952733994E-001;-9.050377411767840E-004;2.441898919641972E-003;-6.933323107659817E-003;
2.407000000000000E+009;1.803179532289505E-001;-1.203469815663993E-003;2.216189168393612E-003;-6.899931468069553E-003;
2.407166666666667E+009;1.802527606487274E-001;-1.599648734554648E-003;1.850978471338749E-003;-7.019656244665384E-003;
2.407333333333334E+009;1.800622642040253E-001;-2.024977933615446E-003;1.500358805060387E-003;-6.987884175032377E-003;
2.407500000000000E+009;1.799243986606598E-001;-2.308585215359926E-003;1.354223582893610E-003;-6.835312582552433E-003;
2.407666666666667E+009;1.797890663146973E-001;-2.815179526805878E-003;1.127083902247250E-003;-7.009176537394524E-003;
2.407833333333334E+009;1.793493777513504E-001;-3.552786540240049E-003;8.335146703757346E-004;-6.819273810833693E-003;
2.408000000000000E+009;1.790959686040878E-001;-4.028902389109135E-003;5.720343906432390E-004;-6.814127787947655E-003;
2.408166666666667E+009;1.786205470561981E-001;-4.584403242915869E-003;2.836212224792689E-004;-6.898439954966307E-003;
2.408333333333334E+009;1.783649772405624E-001;-5.151374265551567E-003;4.001659817731706E-006;-6.668610498309135E-003;
2.408500000000000E+009;1.776898801326752E-001;-6.033573765307665E-003;-2.143749734386802E-004;-6.525700446218252E-003;
2.408666666666667E+009;1.772375404834747E-001;-6.711422931402922E-003;-4.238869878463447E-004;-6.532667670398951E-003;
2.408833333333334E+009;1.764981895685196E-001;-7.631658110767603E-003;-5.904067656956613E-004;-6.301040761172772E-003;
2.409000000000000E+009;1.759392917156220E-001;-8.638939820230007E-003;-9.257738711312413E-004;-6.304061971604824E-003;
2.409166666666667E+009;1.751728951931000E-001;-9.742390364408493E-003;-1.108878757804632E-003;-6.103035993874073E-003;
2.409333333333334E+009;1.745264232158661E-001;-1.090037077665329E-002;-1.380179193802178E-003;-6.045971065759659E-003;
2.409500000000000E+009;1.739054918289185E-001;-1.214913278818131E-002;-1.520104357041419E-003;-5.872010719031096E-003;
2.409666666666667E+009;1.729849576950073E-001;-1.332624908536673E-002;-1.510490314103663E-003;-5.842419341206551E-003;
2.409833333333334E+009;1.723814457654953E-001;-1.460019126534462E-002;-1.764213433489204E-003;-5.671643652021885E-003;
2.410000000000000E+009;1.718679070472717E-001;-1.601534709334374E-002;-1.939219073392451E-003;-5.387656390666962E-003;
2.410166666666667E+009;1.711554676294327E-001;-1.747034117579460E-002;-1.893977401778102E-003;-5.396024789661169E-003;
2.410333333333334E+009;1.703652441501617E-001;-1.898760162293911E-002;-2.069607609882951E-003;-5.152057856321335E-003;
2.410500000000000E+009;1.698260456323624E-001;-2.049580961465836E-002;-2.306741895154119E-003;-5.092092789709568E-003;
2.410666666666667E+009;1.692008078098297E-001;-2.250507846474648E-002;-2.415961585938931E-003;-4.979519639164209E-003;
2.410833333333334E+009;1.687526255846024E-001;-2.393362112343311E-002;-2.442046999931335E-003;-4.727043211460114E-003;
2.411000000000000E+009;1.683366447687149E-001;-2.586220949888229E-002;-2.610599854961038E-003;-4.757951945066452E-003;
2.411166666666667E+009;1.677598506212235E-001;-2.757733128964901E-002;-2.641561208292842E-003;-4.554999526590109E-003;
2.411333333333334E+009;1.674440056085587E-001;-2.948048152029514E-002;-2.848982345312834E-003;-4.398284945636988E-003;
2.411500000000000E+009;1.670165807008743E-001;-3.141985833644867E-002;-2.863050671294332E-003;-4.506487865000963E-003;
2.411666666666667E+009;1.668616384267807E-001;-3.320586308836937E-002;-2.847972093150020E-003;-4.359535872936249E-003;
2.411833333333334E+009;1.666374355554581E-001;-3.512258827686310E-002;-2.903370652347803E-003;-4.241716116666794E-003;
2.412000000000000E+009;1.665952056646347E-001;-3.714153915643692E-002;-3.107510274276137E-003;-4.146941937506199E-003;
2.412166666666667E+009;1.663190126419067E-001;-3.888313844799995E-002;-3.062533214688301E-003;-4.007427953183651E-003;
2.412333333333334E+009;1.666331738233566E-001;-4.080716893076897E-002;-3.122364403679967E-003;-3.892194246873260E-003;
2.412500000000000E+009;1.663296818733215E-001;-4.270325228571892E-002;-3.357990644872189E-003;-3.753022989258170E-003;
2.412666666666667E+009;1.665357500314713E-001;-4.463234543800354E-002;-3.368472214788199E-003;-3.669435624033213E-003;
2.412833333333334E+009;1.666988581418991E-001;-4.652169719338417E-002;-3.450731746852398E-003;-3.630724269896746E-003;
2.413000000000000E+009;1.669573634862900E-001;-4.815164953470230E-002;-3.479523118585348E-003;-3.365891519933939E-003;
2.413166666666667E+009;1.671682000160217E-001;-4.995635896921158E-002;-3.738767234608531E-003;-3.361090552061796E-003;
2.413333333333334E+009;1.673104017972946E-001;-5.159760639071465E-002;-3.755316603928804E-003;-3.265449311584234E-003;
2.413500000000000E+009;1.678408533334732E-001;-5.341989547014237E-002;-3.779219929128885E-003;-3.210511989891529E-003;
2.413666666666667E+009;1.680283099412918E-001;-5.500677600502968E-002;-3.787688212469220E-003;-3.002011915668845E-003;
2.413833333333334E+009;1.684990227222443E-001;-5.650288611650467E-002;-3.897959133610129E-003;-2.962630242109299E-003;
2.414000000000000E+009;1.687394529581070E-001;-5.788507312536240E-002;-3.844872117042542E-003;-2.743028569966555E-003;
2.414166666666667E+009;1.692932695150375E-001;-5.916494131088257E-002;-4.069821909070015E-003;-2.564898692071438E-003;
2.414333333333334E+009;1.697376519441605E-001;-6.040069833397865E-002;-4.146375693380833E-003;-2.519600559026003E-003;
2.414500000000000E+009;1.703423857688904E-001;-6.166036799550057E-002;-4.046666901558638E-003;-2.325420267879963E-003;
2.414666666666667E+009;1.706644743680954E-001;-6.258547306060791E-002;-4.142792429775000E-003;-2.267104806378484E-003;
2.414833333333334E+009;1.710649281740189E-001;-6.377311050891876E-002;-4.287446849048138E-003;-2.092896495014429E-003;
2.415000000000000E+009;1.714488565921783E-001;-6.460887938737869E-002;-4.309609532356262E-003;-2.023571636527777E-003;
2.415166666666667E+009;1.717104166746140E-001;-6.549412757158279E-002;-4.226587247103453E-003;-1.894786255434156E-003;
2.415333333333334E+009;1.721755862236023E-001;-6.630677729845047E-002;-4.267148207873106E-003;-1.774634351022542E-003;
2.415500000000000E+009;1.725936233997345E-001;-6.699725240468979E-002;-4.519444890320301E-003;-1.816011383198202E-003;
2.415666666666667E+009;1.725838929414749E-001;-6.735334545373917E-002;-4.436776507645845E-003;-1.635754597373307E-003;
2.415833333333334E+009;1.729790568351746E-001;-6.808865815401077E-002;-4.728157073259354E-003;-1.523916842415929E-003;
2.416000000000000E+009;1.729061156511307E-001;-6.856559216976166E-002;-4.646993707865477E-003;-1.256036688573659E-003;
2.416166666666667E+009;1.732730418443680E-001;-6.895227730274200E-002;-4.796711727976799E-003;-1.057180576026440E-003;
2.416333333333334E+009;1.731232851743698E-001;-6.931891292333603E-002;-4.791690967977047E-003;-1.130749238654971E-003;
2.416500000000000E+009;1.731187701225281E-001;-6.972613930702210E-002;-4.771230276674032E-003;-9.541232138872147E-004;
2.416666666666667E+009;1.728349775075913E-001;-6.989338248968124E-002;-4.722254350781441E-003;-7.574022165499628E-004;
2.416833333333334E+009;1.727421879768372E-001;-7.038966566324234E-002;-4.832723177969456E-003;-6.056289421394467E-004;
2.417000000000000E+009;1.722982674837112E-001;-7.043419033288956E-002;-4.853283986449242E-003;-5.025860155001283E-004;
2.417166666666667E+009;1.719398796558380E-001;-7.055948674678803E-002;-4.797368776053190E-003;-3.165360249113292E-004;
2.417333333333334E+009;1.714604943990707E-001;-7.078593224287033E-002;-4.890833050012589E-003;-1.260355493286625E-004;
2.417500000000000E+009;1.708710789680481E-001;-7.130824029445648E-002;-4.835712723433971E-003;-6.106688670115545E-005;
2.417666666666667E+009;1.703712642192841E-001;-7.131961733102799E-002;-4.797172732651234E-003;1.858418254414573E-004;
2.417833333333334E+009;1.695713996887207E-001;-7.151649892330170E-002;-4.687544889748097E-003;3.882364835590124E-004;
2.418000000000000E+009;1.687868535518646E-001;-7.191246002912521E-002;-4.753127228468657E-003;4.219443944748491E-004;
2.418166666666667E+009;1.677794605493546E-001;-7.203292101621628E-002;-4.634778946638107E-003;6.897566490806639E-004;
2.418333333333334E+009;1.670826226472855E-001;-7.236935198307037E-002;-4.811093676835299E-003;8.990208152681589E-004;
2.418500000000000E+009;1.659228205680847E-001;-7.282410562038422E-002;-4.692741204053164E-003;8.504635188728571E-004;
2.418666666666667E+009;1.649989187717438E-001;-7.319814711809158E-002;-4.647899884730578E-003;1.130100106820464E-003;
2.418833333333334E+009;1.637904942035675E-001;-7.358388602733612E-002;-4.432009533047676E-003;1.156792161054909E-003;
2.419000000000000E+009;1.626273095607758E-001;-7.399706542491913E-002;-4.372386261820793E-003;1.201431150548160E-003;
2.419166666666667E+009;1.613752394914627E-001;-7.477929443120956E-002;-4.410279914736748E-003;1.445507747121155E-003;
2.419333333333334E+009;1.602057814598084E-001;-7.520543783903122E-002;-4.407073836773634E-003;1.661946531385183E-003;
2.419500000000000E+009;1.590097695589066E-001;-7.601215690374374E-002;-4.375321790575981E-003;1.741373329423368E-003;
2.419666666666667E+009;1.579137295484543E-001;-7.691870629787445E-002;-4.264735151082277E-003;1.728410134091973E-003;
2.419833333333334E+009;1.564172804355621E-001;-7.765856385231018E-002;-4.217498470097780E-003;1.984251197427511E-003;
2.420000000000000E+009;1.554899364709854E-001;-7.857716828584671E-002;-4.119527060538530E-003;2.146471058949828E-003;
2.420166666666667E+009;1.541431993246079E-001;-7.949605584144592E-002;-4.011665005236864E-003;2.228863770142198E-003;
2.420333333333334E+009;1.532005369663239E-001;-8.076752722263336E-002;-3.939527552574873E-003;2.333030570298433E-003;
2.420500000000000E+009;1.519871503114700E-001;-8.164108544588089E-002;-3.902725176885724E-003;2.460524672642350E-003;
2.420666666666667E+009;1.509269624948502E-001;-8.294828236103058E-002;-3.754197852686048E-003;2.605535089969635E-003;
2.420833333333334E+009;1.498549431562424E-001;-8.429782837629318E-002;-3.590341657400131E-003;2.681432291865349E-003;
2.421000000000000E+009;1.488570719957352E-001;-8.568803220987320E-002;-3.525979816913605E-003;2.748108236119151E-003;
2.421166666666667E+009;1.480459272861481E-001;-8.702928572893143E-002;-3.359979251399636E-003;2.802310977131128E-003;
2.421333333333334E+009;1.471545398235321E-001;-8.865132927894592E-002;-3.240584628656507E-003;2.971029374748468E-003;
2.421500000000000E+009;1.462606191635132E-001;-9.012074768543243E-002;-3.286746796220541E-003;2.957488875836134E-003;
2.421666666666667E+009;1.456908881664276E-001;-9.158053249120712E-002;-3.097354434430599E-003;3.270744811743498E-003;
2.421833333333334E+009;1.451050043106079E-001;-9.345314651727676E-002;-2.980232005938888E-003;3.074720269069076E-003;
2.422000000000000E+009;1.444156616926193E-001;-9.493646770715714E-002;-2.749509410932660E-003;3.263487946242094E-003;
2.422166666666667E+009;1.440522670745850E-001;-9.683182090520859E-002;-2.685646060854197E-003;3.340905066579580E-003;
2.422333333333334E+009;1.435854882001877E-001;-9.839902073144913E-002;-2.733126515522599E-003;3.374141873791814E-003;
2.422500000000000E+009;1.433237344026566E-001;-9.995716065168381E-002;-2.531756414100528E-003;3.469109302386642E-003;
2.422666666666667E+009;1.430683583021164E-001;-1.017968952655792E-001;-2.322744578123093E-003;3.420577617362142E-003;
2.422833333333334E+009;1.430461853742600E-001;-1.034733876585960E-001;-2.276582876220346E-003;3.490220755338669E-003;
2.423000000000000E+009;1.429240405559540E-001;-1.051082760095596E-001;-1.952664111740887E-003;3.610039828345180E-003;
2.423166666666667E+009;1.431169062852860E-001;-1.069000437855721E-001;-1.908097532577813E-003;3.587703453376889E-003;
2.423333333333334E+009;1.430863440036774E-001;-1.083434224128723E-001;-1.696449122391641E-003;3.716775914654136E-003;
2.423500000000000E+009;1.433090120553970E-001;-1.101511418819428E-001;-1.775254611857235E-003;3.635308938100934E-003;
2.423666666666667E+009;1.433051824569702E-001;-1.117473766207695E-001;-1.558232354000211E-003;3.612325992435217E-003;
2.423833333333334E+009;1.437060236930847E-001;-1.132232099771500E-001;-1.296838279813528E-003;3.592022927477956E-003;
2.424000000000000E+009;1.437936127185822E-001;-1.144853979349136E-001;-1.235771691426635E-003;3.643314354121685E-003;
2.424166666666667E+009;1.440877318382263E-001;-1.160069704055786E-001;-1.200847327709198E-003;3.645216580480337E-003;
2.424333333333334E+009;1.446255892515183E-001;-1.171436980366707E-001;-1.002725912258029E-003;3.787369234487414E-003;
2.424500000000000E+009;1.447889804840088E-001;-1.184201911091805E-001;-1.194062293507159E-003;3.710691351443529E-003;
2.424666666666667E+009;1.452984511852264E-001;-1.195446923375130E-001;-1.009574742056429E-003;3.684938419610262E-003;
2.424833333333334E+009;1.455076187849045E-001;-1.206722185015678E-001;-8.977838442660868E-004;3.754669567570090E-003;
2.425000000000000E+009;1.459942013025284E-001;-1.216416954994202E-001;-4.959205980412662E-004;3.675682935863733E-003;
2.425166666666667E+009;1.462764292955399E-001;-1.225452125072479E-001;-4.970087320543826E-004;3.544032340869308E-003;
2.425333333333334E+009;1.466876864433289E-001;-1.233864948153496E-001;-5.539193516597152E-004;3.858022624626756E-003;
2.425500000000000E+009;1.469017118215561E-001;-1.240900009870529E-001;-4.354066040832549E-004;3.668164601549506E-003;
2.425666666666667E+009;1.470327079296112E-001;-1.247238740324974E-001;-3.298781812191010E-004;3.794804215431213E-003;
2.425833333333334E+009;1.473829597234726E-001;-1.252738833427429E-001;-1.271033834200352E-004;3.681179601699114E-003;
2.426000000000000E+009;1.475038081407547E-001;-1.259224265813828E-001;-2.098619297612459E-004;3.598402952775359E-003;
2.426166666666667E+009;1.477898806333542E-001;-1.262402534484863E-001;6.244919495657086E-005;3.713318146765232E-003;
2.426333333333334E+009;1.478214710950851E-001;-1.266699880361557E-001;-5.218922524363734E-005;3.573837690055370E-003;
2.426500000000000E+009;1.478341668844223E-001;-1.268341392278671E-001;7.664331496926025E-005;3.614609129726887E-003;
2.426666666666667E+009;1.478591114282608E-001;-1.269658952951431E-001;2.260906621813774E-004;3.611555090174079E-003;
2.426833333333334E+009;1.477100551128388E-001;-1.270768195390701E-001;4.300027503632009E-004;3.554063849151135E-003;
2.427000000000000E+009;1.474187970161438E-001;-1.272449642419815E-001;4.756246344186366E-004;3.549730870872736E-003;
2.427166666666667E+009;1.471512019634247E-001;-1.272808611392975E-001;6.963342893868685E-004;3.412506775930524E-003;
2.427333333333334E+009;1.465825140476227E-001;-1.272309422492981E-001;7.496729958802462E-004;3.537726355716586E-003;
2.427500000000000E+009;1.461805999279022E-001;-1.272390037775040E-001;8.407317800447345E-004;3.329940373077989E-003;
2.427666666666667E+009;1.456152349710465E-001;-1.272156834602356E-001;9.180390625260770E-004;3.397761378437281E-003;
